2.5085433947612956 -0.1242691576218674
2.2000776652982053 -0.19930291698515076
1.875376897442321 -0.3193569319664042
1.7130265135143787 -0.6344987212921943
1.591263725568422 -1.204755292453148
1.4532658992296714 -1.985106389831295
1.3071505536945234 -2.5853764647375623
1.1529176889629782 -2.6604102241008456
0.982449785838639 -2.3452684347750554
0.763276767535917 -2.045133397321922
0.5035161532512095 -1.8950658785953551
0.25999057735929615 -1.8800591267226985
0.008347482270985734 -1.8350388711047283
-0.194590497638942 -1.7299916079961317
-0.38129343915607555 -1.6999781042508184
-0.5923489382624004 -1.6849713523781615
-0.8439920333507108 -1.6999781042508184
-1.1281052052246097 -1.7299916079961317
-1.3229256659381403 -1.7449983598687884
-1.5583337226336564 -1.7449983598687884
-1.7612717025435842 -1.760005111741445
-2.0129147976318946 -1.7900186154867583
-2.199617739149028 -1.8200321192320716
-2.394438199862559 -1.8350388711047283
-2.499965949415721 -1.805025367359415
-2.6136112181652806 -1.7900186154867583
-2.6866688909328547 -1.7900186154867583
-2.8084316788788115 -1.805025367359415
-2.8652543132535913 -1.850045622977385
-2.946429505217562 -1.8800591267226985
-2.9788995820031507 -1.8800591267226985
-2.946429505217562 -1.8350388711047283
-2.8814893516463855 -1.8200321192320716
-2.8165491980752084 -1.850045622977385
-2.7840791212896203 -1.8950658785953551
-2.7353740061112375 -1.940086134213325
-2.6623163333436635 -2.0151198935766086
-2.5324360262013097 -2.075146901067235
-2.329498046291382 -2.120167156685205
-2.0859724703994686 -2.165187412303175
-1.8505644137039525 -2.2402211716664584
-1.6313913954012305 -2.2402211716664584
-1.4609234922768912 -2.180194164175832
-1.2904555891525518 -2.045133397321922
-1.1849278395993894 -1.9550928860859818
-1.1281052052246097 -1.850045622977385
-1.0225774556714473 -1.8200321192320716
-0.933284744511079 -1.805025367359415
-0.8196394757615195 -1.6999781042508184
-0.6654066110299744 -1.579924089269565
-0.5355263038876207 -1.4448633224156548
-0.4299985543344582 -1.339816059307058
-0.30823576638850153 -1.2497755480711181
-0.2838832087993102 -1.0997080293445514
-0.1783554592461478 -0.9646472624906413
-0.0971802672821767 -0.7995729918914178
0.016465001467382844 -0.6645122250375077
0.10575771262775105 -0.5444582100562543
0.1544628278061337 -0.45441769882031424
0.21128546218091349 -0.3643771875843742
0.26810809655569323 -0.22931642073046413
0.3330482501268701 -0.1242691576218674
0.397988403698047 -0.0642421501312407
0.43045848048363544 -0.03422864638592735
0.43045848048363544 -0.004215142640613995
0.4142234420908412 0.025798361104699356
0.4385759996800326 0.07081861672266938
0.4629285572692239 0.1158388723406394
0.5116336724476066 0.16085912795860943
0.5197511916440036 0.17586587983126611
0.5197511916440036 0.17586587983126611
0.5116336724476066 0.14585237608595275
0.5116336724476066 0.17586587983126611
0.5197511916440036 0.2358928873218928
0.544103749233195 0.2508996391945495
0.5684563068223863 0.2358928873218928
0.5684563068223863 0.2358928873218928
0.5359862300367979 0.20587938357657945
0.5846913452151805 0.26590639106720615
0.6333964603935632 0.31092664668517617
0.6658665371791517 0.34094015043048953
0.6821015755719458 0.3259333985578329
0.690219094768343 0.3259333985578329
0.6739840563755488 0.31092664668517617
0.690219094768343 0.3259333985578329
0.7389242099467256 0.35594690230314624
0.8038643635179025 0.38596040604845955
0.844451959499888 0.38596040604845955
0.8688045170890794 0.38596040604845955
0.8769220362854765 0.35594690230314624
0.8931570746782708 0.40096715792111626
0.9175096322674621 0.40096715792111626
0.9499797090530505 0.4159739097937729
0.9905673050350361 0.4159739097937729
1.0230373818206244 0.3709536541758029
1.0636249778026101 0.35594690230314624
1.0960950545881984 0.35594690230314624
1.1204476121773899 0.40096715792111626
1.1691527273557725 0.4159739097937729
1.1772702465521696 0.4159739097937729
1.1935052849449639 0.43098066166642957
1.209740323337758 0.4159739097937729
1.2503279193197436 0.43098066166642957
1.2990330344981262 0.47600091728439964
1.355855668872906 0.506014421029713
1.3802082264620974 0.47600091728439964
1.3883257456584945 0.4910076691570563
1.4126783032476857 0.506014421029713
1.4695009376224655 0.5360279247750264
1.5344410911936424 0.551034676647683
1.5993812447648192 0.6260684360109664
1.648086359943202 0.6710886916289364
1.6805564367287904 0.641075187883623
1.6805564367287904 0.6260684360109664
1.7211440327107759 0.6710886916289364
1.7779666670855556 0.7161089472469064
1.8185542630675413 0.7311156991195631
1.8266717822639384 0.7611292028648764
1.8429068206567325 0.7761359547375332
1.8266717822639384 0.7611292028648764
1.8429068206567325 0.7911427066101898
1.8834944166387182 0.8511697141008165
1.9321995318171008 0.8661764659734732
1.948434570209895 0.8961899697187865
1.9159644934243065 0.8961899697187865
1.8916119358351153 0.8661764659734732
1.8916119358351153 0.9412102253367566
1.8916119358351153 0.9562169772094132
1.8997294550315125 0.9862304809547265
1.8591418590495268 1.01624398470004
1.8266717822639384 0.9862304809547265
1.7860841862819528 0.9862304809547265
1.7454965902999673 1.0012372328273833
1.7130265135143787 1.0312507365726966
1.6886739559251875 1.06126424031801
1.6318513215504078 1.0312507365726966
1.5344410911936424 0.9712237290820699
1.4857359760152598 0.9262034734640999
1.4045607840512886 0.9262034734640999
1.355855668872906 0.9412102253367566
1.282797996105332 0.9111967215914432
1.1935052849449639 0.8661764659734732
1.0879775353918013 0.7611292028648764
0.9580972282494477 0.7461224509922197
0.8525694786962852 0.7161089472469064
0.763276767535917 0.686095443501593
0.7145716523575343 0.7011021953742498
0.6577490179827545 0.6260684360109664
0.5846913452151805 0.551034676647683
0.5035161532512095 0.506014421029713
0.42234096128723836 0.4910076691570563
0.3736358461088557 0.47600091728439964
0.3168132117340759 0.4459874135390863
0.27622561575209037 0.43098066166642957
0.19505042378811926 0.38596040604845955
0.13011027021694238 0.3259333985578329
0.09764019343135394 0.31092664668517617
0.08140515503855972 0.2959198948125195
0.05705259744936839 0.28091314293986286
0.024582520663779955 0.28091314293986286
0.008347482270985734 0.2508996391945495
-0.032240113710999815 0.22088613544923613
-0.08094522888938248 0.22088613544923613
-0.06471019049658826 0.1908726317039228
-0.07282770969298537 0.20587938357657945
-0.06471019049658826 0.1908726317039228
-0.0971802672821767 0.16085912795860943
-0.12965034406776513 0.1308456242132961
-0.16212042085335357 0.1308456242132961
-0.16212042085335357 0.14585237608595275
-0.14588538246055935 0.17586587983126611
-0.14588538246055935 0.16085912795860943
-0.15400290165695646 0.14585237608595275
-0.17023794004975068 0.1158388723406394
-0.194590497638942 0.1308456242132961
-0.16212042085335357 0.14585237608595275
-0.14588538246055935 0.14585237608595275
-0.14588538246055935 0.14585237608595275
-0.14588538246055935 0.14585237608595275
-0.16212042085335357 0.1158388723406394
-0.17023794004975068 0.1308456242132961
-0.12153282487136803 0.14585237608595275
-0.0971802672821767 0.17586587983126611
-0.07282770969298537 0.17586587983126611
-0.08906274808577959 0.1158388723406394
-0.08094522888938248 0.10083212046798273
-0.11341530567497092 0.07081861672266938
-0.13776786326416224 0.07081861672266938
-0.15400290165695646 0.10083212046798273
-0.1783554592461478 0.08582536859532605
-0.17023794004975068 0.05581186485001271
-0.194590497638942 0.025798361104699356
-0.21894305522813334 0.05581186485001271
-0.21082553603173623 0.05581186485001271
-0.20270801683533912 0.05581186485001271
-0.21894305522813334 0.05581186485001271
-0.2595306512101189 0.040805112977356034
-0.2838832087993102 0.040805112977356034
-0.30823576638850153 0.05581186485001271
-0.32447080478129575 0.07081861672266938
-0.2838832087993102 0.07081861672266938
-0.2838832087993102 0.05581186485001271
-0.30011824719210445 0.040805112977356034
-0.32447080478129575 0.025798361104699356
-0.34070584317409 0.05581186485001271
-0.30823576638850153 0.07081861672266938
-0.2838832087993102 0.1158388723406394
-0.27576568960291314 0.1158388723406394
-0.2838832087993102 0.08582536859532605
-0.32447080478129575 0.07081861672266938
-0.32447080478129575 0.08582536859532605
-0.30823576638850153 0.08582536859532605
-0.2920007279957073 0.1158388723406394
-0.27576568960291314 0.08582536859532605
-0.2838832087993102 0.08582536859532605
-0.32447080478129575 0.08582536859532605
-0.3325883239776929 0.10083212046798273
-0.30823576638850153 0.10083212046798273
-0.27576568960291314 0.1158388723406394
-0.267648170406516 0.1158388723406394
-0.2838832087993102 0.10083212046798273
-0.31635328558489867 0.08582536859532605
-0.2920007279957073 0.08582536859532605
-0.2920007279957073 0.10083212046798273
-0.2595306512101189 0.14585237608595275
-0.22706057442453045 0.1308456242132961
-0.2514131320137218 0.07081861672266938
-0.2595306512101189 0.05581186485001271
-0.24329561281732467 0.05581186485001271
-0.21894305522813334 0.07081861672266938
-0.21082553603173623 0.08582536859532605
-0.23517809362092756 0.040805112977356034
-0.2514131320137218 0.025798361104699356
-0.2920007279957073 -0.03422864638592735
-0.31635328558489867 -0.01922189451327067
-0.31635328558489867 -0.004215142640613995
-0.2838832087993102 0.01079160923204268
-0.2920007279957073 0.040805112977356034
-0.32447080478129575 0.025798361104699356
-0.34070584317409 -0.004215142640613995
-0.3325883239776929 0.01079160923204268
-0.31635328558489867 0.025798361104699356
-0.31635328558489867 0.040805112977356034
-0.34070584317409 0.05581186485001271
-0.3488233623704871 0.025798361104699356
-0.38941095835247264 0.01079160923204268
-0.38129343915607555 0.025798361104699356
-0.38129343915607555 0.040805112977356034
-0.38129343915607555 0.07081861672266938
-0.3731759199596784 0.05581186485001271
-0.38941095835247264 0.025798361104699356
-0.3975284775488698 0.025798361104699356
-0.38129343915607555 0.040805112977356034
-0.36505840076328133 0.05581186485001271
-0.3325883239776929 0.07081861672266938
-0.3488233623704871 0.07081861672266938
-0.3569408815668842 0.05581186485001271
-0.38129343915607555 0.040805112977356034
-0.38941095835247264 0.040805112977356034
-0.3569408815668842 0.07081861672266938
-0.3325883239776929 0.08582536859532605
-0.3325883239776929 0.07081861672266938
-0.3488233623704871 0.07081861672266938
-0.36505840076328133 0.07081861672266938
-0.3488233623704871 0.05581186485001271
-0.32447080478129575 0.10083212046798273
-0.30823576638850153 0.1158388723406394
-0.30011824719210445 0.10083212046798273
-0.30823576638850153 0.05581186485001271
-0.3488233623704871 0.040805112977356034
-0.34070584317409 0.040805112977356034
-0.32447080478129575 0.07081861672266938
-0.2838832087993102 0.07081861672266938
-0.267648170406516 0.07081861672266938
-0.30011824719210445 0.040805112977356034
-0.32447080478129575 -0.004215142640613995
-0.3325883239776929 0.025798361104699356
-0.2920007279957073 0.040805112977356034
-0.267648170406516 0.040805112977356034
-0.27576568960291314 0.01079160923204268
-0.2920007279957073 -0.01922189451327067
-0.2920007279957073 -0.04923539825858402
-0.31635328558489867 -0.03422864638592735
-0.2920007279957073 -0.01922189451327067
-0.2838832087993102 -0.004215142640613995
-0.2838832087993102 -0.004215142640613995
-0.30823576638850153 -0.01922189451327067
-0.3325883239776929 -0.004215142640613995
-0.3325883239776929 -0.004215142640613995
-0.32447080478129575 -0.004215142640613995
-0.30011824719210445 0.01079160923204268
-0.31635328558489867 -0.004215142640613995
-0.34070584317409 -0.03422864638592735
-0.3488233623704871 -0.04923539825858402
-0.34070584317409 -0.01922189451327067
-0.27576568960291314 -0.01922189451327067
-0.22706057442453045 0.01079160923204268
-0.17023794004975068 -0.01922189451327067
-0.12153282487136803 -0.0642421501312407
0.04081755905657417 -0.04923539825858402
0.3898708845016499 -0.04923539825858402
1.0068023434278304 -0.03422864638592735
1.7860841862819528 -0.01922189451327067
2.3624280492261476 -0.03422864638592735
2.476073317975707 -0.10926240574921073
2.15949006931622 -0.21430966885780744
1.8104367438711442 -0.3043501800937475
1.5506761295864366 -0.5894784656742244
1.4695009376224655 -1.114714781217208
1.3883257456584945 -1.940086134213325
1.2503279193197436 -2.6303967203555323
1.0798600161954042 -2.825484494700069
0.9337446706602562 -2.5253494572469353
0.7876293251251083 -2.120167156685205
0.6252789411971661 -1.8800591267226985
0.4142234420908412 -1.7750118636141017
0.18693290459172215 -1.760005111741445
-0.040357632907396926 -1.7299916079961317
-0.2514131320137218 -1.6849713523781615
-0.40564599674526686 -1.6699646005055049
-0.6085839766551946 -1.624944344887535
-0.7952869181723281 -1.6549578486328482
-1.0631650516534328 -1.6849713523781615
-1.306690627545346 -1.7449983598687884
-1.5664512418300536 -1.7900186154867583
-1.7937417793291728 -1.760005111741445
-2.021032316828292 -1.7750118636141017
-2.2158527775418224 -1.7750118636141017
-2.3782031614697647 -1.8350388711047283
-2.548671064594104 -1.850045622977385
-2.6866688909328547 -1.805025367359415
-2.800314159682414 -1.7750118636141017
-2.89772439003918 -1.7900186154867583
-2.9788995820031507 -1.8200321192320716
-3.0519572547707248 -1.850045622977385
-3.1087798891455045 -1.8950658785953551
-3.1574850043238873 -1.8950658785953551
-3.1168974083419014 -1.8800591267226985
-3.043839735574328 -1.8650523748500418
-2.9545470244139596 -1.940086134213325
-2.8652543132535913 -2.0301266454492652
-2.7921966404860172 -2.120167156685205
-2.629846256558075 -2.165187412303175
-2.426908276648147 -2.180194164175832
-2.183382700756234 -2.210207667921145
-1.9398571248643206 -2.2402211716664584
-1.7206841065615988 -2.2552279235391155
-1.5339811650444652 -2.2252144197938017
-1.444688453884097 -2.1051604048125485
-1.3635132619201258 -1.985106389831295
-1.2823380699561548 -1.8800591267226985
-1.217397916384978 -1.850045622977385
-1.1281052052246097 -1.8200321192320716
-1.0550475324570356 -1.760005111741445
-0.9657548212966675 -1.6399510967601916
-0.8358745141543137 -1.5198970817789381
-0.7141117262083571 -1.3548228111797147
-0.5679963806732091 -1.2497755480711181
-0.48682118870923796 -1.114714781217208
-0.36505840076328133 -1.0246742699812679
-0.2595306512101189 -0.8445932475093878
-0.12965034406776513 -0.6795189769101644
-0.007887556121808486 -0.5294514581835976
0.06517011664576551 -0.4093974432023442
0.1463453086097366 -0.33436368383906084
0.18693290459172215 -0.27433667634843417
0.20316794298451638 -0.1842961651124941
0.27622561575209037 -0.10926240574921073
0.34116576932326725 -0.04923539825858402
0.3574008077160615 0.01079160923204268
0.3574008077160615 0.025798361104699356
0.3330482501268701 0.01079160923204268
0.34116576932326725 0.07081861672266938
0.3817533653052528 0.08582536859532605
0.3898708845016499 0.16085912795860943
0.3736358461088557 0.16085912795860943
0.397988403698047 0.14585237608595275
0.3817533653052528 0.14585237608595275
0.36551832691245856 0.16085912795860943
0.4142234420908412 0.17586587983126611
0.471046076465621 0.2358928873218928
0.4953986340548123 0.2358928873218928
0.4953986340548123 0.22088613544923613
0.48728111485841524 0.2358928873218928
0.4953986340548123 0.2508996391945495
0.544103749233195 0.2959198948125195
0.5522212684295921 0.34094015043048953
0.5846913452151805 0.34094015043048953
0.617161422000769 0.3709536541758029
0.5928088644115777 0.35594690230314624
0.617161422000769 0.40096715792111626
0.6496314987863574 0.43098066166642957
0.690219094768343 0.4459874135390863
0.7145716523575343 0.4459874135390863
0.7470417291431227 0.43098066166642957
0.7551592483395199 0.43098066166642957
0.771394286732314 0.46099416541174293
0.8282169211070939 0.4910076691570563
0.8850395554818736 0.5360279247750264
0.9337446706602562 0.5210211729023696
0.9418621898566534 0.5210211729023696
0.9093921130710649 0.4910076691570563
0.9662147474458447 0.506014421029713
1.0149198626242273 0.551034676647683
1.0879775353918013 0.5660414285203397
1.144800169766581 0.5660414285203397
1.1691527273557725 0.5360279247750264
1.1691527273557725 0.506014421029713
1.209740323337758 0.5210211729023696
1.282797996105332 0.5360279247750264
1.3883257456584945 0.5810481803929963
1.42891334164048 0.551034676647683
1.4695009376224655 0.5360279247750264
1.4857359760152598 0.5360279247750264
1.5425586103900395 0.5210211729023696
1.6074987639612164 0.5810481803929963
1.6643213983359961 0.641075187883623
1.6967914751215847 0.6560819397562797
1.6967914751215847 0.6710886916289364
1.6886739559251875 0.641075187883623
1.7130265135143787 0.6710886916289364
1.7454965902999673 0.7011021953742498
1.8104367438711442 0.7461224509922197
1.8429068206567325 0.7311156991195631
1.867259378245924 0.7311156991195631
1.867259378245924 0.7611292028648764
1.875376897442321 0.7761359547375332
1.8834944166387182 0.8511697141008165
1.8916119358351153 0.9111967215914432
1.8916119358351153 0.8961899697187865
1.8429068206567325 0.8961899697187865
1.8510243398531296 0.8961899697187865
1.8429068206567325 0.9562169772094132
1.8185542630675413 0.9412102253367566
1.802319224674747 0.9862304809547265
1.7860841862819528 0.9862304809547265
1.7373790711035701 0.9712237290820699
1.6643213983359961 0.9862304809547265
1.6074987639612164 0.9712237290820699
1.5506761295864366 1.0012372328273833
1.5263235719972452 1.0012372328273833
1.4451483800332743 0.9712237290820699
1.355855668872906 0.9412102253367566
1.2584454385161408 0.8961899697187865
1.1691527273557725 0.9262034734640999
1.1366826505701841 0.8961899697187865
1.0473899394098158 0.9111967215914432
1.0149198626242273 0.8661764659734732
0.9337446706602562 0.7911427066101898
0.8038643635179025 0.7461224509922197
0.7308066907503286 0.7011021953742498
0.6821015755719458 0.686095443501593
0.6496314987863574 0.6260684360109664
0.5765738260187835 0.5810481803929963
0.48728111485841524 0.47600091728439964
0.3817533653052528 0.43098066166642957
0.3005781733412817 0.40096715792111626
0.23563801977010482 0.38596040604845955
0.21128546218091349 0.3709536541758029
0.17069786619892793 0.34094015043048953
0.08952267423495683 0.31092664668517617
0.05705259744936839 0.26590639106720615
0.024582520663779955 0.2508996391945495
0.024582520663779955 0.2358928873218928
0.05705259744936839 0.2358928873218928
0.008347482270985734 0.17586587983126611
-0.032240113710999815 0.16085912795860943
-0.06471019049658826 0.1308456242132961
-0.0971802672821767 0.1308456242132961
-0.08906274808577959 0.16085912795860943
-0.07282770969298537 0.16085912795860943
-0.08094522888938248 0.14585237608595275
-0.10529778647857381 0.10083212046798273
-0.10529778647857381 0.10083212046798273
-0.15400290165695646 0.1158388723406394
-0.10529778647857381 0.14585237608595275
-0.10529778647857381 0.16085912795860943
-0.12965034406776513 0.14585237608595275
-0.12965034406776513 0.1308456242132961
-0.16212042085335357 0.10083212046798273
-0.16212042085335357 0.1158388723406394
-0.12965034406776513 0.14585237608595275
-0.12965034406776513 0.14585237608595275
-0.08906274808577959 0.16085912795860943
-0.0971802672821767 0.16085912795860943
-0.08094522888938248 0.1308456242132961
-0.07282770969298537 0.1308456242132961
-0.07282770969298537 0.1308456242132961
-0.024122594514602705 0.1158388723406394
-0.024122594514602705 0.1158388723406394
-0.040357632907396926 0.07081861672266938
-0.06471019049658826 0.05581186485001271
-0.08906274808577959 0.040805112977356034
-0.10529778647857381 0.040805112977356034
-0.07282770969298537 0.07081861672266938
-0.07282770969298537 0.05581186485001271
-0.11341530567497092 0.040805112977356034
-0.13776786326416224 0.040805112977356034
-0.15400290165695646 0.040805112977356034
-0.17023794004975068 0.05581186485001271
-0.14588538246055935 0.07081861672266938
-0.12153282487136803 0.08582536859532605
-0.15400290165695646 0.05581186485001271
-0.194590497638942 0.05581186485001271
-0.22706057442453045 0.08582536859532605
-0.21894305522813334 0.1158388723406394
-0.21082553603173623 0.16085912795860943
-0.20270801683533912 0.14585237608595275
-0.21894305522813334 0.1158388723406394
-0.23517809362092756 0.08582536859532605
-0.24329561281732467 0.07081861672266938
-0.23517809362092756 0.08582536859532605
-0.21082553603173623 0.1158388723406394
-0.23517809362092756 0.10083212046798273
-0.22706057442453045 0.10083212046798273
-0.267648170406516 0.10083212046798273
-0.267648170406516 0.1158388723406394
-0.24329561281732467 0.1308456242132961
-0.21082553603173623 0.1308456242132961
-0.194590497638942 0.1308456242132961
-0.21894305522813334 0.1158388723406394
-0.2514131320137218 0.10083212046798273
-0.267648170406516 0.10083212046798273
-0.2595306512101189 0.1158388723406394
-0.22706057442453045 0.1308456242132961
-0.21082553603173623 0.1158388723406394
-0.21082553603173623 0.07081861672266938
-0.23517809362092756 0.05581186485001271
-0.23517809362092756 0.08582536859532605
-0.17023794004975068 0.08582536859532605
-0.13776786326416224 0.08582536859532605
-0.12965034406776513 0.05581186485001271
-0.15400290165695646 0.01079160923204268
-0.194590497638942 -0.03422864638592735
-0.20270801683533912 -0.01922189451327067
-0.21082553603173623 -0.01922189451327067
-0.194590497638942 0.01079160923204268
-0.1864729784425449 -0.004215142640613995
-0.20270801683533912 -0.01922189451327067
-0.23517809362092756 -0.004215142640613995
-0.21894305522813334 -0.004215142640613995
-0.23517809362092756 0.040805112977356034
-0.21894305522813334 0.07081861672266938
-0.22706057442453045 0.07081861672266938
-0.21894305522813334 0.040805112977356034
-0.24329561281732467 0.01079160923204268
-0.24329561281732467 -0.004215142640613995
-0.24329561281732467 0.040805112977356034
-0.23517809362092756 0.07081861672266938
-0.2514131320137218 0.040805112977356034
-0.27576568960291314 0.01079160923204268
-0.2920007279957073 0.01079160923204268
-0.30011824719210445 0.01079160923204268
-0.2838832087993102 0.05581186485001271
-0.267648170406516 0.08582536859532605
-0.27576568960291314 0.08582536859532605
-0.31635328558489867 0.05581186485001271
-0.30823576638850153 0.040805112977356034
-0.31635328558489867 0.040805112977356034
-0.30011824719210445 0.05581186485001271
-0.2838832087993102 0.07081861672266938
-0.27576568960291314 0.07081861672266938
-0.267648170406516 0.040805112977356034
-0.30823576638850153 0.040805112977356034
-0.30011824719210445 0.05581186485001271
-0.31635328558489867 0.05581186485001271
-0.30011824719210445 0.08582536859532605
-0.2514131320137218 0.08582536859532605
-0.267648170406516 0.040805112977356034
-0.267648170406516 0.01079160923204268
-0.2514131320137218 -0.004215142640613995
-0.21894305522813334 0.025798361104699356
-0.194590497638942 0.05581186485001271
-0.17023794004975068 0.025798361104699356
-0.1783554592461478 0.025798361104699356
-0.1864729784425449 -0.03422864638592735
-0.194590497638942 -0.01922189451327067
-0.1864729784425449 -0.03422864638592735
-0.1783554592461478 -0.03422864638592735
-0.194590497638942 -0.0642421501312407
-0.21894305522813334 -0.09425565387655405
-0.23517809362092756 -0.1242691576218674
-0.2514131320137218 -0.07924890200389736
-0.21894305522813334 -0.0642421501312407
-0.194590497638942 -0.04923539825858402
-0.17023794004975068 -0.04923539825858402
-0.194590497638942 -0.07924890200389736
-0.20270801683533912 -0.09425565387655405
-0.20270801683533912 -0.07924890200389736
-0.194590497638942 -0.0642421501312407
-0.17023794004975068 -0.03422864638592735
-0.12153282487136803 -0.0642421501312407
-0.08906274808577959 -0.07924890200389736
-0.016005075318205594 -0.07924890200389736
0.18693290459172215 -0.0642421501312407
0.6821015755719458 -0.0642421501312407
1.5263235719972452 -0.04923539825858402
2.329957972440559 -0.04923539825858402
2.6627762594928406 -0.1242691576218674
2.394898126011736 -0.22931642073046413
1.8997294550315125 -0.33436368383906084
1.6074987639612164 -0.6645122250375077
1.501971014408054 -1.2647822999437748
1.42891334164048 -2.1051604048125485
1.2665629577125377 -2.7504507353367855
1.0636249778026101 -2.780464239082099
0.8931570746782708 -2.3452684347750554
0.7389242099467256 -1.985106389831295
0.5684563068223863 -1.850045622977385
0.32493073093047303 -1.8200321192320716
0.10575771262775105 -1.7900186154867583
-0.15400290165695646 -1.7449983598687884
-0.3975284775488698 -1.714984856123475
-0.6167014958515917 -1.6699646005055049
-0.8196394757615195 -1.6699646005055049
-1.0144599364750502 -1.6849713523781615
-1.2579855123669634 -1.7299916079961317
-1.5096286074552738 -1.7900186154867583
-1.7206841065615988 -1.7900186154867583
-1.9317396056679235 -1.7900186154867583
-2.0940899895958656 -1.805025367359415
-2.280792931112999 -1.8350388711047283
-2.426908276648147 -1.8800591267226985
-2.597376179772487 -1.940086134213325
-2.7516090445040318 -1.985106389831295
-2.873371832449988 -1.9700996379586384
-2.922076947628371 -1.985106389831295
-2.946429505217562 -1.9550928860859818
-2.9870171011995477 -1.985106389831295
-3.0276046971815336 -2.0301266454492652
-2.9788995820031507 -2.0601401491945786
-2.8652543132535913 -2.0601401491945786
-2.775961602093223 -2.075146901067235
-2.694786410129252 -2.1952009160484884
-2.597376179772487 -2.315254931029742
-2.4431433150409414 -2.3902886903930254
-2.2320878159346167 -2.405295442265682
-2.0129147976318946 -2.3902886903930254
-1.7775067409363785 -2.360275186647712
-1.5502162034372593 -2.315254931029742
-1.4122183770985086 -2.2402211716664584
-1.37974830031292 -2.1501806604305185
-1.3635132619201258 -2.045133397321922
-1.298573108348949 -1.9550928860859818
-1.2011628779921837 -1.8950658785953551
-1.1037526476354182 -1.7900186154867583
-1.0144599364750502 -1.7299916079961317
-0.9008146677254906 -1.6099375930148783
-0.7790518797795339 -1.4898835780336248
-0.6816416494227686 -1.339816059307058
-0.48682118870923796 -1.1447282849625213
-0.3488233623704871 -1.0096675181086112
-0.23517809362092756 -0.8746067512547011
-0.14588538246055935 -0.7395459844007911
-0.024122594514602705 -0.604485217546881
0.09764019343135394 -0.45441769882031424
0.1544628278061337 -0.33436368383906084
0.251873058162899 -0.22931642073046413
0.28434313494848745 -0.1842961651124941
0.28434313494848745 -0.13927590949452406
0.3005781733412817 -0.0642421501312407
0.3574008077160615 -0.01922189451327067
0.42234096128723836 0.040805112977356034
0.4629285572692239 0.05581186485001271
0.44669351887642966 0.05581186485001271
0.40610592289444414 0.040805112977356034
0.40610592289444414 0.08582536859532605
0.40610592289444414 0.14585237608595275
0.44669351887642966 0.16085912795860943
0.4385759996800326 0.17586587983126611
0.4548110380728268 0.16085912795860943
0.42234096128723836 0.14585237608595275
0.4548110380728268 0.1908726317039228
0.48728111485841524 0.22088613544923613
0.5197511916440036 0.26590639106720615
0.5035161532512095 0.26590639106720615
0.471046076465621 0.2358928873218928
0.4791635956620181 0.2358928873218928
0.48728111485841524 0.26590639106720615
0.5359862300367979 0.2959198948125195
0.5765738260187835 0.34094015043048953
0.5928088644115777 0.34094015043048953
0.5846913452151805 0.3259333985578329
0.5928088644115777 0.34094015043048953
0.617161422000769 0.35594690230314624
0.6252789411971661 0.3709536541758029
0.6983366139647401 0.38596040604845955
0.7389242099467256 0.38596040604845955
0.7551592483395199 0.40096715792111626
0.7308066907503286 0.3709536541758029
0.7470417291431227 0.40096715792111626
0.7957468443215054 0.43098066166642957
0.8525694786962852 0.47600091728439964
0.9012745938746678 0.47600091728439964
0.9175096322674621 0.4910076691570563
0.9418621898566534 0.506014421029713
0.982449785838639 0.5210211729023696
1.0636249778026101 0.5660414285203397
1.1366826505701841 0.5810481803929963
1.217857842534155 0.596054932265653
1.2422104001233465 0.5660414285203397
1.2584454385161408 0.5660414285203397
1.2990330344981262 0.5660414285203397
1.3639731880693031 0.596054932265653
1.4370308608368771 0.596054932265653
1.501971014408054 0.596054932265653
1.5344410911936424 0.6110616841383097
1.5344410911936424 0.596054932265653
1.591263725568422 0.6110616841383097
1.6643213983359961 0.6560819397562797
1.729261551907173 0.686095443501593
1.7536141094963644 0.7011021953742498
1.7373790711035701 0.7311156991195631
1.7373790711035701 0.7611292028648764
1.7454965902999673 0.7761359547375332
1.802319224674747 0.8061494584828465
1.8429068206567325 0.8361629622281598
1.867259378245924 0.8511697141008165
1.8347893014603356 0.8511697141008165
1.802319224674747 0.8511697141008165
1.7617316286927616 0.8811832178461299
1.7617316286927616 0.9262034734640999
1.7536141094963644 0.9712237290820699
1.7373790711035701 0.9562169772094132
1.6967914751215847 0.9712237290820699
1.639968840746805 0.9562169772094132
1.6074987639612164 0.9562169772094132
1.5425586103900395 0.9712237290820699
1.5100885336044512 1.0012372328273833
1.4613834184260683 1.0012372328273833
1.3883257456584945 0.9412102253367566
1.3152680728909205 0.9262034734640999
1.2503279193197436 0.9262034734640999
1.1691527273557725 0.9712237290820699
1.1123300929809927 0.9412102253367566
1.0311549010170216 0.9262034734640999
0.9499797090530505 0.8811832178461299
0.8769220362854765 0.8061494584828465
0.7876293251251083 0.7911427066101898
0.7226891715539314 0.7761359547375332
0.6739840563755488 0.7611292028648764
0.6090439028043719 0.686095443501593
0.5359862300367979 0.596054932265653
0.4142234420908412 0.551034676647683
0.3330482501268701 0.4910076691570563
0.32493073093047303 0.46099416541174293
0.28434313494848745 0.43098066166642957
0.23563801977010482 0.38596040604845955
0.16258034700253082 0.31092664668517617
0.08140515503855972 0.22088613544923613
0.03270003986017706 0.1908726317039228
0.008347482270985734 0.1908726317039228
0.016465001467382844 0.1908726317039228
-0.040357632907396926 0.17586587983126611
-0.048475152103794036 0.1308456242132961
-0.08094522888938248 0.1308456242132961
-0.10529778647857381 0.10083212046798273
-0.16212042085335357 0.10083212046798273
-0.10529778647857381 0.1158388723406394
-0.08906274808577959 0.08582536859532605
-0.15400290165695646 0.040805112977356034
-0.20270801683533912 0.05581186485001271
-0.23517809362092756 0.07081861672266938
-0.20270801683533912 0.07081861672266938
-0.194590497638942 0.10083212046798273
-0.1864729784425449 0.07081861672266938
-0.20270801683533912 0.025798361104699356
-0.20270801683533912 0.040805112977356034
-0.22706057442453045 0.040805112977356034
-0.21894305522813334 0.07081861672266938
-0.21082553603173623 0.07081861672266938
-0.23517809362092756 0.07081861672266938
-0.21082553603173623 0.040805112977356034
-0.24329561281732467 0.040805112977356034
-0.21894305522813334 0.05581186485001271
-0.194590497638942 0.10083212046798273
-0.1864729784425449 0.1158388723406394
-0.21082553603173623 0.1308456242132961
-0.2514131320137218 0.1158388723406394
-0.2514131320137218 0.1308456242132961
-0.21894305522813334 0.1308456242132961
-0.194590497638942 0.1308456242132961
-0.17023794004975068 0.14585237608595275
-0.17023794004975068 0.14585237608595275
-0.17023794004975068 0.1158388723406394
-0.1864729784425449 0.1158388723406394
-0.1864729784425449 0.10083212046798273
-0.16212042085335357 0.10083212046798273
-0.16212042085335357 0.10083212046798273
-0.1783554592461478 0.040805112977356034
-0.22706057442453045 -0.004215142640613995
-0.27576568960291314 -0.01922189451327067
-0.2920007279957073 -0.01922189451327067
-0.2838832087993102 0.01079160923204268
-0.2920007279957073 0.025798361104699356
-0.2838832087993102 0.025798361104699356
-0.2838832087993102 0.01079160923204268
-0.30011824719210445 -0.004215142640613995
-0.30823576638850153 -0.01922189451327067
-0.30011824719210445 -0.004215142640613995
-0.31635328558489867 0.025798361104699356
-0.31635328558489867 0.025798361104699356
-0.32447080478129575 0.01079160923204268
-0.32447080478129575 -0.01922189451327067
-0.32447080478129575 -0.004215142640613995
-0.30011824719210445 0.01079160923204268
-0.267648170406516 0.040805112977356034
-0.2838832087993102 0.025798361104699356
-0.31635328558489867 0.01079160923204268
-0.3569408815668842 -0.004215142640613995
-0.36505840076328133 0.01079160923204268
-0.3569408815668842 0.025798361104699356
-0.34070584317409 0.07081861672266938
-0.30011824719210445 0.040805112977356034
-0.34070584317409 0.040805112977356034
-0.3569408815668842 0.025798361104699356
-0.3731759199596784 0.01079160923204268
-0.3488233623704871 0.040805112977356034
-0.30823576638850153 0.07081861672266938
-0.30823576638850153 0.07081861672266938
-0.30823576638850153 0.05581186485001271
-0.3569408815668842 0.05581186485001271
-0.36505840076328133 0.040805112977356034
-0.3488233623704871 0.07081861672266938
-0.32447080478129575 0.10083212046798273
-0.3325883239776929 0.08582536859532605
-0.3325883239776929 0.05581186485001271
-0.3569408815668842 0.040805112977356034
-0.3488233623704871 0.05581186485001271
-0.30011824719210445 0.08582536859532605
-0.267648170406516 0.10083212046798273
-0.24329561281732467 0.10083212046798273
-0.2595306512101189 0.07081861672266938
-0.2838832087993102 0.040805112977356034
-0.30823576638850153 0.01079160923204268
-0.3325883239776929 0.01079160923204268
-0.3488233623704871 0.025798361104699356
-0.3569408815668842 -0.01922189451327067
-0.36505840076328133 -0.03422864638592735
-0.40564599674526686 -0.0642421501312407
-0.38941095835247264 -0.03422864638592735
-0.38129343915607555 -0.01922189451327067
-0.3488233623704871 0.01079160923204268
-0.34070584317409 -0.004215142640613995
-0.3488233623704871 -0.03422864638592735
-0.40564599674526686 -0.0642421501312407
-0.3975284775488698 -0.03422864638592735
-0.38941095835247264 -0.03422864638592735
-0.36505840076328133 -0.01922189451327067
-0.34070584317409 -0.03422864638592735
-0.3731759199596784 -0.04923539825858402
-0.38129343915607555 -0.04923539825858402
-0.3975284775488698 -0.04923539825858402
-0.36505840076328133 -0.01922189451327067
-0.32447080478129575 0.01079160923204268
-0.31635328558489867 0.01079160923204268
-0.3488233623704871 -0.004215142640613995
-0.3731759199596784 -0.004215142640613995
-0.38129343915607555 -0.004215142640613995
-0.34070584317409 -0.004215142640613995
-0.30823576638850153 0.01079160923204268
-0.30011824719210445 -0.004215142640613995
-0.32447080478129575 -0.03422864638592735
-0.34070584317409 -0.03422864638592735
-0.36505840076328133 -0.03422864638592735
-0.3488233623704871 -0.004215142640613995
-0.31635328558489867 0.025798361104699356
-0.30011824719210445 -0.004215142640613995
-0.32447080478129575 -0.01922189451327067
-0.32447080478129575 -0.04923539825858402
-0.30011824719210445 -0.01922189451327067
-0.2514131320137218 -0.01922189451327067
-0.22706057442453045 -0.03422864638592735
-0.194590497638942 -0.01922189451327067
-0.194590497638942 -0.0642421501312407
-0.1783554592461478 -0.09425565387655405
-0.11341530567497092 -0.10926240574921073
0.08140515503855972 -0.1242691576218674
0.5359862300367979 -0.10926240574921073
1.2665629577125377 -0.13927590949452406
2.10266743494144 -0.1842961651124941
2.443603241190119 -0.25932992447577746
2.2000776652982053 -0.34937043571171755
1.7617316286927616 -0.5594649619289109
1.493853495211657 -0.9346337587453278
1.4045607840512886 -1.5649173373969083
1.290915515301729 -2.3902886903930254
1.144800169766581 -2.9455385096813225
0.9499797090530505 -2.810477742827412
0.7795118059287112 -2.3302616829023988
0.617161422000769 -2.0151198935766086
0.3817533653052528 -1.9250793823406684
0.1544628278061337 -1.9250793823406684
-0.11341530567497092 -1.9100726304680118
-0.3488233623704871 -1.8350388711047283
-0.5517613422804148 -1.7900186154867583
-0.7465818029939455 -1.7299916079961317
-0.9495197829038733 -1.760005111741445
-1.2092803971885808 -1.805025367359415
-1.4365709346876998 -1.805025367359415
-1.728801625757996 -1.805025367359415
-1.9479746440607177 -1.805025367359415
-2.1590301431670427 -1.805025367359415
-2.3051454887021907 -1.805025367359415
-2.4593783534337357 -1.8350388711047283
-2.597376179772487 -1.8200321192320716
-2.7110214485220463 -1.8200321192320716
-2.8165491980752084 -1.8350388711047283
-2.9058419092355767 -1.8200321192320716
-2.9788995820031507 -1.850045622977385
-3.043839735574328 -1.8650523748500418
-3.0925448507527102 -1.9100726304680118
-3.125014927538299 -1.9700996379586384
-3.076309812359916 -2.0151198935766086
-2.995134620395945 -2.045133397321922
-2.930194466824768 -2.090153652939892
-2.873371832449988 -2.210207667921145
-2.857136794057194 -2.3302616829023988
-2.775961602093223 -2.3902886903930254
-2.5811411413796925 -2.4653224497563087
-2.321380527094985 -2.450315697883652
-2.0778549512030717 -2.4803292016289653
-1.8424468945075554 -2.4353089460109953
-1.6476264337940247 -2.360275186647712
-1.5339811650444652 -2.2402211716664584
-1.4365709346876998 -2.1051604048125485
-1.3635132619201258 -2.0151198935766086
-1.3229256659381403 -1.9700996379586384
-1.2417504739741692 -1.9100726304680118
-1.1768103204029923 -1.805025367359415
-1.0550475324570356 -1.6699646005055049
-0.8926971485290934 -1.5198970817789381
-0.7709343605831368 -1.3548228111797147
-0.6248190150479889 -1.2647822999437748
-0.5192912654948264 -1.114714781217208
-0.4218810351380611 -0.9946607662359546
-0.31635328558489867 -0.8445932475093878
-0.20270801683533912 -0.694525728782821
-0.08094522888938248 -0.5744717138015677
-0.007887556121808486 -0.45441769882031424
0.03270003986017706 -0.34937043571171755
0.06517011664576551 -0.27433667634843417
0.08952267423495683 -0.16928941323983743
0.1463453086097366 -0.0642421501312407
0.2275205005737077 -0.01922189451327067
0.24375553896650193 0.040805112977356034
0.251873058162899 0.040805112977356034
0.24375553896650193 0.05581186485001271
0.25999057735929615 0.10083212046798273
0.2924606541448846 0.16085912795860943
0.32493073093047303 0.20587938357657945
0.3330482501268701 0.1908726317039228
0.3168132117340759 0.1908726317039228
0.32493073093047303 0.17586587983126611
0.34116576932326725 0.22088613544923613
0.3736358461088557 0.26590639106720615
0.43045848048363544 0.28091314293986286
0.42234096128723836 0.26590639106720615
0.4385759996800326 0.26590639106720615
0.42234096128723836 0.2358928873218928
0.44669351887642966 0.2358928873218928
0.4629285572692239 0.2508996391945495
0.5035161532512095 0.26590639106720615
0.5359862300367979 0.28091314293986286
0.4953986340548123 0.26590639106720615
0.5035161532512095 0.26590639106720615
0.5116336724476066 0.28091314293986286
0.5684563068223863 0.3259333985578329
0.6009263836079748 0.34094015043048953
0.6415139795899604 0.34094015043048953
0.6496314987863574 0.3259333985578329
0.690219094768343 0.3259333985578329
0.6983366139647401 0.34094015043048953
0.7308066907503286 0.40096715792111626
0.7876293251251083 0.4159739097937729
0.8038643635179025 0.38596040604845955
0.8282169211070939 0.38596040604845955
0.8363344403034909 0.38596040604845955
0.8688045170890794 0.40096715792111626
0.9418621898566534 0.4459874135390863
0.9986848242314331 0.47600091728439964
1.0717424969990073 0.506014421029713
1.0798600161954042 0.4910076691570563
1.0879775353918013 0.47600091728439964
1.1529176889629782 0.506014421029713
1.209740323337758 0.551034676647683
1.2665629577125377 0.5810481803929963
1.2990330344981262 0.596054932265653
1.355855668872906 0.6260684360109664
1.3802082264620974 0.6110616841383097
1.4207958224440829 0.641075187883623
1.4857359760152598 0.7161089472469064
1.5263235719972452 0.7311156991195631
1.5831462063720252 0.7611292028648764
1.5831462063720252 0.7611292028648764
1.6156162831576135 0.7611292028648764
1.6156162831576135 0.7911427066101898
1.648086359943202 0.8361629622281598
1.7130265135143787 0.9111967215914432
1.7454965902999673 0.9111967215914432
1.729261551907173 0.8961899697187865
1.7049089943179818 0.9111967215914432
1.6967914751215847 0.9562169772094132
1.7211440327107759 0.9562169772094132
1.729261551907173 0.9862304809547265
1.729261551907173 0.9862304809547265
1.6967914751215847 0.9712237290820699
1.6156162831576135 0.9712237290820699
1.591263725568422 0.9712237290820699
1.5587936487828338 1.0312507365726966
1.5344410911936424 1.01624398470004
1.501971014408054 1.01624398470004
1.42891334164048 0.9712237290820699
1.355855668872906 0.9412102253367566
1.282797996105332 0.8961899697187865
1.217857842534155 0.9262034734640999
1.1610352081593753 0.9111967215914432
1.0717424969990073 0.8811832178461299
0.9580972282494477 0.8361629622281598
0.844451959499888 0.7461224509922197
0.771394286732314 0.7161089472469064
0.7064541331611371 0.7011021953742498
0.6333964603935632 0.686095443501593
0.5846913452151805 0.6260684360109664
0.5035161532512095 0.5660414285203397
0.40610592289444414 0.5210211729023696
0.3168132117340759 0.4910076691570563
0.28434313494848745 0.46099416541174293
0.251873058162899 0.4459874135390863
0.17881538539532504 0.38596040604845955
0.11387523182414816 0.34094015043048953
0.04081755905657417 0.28091314293986286
-0.007887556121808486 0.28091314293986286
-0.040357632907396926 0.2508996391945495
-0.048475152103794036 0.2508996391945495
-0.05659267130019115 0.22088613544923613
-0.11341530567497092 0.17586587983126611
-0.13776786326416224 0.14585237608595275
-0.17023794004975068 0.1308456242132961
-0.1864729784425449 0.1158388723406394
-0.16212042085335357 0.1158388723406394
-0.1864729784425449 0.08582536859532605
-0.1783554592461478 0.07081861672266938
-0.16212042085335357 0.040805112977356034
-0.1864729784425449 0.040805112977356034
-0.17023794004975068 0.01079160923204268
-0.17023794004975068 0.025798361104699356
-0.21082553603173623 -0.004215142640613995
-0.267648170406516 -0.04923539825858402
-0.27576568960291314 -0.0642421501312407
-0.32447080478129575 -0.04923539825858402
-0.3325883239776929 -0.004215142640613995
-0.2920007279957073 0.01079160923204268
-0.30011824719210445 -0.004215142640613995
-0.32447080478129575 0.01079160923204268
-0.3569408815668842 -0.004215142640613995
-0.36505840076328133 0.01079160923204268
-0.3569408815668842 0.025798361104699356
-0.3325883239776929 0.07081861672266938
-0.34070584317409 0.05581186485001271
-0.3488233623704871 0.07081861672266938
-0.34070584317409 0.025798361104699356
-0.36505840076328133 0.05581186485001271
-0.34070584317409 0.08582536859532605
-0.31635328558489867 0.1158388723406394
-0.3325883239776929 0.1158388723406394
-0.34070584317409 0.10083212046798273
-0.36505840076328133 0.08582536859532605
-0.38129343915607555 0.10083212046798273
-0.3488233623704871 0.1158388723406394
-0.3569408815668842 0.1308456242132961
-0.34070584317409 0.1308456242132961
-0.3569408815668842 0.10083212046798273
-0.3731759199596784 0.1308456242132961
-0.34070584317409 0.1308456242132961
-0.30823576638850153 0.14585237608595275
-0.2920007279957073 0.14585237608595275
-0.30011824719210445 0.1308456242132961
-0.32447080478129575 0.1158388723406394
-0.3488233623704871 0.08582536859532605
-0.3488233623704871 0.08582536859532605
-0.34070584317409 0.07081861672266938
-0.31635328558489867 0.07081861672266938
-0.30011824719210445 0.05581186485001271
-0.31635328558489867 -0.004215142640613995
-0.3569408815668842 -0.01922189451327067
-0.3569408815668842 -0.04923539825858402
-0.3325883239776929 -0.03422864638592735
-0.3325883239776929 -0.03422864638592735
-0.30823576638850153 -0.0642421501312407
-0.3325883239776929 -0.0642421501312407
-0.38129343915607555 -0.07924890200389736
-0.4218810351380611 -0.0642421501312407
-0.4218810351380611 -0.04923539825858402
-0.38129343915607555 -0.01922189451327067
-0.3975284775488698 -0.03422864638592735
-0.413763515941664 -0.04923539825858402
-0.4543511119236495 -0.04923539825858402
-0.44623359272725244 -0.04923539825858402
-0.44623359272725244 -0.004215142640613995
-0.4299985543344582 -0.004215142640613995
-0.413763515941664 -0.004215142640613995
-0.413763515941664 -0.004215142640613995
-0.4381160735308553 -0.03422864638592735
-0.47058615031644374 -0.004215142640613995
-0.4543511119236495 -0.004215142640613995
-0.44623359272725244 0.01079160923204268
-0.3975284775488698 0.025798361104699356
-0.40564599674526686 0.01079160923204268
-0.4299985543344582 -0.004215142640613995
-0.46246863112004666 0.025798361104699356
-0.4787036695128409 0.025798361104699356
-0.46246863112004666 0.040805112977356034
-0.47058615031644374 0.040805112977356034
-0.4949387079056351 0.01079160923204268
-0.5030562271020322 -0.004215142640613995
-0.5111737462984293 -0.01922189451327067
-0.5111737462984293 0.025798361104699356
-0.4787036695128409 0.040805112977356034
-0.44623359272725244 0.05581186485001271
-0.46246863112004666 0.025798361104699356
-0.4949387079056351 0.01079160923204268
-0.5192912654948264 0.025798361104699356
-0.47058615031644374 0.05581186485001271
-0.4299985543344582 0.05581186485001271
-0.4299985543344582 0.040805112977356034
-0.413763515941664 0.025798361104699356
-0.4218810351380611 -0.004215142640613995
-0.4299985543344582 -0.004215142640613995
-0.413763515941664 0.025798361104699356
-0.38941095835247264 0.025798361104699356
-0.3731759199596784 0.01079160923204268
-0.38941095835247264 -0.004215142640613995
-0.3975284775488698 -0.03422864638592735
-0.413763515941664 -0.04923539825858402
-0.38941095835247264 -0.03422864638592735
-0.38941095835247264 -0.03422864638592735
-0.36505840076328133 -0.04923539825858402
-0.4299985543344582 -0.09425565387655405
-0.44623359272725244 -0.1242691576218674
-0.4543511119236495 -0.09425565387655405
-0.4218810351380611 -0.07924890200389736
-0.40564599674526686 -0.03422864638592735
-0.413763515941664 -0.04923539825858402
-0.4218810351380611 -0.09425565387655405
-0.44623359272725244 -0.10926240574921073
-0.44623359272725244 -0.09425565387655405
-0.4381160735308553 -0.07924890200389736
-0.413763515941664 -0.04923539825858402
-0.413763515941664 -0.0642421501312407
-0.4218810351380611 -0.09425565387655405
-0.4543511119236495 -0.10926240574921073
-0.44623359272725244 -0.10926240574921073
-0.4218810351380611 -0.07924890200389736
-0.38941095835247264 -0.04923539825858402
-0.413763515941664 -0.07924890200389736
-0.38941095835247264 -0.07924890200389736
-0.413763515941664 -0.09425565387655405
-0.40564599674526686 -0.07924890200389736
-0.3975284775488698 -0.07924890200389736
-0.3975284775488698 -0.0642421501312407
-0.3731759199596784 -0.0642421501312407
-0.3731759199596784 -0.09425565387655405
-0.40564599674526686 -0.10926240574921073
-0.38941095835247264 -0.09425565387655405
-0.36505840076328133 -0.09425565387655405
-0.3325883239776929 -0.07924890200389736
-0.30823576638850153 -0.10926240574921073
-0.31635328558489867 -0.13927590949452406
-0.30823576638850153 -0.15428266136718075
-0.2920007279957073 -0.13927590949452406
-0.23517809362092756 -0.1242691576218674
-0.0971802672821767 -0.10926240574921073
0.1382277894133395 -0.1242691576218674
0.690219094768343 -0.13927590949452406
1.493853495211657 -0.16928941323983743
2.1919601461018083 -0.1842961651124941
2.3461930108333533 -0.25932992447577746
2.005257204584675 -0.37938393945703086
1.566911167979231 -0.694525728782821
1.3396206304801117 -1.294795803689088
1.2422104001233465 -2.0601401491945786
1.1610352081593753 -2.765457487209442
1.0798600161954042 -2.855497998445382
0.9743322666422418 -2.4653224497563087
0.8363344403034909 -2.1051604048125485
0.6577490179827545 -1.985106389831295
0.3898708845016499 -1.940086134213325
0.1544628278061337 -1.9100726304680118
-0.05659267130019115 -1.850045622977385
-0.2514131320137218 -1.805025367359415
-0.4543511119236495 -1.8350388711047283
-0.6572890918335773 -1.8800591267226985
-0.8845796293326964 -1.8650523748500418
-1.1281052052246097 -1.8800591267226985
-1.3553957427237286 -1.8800591267226985
-1.5826862802228479 -1.8650523748500418
-1.7775067409363785 -1.9100726304680118
-2.0616199128102775 -1.940086134213325
-2.272675411916602 -1.9550928860859818
-2.4512608342373388 -1.940086134213325
-2.597376179772487 -1.9250793823406684
-2.7353740061112375 -1.9250793823406684
-2.824666717271606 -1.9550928860859818
-2.9626645436103565 -1.9700996379586384
-3.0925448507527102 -2.0151198935766086
-3.1574850043238873 -2.0301266454492652
-3.1899550811094755 -1.985106389831295
-3.214307638698667 -1.940086134213325
-3.2061901195022697 -1.9550928860859818
-3.2061901195022697 -2.000113141703952
-3.1737200427166816 -2.045133397321922
-3.125014927538299 -2.075146901067235
-3.043839735574328 -2.120167156685205
-2.9383119860211653 -2.180194164175832
-2.8165491980752084 -2.270234675411772
-2.6704338525400604 -2.3452684347750554
-2.47561339182653 -2.360275186647712
-2.256440373523808 -2.3452684347750554
-1.9804447208463063 -2.3002481791570855
-1.7044490681688045 -2.1501806604305185
-1.517746126651671 -2.045133397321922
-1.452805973080494 -1.985106389831295
-1.452805973080494 -1.940086134213325
-1.4122183770985086 -1.8650523748500418
-1.3310431851345375 -1.7750118636141017
-1.233632954777772 -1.714984856123475
-1.1362227244210068 -1.6549578486328482
-1.0306949748678444 -1.5349038336515948
-0.9819898596894617 -1.4748768261609682
-0.8764621101362993 -1.3098025555617447
-0.7871693989759311 -1.1447282849625213
-0.632936534244386 -0.9796540143632979
-0.5030562271020322 -0.8445932475093878
-0.40564599674526686 -0.7245392325281345
-0.3488233623704871 -0.6194919694195377
-0.2595306512101189 -0.46942445069297095
-0.12965034406776513 -0.37938393945703086
-0.024122594514602705 -0.2893434282210908
0.06517011664576551 -0.21430966885780744
0.10575771262775105 -0.16928941323983743
0.10575771262775105 -0.10926240574921073
0.1544628278061337 -0.07924890200389736
0.19505042378811926 -0.004215142640613995
0.24375553896650193 0.07081861672266938
0.25999057735929615 0.08582536859532605
0.24375553896650193 0.10083212046798273
0.2275205005737077 0.1158388723406394
0.20316794298451638 0.1158388723406394
0.251873058162899 0.14585237608595275
0.3086956925376788 0.16085912795860943
0.3330482501268701 0.16085912795860943
0.32493073093047303 0.16085912795860943
0.34928328851966434 0.17586587983126611
0.3574008077160615 0.1908726317039228
0.3898708845016499 0.2358928873218928
0.42234096128723836 0.26590639106720615
0.42234096128723836 0.28091314293986286
0.44669351887642966 0.26590639106720615
0.42234096128723836 0.2508996391945495
0.44669351887642966 0.2508996391945495
0.4791635956620181 0.2959198948125195
0.5197511916440036 0.3259333985578329
0.5522212684295921 0.31092664668517617
0.5522212684295921 0.31092664668517617
0.5603387876259892 0.28091314293986286
0.5765738260187835 0.31092664668517617
0.5928088644115777 0.31092664668517617
0.6252789411971661 0.3709536541758029
0.6496314987863574 0.38596040604845955
0.6577490179827545 0.35594690230314624
0.6739840563755488 0.34094015043048953
0.690219094768343 0.34094015043048953
0.7064541331611371 0.3709536541758029
0.7226891715539314 0.40096715792111626
0.7064541331611371 0.43098066166642957
0.7551592483395199 0.38596040604845955
0.7551592483395199 0.38596040604845955
0.7957468443215054 0.40096715792111626
0.8363344403034909 0.43098066166642957
0.9012745938746678 0.47600091728439964
0.9175096322674621 0.47600091728439964
0.9580972282494477 0.4910076691570563
0.982449785838639 0.4910076691570563
0.9905673050350361 0.4910076691570563
1.0717424969990073 0.506014421029713
1.1366826505701841 0.551034676647683
1.1935052849449639 0.5810481803929963
1.209740323337758 0.5810481803929963
1.290915515301729 0.5810481803929963
1.3233855920873177 0.6110616841383097
1.3720907072657003 0.641075187883623
1.42891334164048 0.6560819397562797
1.4857359760152598 0.686095443501593
1.4857359760152598 0.6710886916289364
1.501971014408054 0.6710886916289364
1.5506761295864366 0.686095443501593
1.5831462063720252 0.7161089472469064
1.6237338023540107 0.7761359547375332
1.6805564367287904 0.7761359547375332
1.6967914751215847 0.7611292028648764
1.7130265135143787 0.7611292028648764
1.7211440327107759 0.7911427066101898
1.729261551907173 0.8361629622281598
1.7536141094963644 0.8661764659734732
1.7779666670855556 0.8811832178461299
1.7779666670855556 0.8811832178461299
1.7536141094963644 0.8511697141008165
1.7536141094963644 0.8661764659734732
1.7617316286927616 0.9412102253367566
1.7617316286927616 0.9562169772094132
1.7454965902999673 0.9562169772094132
1.7211440327107759 0.9412102253367566
1.6643213983359961 0.9111967215914432
1.6156162831576135 0.9111967215914432
1.5587936487828338 0.9412102253367566
1.5587936487828338 0.9562169772094132
1.5100885336044512 0.9262034734640999
1.4451483800332743 0.8961899697187865
1.355855668872906 0.8511697141008165
1.282797996105332 0.8211562103555031
1.2340928809269494 0.8661764659734732
1.1772702465521696 0.8661764659734732
1.1042125737845956 0.8211562103555031
1.0311549010170216 0.7761359547375332
0.9499797090530505 0.7461224509922197
0.8606869978926823 0.7161089472469064
0.8038643635179025 0.7011021953742498
0.763276767535917 0.7011021953742498
0.6821015755719458 0.6560819397562797
0.6090439028043719 0.6260684360109664
0.5035161532512095 0.5660414285203397
0.40610592289444414 0.5660414285203397
0.3168132117340759 0.551034676647683
0.27622561575209037 0.5210211729023696
0.2275205005737077 0.47600091728439964
0.1544628278061337 0.40096715792111626
0.08140515503855972 0.3709536541758029
0.008347482270985734 0.31092664668517617
-0.040357632907396926 0.31092664668517617
-0.048475152103794036 0.31092664668517617
-0.06471019049658826 0.28091314293986286
-0.13776786326416224 0.2358928873218928
-0.16212042085335357 0.1908726317039228
-0.20270801683533912 0.17586587983126611
-0.22706057442453045 0.17586587983126611
-0.22706057442453045 0.1908726317039228
-0.22706057442453045 0.17586587983126611
-0.2514131320137218 0.1308456242132961
-0.267648170406516 0.1158388723406394
-0.30011824719210445 0.1308456242132961
-0.2838832087993102 0.16085912795860943
-0.2838832087993102 0.17586587983126611
-0.30011824719210445 0.16085912795860943
-0.31635328558489867 0.14585237608595275
-0.3488233623704871 0.10083212046798273
-0.3488233623704871 0.10083212046798273
-0.3569408815668842 0.1308456242132961
-0.32447080478129575 0.14585237608595275
-0.3325883239776929 0.1308456242132961
-0.34070584317409 0.1308456242132961
-0.36505840076328133 0.08582536859532605
-0.36505840076328133 0.1158388723406394
-0.34070584317409 0.1308456242132961
-0.3325883239776929 0.1308456242132961
-0.3488233623704871 0.1158388723406394
-0.3488233623704871 0.07081861672266938
-0.3975284775488698 0.07081861672266938
-0.3731759199596784 0.07081861672266938
-0.36505840076328133 0.08582536859532605
-0.3325883239776929 0.1158388723406394
-0.32447080478129575 0.10083212046798273
-0.32447080478129575 0.08582536859532605
-0.3488233623704871 0.07081861672266938
-0.3488233623704871 0.07081861672266938
-0.3325883239776929 0.10083212046798273
-0.30011824719210445 0.10083212046798273
-0.267648170406516 0.08582536859532605
-0.30823576638850153 0.08582536859532605
-0.32447080478129575 0.08582536859532605
-0.3488233623704871 0.08582536859532605
-0.3325883239776929 0.10083212046798273
-0.2838832087993102 0.1158388723406394
-0.2920007279957073 0.08582536859532605
-0.30011824719210445 0.07081861672266938
-0.34070584317409 0.07081861672266938
-0.32447080478129575 0.08582536859532605
-0.3325883239776929 0.08582536859532605
-0.34070584317409 0.08582536859532605
-0.34070584317409 0.07081861672266938
-0.36505840076328133 0.07081861672266938
-0.38941095835247264 0.05581186485001271
-0.40564599674526686 0.05581186485001271
-0.40564599674526686 0.05581186485001271
-0.38941095835247264 0.08582536859532605
-0.3731759199596784 0.07081861672266938
-0.38129343915607555 0.05581186485001271
-0.4299985543344582 0.05581186485001271
-0.4381160735308553 0.08582536859532605
-0.4218810351380611 0.10083212046798273
-0.413763515941664 0.1158388723406394
-0.40564599674526686 0.10083212046798273
-0.44623359272725244 0.07081861672266938
-0.4543511119236495 0.07081861672266938
-0.46246863112004666 0.07081861672266938
-0.46246863112004666 0.07081861672266938
-0.44623359272725244 0.08582536859532605
-0.4381160735308553 0.08582536859532605
-0.4381160735308553 0.07081861672266938
-0.47058615031644374 0.05581186485001271
-0.46246863112004666 0.08582536859532605
-0.4787036695128409 0.08582536859532605
-0.46246863112004666 0.10083212046798273
-0.4787036695128409 0.10083212046798273
-0.4949387079056351 0.07081861672266938
-0.5111737462984293 0.040805112977356034
-0.5111737462984293 0.040805112977356034
-0.4949387079056351 0.05581186485001271
-0.47058615031644374 0.08582536859532605
-0.4787036695128409 0.08582536859532605
-0.46246863112004666 0.05581186485001271
-0.4787036695128409 0.05581186485001271
-0.4787036695128409 0.040805112977356034
-0.47058615031644374 0.05581186485001271
-0.4543511119236495 0.07081861672266938
-0.44623359272725244 0.05581186485001271
-0.4218810351380611 0.040805112977356034
-0.44623359272725244 0.01079160923204268
-0.44623359272725244 0.01079160923204268
-0.4381160735308553 0.025798361104699356
-0.4381160735308553 0.040805112977356034
-0.40564599674526686 0.01079160923204268
-0.4299985543344582 0.01079160923204268
-0.4381160735308553 -0.01922189451327067
-0.44623359272725244 -0.01922189451327067
-0.4543511119236495 -0.004215142640613995
-0.4543511119236495 0.025798361104699356
-0.44623359272725244 0.025798361104699356
-0.4543511119236495 -0.004215142640613995
-0.48682118870923796 -0.03422864638592735
-0.5030562271020322 -0.03422864638592735
-0.47058615031644374 -0.01922189451327067
-0.4218810351380611 -0.004215142640613995
-0.4218810351380611 -0.004215142640613995
-0.413763515941664 -0.01922189451327067
-0.4299985543344582 -0.03422864638592735
-0.4381160735308553 -0.04923539825858402
-0.4299985543344582 -0.01922189451327067
-0.40564599674526686 -0.01922189451327067
-0.413763515941664 -0.004215142640613995
-0.40564599674526686 -0.03422864638592735
-0.4381160735308553 -0.01922189451327067
-0.4381160735308553 -0.004215142640613995
-0.4381160735308553 0.01079160923204268
-0.4381160735308553 0.040805112977356034
-0.44623359272725244 0.025798361104699356
-0.44623359272725244 0.025798361104699356
-0.44623359272725244 0.01079160923204268
-0.4543511119236495 -0.004215142640613995
-0.47058615031644374 0.040805112977356034
-0.4299985543344582 0.040805112977356034
-0.4218810351380611 0.040805112977356034
-0.4543511119236495 0.01079160923204268
-0.46246863112004666 -0.004215142640613995
-0.46246863112004666 -0.004215142640613995
-0.4299985543344582 0.01079160923204268
-0.4381160735308553 0.040805112977356034
-0.44623359272725244 0.040805112977356034
-0.4299985543344582 0.01079160923204268
-0.4543511119236495 -0.01922189451327067
-0.4543511119236495 -0.004215142640613995
-0.4381160735308553 0.01079160923204268
-0.4381160735308553 0.025798361104699356
-0.413763515941664 0.025798361104699356
-0.4218810351380611 0.01079160923204268
-0.4381160735308553 0.01079160923204268
-0.44623359272725244 0.01079160923204268
-0.44623359272725244 0.040805112977356034
-0.40564599674526686 0.05581186485001271
-0.38129343915607555 0.05581186485001271
-0.3975284775488698 0.040805112977356034
-0.413763515941664 0.01079160923204268
-0.413763515941664 -0.01922189451327067
-0.40564599674526686 0.01079160923204268
-0.38941095835247264 -0.004215142640613995
-0.38129343915607555 -0.004215142640613995
-0.36505840076328133 -0.01922189451327067
-0.38941095835247264 -0.0642421501312407
-0.38129343915607555 -0.03422864638592735
-0.3325883239776929 -0.03422864638592735
-0.30823576638850153 -0.01922189451327067
-0.27576568960291314 -0.04923539825858402
-0.23517809362092756 -0.07924890200389736
-0.14588538246055935 -0.10926240574921073
0.07328763584216262 -0.10926240574921073
0.5359862300367979 -0.10926240574921073
1.2665629577125377 -0.09425565387655405
2.005257204584675 -0.1242691576218674
2.403015645208133 -0.21430966885780744
2.2731353380657793 -0.2893434282210908
1.9078469742279094 -0.4394109469476576
1.6156162831576135 -0.694525728782821
1.4613834184260683 -1.159735036835178
1.3964432648548915 -1.8800591267226985
1.282797996105332 -2.6303967203555323
1.1204476121773899 -3.0355790209172624
0.9986848242314331 -2.9005182540633525
0.8606869978926823 -2.450315697883652
0.7308066907503286 -2.1501806604305185
0.544103749233195 -2.000113141703952
0.32493073093047303 -1.940086134213325
0.06517011664576551 -1.9250793823406684
-0.14588538246055935 -1.8650523748500418
-0.36505840076328133 -1.8200321192320716
-0.5274087846912235 -1.7750118636141017
-0.7384642837975484 -1.760005111741445
-0.9738723404930646 -1.7900186154867583
-1.2092803971885808 -1.850045622977385
-1.4365709346876998 -1.8650523748500418
-1.6395089145976276 -1.8350388711047283
-1.8262118561147611 -1.8350388711047283
-2.0129147976318946 -1.8650523748500418
-2.2320878159346167 -1.8800591267226985
-2.4350257958445445 -1.8950658785953551
-2.5892586605760894 -1.8650523748500418
-2.694786410129252 -1.850045622977385
-2.7840791212896203 -1.8200321192320716
-2.873371832449988 -1.8350388711047283
-2.970782062806754 -1.850045622977385
-3.0925448507527102 -1.8800591267226985
-3.141249965931093 -1.8800591267226985
-3.1331324467346957 -1.8950658785953551
-3.1331324467346957 -1.8650523748500418
-3.1331324467346957 -1.9550928860859818
-3.0925448507527102 -1.985106389831295
-3.076309812359916 -2.045133397321922
-3.0113696587887393 -2.1051604048125485
-2.9545470244139596 -2.180194164175832
-2.8652543132535913 -2.210207667921145
-2.7353740061112375 -2.2402211716664584
-2.6136112181652806 -2.3452684347750554
-2.4512608342373388 -2.360275186647712
-2.3051454887021907 -2.360275186647712
-2.0697374320066744 -2.3452684347750554
-1.8343293753111583 -2.3002481791570855
-1.6719789913832162 -2.2402211716664584
-1.5502162034372593 -2.180194164175832
-1.4852760498660824 -2.135173908557862
-1.4609234922768912 -2.0601401491945786
-1.3878658195093172 -1.9550928860859818
-1.3148081467417432 -1.8800591267226985
-1.217397916384978 -1.805025367359415
-1.1686928012065951 -1.7299916079961317
-1.1281052052246097 -1.6849713523781615
-1.0306949748678444 -1.5649173373969083
-0.9170497061182848 -1.4298565705429982
-0.8034044373687252 -1.294795803689088
-0.6816416494227686 -1.1897485405804913
-0.5923489382624004 -1.0847012774718947
-0.5517613422804148 -0.9796540143632979
-0.4381160735308553 -0.8445932475093878
-0.34070584317409 -0.6795189769101644
-0.23517809362092756 -0.5444582100562543
-0.16212042085335357 -0.4394109469476576
-0.08906274808577959 -0.3643771875843742
-0.048475152103794036 -0.2893434282210908
-0.024122594514602705 -0.19930291698515076
0.03270003986017706 -0.10926240574921073
0.06517011664576551 -0.03422864638592735
0.11387523182414816 0.040805112977356034
0.12199275102054527 0.08582536859532605
0.13011027021694238 0.10083212046798273
0.1382277894133395 0.14585237608595275
0.20316794298451638 0.17586587983126611
0.20316794298451638 0.2358928873218928
0.23563801977010482 0.2508996391945495
0.2275205005737077 0.26590639106720615
0.21128546218091349 0.28091314293986286
0.24375553896650193 0.26590639106720615
0.28434313494848745 0.3259333985578329
0.32493073093047303 0.34094015043048953
0.3330482501268701 0.3259333985578329
0.32493073093047303 0.31092664668517617
0.3330482501268701 0.28091314293986286
0.34116576932326725 0.31092664668517617
0.3736358461088557 0.3259333985578329
0.397988403698047 0.35594690230314624
0.40610592289444414 0.35594690230314624
0.3898708845016499 0.34094015043048953
0.40610592289444414 0.3259333985578329
0.3817533653052528 0.3259333985578329
0.4385759996800326 0.35594690230314624
0.48728111485841524 0.40096715792111626
0.5603387876259892 0.38596040604845955
0.5765738260187835 0.38596040604845955
0.5603387876259892 0.3709536541758029
0.5684563068223863 0.38596040604845955
0.617161422000769 0.43098066166642957
0.6496314987863574 0.47600091728439964
0.6739840563755488 0.46099416541174293
0.690219094768343 0.4159739097937729
0.7064541331611371 0.43098066166642957
0.7226891715539314 0.4459874135390863
0.7308066907503286 0.4910076691570563
0.8038643635179025 0.5360279247750264
0.844451959499888 0.5210211729023696
0.8606869978926823 0.506014421029713
0.844451959499888 0.4910076691570563
0.8931570746782708 0.506014421029713
0.9499797090530505 0.5360279247750264
0.9905673050350361 0.5660414285203397
1.0230373818206244 0.551034676647683
1.055507458606213 0.5210211729023696
1.0473899394098158 0.5210211729023696
1.1123300929809927 0.5660414285203397
1.1529176889629782 0.6110616841383097
1.217857842534155 0.641075187883623
1.2584454385161408 0.6260684360109664
1.282797996105332 0.6260684360109664
1.3071505536945234 0.6110616841383097
1.355855668872906 0.641075187883623
1.3883257456584945 0.686095443501593
1.4613834184260683 0.7461224509922197
1.5100885336044512 0.7311156991195631
1.5182060528008483 0.7311156991195631
1.5587936487828338 0.7311156991195631
1.566911167979231 0.7461224509922197
1.6156162831576135 0.8061494584828465
1.648086359943202 0.8361629622281598
1.6805564367287904 0.8361629622281598
1.6886739559251875 0.8211562103555031
1.6643213983359961 0.8061494584828465
1.6724389175323933 0.8511697141008165
1.7049089943179818 0.8811832178461299
1.729261551907173 0.9111967215914432
1.7536141094963644 0.9262034734640999
1.7373790711035701 0.9111967215914432
1.7211440327107759 0.9262034734640999
1.656203879139599 0.9412102253367566
1.6805564367287904 1.0012372328273833
1.6886739559251875 1.0012372328273833
1.6724389175323933 0.9862304809547265
1.5993812447648192 0.9562169772094132
1.5506761295864366 0.9562169772094132
1.5100885336044512 0.9712237290820699
1.493853495211657 1.0012372328273833
1.4613834184260683 1.0312507365726966
1.3964432648548915 1.01624398470004
1.3315031112837146 1.01624398470004
1.2503279193197436 0.9862304809547265
1.1772702465521696 0.9862304809547265
1.0960950545881984 0.9862304809547265
1.0311549010170216 0.9712237290820699
0.9499797090530505 0.9262034734640999
0.8200994019106967 0.8661764659734732
0.7226891715539314 0.8361629622281598
0.6333964603935632 0.7911427066101898
0.5846913452151805 0.7911427066101898
0.5197511916440036 0.7761359547375332
0.44669351887642966 0.686095443501593
0.3574008077160615 0.6260684360109664
0.28434313494848745 0.5810481803929963
0.2275205005737077 0.5360279247750264
0.18693290459172215 0.5360279247750264
0.1544628278061337 0.5210211729023696
0.10575771262775105 0.46099416541174293
0.05705259744936839 0.4159739097937729
-0.024122594514602705 0.34094015043048953
-0.07282770969298537 0.2959198948125195
-0.08094522888938248 0.31092664668517617
-0.08094522888938248 0.2959198948125195
-0.0971802672821767 0.2959198948125195
-0.12153282487136803 0.2508996391945495
-0.15400290165695646 0.1908726317039228
-0.194590497638942 0.17586587983126611
-0.194590497638942 0.17586587983126611
-0.1783554592461478 0.1908726317039228
-0.17023794004975068 0.17586587983126611
-0.194590497638942 0.14585237608595275
-0.23517809362092756 0.10083212046798273
-0.2920007279957073 0.07081861672266938
-0.2838832087993102 0.10083212046798273
-0.267648170406516 0.10083212046798273
-0.2514131320137218 0.10083212046798273
-0.267648170406516 0.05581186485001271
-0.27576568960291314 0.025798361104699356
-0.30011824719210445 0.040805112977356034
-0.2595306512101189 0.05581186485001271
-0.2514131320137218 0.08582536859532605
-0.23517809362092756 0.10083212046798273
-0.267648170406516 0.08582536859532605
-0.267648170406516 0.07081861672266938
-0.2920007279957073 0.08582536859532605
-0.27576568960291314 0.10083212046798273
-0.2514131320137218 0.1308456242132961
-0.2595306512101189 0.1158388723406394
-0.2838832087993102 0.1158388723406394
-0.3325883239776929 0.07081861672266938
-0.34070584317409 0.10083212046798273
-0.3325883239776929 0.1158388723406394
-0.30011824719210445 0.1308456242132961
-0.2838832087993102 0.1158388723406394
-0.31635328558489867 0.08582536859532605
-0.34070584317409 0.05581186485001271
-0.3488233623704871 0.08582536859532605
-0.36505840076328133 0.08582536859532605
-0.34070584317409 0.1158388723406394
-0.34070584317409 0.1158388723406394
-0.3488233623704871 0.08582536859532605
-0.36505840076328133 0.07081861672266938
-0.3569408815668842 0.07081861672266938
-0.36505840076328133 0.08582536859532605
-0.3325883239776929 0.1158388723406394
-0.32447080478129575 0.10083212046798273
-0.3488233623704871 0.05581186485001271
-0.36505840076328133 0.025798361104699356
-0.3569408815668842 0.040805112977356034
-0.3325883239776929 0.05581186485001271
-0.31635328558489867 0.08582536859532605
-0.31635328558489867 0.05581186485001271
-0.3488233623704871 0.05581186485001271
-0.3325883239776929 0.040805112977356034
-0.3488233623704871 0.040805112977356034
-0.3325883239776929 0.07081861672266938
-0.3325883239776929 0.07081861672266938
-0.31635328558489867 0.025798361104699356
-0.36505840076328133 0.025798361104699356
-0.38129343915607555 0.01079160923204268
-0.413763515941664 0.040805112977356034
-0.38941095835247264 0.07081861672266938
-0.3975284775488698 0.10083212046798273
-0.38941095835247264 0.08582536859532605
-0.3731759199596784 0.040805112977356034
-0.38129343915607555 0.025798361104699356
-0.40564599674526686 0.040805112977356034
-0.40564599674526686 0.07081861672266938
-0.36505840076328133 0.07081861672266938
-0.38129343915607555 0.05581186485001271
-0.38941095835247264 0.05581186485001271
-0.40564599674526686 0.040805112977356034
-0.44623359272725244 0.07081861672266938
-0.40564599674526686 0.08582536859532605
-0.38941095835247264 0.1158388723406394
-0.38129343915607555 0.10083212046798273
-0.413763515941664 0.07081861672266938
-0.4381160735308553 0.05581186485001271
-0.4381160735308553 0.07081861672266938
-0.4218810351380611 0.10083212046798273
-0.3731759199596784 0.1158388723406394
-0.38129343915607555 0.10083212046798273
-0.413763515941664 0.07081861672266938
-0.4299985543344582 0.040805112977356034
-0.4543511119236495 0.05581186485001271
-0.44623359272725244 0.08582536859532605
-0.4218810351380611 0.10083212046798273
-0.4381160735308553 0.07081861672266938
-0.4299985543344582 0.05581186485001271
-0.4381160735308553 0.040805112977356034
-0.4543511119236495 0.05581186485001271
-0.4543511119236495 0.05581186485001271
-0.413763515941664 0.07081861672266938
-0.40564599674526686 0.040805112977356034
-0.413763515941664 -0.004215142640613995
-0.4299985543344582 -0.01922189451327067
-0.4543511119236495 -0.01922189451327067
-0.4299985543344582 0.01079160923204268
-0.4218810351380611 0.01079160923204268
-0.38941095835247264 0.01079160923204268
-0.3975284775488698 -0.01922189451327067
-0.40564599674526686 -0.03422864638592735
-0.4381160735308553 -0.01922189451327067
-0.4218810351380611 -0.004215142640613995
-0.4218810351380611 0.025798361104699356
-0.3975284775488698 0.01079160923204268
-0.46246863112004666 -0.004215142640613995
-0.46246863112004666 -0.03422864638592735
-0.46246863112004666 -0.03422864638592735
-0.44623359272725244 -0.004215142640613995
-0.38941095835247264 0.025798361104699356
-0.38129343915607555 0.01079160923204268
-0.38129343915607555 -0.01922189451327067
-0.40564599674526686 -0.03422864638592735
-0.38941095835247264 -0.03422864638592735
-0.3975284775488698 -0.01922189451327067
-0.38129343915607555 -0.004215142640613995
-0.3569408815668842 -0.004215142640613995
-0.38129343915607555 -0.03422864638592735
-0.3975284775488698 -0.04923539825858402
-0.413763515941664 -0.03422864638592735
-0.38941095835247264 -0.01922189451327067
-0.413763515941664 0.01079160923204268
-0.3975284775488698 0.01079160923204268
-0.413763515941664 -0.03422864638592735
-0.4381160735308553 -0.01922189451327067
-0.4381160735308553 -0.01922189451327067
-0.40564599674526686 0.01079160923204268
-0.3731759199596784 0.025798361104699356
-0.3569408815668842 0.025798361104699356
-0.3569408815668842 -0.004215142640613995
-0.38129343915607555 -0.01922189451327067
-0.40564599674526686 -0.004215142640613995
-0.4218810351380611 0.01079160923204268
-0.3975284775488698 0.040805112977356034
-0.38941095835247264 0.025798361104699356
-0.38129343915607555 -0.004215142640613995
-0.3975284775488698 -0.01922189451327067
-0.413763515941664 -0.01922189451327067
-0.3975284775488698 -0.004215142640613995
-0.36505840076328133 0.01079160923204268
-0.34070584317409 0.01079160923204268
-0.3325883239776929 -0.01922189451327067
-0.36505840076328133 -0.01922189451327067
-0.3488233623704871 -0.01922189451327067
-0.34070584317409 -0.004215142640613995
-0.30823576638850153 -0.004215142640613995
-0.27576568960291314 -0.01922189451327067
-0.24329561281732467 -0.0642421501312407
-0.21082553603173623 -0.0642421501312407
-0.14588538246055935 -0.07924890200389736
0.00022996307458862428 -0.09425565387655405
0.26810809655569323 -0.0642421501312407
0.7795118059287112 -0.07924890200389736
1.4695009376224655 -0.10926240574921073
2.078314877352249 -0.15428266136718075
2.321840453244162 -0.1842961651124941
2.1838426269054114 -0.22931642073046413
1.875376897442321 -0.3193569319664042
1.6156162831576135 -0.5594649619289109
1.4776184568188626 -0.9946607662359546
1.3639731880693031 -1.6099375930148783
1.2665629577125377 -2.3302616829023988
1.1204476121773899 -2.7504507353367855
1.0392724202134187 -2.720437231591472
0.9093921130710649 -2.4353089460109953
0.7389242099467256 -2.210207667921145
0.5603387876259892 -2.075146901067235
0.34928328851966434 -2.000113141703952
0.17069786619892793 -1.9100726304680118
0.016465001467382844 -1.805025367359415
-0.17023794004975068 -1.760005111741445
-0.3975284775488698 -1.760005111741445
-0.5923489382624004 -1.7449983598687884
-0.8034044373687252 -1.7449983598687884
-0.9819898596894617 -1.6999781042508184
-1.1686928012065951 -1.6999781042508184
-1.3553957427237286 -1.7299916079961317
-1.5745687610264507 -1.7900186154867583
-1.8343293753111583 -1.8200321192320716
-2.037267355221086 -1.850045622977385
-2.2077352583454255 -1.8350388711047283
-2.3376155654877793 -1.7900186154867583
-2.467495872630133 -1.7900186154867583
-2.621728737361678 -1.8200321192320716
-2.7272564869148406 -1.8650523748500418
-2.849019274860797 -1.8650523748500418
-2.8896068708427824 -1.8800591267226985
-2.946429505217562 -1.8800591267226985
-2.9788995820031507 -1.8950658785953551
-3.043839735574328 -1.940086134213325
-3.0600747739671217 -1.9550928860859818
-3.0844273315563133 -1.985106389831295
-3.068192293163519 -1.9550928860859818
-3.043839735574328 -1.9550928860859818
-2.9870171011995477 -2.000113141703952
-2.946429505217562 -2.0601401491945786
-2.89772439003918 -2.1501806604305185
-2.857136794057194 -2.1952009160484884
-2.7272564869148406 -2.2252144197938017
-2.573023622183295 -2.2552279235391155
-2.41879075745175 -2.3302616829023988
-2.2158527775418224 -2.405295442265682
-2.05350239361388 -2.4353089460109953
-1.8424468945075554 -2.4203021941383387
-1.6232738762048333 -2.315254931029742
-1.4609234922768912 -2.180194164175832
-1.4122183770985086 -2.120167156685205
-1.371630781116523 -2.0601401491945786
-1.3553957427237286 -2.045133397321922
-1.2742205507597577 -1.9550928860859818
-1.1768103204029923 -1.8650523748500418
-1.0631650516534328 -1.7449983598687884
-0.9819898596894617 -1.6399510967601916
-0.8926971485290934 -1.579924089269565
-0.8439920333507108 -1.5048903299062815
-0.7546993221903426 -1.3698295630523714
-0.6491715726371802 -1.2347687961984615
-0.5192912654948264 -1.0997080293445514
-0.413763515941664 -0.9646472624906413
-0.32447080478129575 -0.8595999993820445
-0.24329561281732467 -0.7545527362734478
-0.1864729784425449 -0.6194919694195377
-0.06471019049658826 -0.4844312025656276
0.016465001467382844 -0.33436368383906084
0.06517011664576551 -0.25932992447577746
0.07328763584216262 -0.19930291698515076
0.08140515503855972 -0.13927590949452406
0.09764019343135394 -0.0642421501312407
0.12199275102054527 0.01079160923204268
0.16258034700253082 0.08582536859532605
0.20316794298451638 0.1158388723406394
0.19505042378811926 0.1158388723406394
0.20316794298451638 0.1158388723406394
0.2194029813773106 0.14585237608595275
0.24375553896650193 0.17586587983126611
0.28434313494848745 0.22088613544923613
0.3086956925376788 0.2358928873218928
0.27622561575209037 0.20587938357657945
0.25999057735929615 0.20587938357657945
0.25999057735929615 0.22088613544923613
0.3005781733412817 0.26590639106720615
0.3330482501268701 0.28091314293986286
0.36551832691245856 0.31092664668517617
0.3898708845016499 0.28091314293986286
0.397988403698047 0.26590639106720615
0.42234096128723836 0.28091314293986286
0.4385759996800326 0.31092664668517617
0.4629285572692239 0.34094015043048953
0.5116336724476066 0.34094015043048953
0.5359862300367979 0.34094015043048953
0.5278687108404008 0.3259333985578329
0.5197511916440036 0.3259333985578329
0.5765738260187835 0.34094015043048953
0.617161422000769 0.38596040604845955
0.6577490179827545 0.3709536541758029
0.6496314987863574 0.3259333985578329
0.6658665371791517 0.2959198948125195
0.690219094768343 0.3259333985578329
0.6983366139647401 0.35594690230314624
0.763276767535917 0.38596040604845955
0.8119818827142996 0.3709536541758029
0.8119818827142996 0.3709536541758029
0.8200994019106967 0.34094015043048953
0.8363344403034909 0.35594690230314624
0.8688045170890794 0.38596040604845955
0.9175096322674621 0.4159739097937729
0.9418621898566534 0.40096715792111626
0.9499797090530505 0.4159739097937729
0.9499797090530505 0.4159739097937729
0.9662147474458447 0.46099416541174293
1.0230373818206244 0.506014421029713
1.0636249778026101 0.5360279247750264
1.0960950545881984 0.551034676647683
1.1204476121773899 0.5210211729023696
1.128565131373787 0.5360279247750264
1.1610352081593753 0.5810481803929963
1.217857842534155 0.6260684360109664
1.290915515301729 0.6710886916289364
1.3396206304801117 0.6710886916289364
1.3883257456584945 0.6560819397562797
1.3883257456584945 0.686095443501593
1.42891334164048 0.7011021953742498
1.4776184568188626 0.7761359547375332
1.5263235719972452 0.7911427066101898
1.5831462063720252 0.8211562103555031
1.5993812447648192 0.8061494584828465
1.591263725568422 0.8061494584828465
1.6074987639612164 0.8511697141008165
1.656203879139599 0.8961899697187865
1.6886739559251875 0.9562169772094132
1.7049089943179818 0.9862304809547265
1.7130265135143787 0.9862304809547265
1.7130265135143787 1.0012372328273833
1.6967914751215847 1.0312507365726966
1.7049089943179818 1.0762709921906666
1.6967914751215847 1.1062844959359799
1.6724389175323933 1.1362979996812934
1.648086359943202 1.1062844959359799
1.6156162831576135 1.1062844959359799
1.5831462063720252 1.0912777440633232
1.575028687175628 1.1212912478086368
1.5506761295864366 1.15130475155395
1.5344410911936424 1.1212912478086368
1.4532658992296714 1.0762709921906666
1.3720907072657003 1.06126424031801
1.3233855920873177 1.0312507365726966
1.3233855920873177 1.0312507365726966
1.2990330344981262 1.0012372328273833
1.209740323337758 0.9712237290820699
1.128565131373787 0.8811832178461299
1.0149198626242273 0.8361629622281598
0.9337446706602562 0.7911427066101898
0.8606869978926823 0.7911427066101898
0.8119818827142996 0.7911427066101898
0.7389242099467256 0.7161089472469064
0.6577490179827545 0.686095443501593
0.5522212684295921 0.6110616841383097
0.44669351887642966 0.596054932265653
0.397988403698047 0.551034676647683
0.3574008077160615 0.5660414285203397
0.3086956925376788 0.5210211729023696
0.23563801977010482 0.43098066166642957
0.16258034700253082 0.3709536541758029
0.09764019343135394 0.3259333985578329
0.03270003986017706 0.3709536541758029
0.016465001467382844 0.3259333985578329
-0.016005075318205594 0.2959198948125195
-0.07282770969298537 0.22088613544923613
-0.10529778647857381 0.17586587983126611
-0.12965034406776513 0.16085912795860943
-0.13776786326416224 0.1908726317039228
-0.15400290165695646 0.20587938357657945
-0.16212042085335357 0.16085912795860943
-0.20270801683533912 0.1158388723406394
-0.22706057442453045 0.08582536859532605
-0.24329561281732467 0.10083212046798273
-0.2595306512101189 0.1158388723406394
-0.23517809362092756 0.14585237608595275
-0.21082553603173623 0.1158388723406394
-0.2514131320137218 0.1158388723406394
-0.2838832087993102 0.08582536859532605
-0.30011824719210445 0.1308456242132961
-0.27576568960291314 0.16085912795860943
-0.267648170406516 0.17586587983126611
-0.27576568960291314 0.14585237608595275
-0.2514131320137218 0.1308456242132961
-0.2838832087993102 0.1158388723406394
-0.2920007279957073 0.1308456242132961
-0.27576568960291314 0.16085912795860943
-0.24329561281732467 0.17586587983126611
-0.22706057442453045 0.14585237608595275
-0.20270801683533912 0.1308456242132961
-0.22706057442453045 0.1158388723406394
-0.21894305522813334 0.1158388723406394
-0.194590497638942 0.1158388723406394
-0.14588538246055935 0.1158388723406394
-0.13776786326416224 0.1158388723406394
-0.14588538246055935 0.07081861672266938
-0.194590497638942 0.040805112977356034
-0.21894305522813334 0.040805112977356034
-0.23517809362092756 0.05581186485001271
-0.22706057442453045 0.040805112977356034
-0.21894305522813334 0.040805112977356034
-0.267648170406516 0.025798361104699356
-0.27576568960291314 0.01079160923204268
-0.30011824719210445 0.025798361104699356
-0.2838832087993102 0.07081861672266938
-0.267648170406516 0.08582536859532605
-0.27576568960291314 0.08582536859532605
-0.2920007279957073 0.05581186485001271
-0.32447080478129575 0.01079160923204268
-0.3325883239776929 0.025798361104699356
-0.3488233623704871 0.040805112977356034
-0.32447080478129575 0.05581186485001271
-0.31635328558489867 0.05581186485001271
-0.32447080478129575 0.025798361104699356
-0.36505840076328133 0.01079160923204268
-0.36505840076328133 0.025798361104699356
-0.3569408815668842 0.05581186485001271
-0.34070584317409 0.040805112977356034
-0.3488233623704871 0.040805112977356034
-0.3488233623704871 0.040805112977356034
-0.38129343915607555 -0.004215142640613995
-0.38129343915607555 0.025798361104699356
-0.3731759199596784 0.05581186485001271
-0.36505840076328133 0.08582536859532605
-0.3488233623704871 0.08582536859532605
-0.38129343915607555 0.07081861672266938
-0.38129343915607555 0.05581186485001271
-0.40564599674526686 0.07081861672266938
-0.3975284775488698 0.10083212046798273
-0.3731759199596784 0.1158388723406394
-0.3569408815668842 0.1158388723406394
-0.36505840076328133 0.08582536859532605
-0.38129343915607555 0.05581186485001271
-0.38129343915607555 0.10083212046798273
-0.38941095835247264 0.10083212046798273
-0.38129343915607555 0.10083212046798273
-0.36505840076328133 0.08582536859532605
-0.36505840076328133 0.05581186485001271
-0.3731759199596784 0.05581186485001271
-0.3731759199596784 0.07081861672266938
-0.3569408815668842 0.07081861672266938
-0.30011824719210445 0.10083212046798273
-0.2838832087993102 0.10083212046798273
-0.2838832087993102 0.07081861672266938
-0.27576568960291314 0.025798361104699356
-0.30823576638850153 0.040805112977356034
-0.31635328558489867 0.025798361104699356
-0.30823576638850153 0.040805112977356034
-0.30823576638850153 0.01079160923204268
-0.3569408815668842 0.01079160923204268
-0.38941095835247264 -0.03422864638592735
-0.413763515941664 -0.04923539825858402
-0.3975284775488698 -0.03422864638592735
-0.40564599674526686 -0.004215142640613995
-0.38129343915607555 -0.03422864638592735
-0.3975284775488698 -0.01922189451327067
-0.4218810351380611 -0.04923539825858402
-0.413763515941664 -0.04923539825858402
-0.3975284775488698 -0.01922189451327067
-0.36505840076328133 -0.004215142640613995
-0.3731759199596784 0.025798361104699356
-0.40564599674526686 -0.01922189451327067
-0.4543511119236495 -0.03422864638592735
-0.46246863112004666 -0.01922189451327067
-0.40564599674526686 -0.01922189451327067
-0.4218810351380611 0.01079160923204268
-0.413763515941664 -0.004215142640613995
-0.40564599674526686 -0.01922189451327067
-0.4543511119236495 -0.01922189451327067
-0.44623359272725244 -0.01922189451327067
-0.4381160735308553 -0.01922189451327067
-0.3975284775488698 -0.004215142640613995
-0.38129343915607555 -0.03422864638592735
-0.38941095835247264 -0.03422864638592735
-0.40564599674526686 -0.04923539825858402
-0.44623359272725244 -0.04923539825858402
-0.413763515941664 -0.03422864638592735
-0.3975284775488698 -0.004215142640613995
-0.3975284775488698 -0.03422864638592735
-0.44623359272725244 -0.03422864638592735
-0.4218810351380611 -0.04923539825858402
-0.4299985543344582 -0.0642421501312407
-0.40564599674526686 -0.03422864638592735
-0.38941095835247264 -0.01922189451327067
-0.413763515941664 -0.04923539825858402
-0.413763515941664 -0.0642421501312407
-0.4381160735308553 -0.0642421501312407
-0.44623359272725244 -0.0642421501312407
-0.3975284775488698 -0.04923539825858402
-0.3731759199596784 -0.01922189451327067
-0.36505840076328133 -0.03422864638592735
-0.3731759199596784 -0.0642421501312407
-0.40564599674526686 -0.09425565387655405
-0.38941095835247264 -0.04923539825858402
-0.3569408815668842 -0.03422864638592735
-0.34070584317409 -0.03422864638592735
-0.32447080478129575 -0.04923539825858402
-0.30823576638850153 -0.07924890200389736
-0.2514131320137218 -0.1242691576218674
-0.10529778647857381 -0.1242691576218674
0.19505042378811926 -0.09425565387655405
0.8038643635179025 -0.10926240574921073
1.6967914751215847 -0.1242691576218674
2.443603241190119 -0.1842961651124941
2.4841908371721044 -0.3193569319664042
2.0620798389594546 -0.514444706310941
1.6318513215504078 -0.9046202550000145
1.4207958224440829 -1.6399510967601916
1.2990330344981262 -2.5253494572469353
1.2016228041413608 -2.9755520134266358
1.0149198626242273 -2.780464239082099
0.8200994019106967 -2.315254931029742
0.6739840563755488 -2.000113141703952
0.4953986340548123 -1.9100726304680118
0.27622561575209037 -1.8800591267226985
0.00022996307458862428 -1.8350388711047283
-0.267648170406516 -1.8350388711047283
-0.5111737462984293 -1.7449983598687884
-0.7222292454047542 -1.7299916079961317
-0.9495197829038733 -1.760005111741445
-1.1768103204029923 -1.7900186154867583
-1.4122183770985086 -1.850045622977385
-1.6395089145976276 -1.8800591267226985
-1.8830344904895409 -1.8800591267226985
-2.102207508792263 -1.8650523748500418
-2.3051454887021907 -1.8650523748500418
-2.467495872630133 -1.8650523748500418
-2.6379637757544723 -1.8650523748500418
-2.767844082896826 -1.940086134213325
-2.9058419092355767 -1.9700996379586384
-2.995134620395945 -1.9550928860859818
-3.068192293163519 -1.9700996379586384
-3.0925448507527102 -2.000113141703952
-3.1574850043238873 -2.045133397321922
-3.198072600305873 -2.075146901067235
-3.1899550811094755 -2.090153652939892
-3.141249965931093 -2.1051604048125485
-3.0600747739671217 -2.135173908557862
-2.9788995820031507 -2.1952009160484884
-2.946429505217562 -2.3302616829023988
-2.8327842364680027 -2.405295442265682
-2.702903929325649 -2.4653224497563087
-2.426908276648147 -2.405295442265682
-2.2077352583454255 -2.3752819385203687
-1.9804447208463063 -2.3302616829023988
-1.7856242601327756 -2.2552279235391155
-1.6476264337940247 -2.165187412303175
-1.590803799419245 -2.075146901067235
-1.5420986842408624 -1.985106389831295
-1.4690410114732884 -1.940086134213325
-1.371630781116523 -1.8650523748500418
-1.2904555891525518 -1.8350388711047283
-1.217397916384978 -1.714984856123475
-1.0956351284390213 -1.5949308411422216
-0.9901073788858588 -1.4448633224156548
-0.852109552547108 -1.3098025555617447
-0.7384642837975484 -1.1747417887078346
-0.6248190150479889 -1.0546877737265812
-0.5274087846912235 -0.9196270068726712
-0.4299985543344582 -0.7695594881461044
-0.31635328558489867 -0.604485217546881
-0.1864729784425449 -0.46942445069297095
-0.12965034406776513 -0.34937043571171755
-0.05659267130019115 -0.27433667634843417
-0.016005075318205594 -0.22931642073046413
0.00022996307458862428 -0.13927590949452406
0.06517011664576551 -0.0642421501312407
0.11387523182414816 0.025798361104699356
0.17069786619892793 0.07081861672266938
0.18693290459172215 0.08582536859532605
0.19505042378811926 0.1158388723406394
0.19505042378811926 0.1308456242132961
0.23563801977010482 0.16085912795860943
0.26810809655569323 0.1908726317039228
0.3005781733412817 0.17586587983126611
0.3005781733412817 0.17586587983126611
0.3005781733412817 0.17586587983126611
0.2924606541448846 0.17586587983126611
0.27622561575209037 0.20587938357657945
0.32493073093047303 0.2358928873218928
0.34928328851966434 0.20587938357657945
0.34116576932326725 0.20587938357657945
0.3574008077160615 0.17586587983126611
0.36551832691245856 0.22088613544923613
0.3736358461088557 0.20587938357657945
0.4142234420908412 0.26590639106720615
0.43045848048363544 0.2508996391945495
0.44669351887642966 0.22088613544923613
0.471046076465621 0.20587938357657945
0.4791635956620181 0.2358928873218928
0.5035161532512095 0.26590639106720615
0.5197511916440036 0.31092664668517617
0.544103749233195 0.31092664668517617
0.5684563068223863 0.2959198948125195
0.5684563068223863 0.2959198948125195
0.5765738260187835 0.3259333985578329
0.617161422000769 0.3259333985578329
0.6577490179827545 0.35594690230314624
0.6983366139647401 0.3709536541758029
0.7064541331611371 0.35594690230314624
0.7064541331611371 0.3709536541758029
0.7470417291431227 0.3709536541758029
0.8038643635179025 0.40096715792111626
0.8606869978926823 0.43098066166642957
0.9175096322674621 0.4159739097937729
0.9418621898566534 0.4159739097937729
0.9743322666422418 0.4159739097937729
0.9662147474458447 0.46099416541174293
1.0392724202134187 0.506014421029713
1.1123300929809927 0.551034676647683
1.1610352081593753 0.5660414285203397
1.1853877657485667 0.5810481803929963
1.209740323337758 0.5660414285203397
1.2422104001233465 0.6110616841383097
1.2990330344981262 0.686095443501593
1.3720907072657003 0.7011021953742498
1.4045607840512886 0.7311156991195631
1.4370308608368771 0.7161089472469064
1.4532658992296714 0.7161089472469064
1.4776184568188626 0.7311156991195631
1.5344410911936424 0.7911427066101898
1.591263725568422 0.8361629622281598
1.6156162831576135 0.8361629622281598
1.6237338023540107 0.8211562103555031
1.6318513215504078 0.8061494584828465
1.656203879139599 0.8511697141008165
1.6967914751215847 0.8661764659734732
1.7211440327107759 0.9111967215914432
1.7536141094963644 0.9262034734640999
1.7698491478891587 0.8961899697187865
1.7373790711035701 0.8811832178461299
1.6967914751215847 0.9111967215914432
1.7049089943179818 0.9412102253367566
1.6886739559251875 0.9562169772094132
1.6805564367287904 0.9562169772094132
1.656203879139599 0.9412102253367566
1.591263725568422 0.9262034734640999
1.566911167979231 0.9412102253367566
1.5425586103900395 0.9262034734640999
1.5263235719972452 0.9712237290820699
1.493853495211657 0.9412102253367566
1.42891334164048 0.9111967215914432
1.355855668872906 0.8961899697187865
1.2665629577125377 0.8961899697187865
1.2259753617305522 0.8811832178461299
1.1935052849449639 0.8961899697187865
1.144800169766581 0.8511697141008165
1.0473899394098158 0.8211562103555031
0.9499797090530505 0.7911427066101898
0.8119818827142996 0.7461224509922197
0.763276767535917 0.7461224509922197
0.6983366139647401 0.7161089472469064
0.6252789411971661 0.6710886916289364
0.5359862300367979 0.6260684360109664
0.4548110380728268 0.551034676647683
0.3898708845016499 0.551034676647683
0.3168132117340759 0.5210211729023696
0.26810809655569323 0.4910076691570563
0.2194029813773106 0.46099416541174293
0.1382277894133395 0.40096715792111626
0.04893507825297128 0.35594690230314624
-0.016005075318205594 0.3259333985578329
-0.048475152103794036 0.3259333985578329
-0.08906274808577959 0.31092664668517617
-0.10529778647857381 0.26590639106720615
-0.1783554592461478 0.2508996391945495
-0.21894305522813334 0.2358928873218928
-0.22706057442453045 0.2358928873218928
-0.24329561281732467 0.26590639106720615
-0.21894305522813334 0.28091314293986286
-0.22706057442453045 0.2358928873218928
-0.2838832087993102 0.22088613544923613
-0.3325883239776929 0.17586587983126611
-0.3569408815668842 0.16085912795860943
-0.3488233623704871 0.17586587983126611
-0.34070584317409 0.1908726317039228
-0.32447080478129575 0.14585237608595275
-0.34070584317409 0.1308456242132961
-0.3488233623704871 0.1158388723406394
-0.3731759199596784 0.1158388723406394
-0.36505840076328133 0.1308456242132961
-0.3569408815668842 0.14585237608595275
-0.3569408815668842 0.1158388723406394
-0.36505840076328133 0.07081861672266938
-0.4299985543344582 0.07081861672266938
-0.4218810351380611 0.05581186485001271
-0.40564599674526686 0.08582536859532605
-0.36505840076328133 0.08582536859532605
-0.36505840076328133 0.07081861672266938
-0.3731759199596784 0.025798361104699356
-0.3975284775488698 -0.004215142640613995
-0.44623359272725244 -0.004215142640613995
-0.413763515941664 0.025798361104699356
-0.38941095835247264 0.07081861672266938
-0.3731759199596784 0.025798361104699356
-0.3731759199596784 -0.004215142640613995
-0.38129343915607555 -0.01922189451327067
-0.38129343915607555 -0.004215142640613995
-0.3731759199596784 0.01079160923204268
-0.3488233623704871 0.040805112977356034
-0.3488233623704871 0.025798361104699356
-0.38129343915607555 0.01079160923204268
-0.3975284775488698 0.01079160923204268
-0.4218810351380611 0.025798361104699356
-0.4218810351380611 0.040805112977356034
-0.3975284775488698 0.040805112977356034
-0.4218810351380611 0.01079160923204268
-0.44623359272725244 0.01079160923204268
-0.4381160735308553 -0.004215142640613995
-0.47058615031644374 -0.004215142640613995
-0.4543511119236495 0.01079160923204268
-0.4218810351380611 0.040805112977356034
-0.413763515941664 0.040805112977356034
-0.4381160735308553 0.040805112977356034
-0.4381160735308553 0.025798361104699356
-0.4543511119236495 0.040805112977356034
-0.44623359272725244 0.05581186485001271
-0.44623359272725244 0.05581186485001271
-0.4299985543344582 0.05581186485001271
-0.4543511119236495 0.05581186485001271
-0.5030562271020322 0.05581186485001271
-0.5111737462984293 0.040805112977356034
-0.4787036695128409 0.05581186485001271
-0.44623359272725244 0.08582536859532605
-0.4218810351380611 0.08582536859532605
-0.4218810351380611 0.040805112977356034
-0.4543511119236495 0.05581186485001271
-0.44623359272725244 0.05581186485001271
-0.4299985543344582 0.08582536859532605
-0.3975284775488698 0.10083212046798273
-0.40564599674526686 0.10083212046798273
-0.40564599674526686 0.05581186485001271
-0.38129343915607555 0.040805112977356034
-0.38129343915607555 0.01079160923204268
-0.3325883239776929 0.040805112977356034
-0.267648170406516 0.05581186485001271
-0.1864729784425449 0.01079160923204268
-0.10529778647857381 -0.01922189451327067
-0.016005075318205594 -0.01922189451327067
0.08952267423495683 -0.01922189451327067
0.2194029813773106 -0.04923539825858402
0.3898708845016499 -0.01922189451327067
0.5197511916440036 -0.0642421501312407
0.6415139795899604 -0.09425565387655405
0.7389242099467256 -0.1242691576218674
0.8363344403034909 -0.16928941323983743
0.9418621898566534 -0.13927590949452406
1.0636249778026101 -0.1242691576218674
1.2016228041413608 -0.10926240574921073
1.3315031112837146 -0.1242691576218674
1.4451483800332743 -0.1242691576218674
1.5263235719972452 -0.09425565387655405
1.6643213983359961 -0.01922189451327067
1.802319224674747 0.05581186485001271
1.948434570209895 0.08582536859532605
2.0864323965486458 0.14585237608595275
2.2731353380657793 0.22088613544923613
2.394898126011736 0.34094015043048953
2.5004258755648987 0.46099416541174293
2.614071144314458 0.5660414285203397
2.7601864898496062 0.6110616841383097
2.9306543929739455 0.6710886916289364
3.052417180919902 0.7011021953742498
3.1579449304730645 0.8211562103555031
3.214767564847844 0.9262034734640999
3.19853252645505 1.0312507365726966
3.0767697385090935 1.06126424031801
2.849479201009974 1.06126424031801
2.4354857219937216 0.9862304809547265
1.8266717822639384 0.8511697141008165
1.1366826505701841 0.7461224509922197
0.5359862300367979 0.7011021953742498
0.09764019343135394 0.596054932265653
-0.16212042085335357 0.5810481803929963
-0.31635328558489867 0.6260684360109664
-0.40564599674526686 0.7161089472469064
-0.5111737462984293 0.7761359547375332
-0.6167014958515917 0.7461224509922197
-0.7303467646011513 0.686095443501593
-0.8439920333507108 0.596054932265653
-0.9576373021002703 0.506014421029713
-1.0550475324570356 0.4159739097937729
-1.1199876860282125 0.31092664668517617
-1.1199876860282125 0.2358928873218928
-1.1362227244210068 0.14585237608595275
-1.1849278395993894 0.040805112977356034
-1.2417504739741692 -0.04923539825858402
-1.2579855123669634 -0.07924890200389736
-1.2742205507597577 -0.09425565387655405
-1.2823380699561548 -0.10926240574921073
-1.298573108348949 -0.1242691576218674
-1.3472782235273317 -0.16928941323983743
-1.3553957427237286 -0.1842961651124941
-1.3878658195093172 -0.21430966885780744
-1.37974830031292 -0.19930291698515076
-1.3635132619201258 -0.19930291698515076
-1.37974830031292 -0.21430966885780744
-1.4122183770985086 -0.25932992447577746
-1.4365709346876998 -0.27433667634843417
-1.5015110882588767 -0.27433667634843417
-1.4933935690624796 -0.25932992447577746
-1.4690410114732884 -0.22931642073046413
-1.525863645848068 -0.2443231726031208
-1.5583337226336564 -0.27433667634843417
-1.6070388378120393 -0.2893434282210908
-1.6151563570084362 -0.2893434282210908
-1.663861472186819 -0.25932992447577746
-1.6557439529904219 -0.2443231726031208
-1.6719789913832162 -0.2443231726031208
-1.7125665873652016 -0.27433667634843417
-1.753154183347187 -0.27433667634843417
-1.8018592985255697 -0.25932992447577746
-1.8099768177219668 -0.2443231726031208
-1.8099768177219668 -0.21430966885780744
-1.8262118561147611 -0.22931642073046413
-1.8749169712931437 -0.2443231726031208
-1.9317396056679235 -0.25932992447577746
-1.9723272016499092 -0.22931642073046413
-1.9804447208463063 -0.21430966885780744
-2.0047972784354977 -0.16928941323983743
-2.05350239361388 -0.19930291698515076
-2.1427951047742484 -0.21430966885780744
-2.2077352583454255 -0.2443231726031208
-2.2645578927202052 -0.2443231726031208
-2.2970279695057934 -0.2443231726031208
-2.321380527094985 -0.22931642073046413
-2.41879075745175 -0.2443231726031208
-2.4512608342373388 -0.2893434282210908
-2.5162009878085154 -0.3043501800937475
-2.5649061029868983 -0.3193569319664042
-2.6054936989688837 -0.3043501800937475
-2.6379637757544723 -0.3193569319664042
-2.6704338525400604 -0.34937043571171755
-2.7434915253076344 -0.37938393945703086
-2.8327842364680027 -0.4244041950750009
-2.8652543132535913 -0.4394109469476576
-2.8896068708427824 -0.45441769882031424
-2.922076947628371 -0.45441769882031424
-2.9545470244139596 -0.4844312025656276
-3.019487177985136 -0.5444582100562543
-3.0600747739671217 -0.5744717138015677
-3.0925448507527102 -0.5744717138015677
-3.1006623699491076 -0.5744717138015677
-3.1087798891455045 -0.5744717138015677
-3.1168974083419014 -0.6194919694195377
-3.1656025235202843 -0.6495054731648511
-3.198072600305873 -0.6795189769101644
-3.214307638698667 -0.694525728782821
-3.2061901195022697 -0.6795189769101644
-3.1737200427166816 -0.6495054731648511
-3.1737200427166816 -0.6645122250375077
-3.1899550811094755 -0.694525728782821
-3.222425157895064 -0.7245392325281345
-3.222425157895064 -0.7395459844007911
-3.198072600305873 -0.7095324806554777
-3.141249965931093 -0.7095324806554777
-3.0925448507527102 -0.7095324806554777
-3.0844273315563133 -0.7095324806554777
-3.068192293163519 -0.7695594881461044
-3.0519572547707248 -0.7695594881461044
-2.995134620395945 -0.7095324806554777
-2.930194466824768 -0.6645122250375077
-2.9058419092355767 -0.6344987212921943
-2.857136794057194 -0.6344987212921943
-2.800314159682414 -0.6495054731648511
-2.7597265637004287 -0.6194919694195377
-2.6866688909328547 -0.5444582100562543
-2.5892586605760894 -0.4844312025656276
-2.5405535453977066 -0.4844312025656276
-2.47561339182653 -0.4844312025656276
-2.4350257958445445 -0.514444706310941
-2.402555719058956 -0.4394109469476576
-2.345733084684176 -0.4394109469476576
-2.248322854327411 -0.39439069132968757
-2.1671476623634396 -0.37938393945703086
-2.126560066381454 -0.39439069132968757
-2.0778549512030717 -0.4244041950750009
-2.021032316828292 -0.37938393945703086
-1.9236220864715265 -0.3193569319664042
-1.8749169712931437 -0.3193569319664042
-1.7693892217399814 -0.3043501800937475
-1.74503666415079 -0.3043501800937475
-1.7125665873652016 -0.33436368383906084
-1.663861472186819 -0.3193569319664042
-1.5826862802228479 -0.3043501800937475
-1.5096286074552738 -0.27433667634843417
-1.4609234922768912 -0.27433667634843417
-1.4122183770985086 -0.2893434282210908
-1.4041008579021115 -0.2893434282210908
-1.3391607043309346 -0.2893434282210908
-1.2823380699561548 -0.2443231726031208
-1.225515435581375 -0.2443231726031208
-1.1686928012065951 -0.25932992447577746
-1.152457762813801 -0.25932992447577746
-1.1037526476354182 -0.25932992447577746
-1.0875176092426242 -0.2443231726031208
-1.0225774556714473 -0.22931642073046413
-0.9657548212966675 -0.19930291698515076
-0.9170497061182848 -0.16928941323983743
-0.9008146677254906 -0.1842961651124941
-0.8764621101362993 -0.1842961651124941
-0.860227071743505 -0.1842961651124941
-0.852109552547108 -0.15428266136718075
-0.7871693989759311 -0.1242691576218674
-0.7465818029939455 -0.13927590949452406
-0.7141117262083571 -0.13927590949452406
-0.7059942070119599 -0.16928941323983743
-0.7141117262083571 -0.13927590949452406
-0.641054053440783 -0.10926240574921073
-0.6085839766551946 -0.07924890200389736
-0.5355263038876207 -0.0642421501312407
-0.5274087846912235 -0.09425565387655405
-0.5274087846912235 -0.09425565387655405
-0.5192912654948264 -0.0642421501312407
-0.5192912654948264 -0.0642421501312407
-0.47058615031644374 0.01079160923204268
-0.4381160735308553 0.01079160923204268
-0.4299985543344582 0.01079160923204268
-0.4299985543344582 -0.004215142640613995
-0.4299985543344582 0.025798361104699356
-0.3975284775488698 0.025798361104699356
-0.36505840076328133 0.07081861672266938
-0.3488233623704871 0.07081861672266938
-0.3488233623704871 0.040805112977356034
-0.3731759199596784 0.01079160923204268
-0.3975284775488698 0.040805112977356034
-0.3569408815668842 0.05581186485001271
-0.32447080478129575 0.07081861672266938
-0.30823576638850153 0.07081861672266938
-0.32447080478129575 0.05581186485001271
-0.3488233623704871 0.040805112977356034
-0.3731759199596784 0.05581186485001271
-0.36505840076328133 0.08582536859532605
-0.3488233623704871 0.08582536859532605
-0.32447080478129575 0.10083212046798273
-0.31635328558489867 0.07081861672266938
-0.3488233623704871 0.05581186485001271
-0.3325883239776929 0.05581186485001271
-0.30011824719210445 0.040805112977356034
-0.2838832087993102 0.040805112977356034
-0.267648170406516 0.040805112977356034
-0.2838832087993102 0.01079160923204268
-0.30011824719210445 -0.004215142640613995
-0.2920007279957073 0.01079160923204268
-0.27576568960291314 -0.004215142640613995
-0.2514131320137218 0.040805112977356034
-0.21894305522813334 0.01079160923204268
-0.22706057442453045 -0.004215142640613995
-0.24329561281732467 -0.004215142640613995
-0.24329561281732467 -0.01922189451327067
-0.23517809362092756 0.01079160923204268
-0.21894305522813334 0.025798361104699356
-0.20270801683533912 0.025798361104699356
-0.24329561281732467 -0.004215142640613995
-0.27576568960291314 -0.04923539825858402
-0.2838832087993102 -0.03422864638592735
-0.27576568960291314 -0.004215142640613995
-0.24329561281732467 0.025798361104699356
-0.23517809362092756 0.025798361104699356
-0.22706057442453045 -0.004215142640613995
-0.23517809362092756 -0.004215142640613995
-0.23517809362092756 0.01079160923204268
-0.24329561281732467 0.040805112977356034
-0.194590497638942 0.05581186485001271
-0.21082553603173623 0.05581186485001271
-0.1864729784425449 0.040805112977356034
-0.21082553603173623 0.025798361104699356
-0.22706057442453045 0.025798361104699356
-0.23517809362092756 0.05581186485001271
-0.194590497638942 0.10083212046798273
-0.17023794004975068 0.1158388723406394
-0.20270801683533912 0.10083212046798273
-0.21082553603173623 0.07081861672266938
-0.23517809362092756 0.07081861672266938
-0.21894305522813334 0.1158388723406394
-0.194590497638942 0.14585237608595275
-0.17023794004975068 0.10083212046798273
-0.1864729784425449 0.08582536859532605
-0.21082553603173623 0.07081861672266938
-0.21082553603173623 0.08582536859532605
-0.194590497638942 0.10083212046798273
-0.17023794004975068 0.1158388723406394
-0.17023794004975068 0.1158388723406394
-0.194590497638942 0.08582536859532605
-0.23517809362092756 0.07081861672266938
-0.23517809362092756 0.08582536859532605
-0.194590497638942 0.1158388723406394
-0.1864729784425449 0.1158388723406394
-0.15400290165695646 0.08582536859532605
-0.17023794004975068 0.07081861672266938
-0.194590497638942 0.040805112977356034
-0.21894305522813334 0.05581186485001271
-0.21894305522813334 0.08582536859532605
-0.194590497638942 0.08582536859532605
-0.1864729784425449 0.07081861672266938
-0.1783554592461478 0.05581186485001271
-0.1783554592461478 -0.004215142640613995
-0.194590497638942 0.01079160923204268
-0.17023794004975068 0.01079160923204268
-0.13776786326416224 0.05581186485001271
-0.15400290165695646 0.05581186485001271
-0.17023794004975068 0.01079160923204268
-0.1864729784425449 -0.004215142640613995
-0.20270801683533912 -0.004215142640613995
-0.194590497638942 0.025798361104699356
-0.1864729784425449 0.025798361104699356
-0.20270801683533912 0.01079160923204268
-0.1864729784425449 0.01079160923204268
-0.21082553603173623 -0.004215142640613995
-0.21082553603173623 -0.004215142640613995
-0.20270801683533912 -0.004215142640613995
-0.14588538246055935 0.025798361104699356
-0.12153282487136803 0.040805112977356034
-0.11341530567497092 0.01079160923204268
-0.12965034406776513 0.01079160923204268
-0.12965034406776513 -0.004215142640613995
-0.13776786326416224 0.01079160923204268
-0.12153282487136803 0.040805112977356034
-0.08094522888938248 0.025798361104699356
-0.13776786326416224 0.025798361104699356
-0.14588538246055935 0.025798361104699356
-0.13776786326416224 0.040805112977356034
-0.13776786326416224 0.05581186485001271
-0.10529778647857381 0.08582536859532605
-0.11341530567497092 0.05581186485001271
-0.14588538246055935 0.040805112977356034
-0.12965034406776513 0.025798361104699356
-0.13776786326416224 0.025798361104699356
-0.11341530567497092 0.05581186485001271
-0.08094522888938248 0.07081861672266938
-0.08094522888938248 0.05581186485001271
-0.10529778647857381 0.040805112977356034
-0.13776786326416224 0.025798361104699356
-0.16212042085335357 0.05581186485001271
-0.15400290165695646 0.07081861672266938
-0.11341530567497092 0.08582536859532605
-0.10529778647857381 0.07081861672266938
-0.10529778647857381 0.07081861672266938
-0.14588538246055935 0.05581186485001271
-0.14588538246055935 0.07081861672266938
-0.12965034406776513 0.08582536859532605
-0.12965034406776513 0.10083212046798273
-0.08906274808577959 0.08582536859532605
-0.10529778647857381 0.07081861672266938
-0.12153282487136803 0.07081861672266938
-0.13776786326416224 0.05581186485001271
-0.0971802672821767 0.07081861672266938
-0.08906274808577959 0.10083212046798273
-0.08094522888938248 0.08582536859532605
-0.06471019049658826 0.05581186485001271
-0.0971802672821767 0.01079160923204268
-0.14588538246055935 0.01079160923204268
-0.06471019049658826 0.01079160923204268
-0.024122594514602705 0.01079160923204268
-0.040357632907396926 -0.01922189451327067
-0.048475152103794036 -0.03422864638592735
-0.05659267130019115 -0.04923539825858402
-0.08094522888938248 -0.04923539825858402
-0.024122594514602705 -0.01922189451327067
0.04081755905657417 -0.01922189451327067
0.1463453086097366 -0.03422864638592735
0.3005781733412817 -0.04923539825858402
0.6821015755719458 -0.0642421501312407
1.4451483800332743 -0.07924890200389736
2.2893703764585736 -0.0642421501312407
2.743951451456812 -0.09425565387655405
2.5572485099396784 -0.22931642073046413
2.0864323965486458 -0.4093974432023442
1.7536141094963644 -0.8445932475093878
1.6074987639612164 -1.5649173373969083
1.5425586103900395 -2.405295442265682
1.4207958224440829 -2.855497998445382
1.2665629577125377 -2.735443983464129
1.0960950545881984 -2.3302616829023988
0.8850395554818736 -2.045133397321922
0.6658665371791517 -1.9250793823406684
0.4548110380728268 -1.8350388711047283
0.251873058162899 -1.760005111741445
0.03270003986017706 -1.714984856123475
-0.23517809362092756 -1.714984856123475
-0.4787036695128409 -1.714984856123475
-0.7465818029939455 -1.7299916079961317
-0.9819898596894617 -1.7449983598687884
-1.2011628779921837 -1.760005111741445
-1.4609234922768912 -1.7900186154867583
-1.7206841065615988 -1.8350388711047283
-1.9804447208463063 -1.8350388711047283
-2.175265181559837 -1.8200321192320716
-2.345733084684176 -1.8200321192320716
-2.4431433150409414 -1.805025367359415
-2.5324360262013097 -1.7900186154867583
-2.6541988141472665 -1.850045622977385
-2.7272564869148406 -1.8800591267226985
-2.7921966404860172 -1.850045622977385
-2.7921966404860172 -1.8650523748500418
-2.7840791212896203 -1.850045622977385
-2.7272564869148406 -1.8800591267226985
-2.694786410129252 -1.9700996379586384
-2.629846256558075 -2.090153652939892
-2.5649061029868983 -2.1501806604305185
-2.3863206806661617 -2.2252144197938017
-2.2320878159346167 -2.270234675411772
-1.9966797592391003 -2.3452684347750554
-1.7693892217399814 -2.405295442265682
-1.5502162034372593 -2.4203021941383387
-1.37974830031292 -2.3452684347750554
-1.2498679931705663 -2.210207667921145
-1.1768103204029923 -2.090153652939892
-1.1199876860282125 -2.0151198935766086
-1.0388124940642414 -1.9700996379586384
-0.9414022637074762 -1.8800591267226985
-0.8034044373687252 -1.714984856123475
-0.6654066110299744 -1.5349038336515948
-0.5192912654948264 -1.384836314925028
-0.3731759199596784 -1.2347687961984615
-0.22706057442453045 -1.114714781217208
-0.11341530567497092 -0.9496405106179845
0.008347482270985734 -0.7845662400187611
0.13011027021694238 -0.5894784656742244
0.24375553896650193 -0.4394109469476576
0.3168132117340759 -0.3043501800937475
0.3574008077160615 -0.19930291698515076
0.3898708845016499 -0.10926240574921073
0.4385759996800326 -0.03422864638592735
0.4791635956620181 0.05581186485001271
0.544103749233195 0.14585237608595275
0.5522212684295921 0.1908726317039228
0.5522212684295921 0.1908726317039228
0.5359862300367979 0.1908726317039228
0.5684563068223863 0.22088613544923613
0.5928088644115777 0.2959198948125195
0.6252789411971661 0.34094015043048953
0.6415139795899604 0.3259333985578329
0.6496314987863574 0.3259333985578329
0.5928088644115777 0.34094015043048953
0.5846913452151805 0.3709536541758029
0.6333964603935632 0.40096715792111626
0.6821015755719458 0.47600091728439964
0.690219094768343 0.46099416541174293
0.6739840563755488 0.4459874135390863
0.6658665371791517 0.43098066166642957
0.6658665371791517 0.43098066166642957
0.6983366139647401 0.47600091728439964
0.7957468443215054 0.506014421029713
0.8119818827142996 0.47600091728439964
0.8688045170890794 0.47600091728439964
0.8688045170890794 0.46099416541174293
0.8769220362854765 0.4459874135390863
0.9093921130710649 0.47600091728439964
0.9418621898566534 0.4910076691570563
0.982449785838639 0.506014421029713
0.9743322666422418 0.47600091728439964
0.9743322666422418 0.46099416541174293
0.9986848242314331 0.47600091728439964
1.0717424969990073 0.4910076691570563
1.0960950545881984 0.5360279247750264
1.144800169766581 0.551034676647683
1.1935052849449639 0.5360279247750264
1.2016228041413608 0.5210211729023696
1.2422104001233465 0.5360279247750264
1.3071505536945234 0.596054932265653
1.3802082264620974 0.6260684360109664
1.4126783032476857 0.641075187883623
1.4126783032476857 0.641075187883623
1.4532658992296714 0.6260684360109664
1.4532658992296714 0.6560819397562797
1.5182060528008483 0.7011021953742498
1.5993812447648192 0.7461224509922197
1.639968840746805 0.7611292028648764
1.6805564367287904 0.7611292028648764
1.6967914751215847 0.7461224509922197
1.6967914751215847 0.7911427066101898
1.7536141094963644 0.8511697141008165
1.7698491478891587 0.8811832178461299
1.8185542630675413 0.8811832178461299
1.8347893014603356 0.8661764659734732
1.8266717822639384 0.8661764659734732
1.8347893014603356 0.9111967215914432
1.867259378245924 0.9862304809547265
1.8834944166387182 1.0312507365726966
1.9078469742279094 1.0312507365726966
1.8834944166387182 1.0312507365726966
1.867259378245924 1.0312507365726966
1.8510243398531296 1.06126424031801
1.8429068206567325 1.0762709921906666
1.8916119358351153 1.1362979996812934
1.8591418590495268 1.1362979996812934
1.8185542630675413 1.1362979996812934
1.7860841862819528 1.1062844959359799
1.729261551907173 1.1062844959359799
1.7049089943179818 1.1663115034266067
1.6805564367287904 1.1663115034266067
1.656203879139599 1.15130475155395
1.5993812447648192 1.1062844959359799
1.501971014408054 1.06126424031801
1.42891334164048 1.06126424031801
1.3720907072657003 1.06126424031801
1.3477381496765088 1.0762709921906666
1.2746804769089348 1.06126424031801
1.2016228041413608 1.0012372328273833
1.1123300929809927 0.9562169772094132
1.0392724202134187 0.9262034734640999
0.9986848242314331 0.8961899697187865
0.9337446706602562 0.8961899697187865
0.9012745938746678 0.8211562103555031
0.8200994019106967 0.7611292028648764
0.7470417291431227 0.7011021953742498
0.7145716523575343 0.6710886916289364
0.6983366139647401 0.641075187883623
0.6496314987863574 0.641075187883623
0.6090439028043719 0.6110616841383097
0.5359862300367979 0.5810481803929963
0.4548110380728268 0.5360279247750264
0.40610592289444414 0.506014421029713
0.3898708845016499 0.4910076691570563
0.3574008077160615 0.46099416541174293
0.3574008077160615 0.4459874135390863
0.3005781733412817 0.40096715792111626
0.251873058162899 0.3709536541758029
0.20316794298451638 0.3709536541758029
0.17881538539532504 0.3709536541758029
0.17881538539532504 0.38596040604845955
0.17881538539532504 0.35594690230314624
0.13011027021694238 0.2959198948125195
0.09764019343135394 0.2358928873218928
0.07328763584216262 0.2508996391945495
0.06517011664576551 0.28091314293986286
0.08952267423495683 0.2959198948125195
0.07328763584216262 0.28091314293986286
0.06517011664576551 0.2508996391945495
0.016465001467382844 0.20587938357657945
0.024582520663779955 0.20587938357657945
0.024582520663779955 0.2358928873218928
0.04893507825297128 0.2358928873218928
0.04893507825297128 0.20587938357657945
0.03270003986017706 0.17586587983126611
0.016465001467382844 0.14585237608595275
0.016465001467382844 0.14585237608595275
0.008347482270985734 0.1308456242132961
0.024582520663779955 0.16085912795860943
0.008347482270985734 0.14585237608595275
-0.032240113710999815 0.1308456242132961
-0.032240113710999815 0.10083212046798273
-0.032240113710999815 0.1158388723406394
-0.007887556121808486 0.1158388723406394
0.016465001467382844 0.1308456242132961
0.03270003986017706 0.1308456242132961
0.024582520663779955 0.1158388723406394
0.00022996307458862428 0.1158388723406394
-0.016005075318205594 0.1158388723406394
0.00022996307458862428 0.14585237608595275
0.00022996307458862428 0.16085912795860943
0.008347482270985734 0.14585237608595275
-0.024122594514602705 0.10083212046798273
-0.05659267130019115 0.08582536859532605
-0.07282770969298537 0.1308456242132961
-0.040357632907396926 0.20587938357657945
-0.024122594514602705 0.20587938357657945
-0.024122594514602705 0.1908726317039228
-0.032240113710999815 0.1908726317039228
-0.07282770969298537 0.16085912795860943
-0.08906274808577959 0.17586587983126611
-0.11341530567497092 0.1908726317039228
-0.0971802672821767 0.20587938357657945
-0.08094522888938248 0.22088613544923613
-0.0971802672821767 0.20587938357657945
-0.12153282487136803 0.1908726317039228
-0.12153282487136803 0.17586587983126611
-0.12965034406776513 0.20587938357657945
-0.0971802672821767 0.22088613544923613
-0.12965034406776513 0.2358928873218928
-0.16212042085335357 0.20587938357657945
-0.1864729784425449 0.1908726317039228
-0.194590497638942 0.1908726317039228
-0.1864729784425449 0.1908726317039228
-0.15400290165695646 0.22088613544923613
-0.15400290165695646 0.20587938357657945
-0.17023794004975068 0.1908726317039228
-0.20270801683533912 0.16085912795860943
-0.21082553603173623 0.14585237608595275
-0.1864729784425449 0.16085912795860943
-0.1864729784425449 0.16085912795860943
-0.17023794004975068 0.1308456242132961
-0.1864729784425449 0.1158388723406394
-0.21894305522813334 0.05581186485001271
-0.22706057442453045 0.05581186485001271
-0.22706057442453045 0.040805112977356034
-0.22706057442453045 0.07081861672266938
-0.21894305522813334 0.05581186485001271
-0.22706057442453045 0.025798361104699356
-0.21894305522813334 -0.004215142640613995
-0.21894305522813334 0.025798361104699356
-0.21894305522813334 0.040805112977356034
-0.21082553603173623 0.05581186485001271
-0.1864729784425449 0.05581186485001271
-0.194590497638942 0.025798361104699356
-0.24329561281732467 0.01079160923204268
-0.24329561281732467 0.01079160923204268
-0.22706057442453045 0.040805112977356034
-0.22706057442453045 0.05581186485001271
-0.23517809362092756 0.05581186485001271
-0.23517809362092756 0.07081861672266938
-0.24329561281732467 0.05581186485001271
-0.2514131320137218 0.10083212046798273
-0.23517809362092756 0.1308456242132961
-0.21894305522813334 0.14585237608595275
-0.23517809362092756 0.1158388723406394
-0.24329561281732467 0.1158388723406394
-0.2838832087993102 0.08582536859532605
-0.2920007279957073 0.07081861672266938
-0.27576568960291314 0.1158388723406394
-0.24329561281732467 0.14585237608595275
-0.22706057442453045 0.1158388723406394
-0.2514131320137218 0.10083212046798273
-0.27576568960291314 0.10083212046798273
-0.2920007279957073 0.1158388723406394
-0.2838832087993102 0.1308456242132961
-0.267648170406516 0.16085912795860943
-0.23517809362092756 0.16085912795860943
-0.2514131320137218 0.14585237608595275
-0.267648170406516 0.1158388723406394
-0.30011824719210445 0.1158388723406394
-0.2595306512101189 0.1308456242132961
-0.24329561281732467 0.14585237608595275
-0.23517809362092756 0.16085912795860943
-0.24329561281732467 0.1308456242132961
-0.267648170406516 0.1158388723406394
-0.27576568960291314 0.10083212046798273
-0.2838832087993102 0.1158388723406394
-0.22706057442453045 0.10083212046798273
-0.21082553603173623 0.08582536859532605
-0.21082553603173623 0.07081861672266938
-0.22706057442453045 0.025798361104699356
-0.2514131320137218 0.01079160923204268
-0.2595306512101189 0.040805112977356034
-0.23517809362092756 0.040805112977356034
-0.24329561281732467 0.040805112977356034
-0.21894305522813334 0.01079160923204268
-0.22706057442453045 -0.01922189451327067
-0.20270801683533912 -0.004215142640613995
-0.17023794004975068 -0.004215142640613995
-0.13776786326416224 0.025798361104699356
-0.12153282487136803 0.01079160923204268
-0.10529778647857381 -0.01922189451327067
-0.12153282487136803 -0.03422864638592735
-0.0971802672821767 -0.01922189451327067
-0.048475152103794036 -0.004215142640613995
0.08140515503855972 0.040805112977356034
0.3168132117340759 0.01079160923204268
0.8606869978926823 -0.004215142640613995
1.639968840746805 -0.03422864638592735
2.3380754916369564 -0.04923539825858402
2.5897185867252666 -0.07924890200389736
2.321840453244162 -0.15428266136718075
1.9078469742279094 -0.3193569319664042
1.591263725568422 -0.7245392325281345
1.4695009376224655 -1.4148498186703415
1.3396206304801117 -2.120167156685205
1.217857842534155 -2.540356209119592
1.0960950545881984 -2.4653224497563087
0.9256271514638592 -2.135173908557862
0.7145716523575343 -1.8800591267226985
0.48728111485841524 -1.7900186154867583
0.2275205005737077 -1.760005111741445
-0.007887556121808486 -1.6999781042508184
-0.1864729784425449 -1.624944344887535
-0.40564599674526686 -1.5949308411422216
-0.641054053440783 -1.624944344887535
-0.8764621101362993 -1.6549578486328482
-1.1199876860282125 -1.6849713523781615
-1.3310431851345375 -1.6849713523781615
-1.5826862802228479 -1.6999781042508184
-1.8018592985255697 -1.7299916079961317
-2.05350239361388 -1.760005111741445
-2.256440373523808 -1.805025367359415
-2.426908276648147 -1.7900186154867583
-2.5649061029868983 -1.7750118636141017
-2.6541988141472665 -1.7900186154867583
-2.767844082896826 -1.8200321192320716
-2.873371832449988 -1.8650523748500418
-2.9545470244139596 -1.9100726304680118
-3.019487177985136 -1.9250793823406684
-3.0357222163779305 -1.8800591267226985
-3.0113696587887393 -1.8800591267226985
-2.9626645436103565 -1.940086134213325
-2.8896068708427824 -2.000113141703952
-2.8652543132535913 -2.0601401491945786
-2.7921966404860172 -2.120167156685205
-2.6541988141472665 -2.165187412303175
-2.524318507004913 -2.2402211716664584
