0.3005781733412817 -2.360275186647712
0.08952267423495683 -2.3002481791570855
-0.12965034406776513 -2.210207667921145
-0.267648170406516 -2.165187412303175
-0.47058615031644374 -2.1501806604305185
-0.6978766878155629 -2.180194164175832
-0.933284744511079 -2.2402211716664584
-1.1686928012065951 -2.315254931029742
-1.4203358962949055 -2.3002481791570855
-1.663861472186819 -2.3002481791570855
-1.9155045672751294 -2.315254931029742
-2.1427951047742484 -2.3452684347750554
-2.353850603880573 -2.3902886903930254
-2.524318507004913 -2.405295442265682
-2.6623163333436635 -2.405295442265682
-2.7921966404860172 -2.405295442265682
-2.9058419092355767 -2.4353089460109953
-3.0113696587887393 -2.5103427053742786
-3.0925448507527102 -2.600383216610219
-3.1574850043238873 -2.600383216610219
-3.1899550811094755 -2.645403472228189
-3.1737200427166816 -2.6604102241008456
-3.1331324467346957 -2.7054304797188156
-3.1006623699491076 -2.810477742827412
-3.043839735574328 -2.930531757808666
-2.995134620395945 -3.0655925246625757
-2.930194466824768 -3.1706397877711723
-2.775961602093223 -3.2606802990071126
-2.5405535453977066 -3.3207073064977393
-2.3051454887021907 -3.290693802752426
-2.0697374320066744 -3.335714058370396
-1.8505644137039525 -3.3057005546250826
-1.663861472186819 -3.2156600433891427
-1.4609234922768912 -3.050585772789919
-1.3310431851345375 -2.960545261553979
-1.306690627545346 -2.8705047503180388
-1.2498679931705663 -2.810477742827412
-1.2011628779921837 -2.720437231591472
-1.0875176092426242 -2.5853764647375623
-0.9819898596894617 -2.4203021941383387
-0.8439920333507108 -2.2552279235391155
-0.7465818029939455 -2.0601401491945786
-0.6491715726371802 -1.9250793823406684
-0.5436438230840177 -1.7299916079961317
-0.4381160735308553 -1.4748768261609682
-0.3325883239776929 -1.2497755480711181
-0.21082553603173623 -1.0847012774718947
-0.12153282487136803 -0.9346337587453278
-0.048475152103794036 -0.7995729918914178
-0.007887556121808486 -0.604485217546881
0.04893507825297128 -0.4244041950750009
0.13011027021694238 -0.27433667634843417
0.17881538539532504 -0.1242691576218674
0.23563801977010482 -0.03422864638592735
0.24375553896650193 0.040805112977356034
0.21128546218091349 0.14585237608595275
0.25999057735929615 0.2358928873218928
0.2924606541448846 0.34094015043048953
0.34116576932326725 0.38596040604845955
0.3574008077160615 0.40096715792111626
0.36551832691245856 0.40096715792111626
0.3574008077160615 0.4159739097937729
0.3736358461088557 0.46099416541174293
0.4142234420908412 0.506014421029713
0.4548110380728268 0.506014421029713
0.471046076465621 0.4459874135390863
0.4629285572692239 0.43098066166642957
0.471046076465621 0.46099416541174293
0.4548110380728268 0.5210211729023696
0.4791635956620181 0.551034676647683
0.5116336724476066 0.506014421029713
0.5197511916440036 0.506014421029713
0.5035161532512095 0.506014421029713
0.4953986340548123 0.506014421029713
0.5197511916440036 0.5810481803929963
0.544103749233195 0.6110616841383097
0.5765738260187835 0.6110616841383097
0.5765738260187835 0.596054932265653
0.5684563068223863 0.5660414285203397
0.5522212684295921 0.551034676647683
0.5846913452151805 0.5660414285203397
0.6009263836079748 0.6110616841383097
0.6252789411971661 0.641075187883623
0.6739840563755488 0.6110616841383097
0.6496314987863574 0.5660414285203397
0.6739840563755488 0.5810481803929963
0.7145716523575343 0.641075187883623
0.771394286732314 0.7011021953742498
0.8363344403034909 0.7311156991195631
0.8606869978926823 0.7461224509922197
0.8769220362854765 0.7011021953742498
0.8850395554818736 0.686095443501593
0.9418621898566534 0.7161089472469064
0.9986848242314331 0.7761359547375332
1.0311549010170216 0.8211562103555031
1.0636249778026101 0.8511697141008165
1.0798600161954042 0.8361629622281598
1.1366826505701841 0.8211562103555031
1.1772702465521696 0.8961899697187865
1.217857842534155 0.9412102253367566
1.2990330344981262 0.9712237290820699
1.3315031112837146 1.01624398470004
1.355855668872906 0.9712237290820699
1.3883257456584945 1.0012372328273833
1.42891334164048 1.06126424031801
1.4857359760152598 1.1062844959359799
1.5587936487828338 1.15130475155395
1.591263725568422 1.15130475155395
1.6074987639612164 1.15130475155395
1.6156162831576135 1.1212912478086368
1.639968840746805 1.15130475155395
1.729261551907173 1.24134526278989
1.7698491478891587 1.24134526278989
1.79420170547835 1.2263385109172333
1.802319224674747 1.2563520146625466
1.79420170547835 1.2713587665352033
1.8347893014603356 1.2713587665352033
1.8510243398531296 1.3463925258984868
1.8834944166387182 1.3914127815164568
1.875376897442321 1.4064195333891134
1.867259378245924 1.42142628526177
1.8510243398531296 1.4664465408797402
1.8429068206567325 1.5114667964977102
1.8510243398531296 1.5264735483703669
1.867259378245924 1.5264735483703669
1.8266717822639384 1.5414803002430235
1.802319224674747 1.5114667964977102
1.7536141094963644 1.5114667964977102
1.7211440327107759 1.5414803002430235
1.6967914751215847 1.5564870521156802
1.6724389175323933 1.6015073077336504
1.6237338023540107 1.5414803002430235
1.5263235719972452 1.5264735483703669
1.4695009376224655 1.481453292752397
1.42891334164048 1.5114667964977102
1.3964432648548915 1.5414803002430235
1.3802082264620974 1.5414803002430235
1.2990330344981262 1.481453292752397
1.217857842534155 1.436433037134427
1.144800169766581 1.436433037134427
1.0473899394098158 1.4064195333891134
0.9986848242314331 1.3914127815164568
0.9986848242314331 1.3613992777711434
0.9093921130710649 1.2713587665352033
0.844451959499888 1.2263385109172333
0.7876293251251083 1.1813182552992634
0.6983366139647401 1.15130475155395
0.690219094768343 1.1062844959359799
0.6658665371791517 1.0762709921906666
0.6009263836079748 1.01624398470004
0.5278687108404008 0.9111967215914432
0.471046076465621 0.8511697141008165
0.40610592289444414 0.8211562103555031
0.3817533653052528 0.8511697141008165
0.36551832691245856 0.7611292028648764
0.3168132117340759 0.7161089472469064
0.27622561575209037 0.6260684360109664
0.21128546218091349 0.5210211729023696
0.17069786619892793 0.4910076691570563
0.1382277894133395 0.46099416541174293
0.1463453086097366 0.46099416541174293
0.12199275102054527 0.4159739097937729
0.08140515503855972 0.3709536541758029
0.016465001467382844 0.3259333985578329
0.008347482270985734 0.35594690230314624
0.016465001467382844 0.34094015043048953
0.008347482270985734 0.35594690230314624
-0.016005075318205594 0.2959198948125195
-0.048475152103794036 0.2358928873218928
-0.08094522888938248 0.2358928873218928
-0.0971802672821767 0.2358928873218928
-0.08906274808577959 0.26590639106720615
-0.08906274808577959 0.2508996391945495
-0.10529778647857381 0.22088613544923613
-0.14588538246055935 0.17586587983126611
-0.17023794004975068 0.14585237608595275
-0.17023794004975068 0.1908726317039228
-0.15400290165695646 0.17586587983126611
-0.12965034406776513 0.20587938357657945
-0.12965034406776513 0.16085912795860943
-0.17023794004975068 0.14585237608595275
-0.21082553603173623 0.1308456242132961
-0.194590497638942 0.16085912795860943
-0.17023794004975068 0.1908726317039228
-0.15400290165695646 0.20587938357657945
-0.16212042085335357 0.20587938357657945
-0.1783554592461478 0.20587938357657945
-0.20270801683533912 0.2358928873218928
-0.1864729784425449 0.2358928873218928
-0.1783554592461478 0.2508996391945495
-0.16212042085335357 0.26590639106720615
-0.13776786326416224 0.2508996391945495
-0.15400290165695646 0.22088613544923613
-0.15400290165695646 0.2358928873218928
-0.1783554592461478 0.28091314293986286
-0.12965034406776513 0.3259333985578329
-0.08906274808577959 0.35594690230314624
-0.08094522888938248 0.31092664668517617
-0.07282770969298537 0.31092664668517617
-0.08094522888938248 0.31092664668517617
-0.06471019049658826 0.31092664668517617
-0.05659267130019115 0.3709536541758029
-0.06471019049658826 0.35594690230314624
-0.10529778647857381 0.35594690230314624
-0.0971802672821767 0.31092664668517617
-0.12965034406776513 0.2508996391945495
-0.14588538246055935 0.2508996391945495
-0.12965034406776513 0.2508996391945495
-0.12965034406776513 0.22088613544923613
-0.14588538246055935 0.22088613544923613
-0.1783554592461478 0.17586587983126611
-0.1783554592461478 0.17586587983126611
-0.21082553603173623 0.17586587983126611
-0.194590497638942 0.20587938357657945
-0.194590497638942 0.1908726317039228
-0.1864729784425449 0.1908726317039228
-0.21894305522813334 0.14585237608595275
-0.2595306512101189 0.14585237608595275
-0.27576568960291314 0.17586587983126611
-0.2595306512101189 0.20587938357657945
-0.2514131320137218 0.17586587983126611
-0.2514131320137218 0.16085912795860943
-0.2838832087993102 0.1308456242132961
-0.31635328558489867 0.14585237608595275
-0.34070584317409 0.16085912795860943
-0.30011824719210445 0.1908726317039228
-0.2920007279957073 0.14585237608595275
-0.2920007279957073 0.14585237608595275
-0.2838832087993102 0.08582536859532605
-0.30823576638850153 0.07081861672266938
-0.32447080478129575 0.1158388723406394
-0.2838832087993102 0.1308456242132961
-0.27576568960291314 0.14585237608595275
-0.2838832087993102 0.14585237608595275
-0.30011824719210445 0.1158388723406394
-0.30823576638850153 0.10083212046798273
-0.31635328558489867 0.16085912795860943
-0.27576568960291314 0.20587938357657945
-0.22706057442453045 0.2358928873218928
-0.24329561281732467 0.2358928873218928
-0.24329561281732467 0.1908726317039228
-0.2920007279957073 0.22088613544923613
-0.27576568960291314 0.2508996391945495
-0.22706057442453045 0.26590639106720615
-0.20270801683533912 0.28091314293986286
-0.194590497638942 0.28091314293986286
-0.21082553603173623 0.2358928873218928
-0.24329561281732467 0.1908726317039228
-0.2514131320137218 0.1908726317039228
-0.23517809362092756 0.20587938357657945
-0.22706057442453045 0.1908726317039228
-0.24329561281732467 0.1908726317039228
-0.2514131320137218 0.1308456242132961
-0.267648170406516 0.1308456242132961
-0.267648170406516 0.1158388723406394
-0.267648170406516 0.16085912795860943
-0.21894305522813334 0.17586587983126611
-0.24329561281732467 0.1158388723406394
-0.267648170406516 0.1308456242132961
-0.27576568960291314 0.1158388723406394
-0.2920007279957073 0.1158388723406394
-0.2920007279957073 0.14585237608595275
-0.24329561281732467 0.16085912795860943
-0.2514131320137218 0.1158388723406394
-0.30011824719210445 0.08582536859532605
-0.3325883239776929 0.08582536859532605
-0.3325883239776929 0.10083212046798273
-0.30823576638850153 0.14585237608595275
-0.30823576638850153 0.1308456242132961
-0.30011824719210445 0.1308456242132961
-0.32447080478129575 0.08582536859532605
-0.3325883239776929 0.08582536859532605
-0.34070584317409 0.10083212046798273
-0.32447080478129575 0.1308456242132961
-0.27576568960291314 0.16085912795860943
-0.2920007279957073 0.1158388723406394
-0.2838832087993102 0.10083212046798273
-0.31635328558489867 0.07081861672266938
-0.2920007279957073 0.10083212046798273
-0.267648170406516 0.1158388723406394
-0.23517809362092756 0.14585237608595275
-0.22706057442453045 0.10083212046798273
-0.2595306512101189 0.08582536859532605
-0.267648170406516 0.05581186485001271
-0.2514131320137218 0.08582536859532605
-0.20270801683533912 0.1158388723406394
-0.1864729784425449 0.10083212046798273
-0.194590497638942 0.10083212046798273
-0.22706057442453045 0.07081861672266938
-0.2514131320137218 0.07081861672266938
-0.24329561281732467 0.10083212046798273
-0.23517809362092756 0.16085912795860943
-0.21082553603173623 0.17586587983126611
-0.20270801683533912 0.16085912795860943
-0.24329561281732467 0.1308456242132961
-0.2514131320137218 0.08582536859532605
-0.2514131320137218 0.1308456242132961
-0.24329561281732467 0.14585237608595275
-0.21082553603173623 0.17586587983126611
-0.21894305522813334 0.14585237608595275
-0.22706057442453045 0.1158388723406394
-0.23517809362092756 0.10083212046798273
-0.22706057442453045 0.1308456242132961
-0.194590497638942 0.1158388723406394
-0.1864729784425449 0.1158388723406394
-0.1783554592461478 0.07081861672266938
-0.20270801683533912 0.08582536859532605
-0.20270801683533912 0.07081861672266938
-0.1864729784425449 0.08582536859532605
-0.13776786326416224 0.05581186485001271
-0.07282770969298537 0.08582536859532605
-0.032240113710999815 0.025798361104699356
0.04893507825297128 -0.01922189451327067
0.24375553896650193 -0.01922189451327067
0.7145716523575343 0.040805112977356034
1.4532658992296714 0.01079160923204268
2.167607588512617 -0.03422864638592735
2.5004258755648987 -0.10926240574921073
2.3543105300297507 -0.19930291698515076
1.9809046469954834 -0.3643771875843742
1.6643213983359961 -0.6645122250375077
1.5263235719972452 -1.114714781217208
1.4451483800332743 -1.8650523748500418
1.3396206304801117 -2.780464239082099
1.1935052849449639 -3.425754569606336
1.055507458606213 -3.560815336460246
0.9418621898566534 -3.1856465396438294
0.8363344403034909 -2.7954709909547555
0.7470417291431227 -2.5703697128649057
0.6009263836079748 -2.450315697883652
0.40610592289444414 -2.4203021941383387
0.251873058162899 -2.360275186647712
0.10575771262775105 -2.270234675411772
-0.007887556121808486 -2.210207667921145
-0.14588538246055935 -2.165187412303175
-0.3569408815668842 -2.1501806604305185
-0.5761138998696061 -2.1952009160484884
-0.7871693989759311 -2.180194164175832
-1.006342417278653 -2.210207667921145
-1.1686928012065951 -2.1952009160484884
-1.37974830031292 -2.2402211716664584
-1.6151563570084362 -2.270234675411772
-1.8505644137039525 -2.315254931029742
-2.029149836024689 -2.3302616829023988
-2.2158527775418224 -2.315254931029742
-2.3376155654877793 -2.315254931029742
-2.4350257958445445 -2.3302616829023988
-2.5649061029868983 -2.3902886903930254
-2.702903929325649 -2.4203021941383387
-2.8327842364680027 -2.4803292016289653
-2.913959428431974 -2.4353089460109953
-2.995134620395945 -2.4653224497563087
-3.003252139592342 -2.5103427053742786
-3.0357222163779305 -2.5703697128649057
-3.0519572547707248 -2.690423727846159
-3.019487177985136 -2.7504507353367855
-2.930194466824768 -2.810477742827412
-2.8896068708427824 -2.855497998445382
-2.800314159682414 -2.9755520134266358
-2.719138967718443 -3.1256195321532023
-2.5811411413796925 -3.245673547134456
-2.402555719058956 -3.2756870508797693
-2.2158527775418224 -3.290693802752426
-1.9804447208463063 -3.2306667952617993
-1.74503666415079 -3.2306667952617993
-1.6151563570084362 -3.1856465396438294
-1.4933935690624796 -3.200653291516486
-1.444688453884097 -3.095606028407889
-1.4203358962949055 -2.9905587652992924
-1.3959833387057143 -2.8705047503180388
-1.3229256659381403 -2.825484494700069
-1.2498679931705663 -2.780464239082099
-1.1768103204029923 -2.765457487209442
-1.1199876860282125 -2.645403472228189
-1.0225774556714473 -2.495335953501622
-0.9251672253146819 -2.270234675411772
-0.8358745141543137 -2.120167156685205
-0.7303467646011513 -1.940086134213325
-0.7059942070119599 -1.760005111741445
-0.6004664574587976 -1.5949308411422216
-0.5111737462984293 -1.384836314925028
-0.38941095835247264 -1.204755292453148
-0.30011824719210445 -1.0546877737265812
-0.20270801683533912 -0.8746067512547011
-0.15400290165695646 -0.7845662400187611
-0.12965034406776513 -0.6344987212921943
-0.05659267130019115 -0.4394109469476576
-0.007887556121808486 -0.3193569319664042
0.07328763584216262 -0.19930291698515076
0.09764019343135394 -0.13927590949452406
0.12199275102054527 -0.04923539825858402
0.1544628278061337 0.025798361104699356
0.16258034700253082 0.16085912795860943
0.2194029813773106 0.22088613544923613
0.26810809655569323 0.2959198948125195
0.2924606541448846 0.3259333985578329
0.27622561575209037 0.3259333985578329
0.3005781733412817 0.35594690230314624
0.32493073093047303 0.43098066166642957
0.3574008077160615 0.5210211729023696
0.3736358461088557 0.551034676647683
0.3817533653052528 0.5660414285203397
0.3898708845016499 0.5210211729023696
0.3817533653052528 0.5660414285203397
0.3898708845016499 0.5810481803929963
0.40610592289444414 0.6560819397562797
0.4548110380728268 0.6560819397562797
0.4385759996800326 0.6260684360109664
0.4548110380728268 0.596054932265653
0.471046076465621 0.5810481803929963
0.471046076465621 0.6110616841383097
0.5116336724476066 0.686095443501593
0.5522212684295921 0.6710886916289364
0.5522212684295921 0.6710886916289364
0.5278687108404008 0.6260684360109664
0.5197511916440036 0.641075187883623
0.5278687108404008 0.6710886916289364
0.5522212684295921 0.7011021953742498
0.6009263836079748 0.7461224509922197
0.617161422000769 0.7311156991195631
0.6090439028043719 0.7011021953742498
0.6252789411971661 0.7011021953742498
0.6577490179827545 0.7461224509922197
0.6739840563755488 0.7761359547375332
0.6821015755719458 0.7761359547375332
0.690219094768343 0.7461224509922197
0.6983366139647401 0.7161089472469064
0.690219094768343 0.7311156991195631
0.7145716523575343 0.7311156991195631
0.7551592483395199 0.7761359547375332
0.7795118059287112 0.7911427066101898
0.7957468443215054 0.7911427066101898
0.7795118059287112 0.8211562103555031
0.8038643635179025 0.8211562103555031
0.844451959499888 0.8361629622281598
0.9093921130710649 0.8961899697187865
0.9499797090530505 0.8961899697187865
0.9986848242314331 0.8961899697187865
1.0068023434278304 0.8961899697187865
1.0068023434278304 0.9111967215914432
1.0473899394098158 0.9412102253367566
1.1042125737845956 0.9712237290820699
1.144800169766581 0.9862304809547265
1.1935052849449639 0.9862304809547265
1.2422104001233465 0.9412102253367566
1.2584454385161408 1.01624398470004
1.2990330344981262 1.0762709921906666
1.3802082264620974 1.1062844959359799
1.4207958224440829 1.15130475155395
1.4532658992296714 1.19632500717192
1.4776184568188626 1.1663115034266067
1.5182060528008483 1.24134526278989
1.5182060528008483 1.3463925258984868
1.575028687175628 1.42142628526177
1.6074987639612164 1.4514397890070836
1.6156162831576135 1.42142628526177
1.6318513215504078 1.42142628526177
1.6156162831576135 1.436433037134427
1.6318513215504078 1.4964600446250536
1.648086359943202 1.5564870521156802
1.6724389175323933 1.6015073077336504
1.656203879139599 1.5564870521156802
1.6156162831576135 1.5714938039883368
1.5993812447648192 1.5714938039883368
1.591263725568422 1.616514059606307
1.566911167979231 1.6765410670969336
1.5993812447648192 1.6915478189695903
1.566911167979231 1.6465275633516203
1.5263235719972452 1.6315208114789637
1.4370308608368771 1.6315208114789637
1.3964432648548915 1.6315208114789637
1.3964432648548915 1.6465275633516203
1.355855668872906 1.616514059606307
1.3152680728909205 1.5714938039883368
1.2422104001233465 1.5414803002430235
1.1691527273557725 1.5114667964977102
1.1123300929809927 1.4664465408797402
1.0798600161954042 1.4514397890070836
1.0311549010170216 1.436433037134427
0.9256271514638592 1.3613992777711434
0.8525694786962852 1.3013722702805168
0.771394286732314 1.2563520146625466
0.6983366139647401 1.24134526278989
0.6415139795899604 1.2113317590445767
0.6333964603935632 1.15130475155395
0.5846913452151805 1.1062844959359799
0.5035161532512095 1.0312507365726966
0.4629285572692239 0.9862304809547265
0.4142234420908412 0.9562169772094132
0.3736358461088557 0.9111967215914432
0.34928328851966434 0.8811832178461299
0.34116576932326725 0.7911427066101898
0.24375553896650193 0.686095443501593
0.18693290459172215 0.6260684360109664
0.1544628278061337 0.5810481803929963
0.1382277894133395 0.596054932265653
0.13011027021694238 0.5360279247750264
0.08140515503855972 0.47600091728439964
0.03270003986017706 0.4159739097937729
0.00022996307458862428 0.4159739097937729
-0.024122594514602705 0.43098066166642957
-0.048475152103794036 0.43098066166642957
-0.024122594514602705 0.43098066166642957
-0.06471019049658826 0.3709536541758029
-0.0971802672821767 0.3259333985578329
-0.12965034406776513 0.31092664668517617
-0.14588538246055935 0.28091314293986286
-0.14588538246055935 0.31092664668517617
-0.12153282487136803 0.28091314293986286
-0.14588538246055935 0.2508996391945495
-0.14588538246055935 0.22088613544923613
-0.15400290165695646 0.1908726317039228
-0.1864729784425449 0.20587938357657945
-0.17023794004975068 0.20587938357657945
-0.15400290165695646 0.22088613544923613
-0.15400290165695646 0.20587938357657945
-0.1783554592461478 0.14585237608595275
-0.194590497638942 0.16085912795860943
-0.194590497638942 0.17586587983126611
-0.1783554592461478 0.2358928873218928
-0.1783554592461478 0.20587938357657945
-0.1783554592461478 0.17586587983126611
-0.1864729784425449 0.14585237608595275
-0.21894305522813334 0.14585237608595275
-0.21894305522813334 0.17586587983126611
-0.1864729784425449 0.20587938357657945
-0.16212042085335357 0.2508996391945495
-0.17023794004975068 0.22088613544923613
-0.194590497638942 0.16085912795860943
-0.194590497638942 0.17586587983126611
-0.194590497638942 0.22088613544923613
-0.194590497638942 0.22088613544923613
-0.194590497638942 0.22088613544923613
-0.21894305522813334 0.20587938357657945
-0.20270801683533912 0.17586587983126611
-0.24329561281732467 0.14585237608595275
-0.24329561281732467 0.16085912795860943
-0.23517809362092756 0.1908726317039228
-0.21082553603173623 0.20587938357657945
-0.21082553603173623 0.16085912795860943
-0.24329561281732467 0.14585237608595275
-0.24329561281732467 0.14585237608595275
-0.23517809362092756 0.14585237608595275
-0.23517809362092756 0.1908726317039228
-0.21082553603173623 0.22088613544923613
-0.24329561281732467 0.20587938357657945
-0.2514131320137218 0.20587938357657945
-0.27576568960291314 0.16085912795860943
-0.2838832087993102 0.1908726317039228
-0.2838832087993102 0.2508996391945495
-0.2514131320137218 0.26590639106720615
-0.2514131320137218 0.2508996391945495
-0.2838832087993102 0.1908726317039228
-0.30823576638850153 0.1908726317039228
-0.31635328558489867 0.22088613544923613
-0.2595306512101189 0.2508996391945495
-0.2514131320137218 0.2358928873218928
-0.23517809362092756 0.22088613544923613
-0.2838832087993102 0.17586587983126611
-0.30011824719210445 0.1908726317039228
-0.30823576638850153 0.17586587983126611
-0.2920007279957073 0.1908726317039228
-0.2838832087993102 0.20587938357657945
-0.2838832087993102 0.17586587983126611
-0.2920007279957073 0.1158388723406394
-0.32447080478129575 0.1158388723406394
-0.3325883239776929 0.16085912795860943
-0.3325883239776929 0.16085912795860943
-0.32447080478129575 0.16085912795860943
-0.3325883239776929 0.14585237608595275
-0.31635328558489867 0.1158388723406394
-0.3325883239776929 0.16085912795860943
-0.30011824719210445 0.22088613544923613
-0.30011824719210445 0.26590639106720615
-0.2920007279957073 0.26590639106720615
-0.30011824719210445 0.22088613544923613
-0.30011824719210445 0.20587938357657945
-0.32447080478129575 0.14585237608595275
-0.32447080478129575 0.10083212046798273
-0.31635328558489867 0.14585237608595275
-0.30011824719210445 0.1158388723406394
-0.30011824719210445 0.07081861672266938
-0.34070584317409 0.025798361104699356
-0.36505840076328133 0.040805112977356034
-0.38941095835247264 0.05581186485001271
-0.3488233623704871 0.10083212046798273
-0.3325883239776929 0.07081861672266938
-0.34070584317409 0.07081861672266938
-0.38941095835247264 0.040805112977356034
-0.40564599674526686 0.040805112977356034
-0.413763515941664 0.05581186485001271
-0.38129343915607555 0.08582536859532605
-0.3488233623704871 0.1308456242132961
-0.3569408815668842 0.10083212046798273
-0.3569408815668842 0.025798361104699356
-0.3488233623704871 0.07081861672266938
-0.3569408815668842 0.10083212046798273
-0.32447080478129575 0.1308456242132961
-0.31635328558489867 0.1308456242132961
-0.31635328558489867 0.08582536859532605
-0.31635328558489867 0.07081861672266938
-0.3488233623704871 0.05581186485001271
-0.3488233623704871 0.07081861672266938
-0.3569408815668842 0.1308456242132961
-0.31635328558489867 0.1308456242132961
-0.31635328558489867 0.07081861672266938
-0.3488233623704871 0.05581186485001271
-0.36505840076328133 0.025798361104699356
-0.38129343915607555 0.025798361104699356
-0.3488233623704871 0.08582536859532605
-0.31635328558489867 0.08582536859532605
-0.31635328558489867 0.05581186485001271
-0.3488233623704871 -0.004215142640613995
-0.36505840076328133 -0.01922189451327067
-0.38941095835247264 0.025798361104699356
-0.36505840076328133 0.025798361104699356
-0.34070584317409 0.040805112977356034
-0.36505840076328133 -0.004215142640613995
-0.38129343915607555 -0.004215142640613995
-0.40564599674526686 -0.01922189451327067
-0.413763515941664 -0.004215142640613995
-0.3975284775488698 0.01079160923204268
-0.3488233623704871 0.040805112977356034
-0.3325883239776929 0.05581186485001271
-0.34070584317409 0.025798361104699356
-0.3488233623704871 0.01079160923204268
-0.36505840076328133 0.040805112977356034
-0.30011824719210445 0.07081861672266938
-0.30011824719210445 0.08582536859532605
-0.27576568960291314 0.05581186485001271
-0.30011824719210445 0.025798361104699356
-0.30011824719210445 -0.004215142640613995
-0.30011824719210445 -0.004215142640613995
-0.27576568960291314 0.040805112977356034
-0.22706057442453045 0.07081861672266938
-0.22706057442453045 0.05581186485001271
-0.22706057442453045 0.01079160923204268
-0.24329561281732467 -0.004215142640613995
-0.20270801683533912 0.025798361104699356
-0.11341530567497092 0.040805112977356034
0.03270003986017706 0.040805112977356034
0.3005781733412817 0.025798361104699356
0.8282169211070939 -0.01922189451327067
1.656203879139599 -0.03422864638592735
2.370545568422545 -0.0642421501312407
2.5004258755648987 -0.15428266136718075
2.151372550119823 -0.3643771875843742
1.6724389175323933 -0.7395459844007911
1.42891334164048 -1.4448633224156548
1.3152680728909205 -2.4203021941383387
1.1691527273557725 -3.290693802752426
1.0636249778026101 -3.4407613214789925
0.9175096322674621 -3.050585772789919
0.7795118059287112 -2.6604102241008456
0.5603387876259892 -2.450315697883652
0.3736358461088557 -2.3902886903930254
0.21128546218091349 -2.285241427284429
0.05705259744936839 -2.210207667921145
-0.11341530567497092 -2.165187412303175
-0.31635328558489867 -2.120167156685205
-0.5436438230840177 -2.180194164175832
-0.7952869181723281 -2.165187412303175
-1.0144599364750502 -2.210207667921145
-1.2579855123669634 -2.2252144197938017
-1.4933935690624796 -2.2402211716664584
-1.753154183347187 -2.315254931029742
-1.9885622400427034 -2.360275186647712
-2.2158527775418224 -2.3752819385203687
-2.3863206806661617 -2.3752819385203687
-2.5324360262013097 -2.360275186647712
-2.6541988141472665 -2.405295442265682
-2.8084316788788115 -2.4653224497563087
-2.9870171011995477 -2.540356209119592
-3.1006623699491076 -2.6153899684828756
-3.1331324467346957 -2.5853764647375623
-3.125014927538299 -2.6153899684828756
-3.0925448507527102 -2.6303967203555323
-3.068192293163519 -2.6604102241008456
-3.0113696587887393 -2.765457487209442
-2.995134620395945 -2.810477742827412
-2.930194466824768 -2.9005182540633525
-2.8165491980752084 -2.9755520134266358
-2.6623163333436635 -3.1106127802805457
-2.4918484302193242 -3.1856465396438294
-2.2320878159346167 -3.2756870508797693
-2.029149836024689 -3.3207073064977393
-1.7937417793291728 -3.2606802990071126
-1.590803799419245 -3.1856465396438294
-1.452805973080494 -3.1106127802805457
-1.4041008579021115 -3.050585772789919
-1.4122183770985086 -3.0205722690446057
-1.4122183770985086 -2.9905587652992924
-1.3391607043309346 -2.885511502190696
-1.233632954777772 -2.7504507353367855
-1.0875176092426242 -2.5853764647375623
-0.9657548212966675 -2.450315697883652
-0.8683445909399021 -2.315254931029742
-0.7871693989759311 -2.135173908557862
-0.6978766878155629 -1.8950658785953551
-0.5761138998696061 -1.6699646005055049
-0.46246863112004666 -1.4598700742883115
-0.3325883239776929 -1.294795803689088
-0.2514131320137218 -1.1297215330898647
-0.1783554592461478 -0.9496405106179845
-0.11341530567497092 -0.7395459844007911
-0.048475152103794036 -0.5594649619289109
0.016465001467382844 -0.4394109469476576
0.03270003986017706 -0.3193569319664042
0.04081755905657417 -0.22931642073046413
0.06517011664576551 -0.1242691576218674
0.11387523182414816 0.01079160923204268
0.1382277894133395 0.08582536859532605
0.17069786619892793 0.14585237608595275
0.18693290459172215 0.17586587983126611
0.1463453086097366 0.17586587983126611
0.1382277894133395 0.1908726317039228
0.1544628278061337 0.26590639106720615
0.18693290459172215 0.31092664668517617
0.21128546218091349 0.38596040604845955
0.21128546218091349 0.40096715792111626
0.19505042378811926 0.38596040604845955
0.17069786619892793 0.40096715792111626
0.17881538539532504 0.46099416541174293
0.2275205005737077 0.5360279247750264
0.24375553896650193 0.5360279247750264
0.23563801977010482 0.5660414285203397
0.23563801977010482 0.551034676647683
0.251873058162899 0.551034676647683
0.26810809655569323 0.5810481803929963
0.3086956925376788 0.6260684360109664
0.34928328851966434 0.641075187883623
0.3736358461088557 0.5660414285203397
0.36551832691245856 0.5810481803929963
0.3574008077160615 0.5660414285203397
0.397988403698047 0.6260684360109664
0.44669351887642966 0.6710886916289364
0.4953986340548123 0.6710886916289364
0.5359862300367979 0.7011021953742498
0.544103749233195 0.686095443501593
0.544103749233195 0.6710886916289364
0.5522212684295921 0.7011021953742498
0.5846913452151805 0.7461224509922197
0.6415139795899604 0.7911427066101898
0.6496314987863574 0.7461224509922197
0.6577490179827545 0.7311156991195631
0.6658665371791517 0.7161089472469064
0.6983366139647401 0.7761359547375332
0.7470417291431227 0.8511697141008165
0.8119818827142996 0.8511697141008165
0.844451959499888 0.8661764659734732
0.844451959499888 0.8361629622281598
0.844451959499888 0.8211562103555031
0.9012745938746678 0.8511697141008165
0.9499797090530505 0.8961899697187865
1.0068023434278304 0.9562169772094132
1.055507458606213 0.9111967215914432
1.055507458606213 0.9712237290820699
1.0717424969990073 0.9562169772094132
1.0960950545881984 1.01624398470004
1.1610352081593753 1.0762709921906666
1.217857842534155 1.0912777440633232
1.2340928809269494 1.1362979996812934
1.2422104001233465 1.1212912478086368
1.2503279193197436 1.1062844959359799
1.282797996105332 1.19632500717192
1.3233855920873177 1.2863655184078602
1.3639731880693031 1.3313857740258301
1.3802082264620974 1.3313857740258301
1.4045607840512886 1.3463925258984868
1.3883257456584945 1.3764060296438
1.4126783032476857 1.436433037134427
1.4451483800332743 1.5564870521156802
1.4451483800332743 1.6315208114789637
1.4532658992296714 1.616514059606307
1.4370308608368771 1.6315208114789637
1.42891334164048 1.6915478189695903
1.4126783032476857 1.706554570842247
1.4045607840512886 1.7665815783328738
1.4045607840512886 1.796595082078187
1.3802082264620974 1.8266085858235004
1.3396206304801117 1.7815883302055304
1.2746804769089348 1.796595082078187
1.282797996105332 1.796595082078187
1.2665629577125377 1.796595082078187
1.2584454385161408 1.796595082078187
1.1935052849449639 1.7215613227149036
1.128565131373787 1.661534315224277
1.0473899394098158 1.5865005558609935
0.9905673050350361 1.5414803002430235
0.9662147474458447 1.5264735483703669
0.9256271514638592 1.4964600446250536
0.8525694786962852 1.42142628526177
0.763276767535917 1.3914127815164568
0.6821015755719458 1.3313857740258301
0.6252789411971661 1.3163790221531735
0.5765738260187835 1.2713587665352033
0.5603387876259892 1.19632500717192
0.471046076465621 1.1062844959359799
0.40610592289444414 1.01624398470004
0.34116576932326725 0.9412102253367566
0.26810809655569323 0.8811832178461299
0.251873058162899 0.8661764659734732
0.2194029813773106 0.8061494584828465
0.16258034700253082 0.7161089472469064
0.10575771262775105 0.6710886916289364
0.04893507825297128 0.596054932265653
0.016465001467382844 0.5810481803929963
-0.032240113710999815 0.551034676647683
-0.040357632907396926 0.5210211729023696
-0.08906274808577959 0.4459874135390863
-0.13776786326416224 0.4459874135390863
-0.16212042085335357 0.40096715792111626
-0.1864729784425449 0.38596040604845955
-0.17023794004975068 0.43098066166642957
-0.1783554592461478 0.40096715792111626
-0.20270801683533912 0.3709536541758029
-0.24329561281732467 0.31092664668517617
-0.267648170406516 0.28091314293986286
-0.2838832087993102 0.2959198948125195
-0.267648170406516 0.3259333985578329
-0.267648170406516 0.34094015043048953
-0.27576568960291314 0.3259333985578329
-0.30823576638850153 0.26590639106720615
-0.30823576638850153 0.28091314293986286
-0.3325883239776929 0.3259333985578329
-0.30823576638850153 0.35594690230314624
-0.2920007279957073 0.3709536541758029
-0.2920007279957073 0.34094015043048953
-0.31635328558489867 0.28091314293986286
-0.3325883239776929 0.31092664668517617
-0.34070584317409 0.3259333985578329
-0.31635328558489867 0.35594690230314624
-0.32447080478129575 0.34094015043048953
-0.31635328558489867 0.31092664668517617
-0.32447080478129575 0.26590639106720615
-0.3325883239776929 0.26590639106720615
-0.3325883239776929 0.31092664668517617
-0.31635328558489867 0.3259333985578329
-0.2838832087993102 0.35594690230314624
-0.267648170406516 0.3259333985578329
-0.2595306512101189 0.31092664668517617
-0.27576568960291314 0.2959198948125195
-0.2920007279957073 0.31092664668517617
-0.27576568960291314 0.34094015043048953
-0.27576568960291314 0.3259333985578329
-0.27576568960291314 0.28091314293986286
-0.2920007279957073 0.2508996391945495
-0.2920007279957073 0.2358928873218928
-0.2920007279957073 0.2508996391945495
-0.27576568960291314 0.2959198948125195
-0.267648170406516 0.2959198948125195
-0.2920007279957073 0.28091314293986286
-0.30011824719210445 0.22088613544923613
-0.3569408815668842 0.22088613544923613
-0.3569408815668842 0.2508996391945495
-0.34070584317409 0.28091314293986286
-0.30823576638850153 0.28091314293986286
-0.30823576638850153 0.26590639106720615
-0.32447080478129575 0.22088613544923613
-0.3569408815668842 0.22088613544923613
-0.3488233623704871 0.2508996391945495
-0.34070584317409 0.28091314293986286
-0.3325883239776929 0.31092664668517617
-0.36505840076328133 0.31092664668517617
-0.36505840076328133 0.2508996391945495
-0.38941095835247264 0.26590639106720615
-0.38129343915607555 0.28091314293986286
-0.38129343915607555 0.3259333985578329
-0.36505840076328133 0.31092664668517617
-0.36505840076328133 0.2959198948125195
-0.3975284775488698 0.20587938357657945
-0.4381160735308553 0.20587938357657945
-0.4381160735308553 0.22088613544923613
-0.413763515941664 0.22088613544923613
-0.3975284775488698 0.20587938357657945
-0.38941095835247264 0.16085912795860943
-0.4381160735308553 0.1308456242132961
-0.44623359272725244 0.1158388723406394
-0.4543511119236495 0.1308456242132961
-0.4381160735308553 0.17586587983126611
-0.40564599674526686 0.17586587983126611
-0.413763515941664 0.14585237608595275
-0.413763515941664 0.1158388723406394
-0.4543511119236495 0.10083212046798273
-0.4381160735308553 0.1308456242132961
-0.4218810351380611 0.16085912795860943
-0.38941095835247264 0.17586587983126611
-0.3731759199596784 0.16085912795860943
-0.3731759199596784 0.1158388723406394
-0.3731759199596784 0.16085912795860943
-0.38941095835247264 0.16085912795860943
-0.3731759199596784 0.1908726317039228
-0.3325883239776929 0.1908726317039228
-0.36505840076328133 0.14585237608595275
-0.38941095835247264 0.1158388723406394
-0.4299985543344582 0.1158388723406394
-0.4299985543344582 0.16085912795860943
-0.4218810351380611 0.20587938357657945
-0.413763515941664 0.22088613544923613
-0.3975284775488698 0.22088613544923613
-0.44623359272725244 0.14585237608595275
-0.46246863112004666 0.16085912795860943
-0.44623359272725244 0.1908726317039228
-0.4218810351380611 0.22088613544923613
-0.3975284775488698 0.2358928873218928
-0.3975284775488698 0.1908726317039228
-0.413763515941664 0.17586587983126611
-0.4299985543344582 0.14585237608595275
-0.4218810351380611 0.17586587983126611
-0.40564599674526686 0.22088613544923613
-0.38941095835247264 0.2358928873218928
-0.40564599674526686 0.1908726317039228
-0.4299985543344582 0.1908726317039228
-0.44623359272725244 0.16085912795860943
-0.4299985543344582 0.16085912795860943
-0.413763515941664 0.1908726317039228
-0.38941095835247264 0.20587938357657945
-0.38941095835247264 0.17586587983126611
-0.4218810351380611 0.14585237608595275
-0.4299985543344582 0.10083212046798273
-0.4299985543344582 0.1158388723406394
-0.40564599674526686 0.14585237608595275
-0.38941095835247264 0.1308456242132961
-0.38129343915607555 0.07081861672266938
-0.40564599674526686 0.040805112977356034
-0.4299985543344582 0.01079160923204268
-0.413763515941664 0.01079160923204268
-0.4218810351380611 0.05581186485001271
-0.3731759199596784 0.07081861672266938
-0.38129343915607555 0.07081861672266938
-0.3731759199596784 0.025798361104699356
-0.38941095835247264 0.05581186485001271
-0.3569408815668842 0.025798361104699356
-0.3569408815668842 0.08582536859532605
-0.32447080478129575 0.10083212046798273
-0.3325883239776929 0.05581186485001271
-0.3488233623704871 0.025798361104699356
-0.38941095835247264 0.040805112977356034
-0.36505840076328133 0.05581186485001271
-0.30011824719210445 0.07081861672266938
-0.267648170406516 0.08582536859532605
-0.22706057442453045 0.05581186485001271
-0.194590497638942 0.01079160923204268
-0.08906274808577959 -0.004215142640613995
0.1544628278061337 0.025798361104699356
0.7389242099467256 0.05581186485001271
1.6156162831576135 0.07081861672266938
2.329957972440559 -0.01922189451327067
2.4273682027973247 -0.15428266136718075
2.0864323965486458 -0.3193569319664042
1.648086359943202 -0.6194919694195377
1.4045607840512886 -1.1747417887078346
1.290915515301729 -2.000113141703952
1.1610352081593753 -2.9455385096813225
1.0068023434278304 -3.425754569606336
0.8769220362854765 -3.2306667952617993
0.7389242099467256 -2.720437231591472
0.617161422000769 -2.3752819385203687
0.48728111485841524 -2.2552279235391155
0.3086956925376788 -2.210207667921145
0.11387523182414816 -2.165187412303175
-0.0971802672821767 -2.135173908557862
-0.30823576638850153 -2.090153652939892
-0.4543511119236495 -2.000113141703952
-0.641054053440783 -2.0301266454492652
-0.860227071743505 -2.075146901067235
-1.1118701668318154 -2.135173908557862
-1.37974830031292 -2.1952009160484884
-1.6557439529904219 -2.2402211716664584
-1.8992695288823351 -2.2252144197938017
-2.11032502798866 -2.270234675411772
-2.2889104503093964 -2.3002481791570855
-2.467495872630133 -2.360275186647712
-2.646081294950869 -2.360275186647712
-2.775961602093223 -2.4203021941383387
-2.873371832449988 -2.4203021941383387
-2.9545470244139596 -2.4653224497563087
-3.0600747739671217 -2.5103427053742786
-3.1168974083419014 -2.5253494572469353
-3.1737200427166816 -2.6303967203555323
-3.1574850043238873 -2.6604102241008456
-3.1087798891455045 -2.7054304797188156
-3.0357222163779305 -2.720437231591472
-2.9545470244139596 -2.855497998445382
-2.930194466824768 -2.9905587652992924
-2.849019274860797 -3.1106127802805457
-2.7110214485220463 -3.200653291516486
-2.4593783534337357 -3.1706397877711723
-2.175265181559837 -3.1856465396438294
-1.9317396056679235 -3.200653291516486
-1.7775067409363785 -3.1556330358985156
-1.6151563570084362 -3.095606028407889
-1.5583337226336564 -2.960545261553979
-1.4933935690624796 -2.8404912465727254
-1.4365709346876998 -2.7504507353367855
-1.3553957427237286 -2.690423727846159
-1.2904555891525518 -2.6303967203555323
-1.217397916384978 -2.4803292016289653
-1.1281052052246097 -2.3002481791570855
-1.0306949748678444 -2.075146901067235
-0.9251672253146819 -1.9100726304680118
-0.8277569949579165 -1.7449983598687884
-0.7222292454047542 -1.5949308411422216
-0.632936534244386 -1.3998430667976849
-0.5111737462984293 -1.1747417887078346
-0.3731759199596784 -0.9646472624906413
-0.2838832087993102 -0.7545527362734478
-0.20270801683533912 -0.5894784656742244
-0.13776786326416224 -0.45441769882031424
-0.10529778647857381 -0.3193569319664042
-0.08094522888938248 -0.16928941323983743
-0.016005075318205594 -0.01922189451327067
0.03270003986017706 0.05581186485001271
0.08140515503855972 0.1308456242132961
0.08140515503855972 0.1908726317039228
0.09764019343135394 0.20587938357657945
0.12199275102054527 0.2508996391945495
0.1544628278061337 0.28091314293986286
0.17069786619892793 0.2959198948125195
0.1463453086097366 0.2959198948125195
0.1544628278061337 0.31092664668517617
0.1463453086097366 0.35594690230314624
0.16258034700253082 0.46099416541174293
0.21128546218091349 0.506014421029713
0.26810809655569323 0.5210211729023696
0.25999057735929615 0.551034676647683
0.251873058162899 0.5360279247750264
0.23563801977010482 0.551034676647683
0.25999057735929615 0.596054932265653
0.27622561575209037 0.641075187883623
0.34116576932326725 0.6560819397562797
0.34116576932326725 0.686095443501593
0.3168132117340759 0.6560819397562797
0.3168132117340759 0.641075187883623
0.34116576932326725 0.7011021953742498
0.3898708845016499 0.7311156991195631
0.42234096128723836 0.7611292028648764
0.43045848048363544 0.7611292028648764
0.4142234420908412 0.7611292028648764
0.397988403698047 0.7611292028648764
0.4385759996800326 0.8211562103555031
0.4953986340548123 0.8511697141008165
0.544103749233195 0.8661764659734732
0.5684563068223863 0.8661764659734732
0.5765738260187835 0.8061494584828465
0.5765738260187835 0.8211562103555031
0.6009263836079748 0.8661764659734732
0.6658665371791517 0.8811832178461299
0.7145716523575343 0.8961899697187865
0.6983366139647401 0.8661764659734732
0.7389242099467256 0.8211562103555031
0.7876293251251083 0.8211562103555031
0.8119818827142996 0.8661764659734732
0.8769220362854765 0.8661764659734732
0.9418621898566534 0.8811832178461299
0.9986848242314331 0.8811832178461299
1.0068023434278304 0.8511697141008165
1.0392724202134187 0.8511697141008165
1.0717424969990073 0.9111967215914432
1.1042125737845956 0.9562169772094132
1.1691527273557725 0.9562169772094132
1.1935052849449639 0.9712237290820699
1.209740323337758 0.9712237290820699
1.209740323337758 1.01624398470004
1.2584454385161408 1.1362979996812934
1.3152680728909205 1.2263385109172333
1.3883257456584945 1.2863655184078602
1.4045607840512886 1.2563520146625466
1.4126783032476857 1.2713587665352033
1.4207958224440829 1.3313857740258301
1.42891334164048 1.3764060296438
1.4857359760152598 1.4664465408797402
1.5344410911936424 1.4964600446250536
1.5344410911936424 1.4964600446250536
1.5100885336044512 1.5264735483703669
1.5182060528008483 1.5264735483703669
1.5263235719972452 1.5714938039883368
1.5263235719972452 1.6465275633516203
1.5425586103900395 1.706554570842247
1.5100885336044512 1.6765410670969336
1.4695009376224655 1.6915478189695903
1.42891334164048 1.706554570842247
1.3802082264620974 1.7365680745875602
1.3802082264620974 1.796595082078187
1.3720907072657003 1.7815883302055304
1.3477381496765088 1.7665815783328738
1.290915515301729 1.706554570842247
1.209740323337758 1.661534315224277
1.128565131373787 1.6465275633516203
1.0717424969990073 1.706554570842247
1.0717424969990073 1.6465275633516203
0.982449785838639 1.5865005558609935
0.9093921130710649 1.4664465408797402
0.8282169211070939 1.436433037134427
0.7551592483395199 1.3914127815164568
0.7145716523575343 1.3914127815164568
0.6739840563755488 1.3163790221531735
0.6090439028043719 1.24134526278989
0.5197511916440036 1.1212912478086368
0.42234096128723836 1.0312507365726966
0.36551832691245856 0.9562169772094132
0.3330482501268701 0.9111967215914432
0.32493073093047303 0.8661764659734732
0.24375553896650193 0.7911427066101898
0.17069786619892793 0.7161089472469064
0.08952267423495683 0.641075187883623
0.04081755905657417 0.6110616841383097
0.024582520663779955 0.6260684360109664
0.024582520663779955 0.6110616841383097
-0.016005075318205594 0.551034676647683
-0.08094522888938248 0.506014421029713
-0.14588538246055935 0.4459874135390863
-0.20270801683533912 0.46099416541174293
-0.21894305522813334 0.47600091728439964
-0.1783554592461478 0.47600091728439964
-0.21082553603173623 0.4159739097937729
-0.24329561281732467 0.38596040604845955
-0.2920007279957073 0.3259333985578329
-0.30011824719210445 0.3709536541758029
-0.2920007279957073 0.38596040604845955
-0.30823576638850153 0.3709536541758029
-0.30823576638850153 0.35594690230314624
-0.3325883239776929 0.2959198948125195
-0.38129343915607555 0.2959198948125195
-0.3731759199596784 0.34094015043048953
-0.36505840076328133 0.34094015043048953
-0.3569408815668842 0.35594690230314624
-0.38941095835247264 0.3259333985578329
-0.40564599674526686 0.2959198948125195
-0.44623359272725244 0.2508996391945495
-0.413763515941664 0.2959198948125195
-0.3731759199596784 0.34094015043048953
-0.36505840076328133 0.35594690230314624
-0.3488233623704871 0.3259333985578329
-0.3731759199596784 0.2959198948125195
-0.40564599674526686 0.2508996391945495
-0.3975284775488698 0.26590639106720615
-0.38941095835247264 0.2959198948125195
-0.3731759199596784 0.28091314293986286
-0.36505840076328133 0.2358928873218928
-0.40564599674526686 0.22088613544923613
-0.4299985543344582 0.22088613544923613
-0.4381160735308553 0.20587938357657945
-0.3975284775488698 0.2358928873218928
-0.38129343915607555 0.22088613544923613
-0.38129343915607555 0.20587938357657945
-0.38129343915607555 0.16085912795860943
-0.38129343915607555 0.17586587983126611
-0.3975284775488698 0.1908726317039228
-0.36505840076328133 0.20587938357657945
-0.3488233623704871 0.22088613544923613
-0.36505840076328133 0.1908726317039228
-0.38941095835247264 0.1908726317039228
-0.4218810351380611 0.1908726317039228
-0.4299985543344582 0.26590639106720615
-0.40564599674526686 0.2508996391945495
-0.3731759199596784 0.2508996391945495
-0.38941095835247264 0.2508996391945495
-0.413763515941664 0.2358928873218928
-0.44623359272725244 0.2508996391945495
-0.46246863112004666 0.28091314293986286
-0.4299985543344582 0.31092664668517617
-0.40564599674526686 0.2959198948125195
-0.4218810351380611 0.28091314293986286
-0.47058615031644374 0.2508996391945495
-0.4949387079056351 0.22088613544923613
-0.4787036695128409 0.22088613544923613
-0.46246863112004666 0.28091314293986286
-0.4381160735308553 0.26590639106720615
-0.4787036695128409 0.26590639106720615
-0.48682118870923796 0.22088613544923613
-0.48682118870923796 0.2358928873218928
-0.5030562271020322 0.2358928873218928
-0.47058615031644374 0.26590639106720615
-0.4381160735308553 0.26590639106720615
-0.4543511119236495 0.2358928873218928
-0.47058615031644374 0.22088613544923613
-0.4949387079056351 0.20587938357657945
-0.4787036695128409 0.20587938357657945
-0.46246863112004666 0.2358928873218928
-0.4381160735308553 0.2508996391945495
-0.4543511119236495 0.20587938357657945
-0.48682118870923796 0.16085912795860943
-0.5192912654948264 0.14585237608595275
-0.48682118870923796 0.1308456242132961
-0.4787036695128409 0.16085912795860943
-0.4543511119236495 0.17586587983126611
-0.46246863112004666 0.14585237608595275
-0.5111737462984293 0.10083212046798273
-0.559878861476812 0.040805112977356034
-0.5679963806732091 0.07081861672266938
-0.5436438230840177 0.10083212046798273
-0.5192912654948264 0.08582536859532605
-0.5355263038876207 0.10083212046798273
-0.5274087846912235 0.07081861672266938
-0.5355263038876207 0.08582536859532605
-0.5274087846912235 0.14585237608595275
-0.48682118870923796 0.14585237608595275
-0.48682118870923796 0.14585237608595275
-0.4787036695128409 0.1308456242132961
-0.5192912654948264 0.14585237608595275
-0.5436438230840177 0.14585237608595275
-0.5679963806732091 0.14585237608595275
-0.5355263038876207 0.20587938357657945
-0.5030562271020322 0.17586587983126611
-0.5274087846912235 0.16085912795860943
-0.5355263038876207 0.14585237608595275
-0.6004664574587976 0.1158388723406394
-0.6004664574587976 0.16085912795860943
-0.5679963806732091 0.17586587983126611
-0.5517613422804148 0.17586587983126611
-0.5436438230840177 0.16085912795860943
-0.5761138998696061 0.14585237608595275
-0.5842314190660033 0.14585237608595275
-0.5679963806732091 0.1908726317039228
-0.5274087846912235 0.20587938357657945
-0.5192912654948264 0.22088613544923613
-0.5192912654948264 0.20587938357657945
-0.5192912654948264 0.16085912795860943
-0.5355263038876207 0.17586587983126611
-0.5274087846912235 0.17586587983126611
-0.5192912654948264 0.22088613544923613
-0.4787036695128409 0.20587938357657945
-0.47058615031644374 0.17586587983126611
-0.47058615031644374 0.1308456242132961
-0.5030562271020322 0.08582536859532605
-0.48682118870923796 0.10083212046798273
-0.47058615031644374 0.1308456242132961
-0.46246863112004666 0.1158388723406394
-0.47058615031644374 0.07081861672266938
-0.48682118870923796 0.05581186485001271
-0.4949387079056351 0.025798361104699356
-0.5111737462984293 0.040805112977356034
-0.4949387079056351 0.05581186485001271
-0.47058615031644374 0.040805112977356034
-0.48682118870923796 -0.004215142640613995
-0.5030562271020322 -0.01922189451327067
-0.5030562271020322 -0.03422864638592735
-0.4949387079056351 -0.01922189451327067
-0.46246863112004666 -0.004215142640613995
-0.4299985543344582 -0.004215142640613995
-0.4299985543344582 -0.0642421501312407
-0.4299985543344582 -0.07924890200389736
-0.4218810351380611 -0.07924890200389736
-0.3975284775488698 -0.0642421501312407
-0.30823576638850153 -0.004215142640613995
-0.20270801683533912 0.025798361104699356
-0.024122594514602705 -0.004215142640613995
0.34116576932326725 -0.01922189451327067
1.055507458606213 -0.01922189451327067
1.9159644934243065 -0.03422864638592735
2.378663087618942 -0.07924890200389736
2.224430222887397 -0.25932992447577746
1.7454965902999673 -0.5594649619289109
1.3477381496765088 -1.1747417887078346
1.1772702465521696 -2.120167156685205
1.0798600161954042 -3.095606028407889
0.9743322666422418 -3.5458085845875895
0.8200994019106967 -3.3657275621157092
0.6496314987863574 -2.8404912465727254
0.4629285572692239 -2.5553629609922486
0.25999057735929615 -2.360275186647712
0.06517011664576551 -2.3002481791570855
-0.12153282487136803 -2.165187412303175
-0.31635328558489867 -2.120167156685205
-0.4787036695128409 -2.120167156685205
-0.6978766878155629 -2.165187412303175
-0.9495197829038733 -2.180194164175832
-1.1849278395993894 -2.120167156685205
-1.4122183770985086 -2.1501806604305185
-1.6476264337940247 -2.2252144197938017
-1.9073870480787323 -2.285241427284429
-2.2077352583454255 -2.360275186647712
-2.4431433150409414 -2.3752819385203687
-2.646081294950869 -2.3902886903930254
-2.800314159682414 -2.3752819385203687
-2.946429505217562 -2.3902886903930254
-3.1006623699491076 -2.495335953501622
-3.2792477922698438 -2.540356209119592
-3.441598176197786 -2.6303967203555323
-3.51465584896536 -2.6153899684828756
-3.498420810572566 -2.6303967203555323
-3.490303291376169 -2.6604102241008456
-3.51465584896536 -2.765457487209442
-3.522773368161757 -2.8705047503180388
-3.4821857721797715 -3.005565517171949
-3.417245618608595 -3.0205722690446057
-3.344187945841021 -3.050585772789919
-3.1737200427166816 -3.1256195321532023
-3.019487177985136 -3.2156600433891427
-2.8084316788788115 -3.2756870508797693
-2.6136112181652806 -3.2606802990071126
-2.3051454887021907 -3.140626284025859
-2.045384874417483 -3.050585772789919
-1.8262118561147611 -2.930531757808666
-1.6882140297760102 -2.7954709909547555
-1.6395089145976276 -2.720437231591472
-1.590803799419245 -2.645403472228189
-1.517746126651671 -2.5103427053742786
-1.37974830031292 -2.360275186647712
-1.233632954777772 -2.210207667921145
-1.1281052052246097 -2.090153652939892
-1.0469300132606385 -1.940086134213325
-0.9738723404930646 -1.7449983598687884
-0.8277569949579165 -1.5048903299062815
-0.7141117262083571 -1.2647822999437748
-0.5923489382624004 -1.0546877737265812
-0.5030562271020322 -0.9046202550000145
-0.4218810351380611 -0.7545527362734478
-0.36505840076328133 -0.5894784656742244
-0.2838832087993102 -0.4244041950750009
-0.21082553603173623 -0.21430966885780744
-0.14588538246055935 -0.09425565387655405
-0.10529778647857381 -0.01922189451327067
-0.08094522888938248 0.01079160923204268
-0.0971802672821767 0.05581186485001271
-0.06471019049658826 0.17586587983126611
-0.024122594514602705 0.2358928873218928
0.00022996307458862428 0.26590639106720615
0.024582520663779955 0.2508996391945495
0.008347482270985734 0.2358928873218928
0.00022996307458862428 0.2508996391945495
0.024582520663779955 0.26590639106720615
0.05705259744936839 0.31092664668517617
0.09764019343135394 0.3259333985578329
0.11387523182414816 0.2959198948125195
0.11387523182414816 0.28091314293986286
0.07328763584216262 0.26590639106720615
0.12199275102054527 0.2959198948125195
0.1382277894133395 0.35594690230314624
0.17069786619892793 0.3709536541758029
0.17881538539532504 0.4159739097937729
0.16258034700253082 0.40096715792111626
0.17069786619892793 0.47600091728439964
0.17881538539532504 0.5210211729023696
0.2275205005737077 0.6110616841383097
0.28434313494848745 0.641075187883623
0.25999057735929615 0.641075187883623
0.2924606541448846 0.6110616841383097
0.3005781733412817 0.6260684360109664
0.3168132117340759 0.641075187883623
0.36551832691245856 0.7311156991195631
0.42234096128723836 0.7311156991195631
0.42234096128723836 0.7311156991195631
0.42234096128723836 0.7311156991195631
0.43045848048363544 0.7311156991195631
0.43045848048363544 0.8061494584828465
0.4953986340548123 0.8811832178461299
0.5603387876259892 0.8961899697187865
0.5765738260187835 0.8811832178461299
0.5928088644115777 0.8661764659734732
0.6090439028043719 0.8511697141008165
0.6252789411971661 0.9262034734640999
0.6739840563755488 1.0012372328273833
0.7470417291431227 0.9862304809547265
0.7957468443215054 0.9412102253367566
0.8038643635179025 0.9111967215914432
0.8119818827142996 0.9262034734640999
0.8688045170890794 0.9862304809547265
0.9256271514638592 0.9712237290820699
0.9986848242314331 1.0012372328273833
1.0149198626242273 1.01624398470004
1.0717424969990073 0.9862304809547265
1.0798600161954042 0.9862304809547265
1.1366826505701841 1.0462574884453533
1.1935052849449639 1.1062844959359799
1.2665629577125377 1.1212912478086368
1.2503279193197436 1.1062844959359799
1.290915515301729 1.0912777440633232
1.3315031112837146 1.1362979996812934
1.3396206304801117 1.1813182552992634
1.3883257456584945 1.24134526278989
1.4451483800332743 1.2563520146625466
1.4451483800332743 1.3163790221531735
1.4370308608368771 1.3163790221531735
1.4045607840512886 1.3613992777711434
1.42891334164048 1.436433037134427
1.4451483800332743 1.5114667964977102
1.4776184568188626 1.5264735483703669
1.4613834184260683 1.5414803002430235
1.3964432648548915 1.5414803002430235
1.3802082264620974 1.5564870521156802
1.3396206304801117 1.6015073077336504
1.3152680728909205 1.6315208114789637
1.290915515301729 1.6465275633516203
1.2584454385161408 1.6315208114789637
1.2016228041413608 1.5865005558609935
1.128565131373787 1.5714938039883368
1.0636249778026101 1.5865005558609935
1.0230373818206244 1.5714938039883368
0.9743322666422418 1.5564870521156802
0.9012745938746678 1.481453292752397
0.7957468443215054 1.4514397890070836
0.7226891715539314 1.4064195333891134
0.6496314987863574 1.3914127815164568
0.5765738260187835 1.3914127815164568
0.5197511916440036 1.3313857740258301
0.4548110380728268 1.2563520146625466
0.3817533653052528 1.15130475155395
0.2924606541448846 1.0762709921906666
0.2275205005737077 1.01624398470004
0.18693290459172215 1.01624398470004
0.13011027021694238 0.9562169772094132
0.04081755905657417 0.8511697141008165
-0.024122594514602705 0.7611292028648764
-0.0971802672821767 0.686095443501593
-0.14588538246055935 0.6710886916289364
-0.1864729784425449 0.641075187883623
-0.21082553603173623 0.5810481803929963
-0.24329561281732467 0.5210211729023696
-0.2920007279957073 0.43098066166642957
-0.3569408815668842 0.3709536541758029
-0.3488233623704871 0.38596040604845955
-0.3569408815668842 0.40096715792111626
-0.38941095835247264 0.4159739097937729
-0.413763515941664 0.3259333985578329
-0.4543511119236495 0.26590639106720615
-0.48682118870923796 0.2508996391945495
-0.48682118870923796 0.28091314293986286
-0.46246863112004666 0.34094015043048953
-0.44623359272725244 0.35594690230314624
-0.4787036695128409 0.3259333985578329
-0.5192912654948264 0.28091314293986286
-0.5436438230840177 0.28091314293986286
-0.5517613422804148 0.3709536541758029
-0.5436438230840177 0.3709536541758029
-0.5192912654948264 0.35594690230314624
-0.5355263038876207 0.3259333985578329
-0.559878861476812 0.2959198948125195
-0.5761138998696061 0.2959198948125195
-0.5517613422804148 0.35594690230314624
-0.5517613422804148 0.34094015043048953
-0.5274087846912235 0.38596040604845955
-0.5436438230840177 0.35594690230314624
-0.5679963806732091 0.3259333985578329
-0.5842314190660033 0.3259333985578329
-0.5679963806732091 0.3709536541758029
-0.5517613422804148 0.43098066166642957
-0.5274087846912235 0.4159739097937729
-0.5436438230840177 0.38596040604845955
-0.5436438230840177 0.35594690230314624
-0.5923489382624004 0.34094015043048953
-0.5842314190660033 0.40096715792111626
-0.5679963806732091 0.40096715792111626
-0.5355263038876207 0.40096715792111626
-0.5274087846912235 0.34094015043048953
-0.5274087846912235 0.28091314293986286
-0.5517613422804148 0.26590639106720615
-0.559878861476812 0.28091314293986286
-0.5274087846912235 0.2959198948125195
-0.5274087846912235 0.28091314293986286
-0.5355263038876207 0.22088613544923613
-0.559878861476812 0.1908726317039228
-0.6004664574587976 0.16085912795860943
-0.5923489382624004 0.1908726317039228
-0.5923489382624004 0.1908726317039228
-0.5761138998696061 0.17586587983126611
-0.5923489382624004 0.14585237608595275
-0.6167014958515917 0.1158388723406394
-0.6491715726371802 0.1158388723406394
-0.632936534244386 0.14585237608595275
-0.641054053440783 0.17586587983126611
-0.6167014958515917 0.1908726317039228
-0.641054053440783 0.17586587983126611
-0.6572890918335773 0.1158388723406394
-0.6897591686191658 0.1158388723406394
-0.6735241302263715 0.17586587983126611
-0.6491715726371802 0.2358928873218928
-0.6735241302263715 0.31092664668517617
-0.6735241302263715 0.26590639106720615
-0.6897591686191658 0.2508996391945495
-0.6978766878155629 0.2508996391945495
-0.6978766878155629 0.28091314293986286
-0.6735241302263715 0.3259333985578329
-0.6654066110299744 0.34094015043048953
-0.6816416494227686 0.28091314293986286
-0.6816416494227686 0.26590639106720615
-0.7141117262083571 0.2508996391945495
-0.7141117262083571 0.2959198948125195
-0.6735241302263715 0.35594690230314624
-0.6491715726371802 0.35594690230314624
-0.6572890918335773 0.3259333985578329
-0.6978766878155629 0.28091314293986286
-0.7141117262083571 0.2959198948125195
-0.7059942070119599 0.34094015043048953
-0.6735241302263715 0.40096715792111626
-0.6654066110299744 0.38596040604845955
-0.6654066110299744 0.3259333985578329
-0.6897591686191658 0.2959198948125195
-0.6978766878155629 0.26590639106720615
-0.6978766878155629 0.28091314293986286
-0.6816416494227686 0.3259333985578329
-0.6654066110299744 0.3259333985578329
-0.6735241302263715 0.28091314293986286
-0.6572890918335773 0.2508996391945495
-0.6897591686191658 0.22088613544923613
-0.6978766878155629 0.2508996391945495
-0.6897591686191658 0.2959198948125195
-0.6735241302263715 0.26590639106720615
-0.6897591686191658 0.22088613544923613
-0.6897591686191658 0.16085912795860943
-0.6978766878155629 0.1308456242132961
-0.7059942070119599 0.16085912795860943
-0.6897591686191658 0.16085912795860943
-0.6897591686191658 0.14585237608595275
-0.6816416494227686 0.10083212046798273
-0.6897591686191658 0.08582536859532605
-0.6897591686191658 0.05581186485001271
-0.6978766878155629 0.08582536859532605
-0.6897591686191658 0.1158388723406394
-0.6572890918335773 0.1308456242132961
-0.6735241302263715 0.07081861672266938
-0.6978766878155629 0.07081861672266938
-0.7465818029939455 0.08582536859532605
-0.7222292454047542 0.1308456242132961
-0.7059942070119599 0.17586587983126611
-0.6654066110299744 0.22088613544923613
-0.6897591686191658 0.20587938357657945
-0.6978766878155629 0.1308456242132961
-0.7141117262083571 0.14585237608595275
-0.7222292454047542 0.17586587983126611
-0.6735241302263715 0.1908726317039228
-0.6572890918335773 0.22088613544923613
-0.6572890918335773 0.1908726317039228
-0.6816416494227686 0.1308456242132961
-0.7059942070119599 0.1308456242132961
-0.7141117262083571 0.16085912795860943
-0.6735241302263715 0.20587938357657945
-0.6491715726371802 0.2358928873218928
-0.6654066110299744 0.20587938357657945
-0.6735241302263715 0.16085912795860943
-0.6735241302263715 0.14585237608595275
-0.6654066110299744 0.1908726317039228
-0.632936534244386 0.2358928873218928
-0.6167014958515917 0.2508996391945495
-0.5842314190660033 0.20587938357657945
-0.5923489382624004 0.16085912795860943
-0.5923489382624004 0.16085912795860943
-0.5517613422804148 0.14585237608595275
-0.48682118870923796 0.1908726317039228
-0.4381160735308553 0.17586587983126611
-0.3569408815668842 0.1158388723406394
-0.22706057442453045 0.040805112977356034
0.10575771262775105 0.01079160923204268
0.8119818827142996 -0.004215142640613995
1.7373790711035701 0.01079160923204268
2.321840453244162 -0.07924890200389736
2.1838426269054114 -0.25932992447577746
1.6805564367287904 -0.6344987212921943
1.2503279193197436 -1.2497755480711181
1.055507458606213 -2.180194164175832
0.982449785838639 -3.140626284025859
0.8769220362854765 -3.6358490958235294
0.6983366139647401 -3.515795080842276
0.5197511916440036 -3.0805992765352324
0.3574008077160615 -2.7504507353367855
0.17069786619892793 -2.5553629609922486
0.008347482270985734 -2.4203021941383387
-0.15400290165695646 -2.3302616829023988
-0.34070584317409 -2.2402211716664584
-0.5436438230840177 -2.210207667921145
-0.7546993221903426 -2.165187412303175
-0.9414022637074762 -2.120167156685205
-1.144340243617404 -2.075146901067235
-1.3878658195093172 -2.090153652939892
-1.6313913954012305 -2.1501806604305185
-1.9398571248643206 -2.210207667921145
-2.248322854327411 -2.2252144197938017
-2.4431433150409414 -2.2252144197938017
-2.6054936989688837 -2.1952009160484884
-2.7597265637004287 -2.1952009160484884
-2.930194466824768 -2.2402211716664584
-3.1006623699491076 -2.3452684347750554
-3.2548952346806526 -2.3902886903930254
-3.344187945841021 -2.3902886903930254
-3.368540503430212 -2.405295442265682
-3.4010105802158006 -2.450315697883652
-3.4010105802158006 -2.540356209119592
-3.4010105802158006 -2.6604102241008456
-3.3523054650374178 -2.765457487209442
-3.295482830662638 -2.8404912465727254
-3.2386601962878583 -2.930531757808666
-3.125014927538299 -3.0655925246625757
-2.9383119860211653 -3.140626284025859
-2.7110214485220463 -3.2606802990071126
-2.483730911022927 -3.245673547134456
-2.2239702967382193 -3.200653291516486
-1.9885622400427034 -3.0805992765352324
-1.8343293753111583 -3.0205722690446057
-1.7937417793291728 -2.9455385096813225
-1.7693892217399814 -2.9005182540633525
-1.753154183347187 -2.855497998445382
-1.6313913954012305 -2.780464239082099
-1.5096286074552738 -2.6153899684828756
-1.3878658195093172 -2.4803292016289653
-1.2904555891525518 -2.3452684347750554
-1.1849278395993894 -2.165187412303175
-1.1037526476354182 -1.940086134213325
-0.9738723404930646 -1.714984856123475
-0.8358745141543137 -1.4298565705429982
-0.6897591686191658 -1.1747417887078346
-0.5679963806732091 -0.9796540143632979
-0.4787036695128409 -0.7695594881461044
-0.413763515941664 -0.5594649619289109
-0.36505840076328133 -0.37938393945703086
-0.2920007279957073 -0.16928941323983743
-0.22706057442453045 -0.03422864638592735
-0.194590497638942 0.07081861672266938
-0.194590497638942 0.17586587983126611
-0.1783554592461478 0.26590639106720615
-0.16212042085335357 0.3709536541758029
-0.15400290165695646 0.43098066166642957
-0.12965034406776513 0.46099416541174293
-0.12965034406776513 0.47600091728439964
-0.12965034406776513 0.46099416541174293
-0.14588538246055935 0.4910076691570563
-0.11341530567497092 0.5660414285203397
-0.08906274808577959 0.596054932265653
-0.05659267130019115 0.6260684360109664
-0.06471019049658826 0.6260684360109664
-0.06471019049658826 0.6110616841383097
-0.06471019049658826 0.6260684360109664
-0.032240113710999815 0.6560819397562797
-0.024122594514602705 0.7161089472469064
0.008347482270985734 0.686095443501593
0.008347482270985734 0.7011021953742498
0.00022996307458862428 0.7161089472469064
-0.016005075318205594 0.7161089472469064
0.024582520663779955 0.7311156991195631
0.07328763584216262 0.7461224509922197
0.13011027021694238 0.7761359547375332
0.12199275102054527 0.7611292028648764
0.12199275102054527 0.7461224509922197
0.13011027021694238 0.7611292028648764
0.1544628278061337 0.7611292028648764
0.17881538539532504 0.8361629622281598
0.23563801977010482 0.8361629622281598
0.26810809655569323 0.7761359547375332
0.26810809655569323 0.7461224509922197
0.28434313494848745 0.7461224509922197
0.3168132117340759 0.7461224509922197
0.36551832691245856 0.7611292028648764
0.42234096128723836 0.7761359547375332
0.44669351887642966 0.7161089472469064
0.48728111485841524 0.7161089472469064
0.5116336724476066 0.7461224509922197
0.5278687108404008 0.7761359547375332
0.6090439028043719 0.8061494584828465
0.6577490179827545 0.8811832178461299
0.7226891715539314 0.8811832178461299
0.7470417291431227 0.8661764659734732
0.771394286732314 0.9111967215914432
0.7876293251251083 0.9412102253367566
0.8282169211070939 1.01624398470004
0.9093921130710649 1.1062844959359799
0.9499797090530505 1.1663115034266067
0.9662147474458447 1.2113317590445767
0.9743322666422418 1.2713587665352033
1.0311549010170216 1.3313857740258301
1.0717424969990073 1.42142628526177
1.1204476121773899 1.4514397890070836
1.144800169766581 1.481453292752397
1.144800169766581 1.481453292752397
1.128565131373787 1.5264735483703669
1.1691527273557725 1.5714938039883368
1.1935052849449639 1.6315208114789637
1.217857842534155 1.661534315224277
1.2016228041413608 1.706554570842247
1.1691527273557725 1.6765410670969336
1.1610352081593753 1.7215613227149036
1.1529176889629782 1.7815883302055304
1.1529176889629782 1.841615337696157
1.1366826505701841 1.8566220895688137
1.0717424969990073 1.8566220895688137
0.9986848242314331 1.796595082078187
0.9418621898566534 1.7665815783328738
0.8769220362854765 1.7665815783328738
0.8606869978926823 1.7515748264602171
0.8200994019106967 1.7365680745875602
0.771394286732314 1.6765410670969336
0.6983366139647401 1.5865005558609935
0.6252789411971661 1.5564870521156802
0.5765738260187835 1.481453292752397
0.544103749233195 1.4664465408797402
0.4953986340548123 1.3764060296438
0.43045848048363544 1.3013722702805168
0.3330482501268701 1.1813182552992634
0.26810809655569323 1.1362979996812934
0.19505042378811926 1.06126424031801
0.16258034700253082 1.01624398470004
0.13011027021694238 0.9412102253367566
0.08952267423495683 0.8811832178461299
0.016465001467382844 0.7761359547375332
-0.06471019049658826 0.7161089472469064
-0.10529778647857381 0.7161089472469064
-0.13776786326416224 0.686095443501593
-0.17023794004975068 0.641075187883623
-0.21082553603173623 0.6110616841383097
-0.267648170406516 0.5660414285203397
-0.2920007279957073 0.551034676647683
-0.3488233623704871 0.5810481803929963
-0.3731759199596784 0.6110616841383097
-0.3569408815668842 0.6110616841383097
-0.38129343915607555 0.551034676647683
-0.4381160735308553 0.47600091728439964
-0.4543511119236495 0.47600091728439964
-0.48682118870923796 0.46099416541174293
-0.5192912654948264 0.47600091728439964
-0.47058615031644374 0.47600091728439964
-0.5192912654948264 0.47600091728439964
-0.5355263038876207 0.43098066166642957
-0.559878861476812 0.43098066166642957
-0.5517613422804148 0.4159739097937729
-0.5517613422804148 0.4459874135390863
-0.5355263038876207 0.47600091728439964
-0.5679963806732091 0.4159739097937729
-0.5842314190660033 0.40096715792111626
-0.6167014958515917 0.43098066166642957
-0.6167014958515917 0.4159739097937729
-0.5842314190660033 0.4459874135390863
-0.5761138998696061 0.4159739097937729
-0.5761138998696061 0.4459874135390863
-0.5679963806732091 0.38596040604845955
-0.5761138998696061 0.38596040604845955
-0.559878861476812 0.40096715792111626
-0.5274087846912235 0.4159739097937729
-0.5111737462984293 0.43098066166642957
-0.5030562271020322 0.35594690230314624
-0.5192912654948264 0.3259333985578329
-0.5436438230840177 0.2959198948125195
-0.5274087846912235 0.31092664668517617
-0.5111737462984293 0.3259333985578329
-0.5111737462984293 0.3259333985578329
-0.5274087846912235 0.28091314293986286
-0.5274087846912235 0.22088613544923613
-0.5436438230840177 0.22088613544923613
-0.5517613422804148 0.20587938357657945
-0.4949387079056351 0.2358928873218928
-0.4949387079056351 0.22088613544923613
-0.4949387079056351 0.1908726317039228
-0.5274087846912235 0.14585237608595275
-0.5436438230840177 0.1308456242132961
-0.5761138998696061 0.17586587983126611
-0.5517613422804148 0.22088613544923613
-0.5274087846912235 0.20587938357657945
-0.559878861476812 0.1908726317039228
-0.559878861476812 0.17586587983126611
-0.5761138998696061 0.22088613544923613
-0.5761138998696061 0.28091314293986286
-0.559878861476812 0.31092664668517617
-0.559878861476812 0.31092664668517617
-0.559878861476812 0.2959198948125195
-0.6004664574587976 0.2508996391945495
-0.6248190150479889 0.2358928873218928
-0.6248190150479889 0.2959198948125195
-0.6085839766551946 0.3259333985578329
-0.6004664574587976 0.34094015043048953
-0.6004664574587976 0.31092664668517617
-0.6085839766551946 0.28091314293986286
-0.641054053440783 0.28091314293986286
-0.641054053440783 0.3259333985578329
-0.6491715726371802 0.31092664668517617
-0.6248190150479889 0.34094015043048953
-0.6248190150479889 0.2959198948125195
-0.6735241302263715 0.2959198948125195
-0.6735241302263715 0.2508996391945495
-0.6572890918335773 0.31092664668517617
-0.6167014958515917 0.34094015043048953
-0.5923489382624004 0.31092664668517617
-0.6248190150479889 0.31092664668517617
-0.6085839766551946 0.26590639106720615
-0.641054053440783 0.2358928873218928
-0.632936534244386 0.2959198948125195
-0.6167014958515917 0.28091314293986286
-0.5842314190660033 0.2959198948125195
-0.5923489382624004 0.28091314293986286
-0.632936534244386 0.22088613544923613
-0.6248190150479889 0.1908726317039228
-0.6248190150479889 0.1908726317039228
-0.6085839766551946 0.22088613544923613
-0.6004664574587976 0.2358928873218928
-0.6004664574587976 0.1908726317039228
-0.641054053440783 0.14585237608595275
-0.641054053440783 0.1308456242132961
-0.6167014958515917 0.16085912795860943
-0.5923489382624004 0.1908726317039228
-0.5761138998696061 0.17586587983126611
-0.5761138998696061 0.14585237608595275
-0.5923489382624004 0.08582536859532605
-0.632936534244386 0.10083212046798273
-0.641054053440783 0.10083212046798273
-0.6167014958515917 0.1308456242132961
-0.5761138998696061 0.16085912795860943
-0.5923489382624004 0.17586587983126611
-0.6085839766551946 0.16085912795860943
-0.632936534244386 0.17586587983126611
-0.641054053440783 0.20587938357657945
-0.641054053440783 0.22088613544923613
-0.6248190150479889 0.2358928873218928
-0.641054053440783 0.20587938357657945
-0.6897591686191658 0.17586587983126611
-0.7141117262083571 0.17586587983126611
-0.6978766878155629 0.1908726317039228
-0.6735241302263715 0.22088613544923613
-0.6816416494227686 0.22088613544923613
-0.6735241302263715 0.22088613544923613
-0.6816416494227686 0.20587938357657945
-0.6978766878155629 0.17586587983126611
-0.6897591686191658 0.1908726317039228
-0.6491715726371802 0.2358928873218928
-0.6085839766551946 0.2358928873218928
-0.6167014958515917 0.2358928873218928
-0.641054053440783 0.1908726317039228
-0.6572890918335773 0.22088613544923613
-0.6491715726371802 0.20587938357657945
-0.5842314190660033 0.22088613544923613
-0.5679963806732091 0.2358928873218928
-0.5842314190660033 0.22088613544923613
-0.6004664574587976 0.1908726317039228
-0.6167014958515917 0.14585237608595275
-0.5842314190660033 0.17586587983126611
-0.559878861476812 0.1908726317039228
-0.5274087846912235 0.14585237608595275
-0.5517613422804148 0.1158388723406394
-0.5761138998696061 0.08582536859532605
-0.6004664574587976 0.08582536859532605
-0.6085839766551946 0.10083212046798273
-0.559878861476812 0.10083212046798273
-0.5436438230840177 0.1308456242132961
-0.5192912654948264 0.07081861672266938
-0.5274087846912235 0.07081861672266938
-0.5274087846912235 0.05581186485001271
-0.4949387079056351 0.07081861672266938
-0.47058615031644374 0.08582536859532605
-0.4381160735308553 0.040805112977356034
-0.4381160735308553 -0.01922189451327067
-0.413763515941664 -0.004215142640613995
-0.38129343915607555 0.01079160923204268
-0.30823576638850153 0.025798361104699356
-0.06471019049658826 0.07081861672266938
0.43045848048363544 0.07081861672266938
1.2584454385161408 0.05581186485001271
2.0377272813702634 -0.004215142640613995
2.248782780476588 -0.09425565387655405
1.9321995318171008 -0.22931642073046413
1.501971014408054 -0.514444706310941
1.2016228041413608 -1.1297215330898647
1.1042125737845956 -2.090153652939892
0.9580972282494477 -3.0355790209172624
0.8363344403034909 -3.455768073351649
0.6821015755719458 -3.200653291516486
0.5603387876259892 -2.720437231591472
0.40610592289444414 -2.4353089460109953
0.24375553896650193 -2.315254931029742
0.04893507825297128 -2.270234675411772
-0.12965034406776513 -2.180194164175832
-0.3325883239776929 -2.0601401491945786
-0.4787036695128409 -2.0151198935766086
-0.6491715726371802 -2.000113141703952
-0.8439920333507108 -2.0151198935766086
-1.0875176092426242 -2.0601401491945786
-1.3229256659381403 -2.045133397321922
-1.5583337226336564 -2.090153652939892
-1.7693892217399814 -2.090153652939892
-1.9885622400427034 -2.1501806604305185
-2.183382700756234 -2.1952009160484884
-2.3782031614697647 -2.2552279235391155
-2.548671064594104 -2.2552279235391155
-2.6785513717364577 -2.285241427284429
-2.7921966404860172 -2.270234675411772
-2.8896068708427824 -2.3752819385203687
-3.019487177985136 -2.4803292016289653
-3.125014927538299 -2.5703697128649057
-3.1818375619130785 -2.6303967203555323
-3.1818375619130785 -2.6303967203555323
-3.14936748512749 -2.6604102241008456
-3.125014927538299 -2.7504507353367855
-3.0925448507527102 -2.8705047503180388
-3.076309812359916 -3.0205722690446057
-3.0600747739671217 -3.140626284025859
-3.003252139592342 -3.2156600433891427
-2.857136794057194 -3.290693802752426
-2.6623163333436635 -3.3207073064977393
-2.4512608342373388 -3.3657275621157092
-2.2239702967382193 -3.380734313988366
-2.05350239361388 -3.380734313988366
-1.8424468945075554 -3.2756870508797693
-1.6963315489724073 -3.1556330358985156
-1.6070388378120393 -3.0655925246625757
-1.6070388378120393 -3.0205722690446057
-1.5989213186156421 -2.9455385096813225
-1.5339811650444652 -2.8705047503180388
-1.4122183770985086 -2.720437231591472
-1.2904555891525518 -2.540356209119592
-1.144340243617404 -2.3002481791570855
-1.0631650516534328 -2.1501806604305185
-0.9901073788858588 -1.985106389831295
-0.9089321869218877 -1.760005111741445
-0.8115219565651224 -1.4898835780336248
-0.6572890918335773 -1.2497755480711181
-0.5355263038876207 -1.0246742699812679
-0.44623359272725244 -0.8746067512547011
-0.3975284775488698 -0.7245392325281345
-0.3731759199596784 -0.5444582100562543
-0.30011824719210445 -0.33436368383906084
-0.2595306512101189 -0.15428266136718075
-0.1783554592461478 -0.01922189451327067
-0.16212042085335357 0.07081861672266938
-0.16212042085335357 0.14585237608595275
-0.14588538246055935 0.22088613544923613
-0.11341530567497092 0.31092664668517617
-0.08094522888938248 0.3709536541758029
-0.07282770969298537 0.4159739097937729
-0.05659267130019115 0.4459874135390863
-0.048475152103794036 0.4459874135390863
-0.040357632907396926 0.43098066166642957
-0.024122594514602705 0.4910076691570563
-0.016005075318205594 0.506014421029713
0.03270003986017706 0.4910076691570563
0.05705259744936839 0.46099416541174293
0.04081755905657417 0.43098066166642957
0.05705259744936839 0.43098066166642957
0.07328763584216262 0.4459874135390863
0.12199275102054527 0.46099416541174293
0.1463453086097366 0.506014421029713
0.1463453086097366 0.46099416541174293
0.1463453086097366 0.4159739097937729
0.13011027021694238 0.43098066166642957
0.13011027021694238 0.47600091728439964
0.1544628278061337 0.5210211729023696
0.16258034700253082 0.5660414285203397
0.17069786619892793 0.6110616841383097
0.16258034700253082 0.6260684360109664
0.16258034700253082 0.6260684360109664
0.20316794298451638 0.6710886916289364
0.2275205005737077 0.7311156991195631
0.2924606541448846 0.7611292028648764
0.3086956925376788 0.7461224509922197
0.3086956925376788 0.7461224509922197
0.3168132117340759 0.7461224509922197
0.32493073093047303 0.7761359547375332
0.3736358461088557 0.8361629622281598
0.42234096128723836 0.8511697141008165
0.44669351887642966 0.8361629622281598
0.4629285572692239 0.8661764659734732
0.4791635956620181 0.8361629622281598
0.5035161532512095 0.9111967215914432
0.5522212684295921 0.9412102253367566
0.6090439028043719 0.9862304809547265
0.6009263836079748 0.9862304809547265
0.6415139795899604 0.9562169772094132
0.6496314987863574 0.9862304809547265
0.690219094768343 1.0462574884453533
0.7308066907503286 1.1062844959359799
0.8038643635179025 1.0912777440633232
0.844451959499888 1.1362979996812934
0.8606869978926823 1.0912777440633232
0.8688045170890794 1.1212912478086368
0.9093921130710649 1.1813182552992634
0.9499797090530505 1.24134526278989
1.0068023434278304 1.2713587665352033
1.0311549010170216 1.3013722702805168
1.0311549010170216 1.2863655184078602
1.055507458606213 1.3313857740258301
1.0960950545881984 1.3613992777711434
1.1610352081593753 1.42142628526177
1.209740323337758 1.42142628526177
1.2016228041413608 1.42142628526177
1.2016228041413608 1.3914127815164568
1.2016228041413608 1.4064195333891134
1.2340928809269494 1.436433037134427
1.2503279193197436 1.4964600446250536
1.282797996105332 1.5114667964977102
1.2746804769089348 1.5114667964977102
1.2422104001233465 1.5264735483703669
1.1935052849449639 1.5264735483703669
1.1935052849449639 1.5714938039883368
1.2016228041413608 1.6315208114789637
1.1772702465521696 1.6315208114789637
1.1366826505701841 1.6315208114789637
1.1204476121773899 1.5865005558609935
1.0473899394098158 1.616514059606307
0.9986848242314331 1.6015073077336504
0.982449785838639 1.6315208114789637
0.9743322666422418 1.6465275633516203
0.9175096322674621 1.661534315224277
0.8282169211070939 1.6315208114789637
0.7470417291431227 1.6015073077336504
0.690219094768343 1.616514059606307
0.6577490179827545 1.6015073077336504
0.6252789411971661 1.5414803002430235
0.5684563068223863 1.481453292752397
0.4791635956620181 1.42142628526177
0.4385759996800326 1.3764060296438
0.3736358461088557 1.3313857740258301
0.3086956925376788 1.2863655184078602
0.26810809655569323 1.2263385109172333
0.2194029813773106 1.1212912478086368
0.1463453086097366 1.0462574884453533
0.09764019343135394 1.0012372328273833
0.04893507825297128 0.9412102253367566
0.03270003986017706 0.9111967215914432
-0.007887556121808486 0.8361629622281598
-0.032240113710999815 0.7611292028648764
-0.0971802672821767 0.7011021953742498
-0.16212042085335357 0.6710886916289364
-0.1864729784425449 0.6710886916289364
-0.1864729784425449 0.641075187883623
-0.20270801683533912 0.6110616841383097
-0.22706057442453045 0.5360279247750264
-0.2838832087993102 0.47600091728439964
-0.30011824719210445 0.4459874135390863
-0.3569408815668842 0.4159739097937729
-0.3569408815668842 0.4159739097937729
-0.36505840076328133 0.2959198948125195
-0.40564599674526686 0.26590639106720615
-0.4218810351380611 0.20587938357657945
-0.44623359272725244 0.1908726317039228
-0.46246863112004666 0.20587938357657945
-0.4381160735308553 0.20587938357657945
-0.413763515941664 0.1908726317039228
-0.4381160735308553 0.16085912795860943
-0.47058615031644374 0.1308456242132961
-0.5111737462984293 0.16085912795860943
-0.5030562271020322 0.17586587983126611
-0.4949387079056351 0.22088613544923613
-0.4787036695128409 0.2508996391945495
-0.46246863112004666 0.20587938357657945
-0.47058615031644374 0.17586587983126611
-0.48682118870923796 0.20587938357657945
-0.48682118870923796 0.22088613544923613
-0.44623359272725244 0.2508996391945495
-0.4299985543344582 0.26590639106720615
-0.47058615031644374 0.2508996391945495
-0.48682118870923796 0.26590639106720615
-0.5192912654948264 0.2959198948125195
-0.48682118870923796 0.3709536541758029
-0.47058615031644374 0.3709536541758029
-0.4543511119236495 0.35594690230314624
-0.46246863112004666 0.34094015043048953
-0.4787036695128409 0.31092664668517617
-0.5030562271020322 0.34094015043048953
-0.5030562271020322 0.40096715792111626
-0.47058615031644374 0.43098066166642957
-0.44623359272725244 0.4459874135390863
-0.47058615031644374 0.38596040604845955
-0.4949387079056351 0.3709536541758029
-0.5111737462984293 0.35594690230314624
-0.5192912654948264 0.4159739097937729
-0.4949387079056351 0.4159739097937729
-0.47058615031644374 0.38596040604845955
-0.4787036695128409 0.43098066166642957
-0.5192912654948264 0.34094015043048953
-0.5355263038876207 0.35594690230314624
-0.5355263038876207 0.35594690230314624
-0.5030562271020322 0.38596040604845955
-0.48682118870923796 0.34094015043048953
-0.48682118870923796 0.26590639106720615
-0.5111737462984293 0.22088613544923613
-0.5436438230840177 0.17586587983126611
-0.5355263038876207 0.1908726317039228
-0.5030562271020322 0.22088613544923613
-0.4949387079056351 0.1908726317039228
-0.5030562271020322 0.1158388723406394
-0.5355263038876207 0.10083212046798273
-0.559878861476812 0.10083212046798273
-0.559878861476812 0.1158388723406394
-0.5436438230840177 0.1158388723406394
-0.5192912654948264 0.08582536859532605
-0.5436438230840177 0.10083212046798273
-0.5679963806732091 0.05581186485001271
-0.6167014958515917 0.040805112977356034
-0.5842314190660033 0.08582536859532605
-0.5355263038876207 0.10083212046798273
-0.5355263038876207 0.10083212046798273
-0.5436438230840177 0.05581186485001271
-0.5679963806732091 0.040805112977356034
-0.5761138998696061 0.08582536859532605
-0.6004664574587976 0.1158388723406394
-0.5761138998696061 0.17586587983126611
-0.5517613422804148 0.17586587983126611
-0.559878861476812 0.16085912795860943
-0.5842314190660033 0.1308456242132961
-0.6085839766551946 0.1308456242132961
-0.6167014958515917 0.17586587983126611
-0.6004664574587976 0.20587938357657945
-0.5679963806732091 0.1908726317039228
-0.5517613422804148 0.17586587983126611
-0.5679963806732091 0.1308456242132961
-0.6085839766551946 0.14585237608595275
-0.6167014958515917 0.17586587983126611
-0.5923489382624004 0.20587938357657945
-0.5842314190660033 0.22088613544923613
-0.5842314190660033 0.1908726317039228
-0.6004664574587976 0.16085912795860943
-0.6167014958515917 0.16085912795860943
-0.6248190150479889 0.1908726317039228
-0.6004664574587976 0.2358928873218928
-0.5679963806732091 0.2358928873218928
-0.5842314190660033 0.20587938357657945
-0.5923489382624004 0.17586587983126611
-0.5923489382624004 0.17586587983126611
-0.5923489382624004 0.20587938357657945
-0.5761138998696061 0.22088613544923613
-0.5761138998696061 0.20587938357657945
-0.5761138998696061 0.17586587983126611
-0.5923489382624004 0.1158388723406394
-0.6167014958515917 0.10083212046798273
-0.6085839766551946 0.1158388723406394
-0.5679963806732091 0.14585237608595275
-0.5679963806732091 0.1308456242132961
-0.5842314190660033 0.08582536859532605
-0.6004664574587976 0.025798361104699356
-0.6167014958515917 -0.03422864638592735
-0.5923489382624004 -0.004215142640613995
-0.5679963806732091 0.05581186485001271
-0.559878861476812 0.025798361104699356
-0.5842314190660033 -0.004215142640613995
-0.6004664574587976 -0.004215142640613995
-0.632936534244386 0.025798361104699356
-0.6085839766551946 0.08582536859532605
-0.5842314190660033 0.1158388723406394
-0.5842314190660033 0.08582536859532605
-0.5761138998696061 0.07081861672266938
-0.5923489382624004 0.040805112977356034
-0.6085839766551946 0.05581186485001271
-0.5679963806732091 0.08582536859532605
-0.5517613422804148 0.1158388723406394
-0.5355263038876207 0.10083212046798273
-0.5274087846912235 0.05581186485001271
-0.5517613422804148 0.025798361104699356
-0.559878861476812 0.040805112977356034
-0.5761138998696061 0.040805112977356034
-0.5274087846912235 0.08582536859532605
-0.4949387079056351 0.07081861672266938
-0.48682118870923796 0.040805112977356034
-0.4787036695128409 -0.01922189451327067
-0.47058615031644374 -0.004215142640613995
-0.40564599674526686 -0.004215142640613995
-0.30823576638850153 0.01079160923204268
-0.08094522888938248 -0.004215142640613995
0.3574008077160615 -0.04923539825858402
1.144800169766581 -0.09425565387655405
1.9727871277990863 -0.10926240574921073
2.3461930108333533 -0.1842961651124941
2.1351375117270286 -0.33436368383906084
1.6237338023540107 -0.694525728782821
1.2665629577125377 -1.4448633224156548
1.0960950545881984 -2.5253494572469353
0.9662147474458447 -3.455768073351649
0.8525694786962852 -3.7108828551868127
0.7389242099467256 -3.290693802752426
0.5846913452151805 -2.810477742827412
0.397988403698047 -2.5553629609922486
0.21128546218091349 -2.4653224497563087
-0.016005075318205594 -2.4203021941383387
-0.24329561281732467 -2.315254931029742
-0.413763515941664 -2.2402211716664584
-0.5923489382624004 -2.180194164175832
-0.8358745141543137 -2.1501806604305185
-1.0875176092426242 -2.2252144197938017
-1.306690627545346 -2.2252144197938017
-1.5583337226336564 -2.2552279235391155
-1.8262118561147611 -2.270234675411772
-2.0697374320066744 -2.315254931029742
-2.3376155654877793 -2.3902886903930254
-2.5324360262013097 -2.4203021941383387
-2.694786410129252 -2.405295442265682
-2.8327842364680027 -2.4353089460109953
-2.9545470244139596 -2.4353089460109953
-3.0519572547707248 -2.4803292016289653
-3.1818375619130785 -2.5253494572469353
-3.2792477922698438 -2.645403472228189
-3.344187945841021 -2.645403472228189
-3.3279529074482266 -2.6754169759735023
-3.295482830662638 -2.720437231591472
-3.214307638698667 -2.825484494700069
-3.1656025235202843 -2.960545261553979
-3.1087798891455045 -3.1556330358985156
-3.068192293163519 -3.290693802752426
-2.8896068708427824 -3.3207073064977393
-2.646081294950869 -3.3507208102430526
-2.353850603880573 -3.3057005546250826
-2.102207508792263 -3.3057005546250826
-1.891152009685938 -3.2606802990071126
-1.7612717025435842 -3.1556330358985156
-1.6557439529904219 -3.005565517171949
-1.5826862802228479 -2.885511502190696
-1.4852760498660824 -2.855497998445382
-1.37974830031292 -2.780464239082099
-1.306690627545346 -2.6604102241008456
-1.217397916384978 -2.4803292016289653
-1.0956351284390213 -2.270234675411772
-0.9901073788858588 -2.0301266454492652
-0.852109552547108 -1.8800591267226985
-0.7628168413867398 -1.714984856123475
-0.6816416494227686 -1.5198970817789381
-0.5923489382624004 -1.3098025555617447
-0.5111737462984293 -1.0997080293445514
-0.44623359272725244 -0.8746067512547011
-0.34070584317409 -0.7395459844007911
-0.2920007279957073 -0.5894784656742244
-0.267648170406516 -0.45441769882031424
-0.23517809362092756 -0.25932992447577746
-0.1864729784425449 -0.07924890200389736
-0.13776786326416224 0.10083212046798273
-0.08094522888938248 0.14585237608595275
-0.06471019049658826 0.17586587983126611
-0.06471019049658826 0.1908726317039228
-0.08094522888938248 0.26590639106720615
-0.048475152103794036 0.35594690230314624
-0.007887556121808486 0.46099416541174293
-0.007887556121808486 0.4459874135390863
0.00022996307458862428 0.43098066166642957
0.008347482270985734 0.43098066166642957
-0.007887556121808486 0.4459874135390863
0.024582520663779955 0.506014421029713
0.04893507825297128 0.5360279247750264
0.06517011664576551 0.5360279247750264
0.04893507825297128 0.5210211729023696
0.05705259744936839 0.4910076691570563
0.05705259744936839 0.5360279247750264
0.08140515503855972 0.5810481803929963
0.11387523182414816 0.641075187883623
0.1463453086097366 0.6110616841383097
0.12199275102054527 0.6110616841383097
0.13011027021694238 0.596054932265653
0.10575771262775105 0.5810481803929963
0.1463453086097366 0.6260684360109664
0.18693290459172215 0.6710886916289364
0.2194029813773106 0.686095443501593
0.2194029813773106 0.7011021953742498
0.23563801977010482 0.6110616841383097
0.23563801977010482 0.6560819397562797
0.26810809655569323 0.7011021953742498
0.3086956925376788 0.7161089472469064
0.3574008077160615 0.7311156991195631
0.3574008077160615 0.7161089472469064
0.3898708845016499 0.6710886916289364
0.40610592289444414 0.6560819397562797
0.4548110380728268 0.6710886916289364
0.5035161532512095 0.7461224509922197
0.5522212684295921 0.7461224509922197
0.5765738260187835 0.7161089472469064
0.6090439028043719 0.6710886916289364
0.6333964603935632 0.7161089472469064
0.690219094768343 0.7461224509922197
0.7308066907503286 0.7911427066101898
0.7551592483395199 0.8061494584828465
0.8038643635179025 0.7911427066101898
0.844451959499888 0.7761359547375332
0.8688045170890794 0.7611292028648764
0.9093921130710649 0.8061494584828465
0.9743322666422418 0.8661764659734732
1.0311549010170216 0.8961899697187865
1.0636249778026101 0.9262034734640999
1.0960950545881984 0.9562169772094132
1.0798600161954042 1.01624398470004
1.128565131373787 1.1062844959359799
1.217857842534155 1.1813182552992634
1.282797996105332 1.19632500717192
1.2990330344981262 1.19632500717192
1.3152680728909205 1.2113317590445767
1.3396206304801117 1.2563520146625466
1.355855668872906 1.3013722702805168
1.3964432648548915 1.3764060296438
1.4370308608368771 1.3914127815164568
1.4370308608368771 1.4064195333891134
1.4370308608368771 1.4064195333891134
1.4370308608368771 1.4514397890070836
1.42891334164048 1.4964600446250536
1.4451483800332743 1.5414803002430235
1.4532658992296714 1.5865005558609935
1.42891334164048 1.5564870521156802
1.3883257456584945 1.5564870521156802
1.3477381496765088 1.5865005558609935
1.3152680728909205 1.6015073077336504
1.290915515301729 1.6315208114789637
1.2665629577125377 1.661534315224277
1.217857842534155 1.6015073077336504
1.1610352081593753 1.5865005558609935
1.0798600161954042 1.5865005558609935
1.0230373818206244 1.616514059606307
0.9905673050350361 1.616514059606307
0.9499797090530505 1.5865005558609935
0.8688045170890794 1.5414803002430235
0.8038643635179025 1.4664465408797402
0.7470417291431227 1.42142628526177
0.690219094768343 1.42142628526177
0.6658665371791517 1.4064195333891134
0.6252789411971661 1.3313857740258301
0.5684563068223863 1.24134526278989
0.48728111485841524 1.15130475155395
0.397988403698047 1.0912777440633232
0.34116576932326725 1.0912777440633232
0.3005781733412817 1.0312507365726966
0.26810809655569323 0.9712237290820699
0.23563801977010482 0.8661764659734732
0.1544628278061337 0.7761359547375332
0.10575771262775105 0.7311156991195631
0.05705259744936839 0.6710886916289364
0.04081755905657417 0.641075187883623
0.016465001467382844 0.5810481803929963
-0.040357632907396926 0.47600091728439964
-0.0971802672821767 0.4159739097937729
-0.13776786326416224 0.3709536541758029
-0.15400290165695646 0.38596040604845955
-0.15400290165695646 0.38596040604845955
-0.194590497638942 0.4159739097937729
-0.21082553603173623 0.35594690230314624
-0.2514131320137218 0.3259333985578329
-0.30011824719210445 0.3259333985578329
-0.30011824719210445 0.3709536541758029
-0.30823576638850153 0.38596040604845955
-0.31635328558489867 0.3709536541758029
-0.3325883239776929 0.34094015043048953
-0.38941095835247264 0.2508996391945495
-0.4299985543344582 0.26590639106720615
-0.4299985543344582 0.2959198948125195
-0.3975284775488698 0.31092664668517617
-0.38941095835247264 0.2959198948125195
-0.4299985543344582 0.2508996391945495
-0.47058615031644374 0.20587938357657945
-0.4787036695128409 0.22088613544923613
-0.4949387079056351 0.2358928873218928
-0.4787036695128409 0.28091314293986286
-0.46246863112004666 0.28091314293986286
-0.47058615031644374 0.2358928873218928
-0.4949387079056351 0.20587938357657945
-0.5274087846912235 0.1908726317039228
-0.5274087846912235 0.22088613544923613
-0.5111737462984293 0.26590639106720615
-0.48682118870923796 0.26590639106720615
-0.5111737462984293 0.2508996391945495
-0.5111737462984293 0.20587938357657945
-0.5274087846912235 0.20587938357657945
-0.4949387079056351 0.20587938357657945
-0.4543511119236495 0.26590639106720615
-0.4381160735308553 0.2508996391945495
-0.4299985543344582 0.2508996391945495
-0.4543511119236495 0.17586587983126611
-0.47058615031644374 0.1908726317039228
-0.4543511119236495 0.20587938357657945
-0.46246863112004666 0.2358928873218928
-0.4299985543344582 0.22088613544923613
-0.44623359272725244 0.20587938357657945
-0.46246863112004666 0.1908726317039228
-0.46246863112004666 0.16085912795860943
-0.46246863112004666 0.17586587983126611
-0.4543511119236495 0.17586587983126611
-0.3975284775488698 0.17586587983126611
-0.40564599674526686 0.14585237608595275
-0.46246863112004666 0.1158388723406394
-0.47058615031644374 0.08582536859532605
-0.47058615031644374 0.08582536859532605
-0.46246863112004666 0.10083212046798273
-0.4299985543344582 0.10083212046798273
-0.4543511119236495 0.08582536859532605
-0.4787036695128409 0.07081861672266938
-0.5111737462984293 0.07081861672266938
-0.48682118870923796 0.14585237608595275
-0.5030562271020322 0.20587938357657945
-0.48682118870923796 0.17586587983126611
-0.5030562271020322 0.17586587983126611
-0.4949387079056351 0.10083212046798273
-0.5111737462984293 0.1308456242132961
-0.5274087846912235 0.16085912795860943
-0.5192912654948264 0.17586587983126611
-0.5030562271020322 0.16085912795860943
-0.5274087846912235 0.16085912795860943
-0.5274087846912235 0.14585237608595275
-0.5679963806732091 0.16085912795860943
-0.559878861476812 0.17586587983126611
-0.5436438230840177 0.16085912795860943
-0.5030562271020322 0.16085912795860943
-0.5355263038876207 0.14585237608595275
-0.5355263038876207 0.14585237608595275
-0.5517613422804148 0.1308456242132961
-0.5517613422804148 0.1308456242132961
-0.5274087846912235 0.16085912795860943
-0.5192912654948264 0.16085912795860943
-0.5192912654948264 0.1158388723406394
-0.5355263038876207 0.1158388723406394
-0.5761138998696061 0.1158388723406394
-0.5679963806732091 0.1308456242132961
-0.5030562271020322 0.1308456242132961
-0.4949387079056351 0.14585237608595275
-0.4787036695128409 0.1308456242132961
-0.4949387079056351 0.1308456242132961
-0.5355263038876207 0.08582536859532605
-0.5274087846912235 0.1158388723406394
-0.5030562271020322 0.1158388723406394
-0.48682118870923796 0.10083212046798273
-0.4949387079056351 0.1158388723406394
-0.5030562271020322 0.05581186485001271
-0.5517613422804148 0.07081861672266938
-0.559878861476812 0.05581186485001271
-0.5274087846912235 0.07081861672266938
-0.4949387079056351 0.07081861672266938
-0.5192912654948264 0.025798361104699356
-0.5355263038876207 -0.004215142640613995
-0.5355263038876207 -0.01922189451327067
-0.5436438230840177 -0.01922189451327067
-0.559878861476812 0.01079160923204268
-0.5274087846912235 0.05581186485001271
-0.5355263038876207 0.08582536859532605
-0.5355263038876207 0.05581186485001271
-0.5436438230840177 0.05581186485001271
-0.5436438230840177 0.07081861672266938
-0.5192912654948264 0.1158388723406394
-0.4949387079056351 0.1308456242132961
-0.5274087846912235 0.1158388723406394
-0.5436438230840177 0.10083212046798273
-0.559878861476812 0.10083212046798273
-0.559878861476812 0.14585237608595275
-0.5436438230840177 0.16085912795860943
-0.5274087846912235 0.17586587983126611
-0.5030562271020322 0.14585237608595275
-0.5192912654948264 0.08582536859532605
-0.5274087846912235 0.05581186485001271
-0.5355263038876207 0.08582536859532605
-0.5192912654948264 0.1158388723406394
-0.48682118870923796 0.10083212046798273
-0.47058615031644374 0.08582536859532605
-0.5030562271020322 0.05581186485001271
-0.5274087846912235 0.05581186485001271
-0.5192912654948264 0.07081861672266938
-0.5030562271020322 0.10083212046798273
-0.4787036695128409 0.08582536859532605
-0.47058615031644374 0.05581186485001271
-0.4787036695128409 0.025798361104699356
-0.5030562271020322 0.01079160923204268
-0.48682118870923796 -0.004215142640613995
-0.44623359272725244 0.040805112977356034
-0.4299985543344582 0.040805112977356034
-0.413763515941664 0.01079160923204268
-0.4543511119236495 -0.07924890200389736
-0.4543511119236495 -0.09425565387655405
-0.4299985543344582 -0.0642421501312407
-0.3488233623704871 -0.04923539825858402
-0.2514131320137218 -0.04923539825858402
-0.14588538246055935 -0.07924890200389736
0.03270003986017706 -0.13927590949452406
0.4548110380728268 -0.1242691576218674
1.2259753617305522 -0.1242691576218674
2.10266743494144 -0.15428266136718075
2.5004258755648987 -0.22931642073046413
2.297487895654971 -0.4244041950750009
1.8104367438711442 -0.7845662400187611
1.4695009376224655 -1.2797890518164314
1.282797996105332 -2.135173908557862
1.1691527273557725 -3.0805992765352324
1.0392724202134187 -3.7258896070594694
0.8850395554818736 -3.740896358932126
0.7226891715539314 -3.335714058370396
0.5603387876259892 -2.8404912465727254
0.40610592289444414 -2.5853764647375623
0.23563801977010482 -2.4803292016289653
0.09764019343135394 -2.3752819385203687
-0.07282770969298537 -2.315254931029742
-0.2838832087993102 -2.285241427284429
-0.4787036695128409 -2.2402211716664584
-0.6572890918335773 -2.1952009160484884
-0.8439920333507108 -2.1501806604305185
-1.0550475324570356 -2.210207667921145
-1.2904555891525518 -2.270234675411772
-1.5339811650444652 -2.3302616829023988
-1.818094336918364 -2.3302616829023988
-2.0697374320066744 -2.3302616829023988
-2.280792931112999 -2.315254931029742
-2.4431433150409414 -2.3302616829023988
-2.629846256558075 -2.360275186647712
-2.800314159682414 -2.3752819385203687
-2.946429505217562 -2.405295442265682
-3.068192293163519 -2.4203021941383387
-3.1331324467346957 -2.4203021941383387
-3.1899550811094755 -2.4653224497563087
-3.2305426770914614 -2.5553629609922486
-3.271130273073447 -2.6303967203555323
-3.295482830662638 -2.690423727846159
-3.2305426770914614 -2.735443983464129
-3.1574850043238873 -2.780464239082099
-3.076309812359916 -2.885511502190696
-3.003252139592342 -3.0655925246625757
-2.913959428431974 -3.1706397877711723
-2.767844082896826 -3.2156600433891427
-2.5811411413796925 -3.1856465396438294
-2.353850603880573 -3.1556330358985156
-2.126560066381454 -3.1556330358985156
-1.9479746440607177 -3.1256195321532023
-1.7775067409363785 -3.0805992765352324
-1.6557439529904219 -2.9755520134266358
-1.590803799419245 -2.8404912465727254
-1.5015110882588767 -2.7054304797188156
-1.4122183770985086 -2.6153899684828756
-1.3310431851345375 -2.5853764647375623
-1.2661030315633606 -2.4803292016289653
-1.2092803971885808 -2.3302616829023988
-1.1118701668318154 -2.165187412303175
-0.9657548212966675 -1.9550928860859818
-0.8439920333507108 -1.7750118636141017
-0.7790518797795339 -1.624944344887535
-0.6897591686191658 -1.4598700742883115
-0.6085839766551946 -1.294795803689088
-0.5030562271020322 -1.0696945255992378
-0.3975284775488698 -0.8445932475093878
-0.2838832087993102 -0.6645122250375077
-0.24329561281732467 -0.5294514581835976
-0.194590497638942 -0.39439069132968757
-0.16212042085335357 -0.22931642073046413
-0.12153282487136803 -0.04923539825858402
-0.040357632907396926 0.08582536859532605
0.008347482270985734 0.1908726317039228
0.016465001467382844 0.26590639106720615
0.04081755905657417 0.2508996391945495
0.04893507825297128 0.28091314293986286
0.04893507825297128 0.34094015043048953
0.07328763584216262 0.43098066166642957
0.11387523182414816 0.46099416541174293
0.12199275102054527 0.46099416541174293
0.13011027021694238 0.43098066166642957
0.11387523182414816 0.46099416541174293
0.1463453086097366 0.506014421029713
0.17881538539532504 0.5660414285203397
0.21128546218091349 0.5660414285203397
0.2275205005737077 0.5360279247750264
0.19505042378811926 0.4910076691570563
0.19505042378811926 0.5360279247750264
0.19505042378811926 0.5210211729023696
0.24375553896650193 0.5660414285203397
0.28434313494848745 0.5360279247750264
0.2924606541448846 0.5210211729023696
0.26810809655569323 0.47600091728439964
0.27622561575209037 0.47600091728439964
0.28434313494848745 0.47600091728439964
0.34116576932326725 0.5210211729023696
0.3736358461088557 0.506014421029713
0.3898708845016499 0.4910076691570563
0.3817533653052528 0.4910076691570563
0.3574008077160615 0.47600091728439964
0.3817533653052528 0.46099416541174293
0.4385759996800326 0.506014421029713
0.4629285572692239 0.5360279247750264
0.48728111485841524 0.5360279247750264
0.4791635956620181 0.5210211729023696
0.48728111485841524 0.506014421029713
0.544103749233195 0.5660414285203397
0.5846913452151805 0.6110616841383097
0.6333964603935632 0.6710886916289364
0.6739840563755488 0.6560819397562797
0.690219094768343 0.6560819397562797
0.690219094768343 0.7011021953742498
0.7226891715539314 0.7911427066101898
0.7957468443215054 0.7911427066101898
0.8606869978926823 0.8361629622281598
0.8769220362854765 0.8361629622281598
0.9256271514638592 0.8511697141008165
0.9499797090530505 0.8661764659734732
0.9905673050350361 0.8961899697187865
1.055507458606213 0.9712237290820699
1.1123300929809927 0.9862304809547265
1.144800169766581 0.9712237290820699
1.1529176889629782 0.9862304809547265
1.1772702465521696 1.0312507365726966
1.2259753617305522 1.0762709921906666
1.282797996105332 1.1062844959359799
1.355855668872906 1.1212912478086368
1.3883257456584945 1.15130475155395
1.3883257456584945 1.1362979996812934
1.4045607840512886 1.1813182552992634
1.4451483800332743 1.2263385109172333
1.501971014408054 1.3013722702805168
1.5587936487828338 1.3463925258984868
1.591263725568422 1.3463925258984868
1.5831462063720252 1.3313857740258301
1.5831462063720252 1.3764060296438
1.6156162831576135 1.4514397890070836
1.6156162831576135 1.4664465408797402
1.648086359943202 1.481453292752397
1.656203879139599 1.4664465408797402
1.6318513215504078 1.42142628526177
1.6156162831576135 1.436433037134427
1.5993812447648192 1.4664465408797402
1.5831462063720252 1.5114667964977102
1.5831462063720252 1.4664465408797402
1.5587936487828338 1.436433037134427
1.5100885336044512 1.4064195333891134
1.4126783032476857 1.4064195333891134
1.3802082264620974 1.4064195333891134
1.355855668872906 1.4064195333891134
1.3071505536945234 1.3914127815164568
1.1935052849449639 1.3313857740258301
1.144800169766581 1.2563520146625466
1.0879775353918013 1.2563520146625466
1.0392724202134187 1.2563520146625466
0.9986848242314331 1.3013722702805168
0.9662147474458447 1.2563520146625466
0.9256271514638592 1.1813182552992634
0.8363344403034909 1.1062844959359799
0.7551592483395199 1.0762709921906666
0.7064541331611371 1.0762709921906666
0.6577490179827545 1.0762709921906666
0.617161422000769 1.0312507365726966
0.544103749233195 0.9862304809547265
0.471046076465621 0.9111967215914432
0.397988403698047 0.8961899697187865
0.34116576932326725 0.8961899697187865
0.3168132117340759 0.8811832178461299
0.27622561575209037 0.8511697141008165
0.21128546218091349 0.7911427066101898
0.1544628278061337 0.7161089472469064
0.09764019343135394 0.6710886916289364
0.07328763584216262 0.6710886916289364
0.05705259744936839 0.641075187883623
0.016465001467382844 0.6110616841383097
-0.016005075318205594 0.551034676647683
-0.048475152103794036 0.4910076691570563
-0.0971802672821767 0.47600091728439964
-0.11341530567497092 0.4910076691570563
-0.11341530567497092 0.506014421029713
-0.12965034406776513 0.47600091728439964
-0.15400290165695646 0.46099416541174293
-0.1864729784425449 0.40096715792111626
-0.21894305522813334 0.4159739097937729
-0.22706057442453045 0.40096715792111626
-0.21894305522813334 0.43098066166642957
-0.20270801683533912 0.4159739097937729
-0.23517809362092756 0.3709536541758029
-0.267648170406516 0.31092664668517617
-0.2920007279957073 0.31092664668517617
-0.2838832087993102 0.2959198948125195
-0.31635328558489867 0.31092664668517617
-0.27576568960291314 0.28091314293986286
-0.27576568960291314 0.22088613544923613
-0.30011824719210445 0.22088613544923613
-0.30823576638850153 0.20587938357657945
-0.31635328558489867 0.1908726317039228
-0.30011824719210445 0.22088613544923613
-0.2920007279957073 0.1908726317039228
-0.30011824719210445 0.14585237608595275
-0.3325883239776929 0.08582536859532605
-0.3488233623704871 0.10083212046798273
-0.34070584317409 0.1308456242132961
-0.3325883239776929 0.16085912795860943
-0.30823576638850153 0.14585237608595275
-0.3325883239776929 0.10083212046798273
-0.3488233623704871 0.08582536859532605
-0.38129343915607555 0.07081861672266938
-0.36505840076328133 0.1158388723406394
-0.3325883239776929 0.14585237608595275
-0.30011824719210445 0.14585237608595275
-0.30011824719210445 0.1308456242132961
-0.34070584317409 0.10083212046798273
-0.3569408815668842 0.08582536859532605
-0.3325883239776929 0.17586587983126611
-0.2920007279957073 0.20587938357657945
-0.267648170406516 0.2508996391945495
-0.27576568960291314 0.22088613544923613
-0.27576568960291314 0.2358928873218928
-0.30823576638850153 0.2508996391945495
-0.2920007279957073 0.28091314293986286
-0.27576568960291314 0.34094015043048953
-0.2514131320137218 0.31092664668517617
-0.2514131320137218 0.2959198948125195
-0.267648170406516 0.2508996391945495
-0.2838832087993102 0.2358928873218928
-0.2920007279957073 0.28091314293986286
-0.2595306512101189 0.2959198948125195
-0.24329561281732467 0.28091314293986286
-0.267648170406516 0.2508996391945495
-0.267648170406516 0.22088613544923613
-0.31635328558489867 0.2508996391945495
-0.30011824719210445 0.2508996391945495
-0.2838832087993102 0.2959198948125195
-0.2595306512101189 0.26590639106720615
-0.2838832087993102 0.2508996391945495
-0.30011824719210445 0.22088613544923613
-0.32447080478129575 0.2358928873218928
-0.3488233623704871 0.2508996391945495
-0.31635328558489867 0.26590639106720615
-0.2920007279957073 0.2508996391945495
-0.30823576638850153 0.22088613544923613
-0.34070584317409 0.1908726317039228
-0.34070584317409 0.17586587983126611
-0.3488233623704871 0.1908726317039228
-0.32447080478129575 0.22088613544923613
-0.30011824719210445 0.20587938357657945
-0.3488233623704871 0.16085912795860943
-0.34070584317409 0.1158388723406394
-0.3731759199596784 0.1158388723406394
-0.34070584317409 0.1308456242132961
-0.34070584317409 0.14585237608595275
-0.3325883239776929 0.14585237608595275
-0.38129343915607555 0.10083212046798273
-0.38941095835247264 0.040805112977356034
-0.40564599674526686 0.05581186485001271
-0.3975284775488698 0.08582536859532605
-0.38129343915607555 0.1158388723406394
-0.3488233623704871 0.1308456242132961
-0.3488233623704871 0.07081861672266938
-0.38129343915607555 0.040805112977356034
-0.3975284775488698 0.01079160923204268
-0.4299985543344582 0.08582536859532605
-0.3569408815668842 0.1158388723406394
-0.3325883239776929 0.1308456242132961
-0.3569408815668842 0.14585237608595275
-0.3488233623704871 0.1158388723406394
-0.38941095835247264 0.1308456242132961
-0.3731759199596784 0.1908726317039228
-0.3488233623704871 0.22088613544923613
-0.31635328558489867 0.26590639106720615
-0.3325883239776929 0.22088613544923613
-0.34070584317409 0.1908726317039228
-0.3731759199596784 0.20587938357657945
-0.3569408815668842 0.2358928873218928
-0.3731759199596784 0.2358928873218928
-0.32447080478129575 0.2358928873218928
-0.34070584317409 0.2358928873218928
-0.3325883239776929 0.2358928873218928
-0.3731759199596784 0.20587938357657945
-0.36505840076328133 0.2358928873218928
-0.3325883239776929 0.2358928873218928
-0.30823576638850153 0.2508996391945495
-0.32447080478129575 0.22088613544923613
-0.36505840076328133 0.1908726317039228
-0.3731759199596784 0.22088613544923613
-0.38129343915607555 0.2358928873218928
-0.3325883239776929 0.2508996391945495
-0.30823576638850153 0.2508996391945495
-0.32447080478129575 0.22088613544923613
-0.3325883239776929 0.17586587983126611
-0.3569408815668842 0.20587938357657945
-0.3569408815668842 0.20587938357657945
-0.32447080478129575 0.28091314293986286
-0.31635328558489867 0.22088613544923613
-0.30823576638850153 0.1908726317039228
-0.3325883239776929 0.16085912795860943
-0.3488233623704871 0.16085912795860943
-0.34070584317409 0.22088613544923613
-0.31635328558489867 0.22088613544923613
-0.31635328558489867 0.16085912795860943
-0.34070584317409 0.10083212046798273
-0.3731759199596784 0.10083212046798273
-0.38941095835247264 0.10083212046798273
-0.3731759199596784 0.1158388723406394
-0.3488233623704871 0.16085912795860943
-0.3325883239776929 0.1308456242132961
-0.32447080478129575 0.05581186485001271
-0.3488233623704871 -0.004215142640613995
-0.36505840076328133 0.01079160923204268
-0.34070584317409 0.040805112977356034
-0.31635328558489867 0.08582536859532605
-0.267648170406516 0.05581186485001271
-0.2595306512101189 0.025798361104699356
-0.2838832087993102 -0.01922189451327067
-0.2920007279957073 -0.004215142640613995
-0.2920007279957073 0.01079160923204268
-0.2595306512101189 0.07081861672266938
-0.23517809362092756 0.08582536859532605
-0.21894305522813334 0.05581186485001271
-0.21082553603173623 0.01079160923204268
-0.20270801683533912 -0.004215142640613995
-0.12965034406776513 0.025798361104699356
0.016465001467382844 0.040805112977356034
0.27622561575209037 0.040805112977356034
0.8282169211070939 0.01079160923204268
1.7373790711035701 -0.03422864638592735
2.459838279582913 -0.1242691576218674
2.597836105921664 -0.22931642073046413
2.2163127036909995 -0.4844312025656276
1.7698491478891587 -0.9946607662359546
1.4776184568188626 -1.940086134213325
1.3396206304801117 -3.0805992765352324
1.2016228041413608 -3.7559031108047827
1.0717424969990073 -3.650855847696186
0.9499797090530505 -3.0655925246625757
0.7957468443215054 -2.6303967203555323
0.6658665371791517 -2.4203021941383387
0.471046076465621 -2.3902886903930254
0.3005781733412817 -2.3302616829023988
0.13011027021694238 -2.210207667921145
-0.007887556121808486 -2.120167156685205
-0.1864729784425449 -2.075146901067235
-0.38129343915607555 -2.120167156685205
-0.6004664574587976 -2.1501806604305185
-0.8196394757615195 -2.165187412303175
-1.0388124940642414 -2.180194164175832
-1.2417504739741692 -2.1952009160484884
-1.5096286074552738 -2.210207667921145
-1.74503666415079 -2.270234675411772
-1.9885622400427034 -2.360275186647712
-2.183382700756234 -2.3302616829023988
-2.3051454887021907 -2.315254931029742
-2.402555719058956 -2.285241427284429
-2.5162009878085154 -2.360275186647712
-2.629846256558075 -2.405295442265682
-2.7840791212896203 -2.4653224497563087
-2.873371832449988 -2.540356209119592
-2.873371832449988 -2.5553629609922486
-2.857136794057194 -2.540356209119592
-2.800314159682414 -2.645403472228189
-2.7597265637004287 -2.780464239082099
-2.719138967718443 -2.885511502190696
-2.702903929325649 -3.0205722690446057
-2.6379637757544723 -3.1106127802805457
-2.4593783534337357 -3.140626284025859
-2.2239702967382193 -3.1556330358985156
-2.0129147976318946 -3.2306667952617993
-1.8099768177219668 -3.2306667952617993
-1.6232738762048333 -3.2156600433891427
-1.452805973080494 -3.095606028407889
-1.3635132619201258 -2.9455385096813225
-1.3310431851345375 -2.8705047503180388
-1.3472782235273317 -2.810477742827412
-1.2904555891525518 -2.765457487209442
-1.2417504739741692 -2.645403472228189
-1.1281052052246097 -2.4803292016289653
-1.006342417278653 -2.285241427284429
-0.8926971485290934 -2.090153652939892
-0.8115219565651224 -1.940086134213325
-0.6816416494227686 -1.760005111741445
-0.6004664574587976 -1.5349038336515948
-0.48682118870923796 -1.2797890518164314
-0.3731759199596784 -1.114714781217208
-0.2595306512101189 -0.9196270068726712
-0.20270801683533912 -0.7845662400187611
-0.13776786326416224 -0.604485217546881
-0.08906274808577959 -0.4093974432023442
-0.007887556121808486 -0.2443231726031208
0.024582520663779955 -0.10926240574921073
0.09764019343135394 -0.004215142640613995
0.09764019343135394 0.07081861672266938
0.08952267423495683 0.1308456242132961
0.11387523182414816 0.1908726317039228
0.11387523182414816 0.2508996391945495
0.17881538539532504 0.2959198948125195
0.2275205005737077 0.34094015043048953
0.21128546218091349 0.35594690230314624
0.20316794298451638 0.3709536541758029
0.2275205005737077 0.40096715792111626
0.2275205005737077 0.40096715792111626
0.251873058162899 0.4459874135390863
0.3005781733412817 0.4459874135390863
0.3005781733412817 0.46099416541174293
0.3086956925376788 0.4459874135390863
0.28434313494848745 0.4459874135390863
0.3005781733412817 0.506014421029713
0.32493073093047303 0.506014421029713
0.34928328851966434 0.5360279247750264
0.34928328851966434 0.5360279247750264
0.3574008077160615 0.5660414285203397
0.36551832691245856 0.6110616841383097
0.3817533653052528 0.7011021953742498
0.42234096128723836 0.7161089472469064
0.40610592289444414 0.7161089472469064
0.4548110380728268 0.7161089472469064
0.4629285572692239 0.7611292028648764
0.471046076465621 0.7461224509922197
0.5035161532512095 0.7911427066101898
0.5522212684295921 0.8361629622281598
0.5846913452151805 0.8211562103555031
0.5928088644115777 0.8511697141008165
0.5846913452151805 0.8361629622281598
0.6009263836079748 0.8211562103555031
0.6496314987863574 0.8661764659734732
0.6983366139647401 0.8961899697187865
0.7551592483395199 0.9111967215914432
0.763276767535917 0.8961899697187865
0.771394286732314 0.8961899697187865
0.763276767535917 0.8961899697187865
0.8119818827142996 0.9111967215914432
0.8850395554818736 0.9562169772094132
0.9175096322674621 0.9862304809547265
0.9499797090530505 0.9562169772094132
0.9580972282494477 0.9712237290820699
0.9905673050350361 1.0012372328273833
1.0149198626242273 1.01624398470004
1.0960950545881984 1.0762709921906666
1.144800169766581 1.0762709921906666
1.1691527273557725 1.0762709921906666
1.1610352081593753 1.1062844959359799
1.1691527273557725 1.1362979996812934
1.2016228041413608 1.1663115034266067
1.2665629577125377 1.19632500717192
1.3315031112837146 1.2113317590445767
1.3396206304801117 1.2263385109172333
1.3477381496765088 1.19632500717192
1.3720907072657003 1.2263385109172333
1.4207958224440829 1.2713587665352033
1.4613834184260683 1.3313857740258301
1.4695009376224655 1.3613992777711434
1.4695009376224655 1.3613992777711434
1.4857359760152598 1.3463925258984868
1.4695009376224655 1.3764060296438
1.493853495211657 1.436433037134427
1.5263235719972452 1.5264735483703669
1.5587936487828338 1.5714938039883368
1.5263235719972452 1.6015073077336504
1.501971014408054 1.6015073077336504
1.4857359760152598 1.661534315224277
1.493853495211657 1.7215613227149036
1.4857359760152598 1.7515748264602171
1.493853495211657 1.7515748264602171
1.4451483800332743 1.7365680745875602
1.355855668872906 1.6915478189695903
1.282797996105332 1.7365680745875602
1.2584454385161408 1.7665815783328738
1.209740323337758 1.7815883302055304
1.209740323337758 1.706554570842247
1.1529176889629782 1.661534315224277
1.0473899394098158 1.616514059606307
0.9905673050350361 1.6015073077336504
0.9093921130710649 1.5865005558609935
0.8688045170890794 1.5865005558609935
0.8038643635179025 1.4964600446250536
0.7470417291431227 1.42142628526177
0.6577490179827545 1.3313857740258301
0.6090439028043719 1.2563520146625466
0.5359862300367979 1.2713587665352033
0.5116336724476066 1.24134526278989
0.4548110380728268 1.19632500717192
0.397988403698047 1.0762709921906666
0.34928328851966434 1.01624398470004
0.3086956925376788 0.9412102253367566
0.27622561575209037 0.9412102253367566
0.25999057735929615 0.8811832178461299
0.23563801977010482 0.8061494584828465
0.18693290459172215 0.7311156991195631
0.13011027021694238 0.6560819397562797
0.07328763584216262 0.5660414285203397
0.08140515503855972 0.551034676647683
0.07328763584216262 0.5360279247750264
0.06517011664576551 0.506014421029713
0.03270003986017706 0.4459874135390863
-0.007887556121808486 0.38596040604845955
-0.040357632907396926 0.34094015043048953
-0.05659267130019115 0.34094015043048953
-0.06471019049658826 0.35594690230314624
-0.08094522888938248 0.34094015043048953
-0.10529778647857381 0.31092664668517617
-0.12965034406776513 0.26590639106720615
-0.15400290165695646 0.28091314293986286
-0.16212042085335357 0.3259333985578329
-0.15400290165695646 0.3709536541758029
-0.12965034406776513 0.34094015043048953
-0.16212042085335357 0.3709536541758029
-0.17023794004975068 0.31092664668517617
-0.20270801683533912 0.28091314293986286
-0.21894305522813334 0.2959198948125195
-0.1864729784425449 0.34094015043048953
-0.1783554592461478 0.31092664668517617
-0.194590497638942 0.31092664668517617
-0.21082553603173623 0.28091314293986286
-0.23517809362092756 0.28091314293986286
-0.21082553603173623 0.3259333985578329
-0.194590497638942 0.35594690230314624
-0.1783554592461478 0.31092664668517617
-0.1864729784425449 0.31092664668517617
-0.20270801683533912 0.2959198948125195
-0.23517809362092756 0.31092664668517617
-0.22706057442453045 0.3259333985578329
-0.20270801683533912 0.35594690230314624
-0.1783554592461478 0.35594690230314624
-0.1864729784425449 0.34094015043048953
-0.21894305522813334 0.2959198948125195
-0.2514131320137218 0.3259333985578329
-0.23517809362092756 0.3259333985578329
-0.20270801683533912 0.38596040604845955
-0.20270801683533912 0.38596040604845955
-0.21082553603173623 0.35594690230314624
-0.21082553603173623 0.34094015043048953
-0.22706057442453045 0.3259333985578329
-0.22706057442453045 0.35594690230314624
-0.21082553603173623 0.40096715792111626
-0.1783554592461478 0.3709536541758029
-0.20270801683533912 0.38596040604845955
-0.21894305522813334 0.34094015043048953
-0.21082553603173623 0.35594690230314624
-0.21082553603173623 0.40096715792111626
-0.1783554592461478 0.43098066166642957
-0.15400290165695646 0.40096715792111626
-0.16212042085335357 0.3709536541758029
-0.1864729784425449 0.3259333985578329
-0.1783554592461478 0.3259333985578329
-0.194590497638942 0.3259333985578329
-0.17023794004975068 0.35594690230314624
-0.1783554592461478 0.3259333985578329
-0.20270801683533912 0.2959198948125195
-0.24329561281732467 0.28091314293986286
-0.2838832087993102 0.2508996391945495
-0.2514131320137218 0.2508996391945495
-0.22706057442453045 0.22088613544923613
-0.20270801683533912 0.2358928873218928
-0.24329561281732467 0.1908726317039228
-0.2920007279957073 0.16085912795860943
-0.30823576638850153 0.20587938357657945
-0.31635328558489867 0.2358928873218928
-0.27576568960291314 0.2358928873218928
-0.27576568960291314 0.22088613544923613
-0.27576568960291314 0.1908726317039228
-0.2920007279957073 0.17586587983126611
-0.3325883239776929 0.1908726317039228
-0.3325883239776929 0.2358928873218928
-0.30823576638850153 0.2508996391945495
-0.2838832087993102 0.2508996391945495
-0.3325883239776929 0.20587938357657945
-0.3325883239776929 0.22088613544923613
-0.38941095835247264 0.1908726317039228
-0.38129343915607555 0.2508996391945495
-0.36505840076328133 0.28091314293986286
-0.3569408815668842 0.26590639106720615
-0.38129343915607555 0.22088613544923613
-0.40564599674526686 0.22088613544923613
-0.40564599674526686 0.17586587983126611
-0.38129343915607555 0.20587938357657945
-0.3488233623704871 0.2959198948125195
-0.34070584317409 0.2959198948125195
-0.32447080478129575 0.26590639106720615
-0.31635328558489867 0.2358928873218928
-0.34070584317409 0.26590639106720615
-0.34070584317409 0.26590639106720615
-0.30011824719210445 0.28091314293986286
-0.267648170406516 0.28091314293986286
-0.30011824719210445 0.2508996391945495
-0.30823576638850153 0.22088613544923613
-0.30823576638850153 0.2358928873218928
-0.2920007279957073 0.28091314293986286
-0.27576568960291314 0.34094015043048953
-0.24329561281732467 0.2959198948125195
-0.22706057442453045 0.28091314293986286
-0.2514131320137218 0.2358928873218928
-0.2595306512101189 0.22088613544923613
-0.2514131320137218 0.2508996391945495
-0.21894305522813334 0.22088613544923613
-0.21082553603173623 0.2508996391945495
-0.21082553603173623 0.1908726317039228
-0.24329561281732467 0.16085912795860943
-0.2595306512101189 0.16085912795860943
-0.267648170406516 0.1908726317039228
-0.24329561281732467 0.2358928873218928
-0.23517809362092756 0.2358928873218928
-0.2595306512101189 0.20587938357657945
-0.30011824719210445 0.17586587983126611
-0.30011824719210445 0.16085912795860943
-0.2920007279957073 0.1908726317039228
-0.2838832087993102 0.17586587983126611
-0.27576568960291314 0.17586587983126611
-0.27576568960291314 0.14585237608595275
-0.2838832087993102 0.1308456242132961
-0.31635328558489867 0.10083212046798273
-0.32447080478129575 0.1158388723406394
-0.267648170406516 0.16085912795860943
-0.2514131320137218 0.1158388723406394
-0.2514131320137218 0.08582536859532605
-0.27576568960291314 0.08582536859532605
-0.30823576638850153 0.1158388723406394
