0.17069786619892793 -0.5594649619289109
0.23563801977010482 -0.34937043571171755
0.2924606541448846 -0.2443231726031208
0.3168132117340759 -0.1242691576218674
0.32493073093047303 -0.01922189451327067
0.3330482501268701 0.08582536859532605
0.34928328851966434 0.1908726317039228
0.4142234420908412 0.2508996391945495
0.43045848048363544 0.2508996391945495
0.42234096128723836 0.2508996391945495
0.43045848048363544 0.26590639106720615
0.42234096128723836 0.31092664668517617
0.4629285572692239 0.35594690230314624
0.4953986340548123 0.43098066166642957
0.4791635956620181 0.40096715792111626
0.4791635956620181 0.40096715792111626
0.4791635956620181 0.35594690230314624
0.4953986340548123 0.4459874135390863
0.5278687108404008 0.506014421029713
0.5603387876259892 0.5360279247750264
0.5765738260187835 0.5210211729023696
0.5846913452151805 0.5210211729023696
0.5846913452151805 0.506014421029713
0.6090439028043719 0.551034676647683
0.6333964603935632 0.6110616841383097
0.6821015755719458 0.596054932265653
0.6658665371791517 0.596054932265653
0.6658665371791517 0.596054932265653
0.6577490179827545 0.596054932265653
0.6821015755719458 0.7011021953742498
0.7226891715539314 0.7611292028648764
0.7389242099467256 0.7911427066101898
0.763276767535917 0.7761359547375332
0.8038643635179025 0.7611292028648764
0.8038643635179025 0.7761359547375332
0.8200994019106967 0.8211562103555031
0.8200994019106967 0.8511697141008165
0.8606869978926823 0.8961899697187865
0.8850395554818736 0.8811832178461299
0.9093921130710649 0.8661764659734732
0.9256271514638592 0.8511697141008165
0.9175096322674621 0.8811832178461299
0.9743322666422418 0.9412102253367566
0.9986848242314331 0.9862304809547265
1.0636249778026101 0.9712237290820699
1.0636249778026101 0.9412102253367566
1.1042125737845956 0.9562169772094132
1.1123300929809927 0.9862304809547265
1.1691527273557725 0.9862304809547265
1.2340928809269494 1.0762709921906666
1.2665629577125377 1.0012372328273833
1.290915515301729 1.0462574884453533
1.2990330344981262 0.9862304809547265
1.2990330344981262 1.06126424031801
1.3883257456584945 1.1062844959359799
1.4207958224440829 1.1663115034266067
1.4532658992296714 1.1212912478086368
1.4695009376224655 1.1663115034266067
1.4613834184260683 1.1362979996812934
1.4857359760152598 1.1813182552992634
1.5344410911936424 1.2263385109172333
1.5831462063720252 1.2863655184078602
1.6074987639612164 1.3163790221531735
1.6074987639612164 1.3313857740258301
1.575028687175628 1.3463925258984868
1.5831462063720252 1.3914127815164568
1.591263725568422 1.4664465408797402
1.6156162831576135 1.4964600446250536
1.6074987639612164 1.4964600446250536
1.591263725568422 1.481453292752397
1.5587936487828338 1.4664465408797402
1.5263235719972452 1.5114667964977102
1.5182060528008483 1.5564870521156802
1.5182060528008483 1.6015073077336504
1.4857359760152598 1.5865005558609935
1.4532658992296714 1.5564870521156802
1.3964432648548915 1.5865005558609935
1.3152680728909205 1.5714938039883368
1.2746804769089348 1.6315208114789637
1.282797996105332 1.6315208114789637
1.2259753617305522 1.616514059606307
1.144800169766581 1.5414803002430235
1.0636249778026101 1.4964600446250536
0.9986848242314331 1.4964600446250536
0.9256271514638592 1.4514397890070836
0.9012745938746678 1.436433037134427
0.8363344403034909 1.3914127815164568
0.7795118059287112 1.3013722702805168
0.7064541331611371 1.2263385109172333
0.6577490179827545 1.1813182552992634
0.6333964603935632 1.1663115034266067
0.6009263836079748 1.15130475155395
0.5522212684295921 1.06126424031801
0.4791635956620181 0.9262034734640999
0.4142234420908412 0.9111967215914432
0.3574008077160615 0.8361629622281598
0.34928328851966434 0.8211562103555031
0.3168132117340759 0.8211562103555031
0.28434313494848745 0.7461224509922197
0.2275205005737077 0.6710886916289364
0.17069786619892793 0.6260684360109664
0.1544628278061337 0.5810481803929963
0.1544628278061337 0.5660414285203397
0.1382277894133395 0.551034676647683
0.1382277894133395 0.4910076691570563
0.10575771262775105 0.4459874135390863
0.05705259744936839 0.3709536541758029
0.05705259744936839 0.35594690230314624
0.05705259744936839 0.38596040604845955
0.04081755905657417 0.4159739097937729
0.024582520663779955 0.3709536541758029
0.016465001467382844 0.34094015043048953
-0.007887556121808486 0.3259333985578329
-0.016005075318205594 0.3259333985578329
0.00022996307458862428 0.34094015043048953
0.024582520663779955 0.3709536541758029
0.016465001467382844 0.35594690230314624
0.008347482270985734 0.3259333985578329
-0.007887556121808486 0.2959198948125195
-0.007887556121808486 0.34094015043048953
0.008347482270985734 0.35594690230314624
0.008347482270985734 0.4459874135390863
0.016465001467382844 0.40096715792111626
-0.007887556121808486 0.3709536541758029
-0.040357632907396926 0.34094015043048953
-0.024122594514602705 0.35594690230314624
-0.007887556121808486 0.43098066166642957
-0.007887556121808486 0.46099416541174293
-0.024122594514602705 0.4159739097937729
-0.040357632907396926 0.40096715792111626
-0.048475152103794036 0.35594690230314624
-0.048475152103794036 0.38596040604845955
-0.016005075318205594 0.4159739097937729
-0.007887556121808486 0.4159739097937729
-0.024122594514602705 0.35594690230314624
-0.040357632907396926 0.34094015043048953
-0.048475152103794036 0.28091314293986286
-0.08094522888938248 0.2959198948125195
-0.048475152103794036 0.3259333985578329
-0.032240113710999815 0.3259333985578329
-0.040357632907396926 0.3259333985578329
-0.0971802672821767 0.28091314293986286
-0.10529778647857381 0.2508996391945495
-0.12153282487136803 0.2358928873218928
-0.08906274808577959 0.26590639106720615
-0.05659267130019115 0.2959198948125195
-0.07282770969298537 0.26590639106720615
-0.08906274808577959 0.2358928873218928
-0.08906274808577959 0.1908726317039228
-0.12965034406776513 0.20587938357657945
-0.0971802672821767 0.22088613544923613
-0.11341530567497092 0.2508996391945495
-0.0971802672821767 0.26590639106720615
-0.12965034406776513 0.22088613544923613
-0.14588538246055935 0.1908726317039228
-0.15400290165695646 0.22088613544923613
-0.13776786326416224 0.28091314293986286
-0.15400290165695646 0.28091314293986286
-0.14588538246055935 0.28091314293986286
-0.15400290165695646 0.2358928873218928
-0.1864729784425449 0.20587938357657945
-0.16212042085335357 0.2508996391945495
-0.15400290165695646 0.28091314293986286
-0.12153282487136803 0.2959198948125195
-0.13776786326416224 0.26590639106720615
-0.14588538246055935 0.26590639106720615
-0.1783554592461478 0.26590639106720615
-0.194590497638942 0.26590639106720615
-0.17023794004975068 0.3259333985578329
-0.15400290165695646 0.40096715792111626
-0.16212042085335357 0.35594690230314624
-0.1783554592461478 0.31092664668517617
-0.2514131320137218 0.3259333985578329
-0.20270801683533912 0.31092664668517617
-0.20270801683533912 0.2959198948125195
-0.194590497638942 0.35594690230314624
-0.14588538246055935 0.3259333985578329
-0.1783554592461478 0.34094015043048953
-0.20270801683533912 0.2959198948125195
-0.20270801683533912 0.31092664668517617
-0.194590497638942 0.31092664668517617
-0.1783554592461478 0.3259333985578329
-0.1783554592461478 0.31092664668517617
-0.194590497638942 0.2508996391945495
-0.194590497638942 0.2508996391945495
-0.20270801683533912 0.2358928873218928
-0.20270801683533912 0.26590639106720615
-0.20270801683533912 0.31092664668517617
-0.20270801683533912 0.26590639106720615
-0.21894305522813334 0.22088613544923613
-0.2514131320137218 0.14585237608595275
-0.23517809362092756 0.14585237608595275
-0.21894305522813334 0.17586587983126611
-0.1783554592461478 0.2358928873218928
-0.17023794004975068 0.22088613544923613
-0.21082553603173623 0.17586587983126611
-0.23517809362092756 0.14585237608595275
-0.21894305522813334 0.14585237608595275
-0.1864729784425449 0.1308456242132961
-0.15400290165695646 0.17586587983126611
-0.17023794004975068 0.1908726317039228
-0.17023794004975068 0.14585237608595275
-0.1783554592461478 0.14585237608595275
-0.17023794004975068 0.14585237608595275
-0.14588538246055935 0.1908726317039228
-0.12965034406776513 0.17586587983126611
-0.13776786326416224 0.1308456242132961
-0.16212042085335357 0.08582536859532605
-0.17023794004975068 0.025798361104699356
-0.21082553603173623 0.07081861672266938
-0.1783554592461478 0.07081861672266938
-0.15400290165695646 0.1158388723406394
-0.1783554592461478 0.10083212046798273
-0.16212042085335357 0.07081861672266938
-0.20270801683533912 0.08582536859532605
-0.1864729784425449 0.10083212046798273
-0.194590497638942 0.10083212046798273
-0.1783554592461478 0.16085912795860943
-0.17023794004975068 0.1908726317039228
-0.1783554592461478 0.14585237608595275
-0.21082553603173623 0.1158388723406394
-0.21894305522813334 0.14585237608595275
-0.194590497638942 0.17586587983126611
-0.1783554592461478 0.17586587983126611
-0.194590497638942 0.17586587983126611
-0.16212042085335357 0.10083212046798273
-0.15400290165695646 0.1158388723406394
-0.13776786326416224 0.08582536859532605
-0.08906274808577959 0.16085912795860943
-0.048475152103794036 0.16085912795860943
0.008347482270985734 0.1308456242132961
0.17069786619892793 0.040805112977356034
0.4791635956620181 -0.004215142640613995
1.0960950545881984 -0.004215142640613995
1.7779666670855556 0.01079160923204268
2.1189024733342343 -0.03422864638592735
1.9646696086026894 -0.21430966885780744
1.6074987639612164 -0.514444706310941
1.355855668872906 -1.0246742699812679
1.2584454385161408 -1.805025367359415
1.1935052849449639 -2.690423727846159
1.0960950545881984 -3.1856465396438294
0.9580972282494477 -3.0805992765352324
0.7876293251251083 -2.765457487209442
0.6090439028043719 -2.600383216610219
0.4385759996800326 -2.450315697883652
0.26810809655569323 -2.3902886903930254
0.13011027021694238 -2.3002481791570855
-0.06471019049658826 -2.315254931029742
-0.2920007279957073 -2.315254931029742
-0.5355263038876207 -2.315254931029742
-0.7628168413867398 -2.315254931029742
-0.9657548212966675 -2.3002481791570855
-1.1605752820101982 -2.270234675411772
-1.4122183770985086 -2.360275186647712
-1.6719789913832162 -2.3902886903930254
-1.9155045672751294 -2.405295442265682
-2.1346775855778515 -2.405295442265682
-2.2889104503093964 -2.3452684347750554
-2.4350257958445445 -2.3452684347750554
-2.5649061029868983 -2.4203021941383387
-2.694786410129252 -2.450315697883652
-2.8409017556644 -2.4803292016289653
-2.913959428431974 -2.4803292016289653
-2.970782062806754 -2.4653224497563087
-2.995134620395945 -2.4353089460109953
-2.9788995820031507 -2.450315697883652
-2.9545470244139596 -2.5103427053742786
-2.9058419092355767 -2.5553629609922486
-2.8409017556644 -2.600383216610219
-2.7272564869148406 -2.645403472228189
-2.6054936989688837 -2.690423727846159
-2.4431433150409414 -2.810477742827412
-2.2402053351310136 -2.855497998445382
-2.0616199128102775 -2.8404912465727254
-1.8343293753111583 -2.825484494700069
-1.5989213186156421 -2.7054304797188156
-1.4122183770985086 -2.5853764647375623
-1.3229256659381403 -2.495335953501622
-1.298573108348949 -2.4353089460109953
-1.2498679931705663 -2.3752819385203687
-1.1849278395993894 -2.2552279235391155
-1.0550475324570356 -2.135173908557862
-0.9414022637074762 -1.985106389831295
-0.8277569949579165 -1.850045622977385
-0.7303467646011513 -1.7449983598687884
-0.632936534244386 -1.5649173373969083
-0.5192912654948264 -1.384836314925028
-0.38941095835247264 -1.204755292453148
-0.2595306512101189 -0.9796540143632979
-0.14588538246055935 -0.8145797437640745
-0.048475152103794036 -0.6795189769101644
-0.024122594514602705 -0.5444582100562543
0.03270003986017706 -0.34937043571171755
0.08140515503855972 -0.21430966885780744
0.13011027021694238 -0.04923539825858402
0.17881538539532504 -0.004215142640613995
0.18693290459172215 0.07081861672266938
0.2194029813773106 0.1158388723406394
0.24375553896650193 0.22088613544923613
0.25999057735929615 0.2959198948125195
0.2924606541448846 0.34094015043048953
0.3168132117340759 0.3709536541758029
0.3086956925376788 0.3709536541758029
0.2924606541448846 0.35594690230314624
0.3005781733412817 0.43098066166642957
0.3086956925376788 0.506014421029713
0.34928328851966434 0.5810481803929963
0.34928328851966434 0.551034676647683
0.34116576932326725 0.5810481803929963
0.32493073093047303 0.5660414285203397
0.34928328851966434 0.6260684360109664
0.34928328851966434 0.7011021953742498
0.40610592289444414 0.7611292028648764
0.43045848048363544 0.8211562103555031
0.4142234420908412 0.8361629622281598
0.4142234420908412 0.8211562103555031
0.4142234420908412 0.8661764659734732
0.4629285572692239 0.8661764659734732
0.5035161532512095 0.8661764659734732
0.5197511916440036 0.8811832178461299
0.5197511916440036 0.8961899697187865
0.5116336724476066 0.8961899697187865
0.5359862300367979 0.9412102253367566
0.5765738260187835 0.9412102253367566
0.6009263836079748 0.9262034734640999
0.617161422000769 0.8811832178461299
0.617161422000769 0.7911427066101898
0.6090439028043719 0.7761359547375332
0.6333964603935632 0.7911427066101898
0.6658665371791517 0.8511697141008165
0.7308066907503286 0.9111967215914432
0.763276767535917 0.8811832178461299
0.7470417291431227 0.8661764659734732
0.7795118059287112 0.8661764659734732
0.7876293251251083 0.9111967215914432
0.8282169211070939 0.9562169772094132
0.9175096322674621 0.9862304809547265
0.9418621898566534 0.9562169772094132
0.9580972282494477 0.8961899697187865
0.9743322666422418 0.9412102253367566
1.0230373818206244 0.9862304809547265
1.0798600161954042 1.0762709921906666
1.1123300929809927 1.1062844959359799
1.1366826505701841 1.1212912478086368
1.1772702465521696 1.1062844959359799
1.1853877657485667 1.1062844959359799
1.2016228041413608 1.15130475155395
1.2340928809269494 1.2563520146625466
1.3152680728909205 1.3163790221531735
1.3152680728909205 1.3463925258984868
1.2990330344981262 1.3613992777711434
1.2746804769089348 1.3764060296438
1.3071505536945234 1.42142628526177
1.3396206304801117 1.4664465408797402
1.3802082264620974 1.4664465408797402
1.3720907072657003 1.4964600446250536
1.3477381496765088 1.481453292752397
1.2990330344981262 1.4964600446250536
1.290915515301729 1.5714938039883368
1.290915515301729 1.6315208114789637
1.2584454385161408 1.706554570842247
1.2340928809269494 1.706554570842247
1.1610352081593753 1.7365680745875602
1.0960950545881984 1.7815883302055304
1.0392724202134187 1.8266085858235004
1.0149198626242273 1.8266085858235004
0.9743322666422418 1.841615337696157
0.8931570746782708 1.7815883302055304
0.8119818827142996 1.6765410670969336
0.6983366139647401 1.5264735483703669
0.6496314987863574 1.42142628526177
0.5765738260187835 1.3313857740258301
0.544103749233195 1.3463925258984868
0.4548110380728268 1.3163790221531735
0.36551832691245856 1.2713587665352033
0.27622561575209037 1.19632500717192
0.21128546218091349 1.2113317590445767
0.1382277894133395 1.15130475155395
0.09764019343135394 1.0762709921906666
0.04081755905657417 1.01624398470004
-0.040357632907396926 0.9111967215914432
-0.10529778647857381 0.8361629622281598
-0.17023794004975068 0.8361629622281598
-0.21082553603173623 0.8211562103555031
-0.2514131320137218 0.7761359547375332
-0.27576568960291314 0.7311156991195631
-0.34070584317409 0.641075187883623
-0.36505840076328133 0.596054932265653
-0.413763515941664 0.551034676647683
-0.4218810351380611 0.5660414285203397
-0.4381160735308553 0.5360279247750264
-0.4381160735308553 0.4910076691570563
-0.4787036695128409 0.4459874135390863
-0.5274087846912235 0.40096715792111626
-0.559878861476812 0.4159739097937729
-0.559878861476812 0.46099416541174293
-0.5436438230840177 0.4459874135390863
-0.5436438230840177 0.43098066166642957
-0.559878861476812 0.35594690230314624
-0.6004664574587976 0.35594690230314624
-0.6167014958515917 0.4159739097937729
-0.5923489382624004 0.4159739097937729
-0.5842314190660033 0.43098066166642957
-0.5923489382624004 0.4459874135390863
-0.5923489382624004 0.4159739097937729
-0.6085839766551946 0.4159739097937729
-0.6248190150479889 0.43098066166642957
-0.6167014958515917 0.4910076691570563
-0.6167014958515917 0.5210211729023696
-0.6004664574587976 0.5210211729023696
-0.6167014958515917 0.4910076691570563
-0.6491715726371802 0.4910076691570563
-0.6735241302263715 0.47600091728439964
-0.6735241302263715 0.5360279247750264
-0.6572890918335773 0.506014421029713
-0.6572890918335773 0.551034676647683
-0.6816416494227686 0.5210211729023696
-0.6978766878155629 0.46099416541174293
-0.7059942070119599 0.47600091728439964
-0.6978766878155629 0.4910076691570563
-0.6816416494227686 0.506014421029713
-0.7059942070119599 0.47600091728439964
-0.7222292454047542 0.43098066166642957
-0.7546993221903426 0.38596040604845955
-0.7709343605831368 0.4459874135390863
-0.7628168413867398 0.40096715792111626
-0.7628168413867398 0.4159739097937729
-0.7709343605831368 0.3709536541758029
-0.8034044373687252 0.3259333985578329
-0.8115219565651224 0.2959198948125195
-0.8439920333507108 0.2959198948125195
-0.8196394757615195 0.3259333985578329
-0.7871693989759311 0.35594690230314624
-0.7790518797795339 0.31092664668517617
-0.8034044373687252 0.26590639106720615
-0.8115219565651224 0.31092664668517617
-0.8439920333507108 0.31092664668517617
-0.8439920333507108 0.3259333985578329
-0.8358745141543137 0.35594690230314624
-0.8358745141543137 0.3709536541758029
-0.852109552547108 0.3259333985578329
-0.8926971485290934 0.3259333985578329
-0.8926971485290934 0.31092664668517617
-0.8764621101362993 0.3709536541758029
-0.8439920333507108 0.35594690230314624
-0.8439920333507108 0.35594690230314624
-0.8764621101362993 0.2959198948125195
-0.8926971485290934 0.26590639106720615
-0.8926971485290934 0.2959198948125195
-0.8683445909399021 0.3259333985578329
-0.860227071743505 0.3709536541758029
-0.860227071743505 0.38596040604845955
-0.8845796293326964 0.34094015043048953
-0.9008146677254906 0.35594690230314624
-0.933284744511079 0.3709536541758029
-0.9251672253146819 0.43098066166642957
-0.9008146677254906 0.506014421029713
-0.9089321869218877 0.46099416541174293
-0.9170497061182848 0.3709536541758029
-0.9495197829038733 0.35594690230314624
-0.9495197829038733 0.3259333985578329
-0.9089321869218877 0.3709536541758029
-0.9170497061182848 0.4159739097937729
-0.9170497061182848 0.43098066166642957
-0.933284744511079 0.40096715792111626
-0.9657548212966675 0.35594690230314624
-0.9738723404930646 0.4159739097937729
-0.9738723404930646 0.38596040604845955
-0.9901073788858588 0.4159739097937729
-0.9738723404930646 0.4159739097937729
-0.9982248980822559 0.3709536541758029
-1.0388124940642414 0.3259333985578329
-1.0306949748678444 0.3259333985578329
-1.0306949748678444 0.4159739097937729
-0.9982248980822559 0.40096715792111626
-1.006342417278653 0.3709536541758029
-1.006342417278653 0.34094015043048953
-1.0388124940642414 0.2959198948125195
-1.0388124940642414 0.31092664668517617
-1.0225774556714473 0.3259333985578329
-1.0144599364750502 0.35594690230314624
-1.0144599364750502 0.3259333985578329
-1.0306949748678444 0.2959198948125195
-1.07128257084983 0.2358928873218928
-1.0956351284390213 0.2508996391945495
-1.0631650516534328 0.28091314293986286
-1.0306949748678444 0.3259333985578329
-1.0306949748678444 0.26590639106720615
-1.0225774556714473 0.28091314293986286
-1.0631650516534328 0.2508996391945495
-1.0550475324570356 0.31092664668517617
-1.0306949748678444 0.38596040604845955
-1.006342417278653 0.4159739097937729
-1.0225774556714473 0.3259333985578329
-1.0225774556714473 0.22088613544923613
-1.0306949748678444 0.10083212046798273
-1.0388124940642414 0.1158388723406394
-1.0306949748678444 0.1158388723406394
-1.0225774556714473 0.16085912795860943
-1.0225774556714473 0.1308456242132961
-1.079400090046227 0.14585237608595275
-1.0956351284390213 0.14585237608595275
-1.07128257084983 0.22088613544923613
-1.0550475324570356 0.26590639106720615
-1.0306949748678444 0.28091314293986286
-1.0388124940642414 0.22088613544923613
-1.0550475324570356 0.2358928873218928
-1.0631650516534328 0.22088613544923613
-1.079400090046227 0.2358928873218928
-1.0388124940642414 0.28091314293986286
-1.0388124940642414 0.26590639106720615
-1.0306949748678444 0.22088613544923613
-1.0631650516534328 0.2358928873218928
-1.0469300132606385 0.1908726317039228
-1.0550475324570356 0.20587938357657945
-0.9901073788858588 0.22088613544923613
-0.9008146677254906 0.20587938357657945
-0.7465818029939455 0.17586587983126611
-0.40564599674526686 0.17586587983126611
0.26810809655569323 0.10083212046798273
1.0717424969990073 0.10083212046798273
1.5263235719972452 0.025798361104699356
1.4613834184260683 -0.09425565387655405
1.0230373818206244 -0.34937043571171755
0.6739840563755488 -0.7845662400187611
0.5197511916440036 -1.4598700742883115
0.44669351887642966 -2.360275186647712
0.3330482501268701 -3.0655925246625757
0.18693290459172215 -3.1706397877711723
0.016465001467382844 -2.7954709909547555
-0.15400290165695646 -2.5103427053742786
-0.3325883239776929 -2.405295442265682
-0.5111737462984293 -2.3302616829023988
-0.6897591686191658 -2.2252144197938017
-0.8683445909399021 -2.135173908557862
-1.07128257084983 -2.1501806604305185
-1.3148081467417432 -2.165187412303175
-1.5502162034372593 -2.165187412303175
-1.7693892217399814 -2.1501806604305185
-2.0047972784354977 -2.165187412303175
-2.199617739149028 -2.165187412303175
-2.4512608342373388 -2.210207667921145
-2.6623163333436635 -2.270234675411772
-2.8896068708427824 -2.3002481791570855
-3.043839735574328 -2.3002481791570855
-3.141249965931093 -2.2552279235391155
-3.2548952346806526 -2.2552279235391155
-3.3847755418230063 -2.315254931029742
-3.498420810572566 -2.3902886903930254
-3.5795960025365368 -2.4353089460109953
-3.6120660793221253 -2.450315697883652
-3.6120660793221253 -2.450315697883652
-3.595831040929331 -2.405295442265682
-3.57147848334014 -2.4803292016289653
-3.522773368161757 -2.540356209119592
-3.5065383297689627 -2.6604102241008456
-3.4334806570013887 -2.720437231591472
-3.3117178690554323 -2.765457487209442
-3.141249965931093 -2.7954709909547555
-2.9545470244139596 -2.8404912465727254
-2.7597265637004287 -2.8404912465727254
-2.573023622183295 -2.825484494700069
-2.353850603880573 -2.765457487209442
-2.2077352583454255 -2.600383216610219
-2.126560066381454 -2.5103427053742786
-2.118442547185057 -2.3902886903930254
-2.0616199128102775 -2.3752819385203687
-2.05350239361388 -2.285241427284429
-1.9560921632571149 -2.165187412303175
-1.8424468945075554 -1.985106389831295
-1.7206841065615988 -1.8200321192320716
-1.6070388378120393 -1.6999781042508184
-1.525863645848068 -1.579924089269565
-1.4771585306696855 -1.4448633224156548
-1.3553957427237286 -1.204755292453148
-1.2579855123669634 -0.9796540143632979
-1.144340243617404 -0.7995729918914178
-1.0631650516534328 -0.6194919694195377
-1.0144599364750502 -0.514444706310941
-0.9414022637074762 -0.33436368383906084
-0.8926971485290934 -0.15428266136718075
-0.852109552547108 0.040805112977356034
-0.7790518797795339 0.16085912795860943
-0.7546993221903426 0.2358928873218928
-0.7465818029939455 0.28091314293986286
-0.7465818029939455 0.34094015043048953
-0.7546993221903426 0.4159739097937729
-0.7384642837975484 0.4910076691570563
-0.7222292454047542 0.4910076691570563
-0.6978766878155629 0.4910076691570563
-0.7059942070119599 0.4910076691570563
-0.7222292454047542 0.506014421029713
-0.6978766878155629 0.5810481803929963
-0.6491715726371802 0.641075187883623
-0.6248190150479889 0.6560819397562797
-0.6085839766551946 0.686095443501593
-0.6085839766551946 0.686095443501593
-0.6167014958515917 0.6710886916289364
-0.5842314190660033 0.7461224509922197
-0.5679963806732091 0.8211562103555031
-0.5436438230840177 0.8661764659734732
-0.5192912654948264 0.8511697141008165
-0.5517613422804148 0.8361629622281598
-0.5436438230840177 0.8511697141008165
-0.5274087846912235 0.8661764659734732
-0.5192912654948264 0.8961899697187865
-0.4787036695128409 0.9562169772094132
-0.4381160735308553 0.9412102253367566
-0.4381160735308553 0.9262034734640999
-0.4299985543344582 0.9262034734640999
-0.4218810351380611 0.9412102253367566
-0.38129343915607555 1.0012372328273833
-0.31635328558489867 1.0462574884453533
-0.2920007279957073 1.0012372328273833
-0.2838832087993102 0.9412102253367566
-0.2920007279957073 0.9562169772094132
-0.2595306512101189 0.9712237290820699
-0.22706057442453045 1.01624398470004
-0.194590497638942 1.0462574884453533
-0.13776786326416224 1.01624398470004
-0.10529778647857381 1.0012372328273833
-0.08094522888938248 0.9562169772094132
-0.040357632907396926 1.0312507365726966
0.00022996307458862428 1.0912777440633232
0.05705259744936839 1.15130475155395
0.1382277894133395 1.1362979996812934
0.16258034700253082 1.1362979996812934
0.18693290459172215 1.1362979996812934
0.19505042378811926 1.19632500717192
0.251873058162899 1.2263385109172333
0.32493073093047303 1.2713587665352033
0.3330482501268701 1.2713587665352033
0.34116576932326725 1.2713587665352033
0.3574008077160615 1.2563520146625466
0.3736358461088557 1.3313857740258301
0.44669351887642966 1.4064195333891134
0.5035161532512095 1.4664465408797402
0.5197511916440036 1.4514397890070836
0.5359862300367979 1.481453292752397
0.5035161532512095 1.436433037134427
0.5197511916440036 1.481453292752397
0.5359862300367979 1.5865005558609935
0.5522212684295921 1.6315208114789637
0.5765738260187835 1.6315208114789637
0.5603387876259892 1.6315208114789637
0.5197511916440036 1.6765410670969336
0.5197511916440036 1.6915478189695903
0.5197511916440036 1.796595082078187
0.5197511916440036 1.841615337696157
0.4953986340548123 1.7815883302055304
0.4385759996800326 1.7515748264602171
0.3898708845016499 1.7665815783328738
0.3168132117340759 1.7815883302055304
0.2924606541448846 1.796595082078187
0.25999057735929615 1.8266085858235004
0.2194029813773106 1.8116018339508437
0.1463453086097366 1.7665815783328738
0.06517011664576551 1.7365680745875602
0.008347482270985734 1.7365680745875602
-0.040357632907396926 1.7365680745875602
-0.07282770969298537 1.7215613227149036
-0.15400290165695646 1.6465275633516203
-0.22706057442453045 1.481453292752397
-0.32447080478129575 1.42142628526177
-0.413763515941664 1.3914127815164568
-0.44623359272725244 1.3914127815164568
-0.4949387079056351 1.3313857740258301
-0.5274087846912235 1.3163790221531735
-0.6167014958515917 1.19632500717192
-0.6654066110299744 1.1062844959359799
-0.7222292454047542 1.0762709921906666
-0.7465818029939455 1.1362979996812934
-0.7384642837975484 1.0912777440633232
-0.7628168413867398 0.9862304809547265
-0.8196394757615195 0.8961899697187865
-0.8764621101362993 0.8361629622281598
-0.9251672253146819 0.7761359547375332
-0.9251672253146819 0.7611292028648764
-0.9089321869218877 0.7611292028648764
-0.9495197829038733 0.7011021953742498
-0.9819898596894617 0.6260684360109664
-1.0144599364750502 0.5810481803929963
-1.0306949748678444 0.551034676647683
-1.0306949748678444 0.5660414285203397
-1.0388124940642414 0.596054932265653
-1.0469300132606385 0.5210211729023696
-1.07128257084983 0.47600091728439964
-1.0956351284390213 0.4459874135390863
-1.0956351284390213 0.4459874135390863
-1.079400090046227 0.46099416541174293
-1.0550475324570356 0.5210211729023696
-1.07128257084983 0.4910076691570563
-1.0875176092426242 0.47600091728439964
-1.1118701668318154 0.4910076691570563
-1.1037526476354182 0.5210211729023696
-1.0875176092426242 0.5660414285203397
-1.0469300132606385 0.5660414285203397
-1.0388124940642414 0.551034676647683
-1.0631650516534328 0.4910076691570563
-1.1037526476354182 0.4910076691570563
-1.0956351284390213 0.4910076691570563
-1.0631650516534328 0.5360279247750264
-1.0306949748678444 0.551034676647683
-1.0144599364750502 0.5660414285203397
-1.0469300132606385 0.4910076691570563
-1.0225774556714473 0.4910076691570563
-1.0469300132606385 0.506014421029713
-1.0144599364750502 0.5360279247750264
-1.0306949748678444 0.5660414285203397
-1.0225774556714473 0.5360279247750264
-1.0144599364750502 0.506014421029713
-1.0469300132606385 0.4910076691570563
-1.0550475324570356 0.4910076691570563
-1.0388124940642414 0.506014421029713
-0.9982248980822559 0.5360279247750264
-1.0225774556714473 0.506014421029713
-1.0469300132606385 0.4459874135390863
-1.07128257084983 0.4159739097937729
-1.0875176092426242 0.4459874135390863
-1.0631650516534328 0.506014421029713
-1.0306949748678444 0.4910076691570563
-1.0306949748678444 0.506014421029713
-1.0469300132606385 0.46099416541174293
-1.07128257084983 0.43098066166642957
-1.0875176092426242 0.46099416541174293
-1.0875176092426242 0.506014421029713
-1.0631650516534328 0.506014421029713
-1.0469300132606385 0.47600091728439964
-1.0631650516534328 0.43098066166642957
-1.1037526476354182 0.4159739097937729
-1.1118701668318154 0.4459874135390863
-1.0956351284390213 0.46099416541174293
-1.0956351284390213 0.47600091728439964
-1.1037526476354182 0.4459874135390863
-1.1281052052246097 0.4159739097937729
-1.1118701668318154 0.43098066166642957
-1.1037526476354182 0.46099416541174293
-1.079400090046227 0.4459874135390863
-1.0550475324570356 0.4910076691570563
-1.0550475324570356 0.4910076691570563
-1.07128257084983 0.4459874135390863
-1.1037526476354182 0.4459874135390863
-1.0875176092426242 0.4910076691570563
-1.079400090046227 0.506014421029713
-1.0469300132606385 0.551034676647683
-1.0144599364750502 0.4910076691570563
-1.0469300132606385 0.46099416541174293
-1.07128257084983 0.43098066166642957
-1.07128257084983 0.46099416541174293
-1.0631650516534328 0.47600091728439964
-1.0388124940642414 0.5210211729023696
-1.0225774556714473 0.4910076691570563
-1.0469300132606385 0.47600091728439964
-1.0550475324570356 0.47600091728439964
-1.0550475324570356 0.4910076691570563
-1.0306949748678444 0.4910076691570563
-0.9901073788858588 0.5210211729023696
-0.9982248980822559 0.506014421029713
-1.0144599364750502 0.46099416541174293
-1.0306949748678444 0.4159739097937729
-1.0306949748678444 0.43098066166642957
-1.0306949748678444 0.4459874135390863
-1.0225774556714473 0.4459874135390863
-1.006342417278653 0.4459874135390863
-1.0388124940642414 0.38596040604845955
-1.0306949748678444 0.40096715792111626
-1.0388124940642414 0.40096715792111626
-1.0144599364750502 0.4159739097937729
-1.006342417278653 0.46099416541174293
-1.006342417278653 0.4459874135390863
-0.9982248980822559 0.3709536541758029
-1.0225774556714473 0.35594690230314624
-1.0388124940642414 0.38596040604845955
-1.0144599364750502 0.43098066166642957
-0.9901073788858588 0.43098066166642957
-1.006342417278653 0.38596040604845955
-1.0469300132606385 0.35594690230314624
-1.0550475324570356 0.38596040604845955
-1.0631650516534328 0.34094015043048953
-1.0631650516534328 0.38596040604845955
-1.0306949748678444 0.38596040604845955
-1.0144599364750502 0.38596040604845955
-1.0469300132606385 0.35594690230314624
-1.0469300132606385 0.3259333985578329
-1.0469300132606385 0.35594690230314624
-1.0144599364750502 0.4159739097937729
-0.9738723404930646 0.46099416541174293
-0.9738723404930646 0.4159739097937729
-0.9819898596894617 0.38596040604845955
-0.9982248980822559 0.38596040604845955
-0.9982248980822559 0.38596040604845955
-0.9738723404930646 0.47600091728439964
-0.9495197829038733 0.46099416541174293
-0.9576373021002703 0.43098066166642957
-0.9495197829038733 0.4159739097937729
-0.9576373021002703 0.35594690230314624
-0.9657548212966675 0.38596040604845955
-0.9657548212966675 0.4159739097937729
-0.9414022637074762 0.40096715792111626
-0.9251672253146819 0.38596040604845955
-0.9170497061182848 0.3709536541758029
-0.9414022637074762 0.34094015043048953
-0.9251672253146819 0.34094015043048953
-0.9089321869218877 0.3709536541758029
-0.8926971485290934 0.4159739097937729
-0.8683445909399021 0.40096715792111626
-0.8926971485290934 0.3259333985578329
-0.8926971485290934 0.28091314293986286
-0.8764621101362993 0.3259333985578329
-0.8764621101362993 0.3259333985578329
-0.8764621101362993 0.35594690230314624
-0.8439920333507108 0.2959198948125195
-0.8439920333507108 0.26590639106720615
-0.860227071743505 0.20587938357657945
-0.8115219565651224 0.20587938357657945
-0.7303467646011513 0.2508996391945495
-0.641054053440783 0.28091314293986286
-0.44623359272725244 0.22088613544923613
-0.032240113710999815 0.17586587983126611
0.6415139795899604 0.14585237608595275
1.3802082264620974 0.14585237608595275
1.7373790711035701 0.10083212046798273
1.5425586103900395 -0.04923539825858402
1.0960950545881984 -0.3043501800937475
0.771394286732314 -0.8145797437640745
0.6496314987863574 -1.6399510967601916
0.5522212684295921 -2.5703697128649057
0.471046076465621 -3.0805992765352324
0.34928328851966434 -2.9005182540633525
0.20316794298451638 -2.5553629609922486
0.04081755905657417 -2.3002481791570855
-0.17023794004975068 -2.165187412303175
-0.34070584317409 -2.090153652939892
-0.48682118870923796 -2.000113141703952
-0.6167014958515917 -1.9100726304680118
-0.8034044373687252 -1.8950658785953551
-1.006342417278653 -1.8950658785953551
-1.2092803971885808 -1.8950658785953551
-1.3959833387057143 -1.8950658785953551
-1.590803799419245 -1.9100726304680118
-1.753154183347187 -1.9100726304680118
-1.9723272016499092 -1.9550928860859818
-2.2077352583454255 -2.0301266454492652
-2.402555719058956 -2.075146901067235
-2.5649061029868983 -2.0301266454492652
-2.694786410129252 -2.0301266454492652
-2.775961602093223 -2.0151198935766086
-2.8814893516463855 -2.090153652939892
-2.9788995820031507 -2.180194164175832
-3.1006623699491076 -2.2252144197938017
-3.1656025235202843 -2.2252144197938017
-3.141249965931093 -2.210207667921145
-3.1168974083419014 -2.2252144197938017
-3.1168974083419014 -2.285241427284429
-3.076309812359916 -2.405295442265682
-3.076309812359916 -2.5253494572469353
-2.9870171011995477 -2.600383216610219
-2.930194466824768 -2.6604102241008456
-2.7921966404860172 -2.7054304797188156
-2.6379637757544723 -2.810477742827412
-2.4593783534337357 -2.885511502190696
-2.272675411916602 -2.9005182540633525
-2.0778549512030717 -2.8705047503180388
-1.8749169712931437 -2.7954709909547555
-1.7612717025435842 -2.645403472228189
-1.7125665873652016 -2.6153899684828756
-1.7125665873652016 -2.5853764647375623
-1.74503666415079 -2.5253494572469353
-1.6882140297760102 -2.3902886903930254
-1.5826862802228479 -2.270234675411772
-1.4852760498660824 -2.120167156685205
-1.3878658195093172 -1.985106389831295
-1.298573108348949 -1.8800591267226985
-1.233632954777772 -1.714984856123475
-1.1362227244210068 -1.5198970817789381
-0.9738723404930646 -1.294795803689088
-0.8358745141543137 -1.0246742699812679
-0.7141117262083571 -0.9046202550000145
-0.6248190150479889 -0.6795189769101644
-0.559878861476812 -0.514444706310941
-0.5030562271020322 -0.3193569319664042
-0.4543511119236495 -0.07924890200389736
-0.3975284775488698 0.1308456242132961
-0.32447080478129575 0.26590639106720615
-0.30011824719210445 0.3259333985578329
-0.2838832087993102 0.40096715792111626
-0.2838832087993102 0.4910076691570563
-0.23517809362092756 0.596054932265653
-0.1864729784425449 0.6560819397562797
-0.1864729784425449 0.6560819397562797
-0.17023794004975068 0.7011021953742498
-0.194590497638942 0.686095443501593
-0.16212042085335357 0.7161089472469064
-0.14588538246055935 0.7761359547375332
-0.08906274808577959 0.8211562103555031
-0.0971802672821767 0.8061494584828465
-0.0971802672821767 0.7761359547375332
-0.12153282487136803 0.7611292028648764
-0.12965034406776513 0.7761359547375332
-0.08906274808577959 0.8061494584828465
-0.08906274808577959 0.8511697141008165
-0.07282770969298537 0.8511697141008165
-0.06471019049658826 0.7911427066101898
-0.06471019049658826 0.7761359547375332
-0.032240113710999815 0.8361629622281598
-0.007887556121808486 0.8661764659734732
0.008347482270985734 0.9412102253367566
0.04893507825297128 0.8961899697187865
0.04081755905657417 0.8811832178461299
0.04081755905657417 0.8661764659734732
0.05705259744936839 0.9111967215914432
0.08140515503855972 0.9111967215914432
0.12199275102054527 0.9712237290820699
0.1544628278061337 0.9412102253367566
0.16258034700253082 0.9562169772094132
0.16258034700253082 0.9412102253367566
0.19505042378811926 1.01624398470004
0.25999057735929615 1.0312507365726966
0.3330482501268701 1.0912777440633232
0.36551832691245856 1.06126424031801
0.3736358461088557 1.0762709921906666
0.3817533653052528 1.0462574884453533
0.4142234420908412 1.0762709921906666
0.4629285572692239 1.0912777440633232
0.5197511916440036 1.0912777440633232
0.5603387876259892 1.0912777440633232
0.5603387876259892 1.1212912478086368
0.6090439028043719 1.1663115034266067
0.6496314987863574 1.24134526278989
0.6739840563755488 1.3313857740258301
0.7226891715539314 1.3613992777711434
0.8038643635179025 1.4064195333891134
0.8282169211070939 1.3764060296438
0.8282169211070939 1.3613992777711434
0.844451959499888 1.436433037134427
0.8931570746782708 1.5264735483703669
0.9337446706602562 1.5564870521156802
0.9580972282494477 1.5564870521156802
0.9662147474458447 1.5714938039883368
0.9905673050350361 1.5564870521156802
1.0149198626242273 1.5564870521156802
1.0473899394098158 1.6315208114789637
1.0879775353918013 1.6915478189695903
1.1123300929809927 1.6915478189695903
1.1204476121773899 1.6765410670969336
1.1042125737845956 1.6915478189695903
1.1123300929809927 1.7215613227149036
1.1123300929809927 1.7515748264602171
1.1204476121773899 1.8566220895688137
1.1123300929809927 1.841615337696157
1.0717424969990073 1.7665815783328738
1.0311549010170216 1.796595082078187
0.9986848242314331 1.796595082078187
1.0068023434278304 1.8566220895688137
0.9905673050350361 1.8716288414414703
0.9337446706602562 1.9016423451867839
0.8850395554818736 1.8266085858235004
0.8038643635179025 1.841615337696157
0.763276767535917 1.8266085858235004
0.7226891715539314 1.8266085858235004
0.6983366139647401 1.8116018339508437
0.6252789411971661 1.7365680745875602
0.5684563068223863 1.6915478189695903
0.4791635956620181 1.706554570842247
0.40610592289444414 1.616514059606307
0.3574008077160615 1.6015073077336504
0.3168132117340759 1.5264735483703669
0.24375553896650193 1.4964600446250536
0.19505042378811926 1.3764060296438
0.08952267423495683 1.3163790221531735
0.04893507825297128 1.3163790221531735
0.00022996307458862428 1.3163790221531735
-0.007887556121808486 1.2863655184078602
-0.05659267130019115 1.2263385109172333
-0.11341530567497092 1.1663115034266067
-0.1783554592461478 1.0762709921906666
-0.20270801683533912 1.0312507365726966
-0.21082553603173623 1.0462574884453533
-0.21894305522813334 1.06126424031801
-0.24329561281732467 0.9862304809547265
-0.30823576638850153 0.9111967215914432
-0.3488233623704871 0.8361629622281598
-0.34070584317409 0.8361629622281598
-0.34070584317409 0.8361629622281598
-0.34070584317409 0.8211562103555031
-0.3488233623704871 0.7911427066101898
-0.38941095835247264 0.7611292028648764
-0.4218810351380611 0.686095443501593
-0.4381160735308553 0.6710886916289364
-0.4381160735308553 0.7011021953742498
-0.40564599674526686 0.7011021953742498
-0.4218810351380611 0.641075187883623
-0.46246863112004666 0.5810481803929963
-0.48682118870923796 0.5210211729023696
-0.4949387079056351 0.506014421029713
-0.4787036695128409 0.4910076691570563
-0.44623359272725244 0.5360279247750264
-0.4543511119236495 0.5360279247750264
-0.47058615031644374 0.5210211729023696
-0.48682118870923796 0.47600091728439964
-0.48682118870923796 0.47600091728439964
-0.48682118870923796 0.5360279247750264
-0.4543511119236495 0.5210211729023696
-0.4381160735308553 0.46099416541174293
-0.46246863112004666 0.4459874135390863
-0.47058615031644374 0.4159739097937729
-0.4787036695128409 0.46099416541174293
-0.4299985543344582 0.5360279247750264
-0.38129343915607555 0.5210211729023696
-0.3731759199596784 0.506014421029713
-0.38129343915607555 0.4459874135390863
-0.40564599674526686 0.43098066166642957
-0.40564599674526686 0.43098066166642957
-0.4218810351380611 0.46099416541174293
-0.40564599674526686 0.506014421029713
-0.38941095835247264 0.47600091728439964
-0.413763515941664 0.4910076691570563
-0.4299985543344582 0.46099416541174293
-0.46246863112004666 0.4910076691570563
-0.4543511119236495 0.551034676647683
-0.4299985543344582 0.5660414285203397
-0.44623359272725244 0.5660414285203397
-0.4218810351380611 0.5210211729023696
-0.4381160735308553 0.47600091728439964
-0.4299985543344582 0.5360279247750264
-0.3975284775488698 0.5810481803929963
-0.38941095835247264 0.596054932265653
-0.413763515941664 0.5810481803929963
-0.4381160735308553 0.5660414285203397
-0.46246863112004666 0.551034676647683
-0.46246863112004666 0.596054932265653
-0.4299985543344582 0.641075187883623
-0.413763515941664 0.6560819397562797
-0.4218810351380611 0.6260684360109664
-0.4543511119236495 0.5810481803929963
-0.47058615031644374 0.551034676647683
-0.4949387079056351 0.5810481803929963
-0.46246863112004666 0.5810481803929963
-0.4299985543344582 0.5810481803929963
-0.4381160735308553 0.5360279247750264
-0.46246863112004666 0.5210211729023696
-0.47058615031644374 0.47600091728439964
-0.46246863112004666 0.5360279247750264
-0.47058615031644374 0.551034676647683
-0.44623359272725244 0.5810481803929963
-0.4381160735308553 0.5360279247750264
-0.48682118870923796 0.506014421029713
-0.5030562271020322 0.47600091728439964
-0.5274087846912235 0.4910076691570563
-0.48682118870923796 0.5210211729023696
-0.4787036695128409 0.5360279247750264
-0.47058615031644374 0.4910076691570563
-0.48682118870923796 0.43098066166642957
-0.5111737462984293 0.38596040604845955
-0.5517613422804148 0.38596040604845955
-0.5355263038876207 0.4159739097937729
-0.5111737462984293 0.4159739097937729
-0.5030562271020322 0.38596040604845955
-0.5111737462984293 0.34094015043048953
-0.5355263038876207 0.3259333985578329
-0.5192912654948264 0.31092664668517617
-0.4949387079056351 0.4159739097937729
-0.44623359272725244 0.40096715792111626
-0.413763515941664 0.40096715792111626
-0.4218810351380611 0.3259333985578329
-0.46246863112004666 0.34094015043048953
-0.4787036695128409 0.35594690230314624
-0.44623359272725244 0.38596040604845955
-0.4218810351380611 0.4159739097937729
-0.4218810351380611 0.3709536541758029
-0.4381160735308553 0.34094015043048953
-0.4543511119236495 0.3709536541758029
-0.47058615031644374 0.38596040604845955
-0.46246863112004666 0.43098066166642957
-0.40564599674526686 0.43098066166642957
-0.4218810351380611 0.43098066166642957
-0.4299985543344582 0.4159739097937729
-0.4543511119236495 0.35594690230314624
-0.46246863112004666 0.38596040604845955
-0.4381160735308553 0.4159739097937729
-0.38129343915607555 0.47600091728439964
-0.40564599674526686 0.4910076691570563
-0.40564599674526686 0.46099416541174293
-0.4381160735308553 0.40096715792111626
-0.4299985543344582 0.4459874135390863
-0.3975284775488698 0.47600091728439964
-0.38941095835247264 0.4910076691570563
-0.38941095835247264 0.43098066166642957
-0.38129343915607555 0.35594690230314624
-0.4299985543344582 0.3709536541758029
-0.4381160735308553 0.38596040604845955
-0.413763515941664 0.40096715792111626
-0.38129343915607555 0.4159739097937729
-0.38129343915607555 0.3709536541758029
-0.3731759199596784 0.35594690230314624
-0.4218810351380611 0.35594690230314624
-0.4381160735308553 0.35594690230314624
-0.3975284775488698 0.3709536541758029
-0.38129343915607555 0.40096715792111626
-0.3569408815668842 0.3709536541758029
-0.38129343915607555 0.34094015043048953
-0.40564599674526686 0.3259333985578329
-0.413763515941664 0.31092664668517617
-0.413763515941664 0.3259333985578329
-0.3975284775488698 0.2959198948125195
-0.3975284775488698 0.28091314293986286
-0.3975284775488698 0.22088613544923613
-0.4299985543344582 0.1908726317039228
-0.44623359272725244 0.22088613544923613
-0.4381160735308553 0.20587938357657945
-0.38129343915607555 0.2358928873218928
-0.38941095835247264 0.20587938357657945
-0.3975284775488698 0.1908726317039228
-0.40564599674526686 0.17586587983126611
-0.38941095835247264 0.20587938357657945
-0.3569408815668842 0.2358928873218928
-0.3325883239776929 0.2358928873218928
-0.2838832087993102 0.20587938357657945
-0.267648170406516 0.20587938357657945
-0.2514131320137218 0.16085912795860943
-0.1864729784425449 0.1908726317039228
-0.05659267130019115 0.20587938357657945
0.24375553896650193 0.22088613544923613
0.771394286732314 0.16085912795860943
1.5425586103900395 0.17586587983126611
2.1107849541378374 0.08582536859532605
2.2731353380657793 0.025798361104699356
2.0133747237810717 -0.0642421501312407
1.656203879139599 -0.27433667634843417
1.3964432648548915 -0.7095324806554777
1.2746804769089348 -1.4448633224156548
1.2016228041413608 -2.315254931029742
1.0717424969990073 -3.0655925246625757
0.9580972282494477 -3.290693802752426
0.8769220362854765 -2.9755520134266358
0.7470417291431227 -2.6153899684828756
0.5522212684295921 -2.405295442265682
0.3817533653052528 -2.285241427284429
0.19505042378811926 -2.210207667921145
0.024582520663779955 -2.090153652939892
-0.13776786326416224 -1.985106389831295
-0.30011824719210445 -1.9700996379586384
-0.5030562271020322 -1.985106389831295
-0.7059942070119599 -1.985106389831295
-0.9008146677254906 -1.9550928860859818
-1.079400090046227 -1.940086134213325
-1.233632954777772 -1.940086134213325
-1.4122183770985086 -1.9700996379586384
-1.6151563570084362 -2.0301266454492652
-1.8505644137039525 -2.1051604048125485
-2.0047972784354977 -2.090153652939892
-2.175265181559837 -2.0601401491945786
-2.280792931112999 -2.0601401491945786
-2.410673238255353 -2.075146901067235
-2.5324360262013097 -2.165187412303175
-2.6379637757544723 -2.210207667921145
-2.7353740061112375 -2.2402211716664584
-2.7921966404860172 -2.210207667921145
-2.800314159682414 -2.2402211716664584
-2.8084316788788115 -2.3002481791570855
-2.8327842364680027 -2.3302616829023988
-2.8652543132535913 -2.3902886903930254
-2.8327842364680027 -2.360275186647712
-2.7516090445040318 -2.405295442265682
-2.6785513717364577 -2.405295442265682
-2.6136112181652806 -2.495335953501622
-2.524318507004913 -2.645403472228189
-2.4512608342373388 -2.780464239082099
-2.2970279695057934 -2.825484494700069
-2.1346775855778515 -2.825484494700069
-1.8992695288823351 -2.7954709909547555
-1.6719789913832162 -2.780464239082099
-1.4852760498660824 -2.720437231591472
-1.3635132619201258 -2.6303967203555323
-1.2661030315633606 -2.495335953501622
-1.225515435581375 -2.3452684347750554
-1.1605752820101982 -2.2402211716664584
-1.1362227244210068 -2.210207667921145
-1.0550475324570356 -2.120167156685205
-0.9819898596894617 -2.000113141703952
-0.8764621101362993 -1.8350388711047283
-0.7546993221903426 -1.624944344887535
-0.6248190150479889 -1.4148498186703415
-0.5274087846912235 -1.2647822999437748
-0.46246863112004666 -1.1447282849625213
-0.3975284775488698 -0.9646472624906413
-0.31635328558489867 -0.7245392325281345
-0.21894305522813334 -0.514444706310941
-0.10529778647857381 -0.34937043571171755
-0.040357632907396926 -0.21430966885780744
0.008347482270985734 -0.10926240574921073
0.008347482270985734 -0.01922189451327067
0.03270003986017706 0.1158388723406394
0.06517011664576551 0.2959198948125195
0.10575771262775105 0.4159739097937729
0.16258034700253082 0.4910076691570563
0.17069786619892793 0.5210211729023696
0.1463453086097366 0.5660414285203397
0.17069786619892793 0.641075187883623
0.21128546218091349 0.6560819397562797
0.23563801977010482 0.6710886916289364
0.251873058162899 0.6560819397562797
0.251873058162899 0.6560819397562797
0.26810809655569323 0.6110616841383097
0.27622561575209037 0.686095443501593
0.28434313494848745 0.7461224509922197
0.3330482501268701 0.7611292028648764
0.34928328851966434 0.7611292028648764
0.3574008077160615 0.7011021953742498
0.34928328851966434 0.6560819397562797
0.3736358461088557 0.6560819397562797
0.397988403698047 0.7311156991195631
0.43045848048363544 0.7761359547375332
0.4548110380728268 0.7461224509922197
0.44669351887642966 0.7161089472469064
0.4548110380728268 0.686095443501593
0.471046076465621 0.7461224509922197
0.4953986340548123 0.8211562103555031
0.544103749233195 0.8211562103555031
0.5359862300367979 0.8061494584828465
0.5197511916440036 0.7761359547375332
0.5035161532512095 0.7761359547375332
0.5197511916440036 0.8361629622281598
0.5684563068223863 0.8661764659734732
0.5928088644115777 0.9111967215914432
0.6252789411971661 0.8961899697187865
0.6496314987863574 0.8511697141008165
0.6577490179827545 0.8661764659734732
0.690219094768343 0.9412102253367566
0.7470417291431227 0.9712237290820699
0.771394286732314 1.0312507365726966
0.8200994019106967 1.0312507365726966
0.8363344403034909 1.06126424031801
0.844451959499888 1.0462574884453533
0.8850395554818736 1.0912777440633232
0.9418621898566534 1.1813182552992634
0.9662147474458447 1.2263385109172333
1.0068023434278304 1.2563520146625466
1.0311549010170216 1.2263385109172333
1.0473899394098158 1.2113317590445767
1.0798600161954042 1.2863655184078602
1.1204476121773899 1.3613992777711434
1.209740323337758 1.3914127815164568
1.2584454385161408 1.3764060296438
1.282797996105332 1.3463925258984868
1.2990330344981262 1.3914127815164568
1.3233855920873177 1.4064195333891134
1.3964432648548915 1.481453292752397
1.4451483800332743 1.5414803002430235
1.4776184568188626 1.5414803002430235
1.501971014408054 1.5114667964977102
1.4857359760152598 1.5414803002430235
1.5100885336044512 1.5865005558609935
1.5587936487828338 1.616514059606307
1.5831462063720252 1.6315208114789637
1.5831462063720252 1.616514059606307
1.591263725568422 1.616514059606307
1.5587936487828338 1.5865005558609935
1.5831462063720252 1.616514059606307
1.5993812447648192 1.6315208114789637
1.6074987639612164 1.6315208114789637
1.5993812447648192 1.6015073077336504
1.5425586103900395 1.616514059606307
1.501971014408054 1.5865005558609935
1.4613834184260683 1.616514059606307
1.4207958224440829 1.6915478189695903
1.4370308608368771 1.6765410670969336
1.3720907072657003 1.616514059606307
1.2990330344981262 1.5564870521156802
1.209740323337758 1.5414803002430235
1.128565131373787 1.5564870521156802
1.0960950545881984 1.5865005558609935
1.0717424969990073 1.5714938039883368
0.9986848242314331 1.5264735483703669
0.9175096322674621 1.481453292752397
0.8200994019106967 1.4064195333891134
0.763276767535917 1.42142628526177
0.7389242099467256 1.3764060296438
0.7064541331611371 1.3764060296438
0.6415139795899604 1.3313857740258301
0.5846913452151805 1.2713587665352033
0.471046076465621 1.1813182552992634
0.40610592289444414 1.1663115034266067
0.3736358461088557 1.1813182552992634
0.3168132117340759 1.15130475155395
0.3086956925376788 1.1212912478086368
0.24375553896650193 1.06126424031801
0.18693290459172215 1.0012372328273833
0.1463453086097366 0.9862304809547265
0.13011027021694238 1.0012372328273833
0.13011027021694238 0.9412102253367566
0.07328763584216262 0.8811832178461299
0.024582520663779955 0.8061494584828465
0.00022996307458862428 0.7311156991195631
-0.024122594514602705 0.7461224509922197
-0.024122594514602705 0.7611292028648764
-0.040357632907396926 0.7761359547375332
-0.06471019049658826 0.7161089472469064
-0.0971802672821767 0.641075187883623
-0.12965034406776513 0.6110616841383097
-0.13776786326416224 0.6260684360109664
-0.12965034406776513 0.6110616841383097
-0.10529778647857381 0.641075187883623
-0.12965034406776513 0.5810481803929963
-0.13776786326416224 0.551034676647683
-0.15400290165695646 0.506014421029713
-0.15400290165695646 0.506014421029713
-0.15400290165695646 0.5360279247750264
-0.15400290165695646 0.5210211729023696
-0.15400290165695646 0.4910076691570563
-0.16212042085335357 0.4159739097937729
-0.194590497638942 0.35594690230314624
-0.194590497638942 0.40096715792111626
-0.17023794004975068 0.4159739097937729
-0.15400290165695646 0.4459874135390863
-0.16212042085335357 0.38596040604845955
-0.1783554592461478 0.3709536541758029
-0.194590497638942 0.35594690230314624
-0.21082553603173623 0.35594690230314624
-0.194590497638942 0.40096715792111626
-0.20270801683533912 0.4459874135390863
-0.20270801683533912 0.43098066166642957
-0.22706057442453045 0.4159739097937729
-0.22706057442453045 0.3709536541758029
-0.23517809362092756 0.4159739097937729
-0.22706057442453045 0.4459874135390863
-0.22706057442453045 0.4459874135390863
-0.1864729784425449 0.47600091728439964
-0.194590497638942 0.4159739097937729
-0.22706057442453045 0.43098066166642957
-0.24329561281732467 0.4159739097937729
-0.23517809362092756 0.4910076691570563
-0.20270801683533912 0.5360279247750264
-0.194590497638942 0.506014421029713
-0.194590497638942 0.47600091728439964
-0.21894305522813334 0.47600091728439964
-0.21894305522813334 0.4910076691570563
-0.194590497638942 0.5210211729023696
-0.1783554592461478 0.551034676647683
-0.1783554592461478 0.506014421029713
-0.194590497638942 0.506014421029713
-0.22706057442453045 0.4459874135390863
-0.21082553603173623 0.46099416541174293
-0.21082553603173623 0.5210211729023696
-0.194590497638942 0.4910076691570563
-0.1864729784425449 0.47600091728439964
-0.194590497638942 0.4459874135390863
-0.21894305522813334 0.4159739097937729
-0.21894305522813334 0.46099416541174293
-0.21894305522813334 0.47600091728439964
-0.20270801683533912 0.5210211729023696
-0.194590497638942 0.4910076691570563
-0.23517809362092756 0.46099416541174293
-0.23517809362092756 0.43098066166642957
-0.21082553603173623 0.43098066166642957
-0.1864729784425449 0.46099416541174293
-0.17023794004975068 0.46099416541174293
-0.1783554592461478 0.43098066166642957
-0.21082553603173623 0.40096715792111626
-0.23517809362092756 0.3709536541758029
-0.2514131320137218 0.34094015043048953
-0.23517809362092756 0.34094015043048953
-0.21894305522813334 0.3709536541758029
-0.22706057442453045 0.35594690230314624
-0.2514131320137218 0.26590639106720615
-0.27576568960291314 0.2508996391945495
-0.2595306512101189 0.2508996391945495
-0.2595306512101189 0.2959198948125195
-0.2595306512101189 0.3259333985578329
-0.2514131320137218 0.2959198948125195
-0.267648170406516 0.2508996391945495
-0.30011824719210445 0.22088613544923613
-0.2920007279957073 0.2358928873218928
-0.30011824719210445 0.28091314293986286
-0.23517809362092756 0.3259333985578329
-0.2595306512101189 0.31092664668517617
-0.2514131320137218 0.2959198948125195
-0.2514131320137218 0.26590639106720615
-0.24329561281732467 0.2959198948125195
-0.22706057442453045 0.31092664668517617
-0.20270801683533912 0.31092664668517617
-0.20270801683533912 0.34094015043048953
-0.1864729784425449 0.34094015043048953
-0.21894305522813334 0.34094015043048953
-0.23517809362092756 0.3709536541758029
-0.21082553603173623 0.38596040604845955
-0.1783554592461478 0.38596040604845955
-0.1783554592461478 0.3709536541758029
-0.194590497638942 0.3259333985578329
-0.194590497638942 0.3259333985578329
-0.194590497638942 0.34094015043048953
-0.1864729784425449 0.3709536541758029
-0.194590497638942 0.3709536541758029
-0.194590497638942 0.35594690230314624
-0.1783554592461478 0.3259333985578329
-0.1783554592461478 0.31092664668517617
-0.194590497638942 0.31092664668517617
-0.1783554592461478 0.35594690230314624
-0.16212042085335357 0.38596040604845955
-0.17023794004975068 0.35594690230314624
-0.21082553603173623 0.28091314293986286
-0.21894305522813334 0.28091314293986286
-0.21082553603173623 0.2508996391945495
-0.194590497638942 0.3259333985578329
-0.16212042085335357 0.31092664668517617
-0.12153282487136803 0.26590639106720615
-0.14588538246055935 0.2508996391945495
-0.1783554592461478 0.1908726317039228
-0.21082553603173623 0.1908726317039228
-0.1864729784425449 0.26590639106720615
-0.15400290165695646 0.2358928873218928
-0.14588538246055935 0.20587938357657945
-0.1783554592461478 0.1308456242132961
-0.194590497638942 0.1308456242132961
-0.194590497638942 0.1308456242132961
-0.17023794004975068 0.1908726317039228
-0.15400290165695646 0.1908726317039228
-0.16212042085335357 0.17586587983126611
-0.1783554592461478 0.1158388723406394
-0.21082553603173623 0.07081861672266938
-0.21082553603173623 0.08582536859532605
-0.1783554592461478 0.1308456242132961
-0.12965034406776513 0.14585237608595275
-0.12965034406776513 0.16085912795860943
-0.15400290165695646 0.10083212046798273
-0.12965034406776513 0.10083212046798273
-0.07282770969298537 0.14585237608595275
0.024582520663779955 0.1308456242132961
0.1463453086097366 0.16085912795860943
0.43045848048363544 0.040805112977356034
0.9662147474458447 0.025798361104699356
1.656203879139599 0.040805112977356034
2.2731353380657793 0.05581186485001271
2.4273682027973247 -0.004215142640613995
2.15949006931622 -0.21430966885780744
1.8266717822639384 -0.5894784656742244
1.6074987639612164 -1.294795803689088
1.493853495211657 -2.2552279235391155
1.3964432648548915 -3.095606028407889
1.3152680728909205 -3.425754569606336
1.1853877657485667 -3.1556330358985156
1.0473899394098158 -2.735443983464129
0.9012745938746678 -2.5253494572469353
0.7145716523575343 -2.4203021941383387
0.5359862300367979 -2.360275186647712
0.36551832691245856 -2.2252144197938017
0.2194029813773106 -2.1501806604305185
0.024582520663779955 -2.165187412303175
-0.1783554592461478 -2.1501806604305185
-0.40564599674526686 -2.1501806604305185
-0.6085839766551946 -2.180194164175832
-0.7871693989759311 -2.135173908557862
-0.9738723404930646 -2.1501806604305185
-1.152457762813801 -2.1952009160484884
-1.3959833387057143 -2.2402211716664584
-1.6232738762048333 -2.3302616829023988
-1.8424468945075554 -2.285241427284429
-2.0129147976318946 -2.2552279235391155
-2.1509126239706458 -2.2252144197938017
-2.248322854327411 -2.3002481791570855
-2.394438199862559 -2.315254931029742
-2.524318507004913 -2.360275186647712
-2.5811411413796925 -2.360275186647712
-2.629846256558075 -2.3452684347750554
-2.646081294950869 -2.3452684347750554
-2.694786410129252 -2.4203021941383387
-2.694786410129252 -2.4203021941383387
-2.694786410129252 -2.4653224497563087
-2.629846256558075 -2.5103427053742786
-2.556788583790501 -2.540356209119592
-2.4431433150409414 -2.600383216610219
-2.3376155654877793 -2.720437231591472
-2.199617739149028 -2.810477742827412
-2.0616199128102775 -2.8705047503180388
-1.9155045672751294 -2.8705047503180388
-1.7206841065615988 -2.8404912465727254
-1.5015110882588767 -2.765457487209442
-1.3229256659381403 -2.690423727846159
-1.1930453587957865 -2.6604102241008456
-1.0956351284390213 -2.5703697128649057
-1.0225774556714473 -2.4653224497563087
-0.9576373021002703 -2.3002481791570855
-0.8926971485290934 -2.1952009160484884
-0.8196394757615195 -2.165187412303175
-0.7465818029939455 -2.075146901067235
-0.6735241302263715 -2.0151198935766086
-0.5679963806732091 -1.850045622977385
-0.44623359272725244 -1.6999781042508184
-0.3488233623704871 -1.4898835780336248
-0.22706057442453045 -1.3248093074344014
-0.15400290165695646 -1.1747417887078346
-0.08094522888938248 -1.0546877737265812
0.03270003986017706 -0.8595999993820445
0.12199275102054527 -0.6344987212921943
0.20316794298451638 -0.45441769882031424
0.27622561575209037 -0.34937043571171755
0.3005781733412817 -0.16928941323983743
0.32493073093047303 -0.07924890200389736
0.36551832691245856 0.025798361104699356
0.40610592289444414 0.14585237608595275
0.4548110380728268 0.2508996391945495
0.4791635956620181 0.3259333985578329
0.4791635956620181 0.31092664668517617
0.471046076465621 0.40096715792111626
0.4953986340548123 0.43098066166642957
0.4953986340548123 0.506014421029713
0.5278687108404008 0.506014421029713
0.5197511916440036 0.4910076691570563
0.5035161532512095 0.47600091728439964
0.5035161532512095 0.4910076691570563
0.5278687108404008 0.506014421029713
0.5603387876259892 0.5210211729023696
0.6090439028043719 0.5360279247750264
0.6090439028043719 0.5210211729023696
0.5928088644115777 0.506014421029713
0.5603387876259892 0.4910076691570563
0.5684563068223863 0.5360279247750264
0.6090439028043719 0.6110616841383097
0.6496314987863574 0.641075187883623
0.6739840563755488 0.596054932265653
0.6821015755719458 0.596054932265653
0.690219094768343 0.5810481803929963
0.690219094768343 0.6110616841383097
0.6983366139647401 0.686095443501593
0.7470417291431227 0.7161089472469064
0.7795118059287112 0.686095443501593
0.771394286732314 0.6560819397562797
0.763276767535917 0.6710886916289364
0.7957468443215054 0.7011021953742498
0.8038643635179025 0.7911427066101898
0.8525694786962852 0.8511697141008165
0.8769220362854765 0.8511697141008165
0.8931570746782708 0.8211562103555031
0.8688045170890794 0.8211562103555031
0.8931570746782708 0.8511697141008165
0.9256271514638592 0.8961899697187865
1.0068023434278304 0.9412102253367566
1.0311549010170216 0.9111967215914432
1.0392724202134187 0.8811832178461299
1.0473899394098158 0.8961899697187865
1.0717424969990073 0.9862304809547265
1.1204476121773899 1.0462574884453533
1.1772702465521696 1.0762709921906666
1.209740323337758 1.0912777440633232
1.2259753617305522 1.0462574884453533
1.2422104001233465 1.0462574884453533
1.2746804769089348 1.0912777440633232
1.3477381496765088 1.1663115034266067
1.3883257456584945 1.2113317590445767
1.4207958224440829 1.19632500717192
1.42891334164048 1.2113317590445767
1.4613834184260683 1.2113317590445767
1.4695009376224655 1.24134526278989
1.493853495211657 1.3463925258984868
1.5182060528008483 1.3463925258984868
1.566911167979231 1.3914127815164568
1.5993812447648192 1.3463925258984868
1.5993812447648192 1.3163790221531735
1.6156162831576135 1.3313857740258301
1.6643213983359961 1.4064195333891134
1.6967914751215847 1.436433037134427
1.6967914751215847 1.436433037134427
1.6886739559251875 1.4064195333891134
1.6967914751215847 1.4514397890070836
1.7211440327107759 1.4514397890070836
1.7454965902999673 1.5114667964977102
1.7617316286927616 1.5714938039883368
1.7698491478891587 1.5264735483703669
1.7779666670855556 1.5264735483703669
1.7536141094963644 1.5114667964977102
1.7130265135143787 1.5414803002430235
1.7536141094963644 1.5865005558609935
1.7454965902999673 1.5714938039883368
1.729261551907173 1.5564870521156802
1.6643213983359961 1.5264735483703669
1.639968840746805 1.481453292752397
1.6074987639612164 1.4964600446250536
1.6074987639612164 1.5114667964977102
1.5587936487828338 1.5714938039883368
1.501971014408054 1.4964600446250536
1.4370308608368771 1.436433037134427
1.3802082264620974 1.4064195333891134
1.3477381496765088 1.4514397890070836
1.3233855920873177 1.481453292752397
1.2990330344981262 1.481453292752397
1.217857842534155 1.42142628526177
1.1366826505701841 1.3463925258984868
1.0149198626242273 1.2863655184078602
0.9499797090530505 1.2713587665352033
0.9175096322674621 1.2563520146625466
0.8850395554818736 1.2563520146625466
0.844451959499888 1.2113317590445767
0.763276767535917 1.1362979996812934
0.6821015755719458 1.0762709921906666
0.617161422000769 1.06126424031801
0.5846913452151805 1.0912777440633232
0.5359862300367979 1.06126424031801
0.5278687108404008 0.9712237290820699
0.4548110380728268 0.9262034734640999
0.397988403698047 0.8211562103555031
0.32493073093047303 0.8211562103555031
0.3086956925376788 0.8511697141008165
0.26810809655569323 0.7911427066101898
0.23563801977010482 0.7461224509922197
0.21128546218091349 0.6560819397562797
0.16258034700253082 0.6110616841383097
0.1544628278061337 0.596054932265653
0.1463453086097366 0.6110616841383097
0.1544628278061337 0.6110616841383097
0.13011027021694238 0.5660414285203397
0.10575771262775105 0.4910076691570563
0.04081755905657417 0.46099416541174293
0.03270003986017706 0.4459874135390863
0.04893507825297128 0.47600091728439964
0.09764019343135394 0.5360279247750264
0.08140515503855972 0.5210211729023696
0.04893507825297128 0.46099416541174293
0.03270003986017706 0.43098066166642957
0.04081755905657417 0.4159739097937729
0.06517011664576551 0.38596040604845955
0.10575771262775105 0.40096715792111626
0.06517011664576551 0.35594690230314624
0.04893507825297128 0.26590639106720615
0.04893507825297128 0.28091314293986286
0.05705259744936839 0.31092664668517617
0.05705259744936839 0.3259333985578329
0.10575771262775105 0.34094015043048953
0.08140515503855972 0.28091314293986286
0.06517011664576551 0.2508996391945495
0.04893507825297128 0.1908726317039228
0.06517011664576551 0.20587938357657945
0.09764019343135394 0.2358928873218928
0.09764019343135394 0.2508996391945495
0.10575771262775105 0.2508996391945495
0.08140515503855972 0.20587938357657945
0.07328763584216262 0.17586587983126611
0.07328763584216262 0.20587938357657945
0.08140515503855972 0.2959198948125195
0.13011027021694238 0.2959198948125195
0.09764019343135394 0.2358928873218928
0.08952267423495683 0.22088613544923613
0.05705259744936839 0.2358928873218928
0.04081755905657417 0.2508996391945495
0.05705259744936839 0.34094015043048953
0.05705259744936839 0.34094015043048953
0.05705259744936839 0.3259333985578329
0.024582520663779955 0.3259333985578329
-0.007887556121808486 0.26590639106720615
0.016465001467382844 0.28091314293986286
0.03270003986017706 0.3709536541758029
0.016465001467382844 0.4159739097937729
0.03270003986017706 0.35594690230314624
0.016465001467382844 0.35594690230314624
0.00022996307458862428 0.3259333985578329
-0.032240113710999815 0.3259333985578329
-0.007887556121808486 0.43098066166642957
0.008347482270985734 0.46099416541174293
0.016465001467382844 0.43098066166642957
-0.016005075318205594 0.40096715792111626
-0.024122594514602705 0.38596040604845955
-0.048475152103794036 0.40096715792111626
-0.032240113710999815 0.43098066166642957
-0.024122594514602705 0.43098066166642957
-0.032240113710999815 0.40096715792111626
-0.040357632907396926 0.38596040604845955
-0.05659267130019115 0.35594690230314624
-0.05659267130019115 0.3709536541758029
-0.040357632907396926 0.40096715792111626
-0.048475152103794036 0.4159739097937729
-0.048475152103794036 0.38596040604845955
-0.06471019049658826 0.35594690230314624
-0.07282770969298537 0.2959198948125195
-0.06471019049658826 0.2959198948125195
-0.048475152103794036 0.31092664668517617
-0.024122594514602705 0.31092664668517617
-0.032240113710999815 0.26590639106720615
-0.040357632907396926 0.22088613544923613
-0.040357632907396926 0.1908726317039228
-0.040357632907396926 0.1908726317039228
-0.05659267130019115 0.1908726317039228
-0.024122594514602705 0.2358928873218928
-0.024122594514602705 0.1908726317039228
-0.040357632907396926 0.16085912795860943
-0.06471019049658826 0.1308456242132961
-0.08094522888938248 0.17586587983126611
-0.08094522888938248 0.17586587983126611
-0.07282770969298537 0.20587938357657945
-0.07282770969298537 0.20587938357657945
-0.0971802672821767 0.14585237608595275
-0.10529778647857381 0.14585237608595275
-0.11341530567497092 0.1908726317039228
-0.0971802672821767 0.20587938357657945
-0.06471019049658826 0.2358928873218928
-0.048475152103794036 0.2358928873218928
-0.040357632907396926 0.20587938357657945
-0.032240113710999815 0.17586587983126611
-0.032240113710999815 0.1908726317039228
-0.016005075318205594 0.2508996391945495
-0.007887556121808486 0.28091314293986286
-0.016005075318205594 0.2508996391945495
-0.032240113710999815 0.2358928873218928
-0.05659267130019115 0.22088613544923613
-0.048475152103794036 0.26590639106720615
-0.048475152103794036 0.26590639106720615
-0.040357632907396926 0.2959198948125195
-0.040357632907396926 0.28091314293986286
-0.032240113710999815 0.2508996391945495
-0.07282770969298537 0.2358928873218928
-0.048475152103794036 0.2508996391945495
-0.040357632907396926 0.28091314293986286
-0.007887556121808486 0.31092664668517617
0.008347482270985734 0.31092664668517617
-0.007887556121808486 0.26590639106720615
-0.048475152103794036 0.26590639106720615
-0.05659267130019115 0.28091314293986286
-0.048475152103794036 0.3259333985578329
-0.024122594514602705 0.3259333985578329
-0.007887556121808486 0.26590639106720615
-0.024122594514602705 0.2358928873218928
-0.048475152103794036 0.1908726317039228
-0.040357632907396926 0.2358928873218928
-0.048475152103794036 0.26590639106720615
0.00022996307458862428 0.28091314293986286
0.024582520663779955 0.26590639106720615
-0.007887556121808486 0.1908726317039228
-0.040357632907396926 0.1308456242132961
-0.040357632907396926 0.16085912795860943
0.00022996307458862428 0.1908726317039228
0.03270003986017706 0.1908726317039228
0.03270003986017706 0.16085912795860943
0.03270003986017706 0.1308456242132961
0.008347482270985734 0.07081861672266938
0.008347482270985734 0.08582536859532605
0.008347482270985734 0.10083212046798273
0.04081755905657417 0.1158388723406394
0.04893507825297128 0.07081861672266938
0.04081755905657417 0.01079160923204268
0.04081755905657417 0.01079160923204268
0.04893507825297128 0.01079160923204268
0.08952267423495683 0.10083212046798273
0.13011027021694238 0.05581186485001271
0.17069786619892793 0.05581186485001271
0.25999057735929615 0.01079160923204268
0.5197511916440036 -0.03422864638592735
1.0879775353918013 0.040805112977356034
1.8591418590495268 0.05581186485001271
2.459838279582913 0.025798361104699356
2.5734835483324727 -0.04923539825858402
2.2893703764585736 -0.25932992447577746
1.9240820126207037 -0.604485217546881
1.7049089943179818 -1.1297215330898647
1.6156162831576135 -2.000113141703952
1.5425586103900395 -2.885511502190696
1.42891334164048 -3.3057005546250826
1.282797996105332 -3.140626284025859
1.1204476121773899 -2.7954709909547555
0.9662147474458447 -2.5253494572469353
0.8200994019106967 -2.3752819385203687
0.6333964603935632 -2.285241427284429
0.42234096128723836 -2.2252144197938017
0.2275205005737077 -2.210207667921145
0.00022996307458862428 -2.2252144197938017
-0.20270801683533912 -2.1952009160484884
-0.36505840076328133 -2.1501806604305185
-0.5436438230840177 -2.1501806604305185
-0.7222292454047542 -2.180194164175832
-0.9414022637074762 -2.285241427284429
-1.1849278395993894 -2.315254931029742
-1.3959833387057143 -2.3002481791570855
-1.5989213186156421 -2.285241427284429
-1.728801625757996 -2.2252144197938017
-1.8992695288823351 -2.2552279235391155
-2.0697374320066744 -2.3752819385203687
-2.199617739149028 -2.3752819385203687
-2.3132630078985876 -2.405295442265682
-2.426908276648147 -2.405295442265682
-2.4918484302193242 -2.4203021941383387
-2.548671064594104 -2.4653224497563087
-2.597376179772487 -2.5703697128649057
-2.621728737361678 -2.5703697128649057
-2.6379637757544723 -2.600383216610219
-2.573023622183295 -2.6303967203555323
-2.499965949415721 -2.690423727846159
-2.394438199862559 -2.7954709909547555
-2.3700856422733674 -2.960545261553979
-2.272675411916602 -3.050585772789919
-2.1427951047742484 -3.1256195321532023
-1.9398571248643206 -3.1706397877711723
-1.7125665873652016 -3.1556330358985156
-1.5096286074552738 -3.1556330358985156
-1.3391607043309346 -3.1256195321532023
-1.1930453587957865 -3.050585772789919
-1.1199876860282125 -2.930531757808666
-1.07128257084983 -2.7954709909547555
-1.0144599364750502 -2.6604102241008456
-0.933284744511079 -2.5853764647375623
-0.8764621101362993 -2.5553629609922486
-0.8034044373687252 -2.450315697883652
-0.6816416494227686 -2.270234675411772
-0.5679963806732091 -2.090153652939892
-0.4543511119236495 -1.9250793823406684
-0.3569408815668842 -1.7449983598687884
-0.24329561281732467 -1.624944344887535
-0.15400290165695646 -1.4748768261609682
-0.048475152103794036 -1.2197620443258046
0.04893507825297128 -1.0096675181086112
0.18693290459172215 -0.8145797437640745
0.25999057735929615 -0.6344987212921943
0.28434313494848745 -0.5294514581835976
0.34116576932326725 -0.34937043571171755
0.3898708845016499 -0.1842961651124941
0.44669351887642966 -0.004215142640613995
0.44669351887642966 0.14585237608595275
0.5035161532512095 0.2358928873218928
0.5197511916440036 0.31092664668517617
0.5197511916440036 0.35594690230314624
0.5359862300367979 0.40096715792111626
0.5765738260187835 0.5210211729023696
0.617161422000769 0.5810481803929963
0.6333964603935632 0.5660414285203397
0.6090439028043719 0.596054932265653
0.5846913452151805 0.551034676647683
0.6252789411971661 0.596054932265653
0.6333964603935632 0.6560819397562797
0.6658665371791517 0.6560819397562797
0.6577490179827545 0.6560819397562797
0.6496314987863574 0.686095443501593
0.6577490179827545 0.641075187883623
0.6658665371791517 0.641075187883623
0.690219094768343 0.6560819397562797
0.7226891715539314 0.686095443501593
0.7145716523575343 0.686095443501593
0.7389242099467256 0.6710886916289364
0.7145716523575343 0.641075187883623
0.7389242099467256 0.686095443501593
0.763276767535917 0.7311156991195631
0.8119818827142996 0.7311156991195631
0.8363344403034909 0.7761359547375332
0.8282169211070939 0.7311156991195631
0.8038643635179025 0.7161089472469064
0.844451959499888 0.7611292028648764
0.8688045170890794 0.7761359547375332
0.9175096322674621 0.8811832178461299
0.9175096322674621 0.8061494584828465
0.9499797090530505 0.8361629622281598
0.9256271514638592 0.8211562103555031
0.9499797090530505 0.8361629622281598
0.9743322666422418 0.8811832178461299
1.0311549010170216 0.8811832178461299
1.055507458606213 0.8511697141008165
1.0798600161954042 0.8511697141008165
1.0717424969990073 0.8961899697187865
1.1123300929809927 0.8961899697187865
1.1610352081593753 0.9262034734640999
1.2340928809269494 0.9712237290820699
1.2503279193197436 0.9562169772094132
1.2340928809269494 0.9862304809547265
1.2340928809269494 0.9712237290820699
1.2503279193197436 1.0462574884453533
1.3233855920873177 1.1062844959359799
1.3639731880693031 1.1813182552992634
1.3964432648548915 1.1813182552992634
1.42891334164048 1.1663115034266067
1.3964432648548915 1.19632500717192
1.4207958224440829 1.2713587665352033
1.4695009376224655 1.3463925258984868
1.5344410911936424 1.3764060296438
1.5587936487828338 1.4064195333891134
1.5587936487828338 1.4064195333891134
1.566911167979231 1.436433037134427
1.5831462063720252 1.5114667964977102
1.6237338023540107 1.5714938039883368
1.6805564367287904 1.5714938039883368
1.729261551907173 1.616514059606307
1.7130265135143787 1.5564870521156802
1.7049089943179818 1.5865005558609935
1.6805564367287904 1.6465275633516203
1.7211440327107759 1.6915478189695903
1.7454965902999673 1.7365680745875602
1.7536141094963644 1.7215613227149036
1.6967914751215847 1.6915478189695903
1.6805564367287904 1.706554570842247
1.6643213983359961 1.7215613227149036
1.6643213983359961 1.7665815783328738
1.656203879139599 1.796595082078187
1.656203879139599 1.796595082078187
1.639968840746805 1.796595082078187
1.5993812447648192 1.7215613227149036
1.5506761295864366 1.7365680745875602
1.5344410911936424 1.8266085858235004
1.5182060528008483 1.841615337696157
1.4695009376224655 1.796595082078187
1.4207958224440829 1.706554570842247
1.3477381496765088 1.6465275633516203
1.290915515301729 1.661534315224277
1.217857842534155 1.661534315224277
1.1935052849449639 1.6315208114789637
1.1042125737845956 1.5564870521156802
1.0392724202134187 1.4664465408797402
0.9580972282494477 1.436433037134427
0.8931570746782708 1.3764060296438
0.8688045170890794 1.3613992777711434
0.8363344403034909 1.2863655184078602
0.7957468443215054 1.2263385109172333
0.7226891715539314 1.1663115034266067
0.6333964603935632 1.06126424031801
0.6009263836079748 1.01624398470004
0.5603387876259892 1.01624398470004
0.5359862300367979 0.9712237290820699
0.48728111485841524 0.8961899697187865
0.44669351887642966 0.8061494584828465
0.3736358461088557 0.7761359547375332
0.34928328851966434 0.7761359547375332
0.3168132117340759 0.7911427066101898
0.32493073093047303 0.7311156991195631
0.3086956925376788 0.6710886916289364
0.28434313494848745 0.641075187883623
0.2275205005737077 0.596054932265653
0.2194029813773106 0.5810481803929963
0.20316794298451638 0.6260684360109664
0.17069786619892793 0.5810481803929963
0.17069786619892793 0.5210211729023696
0.12199275102054527 0.4910076691570563
0.11387523182414816 0.4459874135390863
0.09764019343135394 0.4459874135390863
0.12199275102054527 0.47600091728439964
0.1382277894133395 0.4910076691570563
0.11387523182414816 0.47600091728439964
0.10575771262775105 0.4159739097937729
0.09764019343135394 0.3709536541758029
0.10575771262775105 0.40096715792111626
0.11387523182414816 0.4159739097937729
0.1463453086097366 0.4459874135390863
0.1544628278061337 0.4159739097937729
0.13011027021694238 0.40096715792111626
0.1382277894133395 0.38596040604845955
0.08140515503855972 0.4159739097937729
0.11387523182414816 0.46099416541174293
0.1463453086097366 0.47600091728439964
0.1382277894133395 0.46099416541174293
0.1463453086097366 0.43098066166642957
0.13011027021694238 0.4159739097937729
0.10575771262775105 0.40096715792111626
0.13011027021694238 0.4159739097937729
0.1463453086097366 0.4459874135390863
0.1544628278061337 0.43098066166642957
0.1544628278061337 0.4159739097937729
0.12199275102054527 0.40096715792111626
0.10575771262775105 0.43098066166642957
0.09764019343135394 0.4159739097937729
0.12199275102054527 0.4459874135390863
0.08952267423495683 0.40096715792111626
0.07328763584216262 0.3709536541758029
0.08952267423495683 0.35594690230314624
0.09764019343135394 0.35594690230314624
0.11387523182414816 0.40096715792111626
0.12199275102054527 0.40096715792111626
0.12199275102054527 0.38596040604845955
0.10575771262775105 0.3709536541758029
0.08952267423495683 0.3709536541758029
0.08952267423495683 0.38596040604845955
0.09764019343135394 0.43098066166642957
0.11387523182414816 0.4459874135390863
0.08140515503855972 0.38596040604845955
0.09764019343135394 0.34094015043048953
0.04893507825297128 0.34094015043048953
0.04081755905657417 0.34094015043048953
0.07328763584216262 0.4159739097937729
0.08140515503855972 0.4159739097937729
0.05705259744936839 0.40096715792111626
0.03270003986017706 0.35594690230314624
0.024582520663779955 0.3259333985578329
-0.007887556121808486 0.3259333985578329
0.016465001467382844 0.38596040604845955
0.024582520663779955 0.43098066166642957
0.016465001467382844 0.3709536541758029
-0.007887556121808486 0.3259333985578329
-0.032240113710999815 0.2959198948125195
-0.040357632907396926 0.2959198948125195
-0.007887556121808486 0.3259333985578329
0.008347482270985734 0.34094015043048953
0.008347482270985734 0.31092664668517617
-0.007887556121808486 0.2959198948125195
-0.016005075318205594 0.26590639106720615
-0.007887556121808486 0.2959198948125195
0.008347482270985734 0.3259333985578329
0.04893507825297128 0.3259333985578329
0.04081755905657417 0.28091314293986286
0.04081755905657417 0.28091314293986286
0.00022996307458862428 0.26590639106720615
-0.007887556121808486 0.2508996391945495
0.016465001467382844 0.31092664668517617
0.03270003986017706 0.31092664668517617
0.024582520663779955 0.2508996391945495
-0.007887556121808486 0.22088613544923613
-0.048475152103794036 0.1908726317039228
-0.040357632907396926 0.2358928873218928
0.008347482270985734 0.2508996391945495
0.04081755905657417 0.28091314293986286
0.04081755905657417 0.2508996391945495
0.016465001467382844 0.20587938357657945
0.024582520663779955 0.17586587983126611
0.016465001467382844 0.2358928873218928
0.024582520663779955 0.2508996391945495
0.04081755905657417 0.26590639106720615
0.03270003986017706 0.20587938357657945
0.00022996307458862428 0.20587938357657945
-0.007887556121808486 0.16085912795860943
0.00022996307458862428 0.2358928873218928
0.016465001467382844 0.2959198948125195
0.024582520663779955 0.2959198948125195
0.016465001467382844 0.2508996391945495
0.008347482270985734 0.2508996391945495
0.008347482270985734 0.20587938357657945
0.016465001467382844 0.26590639106720615
0.024582520663779955 0.28091314293986286
0.03270003986017706 0.26590639106720615
0.03270003986017706 0.26590639106720615
-0.016005075318205594 0.2508996391945495
0.00022996307458862428 0.22088613544923613
-0.024122594514602705 0.2508996391945495
0.008347482270985734 0.28091314293986286
0.04081755905657417 0.28091314293986286
0.04893507825297128 0.2508996391945495
0.04893507825297128 0.22088613544923613
0.03270003986017706 0.1908726317039228
0.024582520663779955 0.2508996391945495
0.04893507825297128 0.2358928873218928
0.06517011664576551 0.28091314293986286
0.05705259744936839 0.2508996391945495
0.04081755905657417 0.20587938357657945
0.016465001467382844 0.1908726317039228
0.016465001467382844 0.17586587983126611
0.04893507825297128 0.20587938357657945
0.06517011664576551 0.20587938357657945
0.06517011664576551 0.14585237608595275
0.04081755905657417 0.1158388723406394
0.04893507825297128 0.10083212046798273
0.04081755905657417 0.1158388723406394
0.08952267423495683 0.14585237608595275
0.13011027021694238 0.14585237608595275
0.1463453086097366 0.10083212046798273
0.17069786619892793 0.08582536859532605
0.251873058162899 0.025798361104699356
0.5197511916440036 0.040805112977356034
1.1123300929809927 0.07081861672266938
1.8916119358351153 0.07081861672266938
2.4192506836009273 0.040805112977356034
2.443603241190119 -0.1242691576218674
2.1107849541378374 -0.3043501800937475
1.7860841862819528 -0.6495054731648511
1.639968840746805 -1.2797890518164314
1.5506761295864366 -2.210207667921145
1.4451483800332743 -3.095606028407889
1.2665629577125377 -3.245673547134456
1.0798600161954042 -2.960545261553979
0.9256271514638592 -2.600383216610219
0.7795118059287112 -2.4203021941383387
0.6415139795899604 -2.360275186647712
0.42234096128723836 -2.3002481791570855
0.18693290459172215 -2.270234675411772
-0.05659267130019115 -2.270234675411772
-0.27576568960291314 -2.1952009160484884
-0.4949387079056351 -2.135173908557862
-0.7384642837975484 -2.1501806604305185
-0.9495197829038733 -2.1952009160484884
-1.2011628779921837 -2.270234675411772
-1.4609234922768912 -2.3002481791570855
-1.6882140297760102 -2.315254931029742
-1.8667994520967466 -2.2552279235391155
-1.9966797592391003 -2.2552279235391155
-2.1590301431670427 -2.315254931029742
-2.2970279695057934 -2.360275186647712
-2.4350257958445445 -2.4203021941383387
-2.5405535453977066 -2.4203021941383387
-2.597376179772487 -2.405295442265682
-2.646081294950869 -2.450315697883652
-2.6785513717364577 -2.4653224497563087
-2.6704338525400604 -2.5703697128649057
-2.629846256558075 -2.600383216610219
-2.548671064594104 -2.645403472228189
-2.4431433150409414 -2.6754169759735023
-2.329498046291382 -2.7504507353367855
-2.1915002199526312 -2.9005182540633525
-2.037267355221086 -3.005565517171949
-1.8586819329003497 -3.0655925246625757
-1.6232738762048333 -3.095606028407889
-1.3635132619201258 -3.0205722690446057
-1.1686928012065951 -2.9905587652992924
-1.0550475324570356 -2.915525005936009
-1.0225774556714473 -2.8404912465727254
-1.0144599364750502 -2.735443983464129
-0.9414022637074762 -2.6754169759735023
-0.860227071743505 -2.5103427053742786
-0.7141117262083571 -2.4203021941383387
-0.6004664574587976 -2.360275186647712
-0.47058615031644374 -2.2252144197938017
-0.4381160735308553 -2.075146901067235
-0.31635328558489867 -1.8800591267226985
-0.1783554592461478 -1.714984856123475
-0.040357632907396926 -1.4748768261609682
0.09764019343135394 -1.2797890518164314
0.16258034700253082 -1.0997080293445514
0.2275205005737077 -0.8595999993820445
0.28434313494848745 -0.694525728782821
0.3817533653052528 -0.46942445069297095
0.44669351887642966 -0.2893434282210908
0.471046076465621 -0.15428266136718075
0.5116336724476066 -0.01922189451327067
0.5197511916440036 0.05581186485001271
0.5197511916440036 0.1908726317039228
0.5765738260187835 0.3259333985578329
0.617161422000769 0.40096715792111626
0.6252789411971661 0.46099416541174293
0.6252789411971661 0.46099416541174293
0.6333964603935632 0.46099416541174293
0.6333964603935632 0.506014421029713
0.6577490179827545 0.5660414285203397
0.690219094768343 0.5810481803929963
0.690219094768343 0.6260684360109664
0.6739840563755488 0.551034676647683
0.6577490179827545 0.5210211729023696
0.6983366139647401 0.551034676647683
0.7145716523575343 0.6110616841383097
0.7551592483395199 0.641075187883623
0.7876293251251083 0.5810481803929963
0.771394286732314 0.596054932265653
0.7795118059287112 0.5810481803929963
0.7957468443215054 0.596054932265653
0.8038643635179025 0.686095443501593
0.8363344403034909 0.7161089472469064
0.844451959499888 0.7011021953742498
0.8282169211070939 0.7011021953742498
0.8363344403034909 0.686095443501593
0.8606869978926823 0.7311156991195631
0.8931570746782708 0.7761359547375332
0.9256271514638592 0.8211562103555031
0.9337446706602562 0.7911427066101898
0.9175096322674621 0.7761359547375332
0.9580972282494477 0.7911427066101898
0.982449785838639 0.8511697141008165
1.0230373818206244 0.9111967215914432
1.0717424969990073 0.9412102253367566
1.0960950545881984 0.9412102253367566
1.0960950545881984 0.9412102253367566
1.128565131373787 0.9111967215914432
1.1772702465521696 0.9412102253367566
1.2340928809269494 0.9862304809547265
1.2990330344981262 1.0312507365726966
1.3396206304801117 1.0462574884453533
1.355855668872906 1.06126424031801
1.3802082264620974 1.1062844959359799
1.3883257456584945 1.15130475155395
1.4451483800332743 1.24134526278989
1.4857359760152598 1.2713587665352033
1.493853495211657 1.2713587665352033
1.5263235719972452 1.2863655184078602
1.5182060528008483 1.2713587665352033
1.5831462063720252 1.3313857740258301
1.6074987639612164 1.3613992777711434
1.6318513215504078 1.4514397890070836
1.656203879139599 1.4514397890070836
1.6724389175323933 1.436433037134427
1.6886739559251875 1.4664465408797402
1.7211440327107759 1.5114667964977102
1.7536141094963644 1.5564870521156802
1.7779666670855556 1.6015073077336504
1.7698491478891587 1.616514059606307
1.79420170547835 1.5865005558609935
1.7860841862819528 1.5865005558609935
1.7698491478891587 1.616514059606307
1.79420170547835 1.6465275633516203
1.79420170547835 1.661534315224277
1.7617316286927616 1.6765410670969336
1.729261551907173 1.661534315224277
1.6967914751215847 1.6315208114789637
1.656203879139599 1.6915478189695903
1.6724389175323933 1.7215613227149036
1.656203879139599 1.7665815783328738
1.639968840746805 1.7365680745875602
1.5831462063720252 1.6765410670969336
1.5182060528008483 1.6765410670969336
1.4776184568188626 1.6765410670969336
1.42891334164048 1.6915478189695903
1.3720907072657003 1.6915478189695903
1.3233855920873177 1.661534315224277
1.2259753617305522 1.5865005558609935
1.128565131373787 1.5264735483703669
1.0879775353918013 1.5114667964977102
1.0473899394098158 1.4964600446250536
1.0392724202134187 1.4664465408797402
0.9337446706602562 1.3764060296438
0.8688045170890794 1.3013722702805168
0.8200994019106967 1.24134526278989
0.763276767535917 1.19632500717192
0.7308066907503286 1.1663115034266067
0.6739840563755488 1.15130475155395
0.617161422000769 1.06126424031801
0.6009263836079748 1.0012372328273833
0.544103749233195 0.9712237290820699
0.4953986340548123 0.9262034734640999
0.5035161532512095 0.9712237290820699
0.4548110380728268 0.9111967215914432
0.42234096128723836 0.8211562103555031
0.36551832691245856 0.7461224509922197
0.32493073093047303 0.686095443501593
0.3330482501268701 0.7011021953742498
0.34116576932326725 0.7161089472469064
0.34116576932326725 0.7011021953742498
0.3168132117340759 0.641075187883623
0.26810809655569323 0.596054932265653
0.24375553896650193 0.551034676647683
0.23563801977010482 0.596054932265653
0.23563801977010482 0.5660414285203397
0.24375553896650193 0.5810481803929963
0.2194029813773106 0.506014421029713
0.19505042378811926 0.4910076691570563
0.1382277894133395 0.4459874135390863
0.17069786619892793 0.47600091728439964
0.17881538539532504 0.4910076691570563
0.17881538539532504 0.4910076691570563
0.18693290459172215 0.46099416541174293
0.1544628278061337 0.40096715792111626
0.12199275102054527 0.38596040604845955
0.09764019343135394 0.38596040604845955
0.10575771262775105 0.4159739097937729
0.1382277894133395 0.4459874135390863
0.12199275102054527 0.38596040604845955
0.11387523182414816 0.35594690230314624
0.08952267423495683 0.35594690230314624
0.11387523182414816 0.3709536541758029
0.13011027021694238 0.38596040604845955
0.17069786619892793 0.40096715792111626
0.16258034700253082 0.4159739097937729
0.1544628278061337 0.34094015043048953
0.10575771262775105 0.34094015043048953
0.12199275102054527 0.40096715792111626
0.1544628278061337 0.43098066166642957
0.1463453086097366 0.43098066166642957
0.17069786619892793 0.43098066166642957
0.1382277894133395 0.38596040604845955
0.12199275102054527 0.3259333985578329
0.08952267423495683 0.3709536541758029
0.11387523182414816 0.38596040604845955
0.1463453086097366 0.4159739097937729
0.1463453086097366 0.3709536541758029
0.1463453086097366 0.35594690230314624
0.12199275102054527 0.34094015043048953
0.08952267423495683 0.35594690230314624
0.11387523182414816 0.40096715792111626
0.1382277894133395 0.38596040604845955
0.12199275102054527 0.40096715792111626
0.1382277894133395 0.40096715792111626
0.10575771262775105 0.35594690230314624
0.08952267423495683 0.38596040604845955
0.09764019343135394 0.46099416541174293
0.12199275102054527 0.47600091728439964
0.08952267423495683 0.43098066166642957
0.06517011664576551 0.40096715792111626
0.008347482270985734 0.4159739097937729
0.03270003986017706 0.4159739097937729
0.07328763584216262 0.4459874135390863
0.08140515503855972 0.4459874135390863
0.08140515503855972 0.4159739097937729
0.05705259744936839 0.38596040604845955
0.04893507825297128 0.38596040604845955
0.04081755905657417 0.40096715792111626
0.06517011664576551 0.38596040604845955
0.05705259744936839 0.4159739097937729
0.04893507825297128 0.3709536541758029
0.03270003986017706 0.31092664668517617
0.00022996307458862428 0.3259333985578329
0.024582520663779955 0.3259333985578329
0.016465001467382844 0.35594690230314624
0.024582520663779955 0.34094015043048953
0.024582520663779955 0.2959198948125195
0.008347482270985734 0.2508996391945495
-0.040357632907396926 0.2358928873218928
-0.007887556121808486 0.2508996391945495
-0.007887556121808486 0.26590639106720615
0.024582520663779955 0.28091314293986286
0.04893507825297128 0.22088613544923613
0.016465001467382844 0.1908726317039228
-0.016005075318205594 0.20587938357657945
-0.016005075318205594 0.2508996391945495
-0.016005075318205594 0.26590639106720615
0.008347482270985734 0.2959198948125195
-0.007887556121808486 0.2508996391945495
-0.032240113710999815 0.22088613544923613
-0.048475152103794036 0.1908726317039228
-0.05659267130019115 0.2358928873218928
-0.024122594514602705 0.28091314293986286
0.008347482270985734 0.28091314293986286
0.024582520663779955 0.26590639106720615
-0.016005075318205594 0.22088613544923613
-0.016005075318205594 0.1908726317039228
0.00022996307458862428 0.2358928873218928
0.008347482270985734 0.2508996391945495
0.016465001467382844 0.31092664668517617
0.00022996307458862428 0.28091314293986286
0.016465001467382844 0.2508996391945495
-0.007887556121808486 0.26590639106720615
0.00022996307458862428 0.3259333985578329
0.03270003986017706 0.35594690230314624
0.04893507825297128 0.35594690230314624
0.024582520663779955 0.35594690230314624
-0.007887556121808486 0.31092664668517617
-0.040357632907396926 0.2959198948125195
-0.032240113710999815 0.3259333985578329
0.00022996307458862428 0.34094015043048953
0.016465001467382844 0.35594690230314624
0.008347482270985734 0.3259333985578329
0.00022996307458862428 0.31092664668517617
-0.048475152103794036 0.31092664668517617
-0.032240113710999815 0.3259333985578329
0.008347482270985734 0.3709536541758029
0.04893507825297128 0.34094015043048953
0.03270003986017706 0.3259333985578329
0.016465001467382844 0.26590639106720615
0.008347482270985734 0.2358928873218928
0.024582520663779955 0.26590639106720615
0.03270003986017706 0.26590639106720615
0.016465001467382844 0.2358928873218928
0.016465001467382844 0.2358928873218928
-0.007887556121808486 0.1908726317039228
-0.040357632907396926 0.17586587983126611
-0.016005075318205594 0.17586587983126611
0.008347482270985734 0.20587938357657945
0.04893507825297128 0.22088613544923613
0.06517011664576551 0.17586587983126611
0.024582520663779955 0.14585237608595275
0.04081755905657417 0.10083212046798273
0.024582520663779955 0.14585237608595275
0.05705259744936839 0.14585237608595275
0.07328763584216262 0.16085912795860943
0.08140515503855972 0.1308456242132961
0.05705259744936839 0.05581186485001271
0.10575771262775105 0.07081861672266938
0.1382277894133395 0.08582536859532605
0.3086956925376788 0.1158388723406394
0.6496314987863574 0.1308456242132961
1.2503279193197436 0.1158388723406394
1.9240820126207037 0.07081861672266938
2.313722934047765 -0.03422864638592735
2.2893703764585736 -0.10926240574921073
1.9971396853882777 -0.21430966885780744
1.7454965902999673 -0.49943795443828426
1.6156162831576135 -1.0696945255992378
1.5100885336044512 -1.940086134213325
1.3883257456584945 -2.7954709909547555
1.2503279193197436 -3.200653291516486
1.1204476121773899 -3.005565517171949
0.9986848242314331 -2.6303967203555323
0.8200994019106967 -2.405295442265682
0.6252789411971661 -2.3452684347750554
0.3898708845016499 -2.3002481791570855
0.17069786619892793 -2.180194164175832
0.008347482270985734 -2.1051604048125485
-0.1864729784425449 -2.0601401491945786
-0.40564599674526686 -2.0301266454492652
-0.6572890918335773 -2.120167156685205
-0.9008146677254906 -2.120167156685205
-1.144340243617404 -2.135173908557862
-1.3878658195093172 -2.135173908557862
-1.6151563570084362 -2.1952009160484884
-1.8424468945075554 -2.1501806604305185
-2.05350239361388 -2.2252144197938017
-2.248322854327411 -2.2552279235391155
-2.402555719058956 -2.210207667921145
-2.524318507004913 -2.2252144197938017
-2.6054936989688837 -2.2402211716664584
-2.694786410129252 -2.315254931029742
-2.7840791212896203 -2.3452684347750554
-2.8327842364680027 -2.405295442265682
-2.8327842364680027 -2.3452684347750554
-2.8165491980752084 -2.360275186647712
-2.719138967718443 -2.3452684347750554
-2.6379637757544723 -2.450315697883652
-2.5405535453977066 -2.5253494572469353
-2.4431433150409414 -2.6303967203555323
-2.2970279695057934 -2.6604102241008456
-2.0940899895958656 -2.690423727846159
-1.8667994520967466 -2.735443983464129
-1.6313913954012305 -2.735443983464129
-1.4041008579021115 -2.780464239082099
-1.2823380699561548 -2.690423727846159
-1.1605752820101982 -2.5553629609922486
-1.0469300132606385 -2.4203021941383387
-1.006342417278653 -2.3002481791570855
-0.9008146677254906 -2.2402211716664584
-0.7790518797795339 -2.1952009160484884
-0.6735241302263715 -2.120167156685205
-0.5679963806732091 -1.9550928860859818
-0.4381160735308553 -1.805025367359415
-0.30011824719210445 -1.624944344887535
-0.21082553603173623 -1.4748768261609682
-0.12153282487136803 -1.294795803689088
-0.040357632907396926 -1.114714781217208
0.016465001467382844 -0.9196270068726712
0.17881538539532504 -0.694525728782821
0.25999057735929615 -0.514444706310941
0.3005781733412817 -0.3643771875843742
0.3330482501268701 -0.21430966885780744
0.34116576932326725 -0.1242691576218674
0.3898708845016499 0.07081861672266938
0.4629285572692239 0.17586587983126611
0.5522212684295921 0.28091314293986286
0.5684563068223863 0.34094015043048953
0.5846913452151805 0.3709536541758029
0.5846913452151805 0.4159739097937729
0.5928088644115777 0.4910076691570563
0.6090439028043719 0.5360279247750264
0.6577490179827545 0.596054932265653
0.6577490179827545 0.596054932265653
0.6415139795899604 0.5810481803929963
0.6333964603935632 0.5660414285203397
0.6252789411971661 0.596054932265653
0.6739840563755488 0.6260684360109664
0.690219094768343 0.6260684360109664
0.6739840563755488 0.596054932265653
0.6983366139647401 0.5660414285203397
0.6821015755719458 0.6110616841383097
0.6821015755719458 0.6110616841383097
0.7308066907503286 0.6710886916289364
0.7957468443215054 0.686095443501593
0.8038643635179025 0.641075187883623
0.7957468443215054 0.6710886916289364
0.7876293251251083 0.641075187883623
0.7957468443215054 0.6710886916289364
0.844451959499888 0.7011021953742498
0.8850395554818736 0.7311156991195631
0.9012745938746678 0.7611292028648764
0.8769220362854765 0.6710886916289364
0.9093921130710649 0.7161089472469064
0.9418621898566534 0.7611292028648764
0.982449785838639 0.8211562103555031
1.0392724202134187 0.8511697141008165
1.0230373818206244 0.8211562103555031
1.0392724202134187 0.8061494584828465
1.055507458606213 0.8211562103555031
1.0960950545881984 0.8361629622281598
1.128565131373787 0.8961899697187865
1.1853877657485667 0.9412102253367566
1.2340928809269494 0.9262034734640999
1.2503279193197436 0.9712237290820699
1.2665629577125377 0.9862304809547265
1.3152680728909205 1.0762709921906666
1.355855668872906 1.1062844959359799
1.4045607840512886 1.1813182552992634
1.4370308608368771 1.1813182552992634
1.4776184568188626 1.1813182552992634
1.4695009376224655 1.2113317590445767
1.501971014408054 1.24134526278989
1.5425586103900395 1.3013722702805168
1.6237338023540107 1.3313857740258301
1.639968840746805 1.3463925258984868
1.656203879139599 1.3613992777711434
1.6724389175323933 1.3613992777711434
1.6886739559251875 1.3914127815164568
1.7211440327107759 1.4514397890070836
1.7779666670855556 1.4964600446250536
1.7860841862819528 1.4964600446250536
1.7779666670855556 1.4664465408797402
1.7698491478891587 1.4964600446250536
1.79420170547835 1.5114667964977102
1.802319224674747 1.5564870521156802
1.8510243398531296 1.5714938039883368
1.8266717822639384 1.5564870521156802
1.7779666670855556 1.5414803002430235
1.7617316286927616 1.5564870521156802
1.7211440327107759 1.5865005558609935
1.7130265135143787 1.661534315224277
1.729261551907173 1.6915478189695903
1.6967914751215847 1.6465275633516203
1.6643213983359961 1.616514059606307
1.6156162831576135 1.6015073077336504
1.5344410911936424 1.616514059606307
1.4857359760152598 1.6315208114789637
1.4613834184260683 1.6465275633516203
1.3639731880693031 1.5714938039883368
1.2584454385161408 1.4964600446250536
1.2016228041413608 1.4664465408797402
1.1204476121773899 1.4964600446250536
1.0960950545881984 1.4964600446250536
1.0636249778026101 1.4514397890070836
1.0068023434278304 1.3764060296438
0.9337446706602562 1.3313857740258301
0.8525694786962852 1.2713587665352033
0.7957468443215054 1.24134526278989
0.7551592483395199 1.2563520146625466
0.7308066907503286 1.2113317590445767
0.6577490179827545 1.0762709921906666
0.5928088644115777 1.0312507365726966
0.5116336724476066 1.01624398470004
0.43045848048363544 1.01624398470004
0.42234096128723836 1.0462574884453533
0.42234096128723836 1.0012372328273833
0.3817533653052528 0.9562169772094132
0.3086956925376788 0.8511697141008165
0.25999057735929615 0.8211562103555031
0.2275205005737077 0.8211562103555031
0.24375553896650193 0.7911427066101898
0.2275205005737077 0.8061494584828465
0.20316794298451638 0.7461224509922197
0.17069786619892793 0.6710886916289364
0.16258034700253082 0.6260684360109664
0.1544628278061337 0.6260684360109664
0.1463453086097366 0.6260684360109664
0.16258034700253082 0.641075187883623
0.12199275102054527 0.5810481803929963
0.09764019343135394 0.5210211729023696
0.07328763584216262 0.46099416541174293
0.04893507825297128 0.506014421029713
0.07328763584216262 0.47600091728439964
0.07328763584216262 0.46099416541174293
0.05705259744936839 0.46099416541174293
0.05705259744936839 0.3709536541758029
0.04081755905657417 0.4159739097937729
0.024582520663779955 0.4159739097937729
0.05705259744936839 0.43098066166642957
0.08140515503855972 0.43098066166642957
0.08952267423495683 0.4159739097937729
0.04893507825297128 0.38596040604845955
0.03270003986017706 0.35594690230314624
0.008347482270985734 0.3709536541758029
0.04893507825297128 0.40096715792111626
0.06517011664576551 0.4159739097937729
0.024582520663779955 0.40096715792111626
0.00022996307458862428 0.3709536541758029
-0.016005075318205594 0.38596040604845955
-0.040357632907396926 0.4159739097937729
-0.024122594514602705 0.4159739097937729
0.008347482270985734 0.46099416541174293
0.00022996307458862428 0.4159739097937729
0.00022996307458862428 0.38596040604845955
-0.040357632907396926 0.40096715792111626
-0.024122594514602705 0.38596040604845955
0.008347482270985734 0.4159739097937729
0.04893507825297128 0.43098066166642957
0.04893507825297128 0.4159739097937729
0.03270003986017706 0.4459874135390863
0.00022996307458862428 0.4459874135390863
0.024582520663779955 0.43098066166642957
0.03270003986017706 0.4910076691570563
0.04893507825297128 0.506014421029713
0.04893507825297128 0.4910076691570563
0.008347482270985734 0.47600091728439964
-0.016005075318205594 0.43098066166642957
-0.048475152103794036 0.47600091728439964
-0.040357632907396926 0.4910076691570563
-0.024122594514602705 0.47600091728439964
0.016465001467382844 0.4910076691570563
-0.016005075318205594 0.4459874135390863
-0.040357632907396926 0.4459874135390863
-0.048475152103794036 0.4910076691570563
-0.048475152103794036 0.5210211729023696
-0.040357632907396926 0.5210211729023696
-0.024122594514602705 0.4910076691570563
-0.05659267130019115 0.46099416541174293
-0.05659267130019115 0.43098066166642957
-0.07282770969298537 0.46099416541174293
-0.05659267130019115 0.4910076691570563
-0.05659267130019115 0.46099416541174293
-0.08094522888938248 0.4159739097937729
-0.0971802672821767 0.31092664668517617
-0.12965034406776513 0.28091314293986286
-0.12153282487136803 0.2959198948125195
-0.11341530567497092 0.2959198948125195
-0.08094522888938248 0.35594690230314624
-0.10529778647857381 0.31092664668517617
-0.12153282487136803 0.28091314293986286
-0.12965034406776513 0.2959198948125195
-0.12153282487136803 0.31092664668517617
-0.12153282487136803 0.3709536541758029
-0.11341530567497092 0.3709536541758029
-0.12153282487136803 0.31092664668517617
-0.14588538246055935 0.2959198948125195
-0.1783554592461478 0.28091314293986286
-0.1864729784425449 0.31092664668517617
-0.15400290165695646 0.3709536541758029
-0.13776786326416224 0.4159739097937729
-0.14588538246055935 0.35594690230314624
-0.17023794004975068 0.34094015043048953
-0.16212042085335357 0.3259333985578329
-0.1864729784425449 0.35594690230314624
-0.15400290165695646 0.38596040604845955
-0.08906274808577959 0.4159739097937729
-0.08906274808577959 0.35594690230314624
-0.12153282487136803 0.2959198948125195
-0.08906274808577959 0.2959198948125195
-0.0971802672821767 0.35594690230314624
-0.08906274808577959 0.40096715792111626
-0.048475152103794036 0.4159739097937729
-0.08906274808577959 0.4159739097937729
-0.08906274808577959 0.38596040604845955
-0.12965034406776513 0.3709536541758029
-0.12153282487136803 0.4159739097937729
-0.08094522888938248 0.43098066166642957
-0.06471019049658826 0.46099416541174293
-0.06471019049658826 0.40096715792111626
-0.10529778647857381 0.34094015043048953
-0.11341530567497092 0.2959198948125195
-0.12965034406776513 0.31092664668517617
-0.11341530567497092 0.38596040604845955
-0.08906274808577959 0.43098066166642957
-0.10529778647857381 0.38596040604845955
-0.10529778647857381 0.35594690230314624
-0.12965034406776513 0.35594690230314624
-0.12965034406776513 0.3709536541758029
-0.0971802672821767 0.40096715792111626
-0.07282770969298537 0.38596040604845955
-0.06471019049658826 0.35594690230314624
-0.11341530567497092 0.26590639106720615
-0.12153282487136803 0.22088613544923613
-0.12965034406776513 0.20587938357657945
-0.12965034406776513 0.20587938357657945
-0.08094522888938248 0.2508996391945495
-0.08094522888938248 0.1908726317039228
-0.10529778647857381 0.22088613544923613
-0.13776786326416224 0.1908726317039228
-0.13776786326416224 0.20587938357657945
-0.12965034406776513 0.2358928873218928
-0.08094522888938248 0.2358928873218928
-0.08094522888938248 0.2358928873218928
-0.0971802672821767 0.17586587983126611
-0.0971802672821767 0.17586587983126611
-0.0971802672821767 0.1908726317039228
-0.11341530567497092 0.20587938357657945
-0.08094522888938248 0.20587938357657945
-0.08094522888938248 0.20587938357657945
-0.0971802672821767 0.17586587983126611
-0.07282770969298537 0.16085912795860943
-0.07282770969298537 0.17586587983126611
-0.016005075318205594 0.1908726317039228
0.06517011664576551 0.20587938357657945
0.3005781733412817 0.20587938357657945
0.8119818827142996 0.1308456242132961
1.501971014408054 0.14585237608595275
2.10266743494144 0.1908726317039228
2.3624280492261476 0.1158388723406394
2.15949006931622 0.025798361104699356
1.802319224674747 -0.16928941323983743
1.5587936487828338 -0.5294514581835976
1.4451483800332743 -1.1747417887078346
1.3477381496765088 -2.000113141703952
1.2422104001233465 -2.7504507353367855
1.0960950545881984 -2.9905587652992924
0.9662147474458447 -2.780464239082099
0.7957468443215054 -2.495335953501622
0.617161422000769 -2.3002481791570855
0.43045848048363544 -2.1501806604305185
0.251873058162899 -2.0601401491945786
0.04893507825297128 -2.000113141703952
-0.15400290165695646 -1.9700996379586384
-0.40564599674526686 -1.985106389831295
-0.6572890918335773 -2.0151198935766086
-0.9008146677254906 -2.0301266454492652
-1.1281052052246097 -2.0151198935766086
-1.3229256659381403 -1.9700996379586384
-1.5664512418300536 -2.0301266454492652
-1.8424468945075554 -2.120167156685205
-2.0859724703994686 -2.180194164175832
-2.256440373523808 -2.180194164175832
-2.426908276648147 -2.1501806604305185
-2.5162009878085154 -2.1501806604305185
-2.629846256558075 -2.210207667921145
-2.767844082896826 -2.285241427284429
-2.8652543132535913 -2.270234675411772
-2.922076947628371 -2.270234675411772
-2.930194466824768 -2.270234675411772
-2.9058419092355767 -2.315254931029742
-2.9058419092355767 -2.360275186647712
-2.857136794057194 -2.3902886903930254
-2.8327842364680027 -2.4203021941383387
-2.719138967718443 -2.450315697883652
-2.5892586605760894 -2.5253494572469353
-2.410673238255353 -2.645403472228189
-2.2077352583454255 -2.720437231591472
-2.029149836024689 -2.765457487209442
-1.8018592985255697 -2.7954709909547555
-1.5826862802228479 -2.810477742827412
-1.37974830031292 -2.6754169759735023
-1.2092803971885808 -2.600383216610219
-1.1686928012065951 -2.495335953501622
-1.1037526476354182 -2.3902886903930254
-1.0956351284390213 -2.2402211716664584
-1.0388124940642414 -2.120167156685205
-0.9089321869218877 -2.0151198935766086
-0.7546993221903426 -1.8200321192320716
-0.6572890918335773 -1.6999781042508184
-0.5761138998696061 -1.5949308411422216
-0.5111737462984293 -1.5499105855242516
-0.3975284775488698 -1.3998430667976849
-0.2920007279957073 -1.1747417887078346
-0.15400290165695646 -0.9796540143632979
-0.05659267130019115 -0.7545527362734478
0.008347482270985734 -0.604485217546881
0.06517011664576551 -0.4244041950750009
0.12199275102054527 -0.2443231726031208
0.17069786619892793 0.01079160923204268
0.24375553896650193 0.17586587983126611
0.25999057735929615 0.3259333985578329
0.28434313494848745 0.4159739097937729
0.3005781733412817 0.4910076691570563
0.3330482501268701 0.506014421029713
0.36551832691245856 0.5210211729023696
0.40610592289444414 0.6110616841383097
0.3898708845016499 0.6260684360109664
0.3817533653052528 0.686095443501593
0.36551832691245856 0.7311156991195631
0.3898708845016499 0.8061494584828465
0.4385759996800326 0.8211562103555031
0.471046076465621 0.8811832178461299
0.4791635956620181 0.8811832178461299
0.471046076465621 0.8361629622281598
0.4385759996800326 0.8511697141008165
0.4629285572692239 0.8511697141008165
0.4953986340548123 0.8961899697187865
0.5197511916440036 0.8811832178461299
0.5278687108404008 0.8811832178461299
0.544103749233195 0.8811832178461299
0.5522212684295921 0.8511697141008165
0.5846913452151805 0.8961899697187865
0.6252789411971661 0.9262034734640999
0.6496314987863574 0.9262034734640999
0.6739840563755488 0.9412102253367566
0.6739840563755488 0.8811832178461299
0.690219094768343 0.9111967215914432
0.6821015755719458 0.9712237290820699
0.7470417291431227 1.0312507365726966
0.7795118059287112 1.0462574884453533
0.7876293251251083 1.0462574884453533
0.8119818827142996 1.06126424031801
0.8363344403034909 1.0462574884453533
0.8850395554818736 1.06126424031801
0.9418621898566534 1.1362979996812934
0.9986848242314331 1.1212912478086368
1.0230373818206244 1.1362979996812934
1.0392724202134187 1.15130475155395
1.055507458606213 1.1813182552992634
1.0960950545881984 1.2713587665352033
1.1529176889629782 1.3313857740258301
1.1853877657485667 1.3764060296438
1.2016228041413608 1.3313857740258301
1.2016228041413608 1.3313857740258301
1.2259753617305522 1.3613992777711434
1.2422104001233465 1.42142628526177
1.3233855920873177 1.4964600446250536
1.3802082264620974 1.5264735483703669
1.4045607840512886 1.5114667964977102
1.42891334164048 1.5564870521156802
1.42891334164048 1.5414803002430235
1.4695009376224655 1.6465275633516203
1.493853495211657 1.661534315224277
1.5344410911936424 1.7215613227149036
1.5587936487828338 1.7215613227149036
1.566911167979231 1.7365680745875602
1.566911167979231 1.7365680745875602
1.5993812447648192 1.8266085858235004
1.6237338023540107 1.8566220895688137
1.648086359943202 1.8716288414414703
1.6156162831576135 1.8566220895688137
1.566911167979231 1.8266085858235004
1.5506761295864366 1.8566220895688137
1.5506761295864366 1.9166490970594405
1.566911167979231 1.9316558489320972
1.591263725568422 1.9466626008047538
1.575028687175628 1.886635593314127
1.5344410911936424 1.8716288414414703
1.5100885336044512 1.841615337696157
1.4451483800332743 1.886635593314127
1.4370308608368771 1.9166490970594405
1.42891334164048 1.9016423451867839
1.355855668872906 1.8716288414414703
1.2665629577125377 1.8266085858235004
1.1853877657485667 1.7665815783328738
1.0798600161954042 1.7365680745875602
1.0717424969990073 1.7815883302055304
1.0230373818206244 1.7365680745875602
0.9418621898566534 1.661534315224277
0.8363344403034909 1.5865005558609935
0.7795118059287112 1.5414803002430235
0.690219094768343 1.4964600446250536
0.6496314987863574 1.4964600446250536
0.6009263836079748 1.4514397890070836
0.544103749233195 1.3914127815164568
0.4548110380728268 1.3313857740258301
0.40610592289444414 1.2563520146625466
0.34928328851966434 1.19632500717192
0.3168132117340759 1.19632500717192
0.2924606541448846 1.1813182552992634
0.2194029813773106 1.0912777440633232
0.17881538539532504 1.0012372328273833
0.1382277894133395 0.9412102253367566
0.12199275102054527 0.9712237290820699
0.1544628278061337 0.9562169772094132
0.16258034700253082 0.9111967215914432
0.1463453086097366 0.8811832178461299
0.07328763584216262 0.8211562103555031
0.04893507825297128 0.7611292028648764
0.05705259744936839 0.7911427066101898
0.06517011664576551 0.8211562103555031
0.04893507825297128 0.7911427066101898
0.07328763584216262 0.7461224509922197
0.04893507825297128 0.6710886916289364
0.016465001467382844 0.686095443501593
0.008347482270985734 0.6560819397562797
0.016465001467382844 0.7011021953742498
0.024582520663779955 0.7011021953742498
0.024582520663779955 0.6560819397562797
0.00022996307458862428 0.6260684360109664
0.008347482270985734 0.5660414285203397
-0.024122594514602705 0.6260684360109664
0.00022996307458862428 0.6560819397562797
0.03270003986017706 0.7011021953742498
0.04081755905657417 0.596054932265653
0.016465001467382844 0.5660414285203397
0.016465001467382844 0.5660414285203397
0.03270003986017706 0.551034676647683
0.04081755905657417 0.6110616841383097
0.08952267423495683 0.6110616841383097
0.06517011664576551 0.6260684360109664
0.08140515503855972 0.596054932265653
0.04081755905657417 0.5660414285203397
0.04081755905657417 0.5660414285203397
0.04893507825297128 0.6260684360109664
0.04893507825297128 0.6560819397562797
0.04081755905657417 0.6260684360109664
0.016465001467382844 0.5810481803929963
-0.024122594514602705 0.5810481803929963
0.016465001467382844 0.5660414285203397
0.03270003986017706 0.5810481803929963
0.04893507825297128 0.6110616841383097
0.04893507825297128 0.5660414285203397
0.008347482270985734 0.506014421029713
-0.024122594514602705 0.5660414285203397
-0.032240113710999815 0.6110616841383097
0.00022996307458862428 0.6710886916289364
0.008347482270985734 0.686095443501593
-0.024122594514602705 0.6560819397562797
-0.016005075318205594 0.6260684360109664
-0.024122594514602705 0.6260684360109664
-0.040357632907396926 0.686095443501593
-0.007887556121808486 0.7161089472469064
0.00022996307458862428 0.7011021953742498
-0.032240113710999815 0.686095443501593
-0.040357632907396926 0.6710886916289364
-0.048475152103794036 0.641075187883623
-0.06471019049658826 0.6560819397562797
-0.06471019049658826 0.686095443501593
-0.007887556121808486 0.6710886916289364
-0.024122594514602705 0.6560819397562797
-0.040357632907396926 0.641075187883623
-0.08094522888938248 0.6110616841383097
-0.08906274808577959 0.6260684360109664
-0.07282770969298537 0.686095443501593
-0.048475152103794036 0.6710886916289364
-0.05659267130019115 0.641075187883623
-0.08906274808577959 0.5810481803929963
-0.07282770969298537 0.5660414285203397
-0.08094522888938248 0.551034676647683
-0.07282770969298537 0.5810481803929963
-0.032240113710999815 0.596054932265653
-0.048475152103794036 0.551034676647683
-0.06471019049658826 0.5210211729023696
-0.08906274808577959 0.5210211729023696
-0.08094522888938248 0.506014421029713
-0.040357632907396926 0.5810481803929963
-0.016005075318205594 0.5660414285203397
-0.048475152103794036 0.5360279247750264
-0.040357632907396926 0.47600091728439964
-0.10529778647857381 0.4910076691570563
-0.11341530567497092 0.5210211729023696
-0.0971802672821767 0.5660414285203397
-0.08094522888938248 0.5660414285203397
-0.13776786326416224 0.5360279247750264
-0.13776786326416224 0.47600091728439964
-0.17023794004975068 0.4459874135390863
-0.14588538246055935 0.47600091728439964
-0.11341530567497092 0.5210211729023696
-0.08094522888938248 0.5360279247750264
-0.08094522888938248 0.46099416541174293
-0.08906274808577959 0.40096715792111626
-0.13776786326416224 0.40096715792111626
-0.08094522888938248 0.4159739097937729
-0.05659267130019115 0.4910076691570563
-0.032240113710999815 0.47600091728439964
-0.05659267130019115 0.4910076691570563
-0.07282770969298537 0.47600091728439964
-0.08906274808577959 0.506014421029713
-0.08094522888938248 0.551034676647683
-0.06471019049658826 0.5660414285203397
-0.048475152103794036 0.5660414285203397
-0.032240113710999815 0.5210211729023696
-0.06471019049658826 0.47600091728439964
-0.08094522888938248 0.4910076691570563
-0.08094522888938248 0.5210211729023696
-0.048475152103794036 0.5360279247750264
-0.040357632907396926 0.5660414285203397
-0.040357632907396926 0.506014421029713
-0.06471019049658826 0.46099416541174293
-0.08094522888938248 0.43098066166642957
-0.08094522888938248 0.4459874135390863
-0.07282770969298537 0.47600091728439964
-0.08094522888938248 0.4910076691570563
-0.08094522888938248 0.506014421029713
-0.08906274808577959 0.43098066166642957
-0.12153282487136803 0.40096715792111626
-0.12153282487136803 0.46099416541174293
-0.10529778647857381 0.4159739097937729
-0.08094522888938248 0.46099416541174293
-0.08906274808577959 0.38596040604845955
-0.0971802672821767 0.35594690230314624
-0.10529778647857381 0.31092664668517617
-0.08094522888938248 0.34094015043048953
-0.048475152103794036 0.38596040604845955
-0.032240113710999815 0.4159739097937729
-0.048475152103794036 0.34094015043048953
-0.08094522888938248 0.3259333985578329
-0.11341530567497092 0.31092664668517617
-0.12153282487136803 0.2959198948125195
-0.0971802672821767 0.34094015043048953
-0.05659267130019115 0.34094015043048953
-0.05659267130019115 0.28091314293986286
-0.07282770969298537 0.26590639106720615
-0.06471019049658826 0.26590639106720615
-0.040357632907396926 0.28091314293986286
0.07328763584216262 0.2959198948125195
0.19505042378811926 0.31092664668517617
0.42234096128723836 0.28091314293986286
0.8282169211070939 0.2358928873218928
1.5425586103900395 0.2508996391945495
2.175725107709014 0.26590639106720615
2.4192506836009273 0.1908726317039228
2.2731353380657793 0.14585237608595275
1.948434570209895 -0.07924890200389736
1.7211440327107759 -0.4244041950750009
1.5993812447648192 -0.9646472624906413
1.4857359760152598 -1.7900186154867583
1.3720907072657003 -2.6303967203555323
1.2584454385161408 -3.0205722690446057
1.0798600161954042 -2.8705047503180388
0.9175096322674621 -2.5553629609922486
0.7308066907503286 -2.3452684347750554
0.5116336724476066 -2.2402211716664584
0.34116576932326725 -2.120167156685205
0.16258034700253082 -2.090153652939892
-0.07282770969298537 -2.0301266454492652
-0.31635328558489867 -2.0151198935766086
-0.5679963806732091 -2.0151198935766086
-0.7952869181723281 -2.0151198935766086
-1.006342417278653 -2.000113141703952
-1.217397916384978 -2.045133397321922
-1.4852760498660824 -2.1051604048125485
-1.7775067409363785 -2.1501806604305185
-1.9804447208463063 -2.1952009160484884
-2.126560066381454 -2.180194164175832
-2.280792931112999 -2.165187412303175
-2.3863206806661617 -2.165187412303175
-2.5324360262013097 -2.210207667921145
-2.6704338525400604 -2.1952009160484884
-2.767844082896826 -2.2252144197938017
-2.824666717271606 -2.3002481791570855
-2.8409017556644 -2.2552279235391155
-2.8165491980752084 -2.315254931029742
-2.8165491980752084 -2.3452684347750554
-2.7921966404860172 -2.4203021941383387
-2.775961602093223 -2.4653224497563087
-2.6785513717364577 -2.495335953501622
-2.5811411413796925 -2.5553629609922486
-2.41879075745175 -2.6754169759735023
-2.2889104503093964 -2.7504507353367855
-2.0940899895958656 -2.855497998445382
-1.8830344904895409 -2.930531757808666
-1.6557439529904219 -2.915525005936009
-1.444688453884097 -2.855497998445382
-1.2742205507597577 -2.7954709909547555
-1.1686928012065951 -2.7504507353367855
-1.1118701668318154 -2.6604102241008456
-1.0388124940642414 -2.5103427053742786
-0.933284744511079 -2.4203021941383387
-0.8034044373687252 -2.3002481791570855
-0.6978766878155629 -2.180194164175832
-0.5842314190660033 -2.0601401491945786
-0.5111737462984293 -1.940086134213325
-0.4218810351380611 -1.7750118636141017
-0.30011824719210445 -1.5949308411422216
-0.12965034406776513 -1.384836314925028
0.00022996307458862428 -1.1897485405804913
0.09764019343135394 -1.0246742699812679
0.16258034700253082 -0.8746067512547011
0.23563801977010482 -0.694525728782821
0.3086956925376788 -0.4244041950750009
0.4142234420908412 -0.2443231726031208
0.44669351887642966 -0.03422864638592735
0.4629285572692239 0.10083212046798273
0.471046076465621 0.20587938357657945
0.471046076465621 0.2959198948125195
0.5116336724476066 0.4159739097937729
0.5684563068223863 0.5210211729023696
0.6252789411971661 0.641075187883623
0.6090439028043719 0.641075187883623
0.6009263836079748 0.6260684360109664
0.5846913452151805 0.641075187883623
0.5928088644115777 0.7011021953742498
0.6090439028043719 0.7011021953742498
0.617161422000769 0.7311156991195631
0.6333964603935632 0.7461224509922197
0.6090439028043719 0.7011021953742498
0.617161422000769 0.7461224509922197
0.6577490179827545 0.7461224509922197
0.6821015755719458 0.8061494584828465
0.7470417291431227 0.7911427066101898
0.7470417291431227 0.8061494584828465
0.7389242099467256 0.8061494584828465
0.7308066907503286 0.7911427066101898
0.7308066907503286 0.8511697141008165
0.763276767535917 0.8661764659734732
0.7876293251251083 0.8961899697187865
0.7957468443215054 0.9111967215914432
0.7876293251251083 0.8661764659734732
0.7876293251251083 0.8811832178461299
0.8119818827142996 0.9111967215914432
0.844451959499888 0.9862304809547265
0.9093921130710649 1.0012372328273833
0.9337446706602562 1.0012372328273833
0.9662147474458447 0.9712237290820699
0.9905673050350361 1.0012372328273833
1.0230373818206244 1.01624398470004
1.0717424969990073 1.0912777440633232
1.128565131373787 1.1362979996812934
1.144800169766581 1.1212912478086368
1.1529176889629782 1.1212912478086368
1.1772702465521696 1.15130475155395
1.217857842534155 1.1813182552992634
1.2746804769089348 1.2563520146625466
1.3152680728909205 1.3013722702805168
1.3071505536945234 1.3163790221531735
1.3233855920873177 1.3013722702805168
1.3396206304801117 1.3313857740258301
1.3964432648548915 1.3463925258984868
1.4370308608368771 1.3914127815164568
1.501971014408054 1.4664465408797402
1.5263235719972452 1.436433037134427
1.5263235719972452 1.42142628526177
1.5506761295864366 1.481453292752397
1.566911167979231 1.5114667964977102
1.6318513215504078 1.5714938039883368
1.656203879139599 1.6465275633516203
1.6643213983359961 1.6015073077336504
1.6805564367287904 1.6015073077336504
1.7049089943179818 1.6015073077336504
1.6967914751215847 1.6315208114789637
1.7536141094963644 1.7365680745875602
1.7779666670855556 1.7515748264602171
1.79420170547835 1.7215613227149036
1.7536141094963644 1.661534315224277
1.7617316286927616 1.6765410670969336
1.7698491478891587 1.706554570842247
1.7860841862819528 1.7665815783328738
1.8104367438711442 1.796595082078187
1.8104367438711442 1.8266085858235004
1.7779666670855556 1.796595082078187
1.729261551907173 1.796595082078187
1.7211440327107759 1.8116018339508437
1.7049089943179818 1.8716288414414703
1.7130265135143787 1.886635593314127
