-0.7448462178999655 -1.1941078385061086
-0.7448462178999655 -1.233528202495177
-0.7448462178999655 -1.233528202495177
-0.782195497850999 -1.2598084451545561
-0.7635208578754822 -1.2729485664842455
-0.7635208578754822 -1.2992288091436246
-0.7448462178999655 -1.3255090518030035
-0.782195497850999 -1.312368930473314
-0.7635208578754822 -1.312368930473314
-0.7541835378877239 -1.2729485664842455
-0.7355088979122072 -1.2729485664842455
-0.7261715779244488 -1.233528202495177
-0.6981596179611738 -1.2072479598357981
-0.7074969379489321 -1.2466683238248666
-0.7074969379489321 -1.286088687813935
-0.679484977985657 -1.286088687813935
-0.6981596179611738 -1.286088687813935
-0.7541835378877239 -1.312368930473314
-0.7541835378877239 -1.364929415792072
-0.7448462178999655 -1.3780695371217613
-0.7541835378877239 -1.3386491731326928
-0.7448462178999655 -1.3517892944623824
-0.7261715779244488 -1.3255090518030035
-0.7074969379489321 -1.312368930473314
-0.651473018022382 -1.2992288091436246
-0.6234610580591069 -1.2729485664842455
-0.651473018022382 -1.3255090518030035
-0.6701476579978987 -1.312368930473314
-0.6701476579978987 -1.364929415792072
-0.6701476579978987 -1.3912096584514508
-0.679484977985657 -1.3780695371217613
-0.6701476579978987 -1.3912096584514508
-0.6981596179611738 -1.4174899011108297
-0.6608103380101403 -1.364929415792072
-0.6608103380101403 -1.364929415792072
-0.6608103380101403 -1.3386491731326928
-0.651473018022382 -1.2992288091436246
-0.6234610580591069 -1.3255090518030035
-0.6421356980346237 -1.3255090518030035
-0.651473018022382 -1.3517892944623824
-0.651473018022382 -1.3780695371217613
-0.6701476579978987 -1.3780695371217613
-0.679484977985657 -1.3912096584514508
-0.6981596179611738 -1.3780695371217613
-0.6981596179611738 -1.3912096584514508
-0.6981596179611738 -1.4043497797811404
-0.679484977985657 -1.4043497797811404
-0.6701476579978987 -1.4043497797811404
-0.6421356980346237 -1.3780695371217613
-0.6234610580591069 -1.3517892944623824
-0.651473018022382 -1.364929415792072
-0.651473018022382 -1.364929415792072
-0.6421356980346237 -1.3912096584514508
-0.6701476579978987 -1.4437701437702088
-0.6888222979734154 -1.4437701437702088
-0.6701476579978987 -1.4700503864295877
-0.6608103380101403 -1.4569102650998982
-0.6701476579978987 -1.4306300224405193
-0.6701476579978987 -1.4437701437702088
-0.651473018022382 -1.364929415792072
-0.651473018022382 -1.364929415792072
-0.6141237380713486 -1.3517892944623824
-0.651473018022382 -1.3517892944623824
-0.6608103380101403 -1.3912096584514508
-0.6701476579978987 -1.4174899011108297
-0.6981596179611738 -1.4043497797811404
-0.679484977985657 -1.4437701437702088
-0.679484977985657 -1.4306300224405193
-0.6608103380101403 -1.4700503864295877
-0.651473018022382 -1.4437701437702088
-0.6608103380101403 -1.4569102650998982
-0.651473018022382 -1.4043497797811404
-0.6327983780468652 -1.3780695371217613
-0.5954490980958319 -1.3912096584514508
-0.6421356980346237 -1.4306300224405193
-0.651473018022382 -1.4306300224405193
-0.6234610580591069 -1.4569102650998982
-0.6234610580591069 -1.5094707504186562
-0.651473018022382 -1.5094707504186562
-0.651473018022382 -1.4963306290889666
-0.6608103380101403 -1.4831905077592773
-0.6608103380101403 -1.5226108717483458
-0.6327983780468652 -1.4043497797811404
-0.6234610580591069 -1.4043497797811404
-0.651473018022382 -1.4306300224405193
-0.6327983780468652 -1.4174899011108297
-0.6421356980346237 -1.3780695371217613
-0.651473018022382 -1.3517892944623824
-0.6701476579978987 -1.4700503864295877
-0.679484977985657 -1.4437701437702088
-0.6421356980346237 -1.4831905077592773
-0.6608103380101403 -1.4831905077592773
-0.6701476579978987 -1.4963306290889666
-0.6608103380101403 -1.4700503864295877
-0.651473018022382 -1.4700503864295877
-0.651473018022382 -1.4700503864295877
-0.6421356980346237 -1.4569102650998982
-0.6141237380713486 -1.4437701437702088
-0.6047864180835902 -1.4569102650998982
-0.6327983780468652 -1.4700503864295877
-0.6421356980346237 -1.4700503864295877
-0.6608103380101403 -1.4963306290889666
-0.6981596179611738 -1.5226108717483458
-0.651473018022382 -1.535750993078035
-0.679484977985657 -1.535750993078035
-0.651473018022382 -1.4963306290889666
-0.6234610580591069 -1.4569102650998982
-0.6047864180835902 -1.3912096584514508
-0.6234610580591069 -1.4043497797811404
-0.6327983780468652 -1.4174899011108297
-0.6234610580591069 -1.4306300224405193
-0.6234610580591069 -1.4437701437702088
-0.6234610580591069 -1.4700503864295877
-0.6421356980346237 -1.4569102650998982
-0.6608103380101403 -1.5226108717483458
-0.651473018022382 -1.5226108717483458
-0.6701476579978987 -1.5094707504186562
-0.6981596179611738 -1.5094707504186562
-0.6608103380101403 -1.4306300224405193
-0.6234610580591069 -1.4306300224405193
-0.6234610580591069 -1.4569102650998982
-0.5954490980958319 -1.3912096584514508
-0.6047864180835902 -1.4437701437702088
-0.6327983780468652 -1.4306300224405193
-0.6141237380713486 -1.4569102650998982
-0.6327983780468652 -1.4963306290889666
-0.6327983780468652 -1.5094707504186562
-0.651473018022382 -1.5094707504186562
-0.6421356980346237 -1.4831905077592773
-0.651473018022382 -1.4700503864295877
-0.6234610580591069 -1.4306300224405193
-0.6327983780468652 -1.4306300224405193
-0.6234610580591069 -1.3912096584514508
-0.6047864180835902 -1.4043497797811404
-0.6327983780468652 -1.4174899011108297
-0.5954490980958319 -1.4437701437702088
-0.6141237380713486 -1.4700503864295877
-0.6141237380713486 -1.4569102650998982
-0.6141237380713486 -1.535750993078035
-0.6141237380713486 -1.535750993078035
-0.6234610580591069 -1.5488911144077246
-0.6234610580591069 -1.5094707504186562
-0.651473018022382 -1.4569102650998982
-0.6234610580591069 -1.4437701437702088
-0.6421356980346237 -1.4306300224405193
-0.6047864180835902 -1.4043497797811404
-0.6141237380713486 -1.4174899011108297
-0.6047864180835902 -1.4437701437702088
-0.6047864180835902 -1.4831905077592773
-0.6047864180835902 -1.4700503864295877
-0.6327983780468652 -1.5094707504186562
-0.6608103380101403 -1.535750993078035
-0.6421356980346237 -1.5094707504186562
-0.6421356980346237 -1.5226108717483458
-0.5861117781080735 -1.4174899011108297
-0.5767744581203151 -1.4306300224405193
-0.5674371381325568 -1.3780695371217613
-0.5300878581815234 -1.3780695371217613
-0.5861117781080735 -1.4437701437702088
-0.5954490980958319 -1.4437701437702088
-0.6047864180835902 -1.4569102650998982
-0.6327983780468652 -1.4700503864295877
-0.6327983780468652 -1.5094707504186562
-0.6421356980346237 -1.5094707504186562
-0.6608103380101403 -1.5094707504186562
-0.651473018022382 -1.4831905077592773
-0.6141237380713486 -1.4437701437702088
-0.5861117781080735 -1.4700503864295877
-0.5674371381325568 -1.4174899011108297
-0.5487624981570401 -1.4437701437702088
-0.6047864180835902 -1.4174899011108297
-0.5674371381325568 -1.4437701437702088
-0.5767744581203151 -1.4700503864295877
-0.6327983780468652 -1.4963306290889666
-0.6701476579978987 -1.4831905077592773
-0.651473018022382 -1.5226108717483458
-0.6608103380101403 -1.4963306290889666
-0.6608103380101403 -1.5094707504186562
-0.6141237380713486 -1.4700503864295877
-0.5861117781080735 -1.4437701437702088
-0.5580998181447985 -1.4306300224405193
-0.5580998181447985 -1.4043497797811404
-0.5580998181447985 -1.3912096584514508
-0.5861117781080735 -1.4306300224405193
-0.6047864180835902 -1.4700503864295877
-0.5861117781080735 -1.4963306290889666
-0.6141237380713486 -1.4963306290889666
-0.6141237380713486 -1.535750993078035
-0.5954490980958319 -1.4963306290889666
-0.6047864180835902 -1.5226108717483458
-0.5674371381325568 -1.4831905077592773
-0.5580998181447985 -1.4174899011108297
-0.5580998181447985 -1.4306300224405193
-0.5394251781692817 -1.4174899011108297
-0.5487624981570401 -1.4174899011108297
-0.5580998181447985 -1.4043497797811404
-0.5674371381325568 -1.4569102650998982
-0.5954490980958319 -1.4831905077592773
-0.5861117781080735 -1.4700503864295877
-0.5954490980958319 -1.5226108717483458
-0.6047864180835902 -1.5094707504186562
-0.6141237380713486 -1.4700503864295877
-0.5674371381325568 -1.4306300224405193
-0.5487624981570401 -1.4174899011108297
-0.5580998181447985 -1.4043497797811404
-0.5394251781692817 -1.3780695371217613
-0.5300878581815234 -1.3912096584514508
-0.5674371381325568 -1.3912096584514508
-0.5674371381325568 -1.4569102650998982
-0.5954490980958319 -1.4437701437702088
-0.6141237380713486 -1.5226108717483458
-0.5954490980958319 -1.5620312357374142
-0.6047864180835902 -1.535750993078035
-0.5861117781080735 -1.5488911144077246
-0.5861117781080735 -1.4700503864295877
-0.5767744581203151 -1.4043497797811404
-0.5020758982182483 -1.364929415792072
-0.4647266182672149 -1.286088687813935
-0.43671465830393985 -1.2729485664842455
-0.41804001832842314 -1.312368930473314
-0.36201609840187304 -1.2466683238248666
-0.3433414584263563 -1.286088687813935
-0.3153294984630813 -1.286088687813935
-0.27798021851204785 -1.286088687813935
-0.27798021851204785 -1.2466683238248666
-0.26864289852428946 -1.1678275958467297
-0.26864289852428946 -1.1415473531873508
-0.24996825854877278 -1.1152671105279717
-0.25930557853653113 -1.1021269891982823
-0.25930557853653113 -1.1021269891982823
-0.2873175384998062 -1.2072479598357981
-0.3433414584263563 -1.2466683238248666
-0.36201609840187304 -1.3386491731326928
-0.4087026983406648 -1.4174899011108297
-0.41804001832842314 -1.5226108717483458
-0.4273773383161815 -1.6014515997264827
-0.4834012582427316 -1.6277318423858615
-0.49273857823049 -1.6540120850452404
-0.5300878581815234 -1.614591721056172
-0.520750538193765 -1.535750993078035
-0.5020758982182483 -1.5488911144077246
-0.520750538193765 -1.4569102650998982
-0.5300878581815234 -1.4831905077592773
-0.520750538193765 -1.4831905077592773
-0.520750538193765 -1.5226108717483458
-0.5394251781692817 -1.5620312357374142
-0.5394251781692817 -1.588311478396793
-0.5394251781692817 -1.6014515997264827
-0.5300878581815234 -1.5620312357374142
-0.5394251781692817 -1.5488911144077246
-0.520750538193765 -1.5094707504186562
-0.49273857823049 -1.4963306290889666
-0.4740639382549733 -1.4569102650998982
-0.49273857823049 -1.4700503864295877
-0.4740639382549733 -1.4831905077592773
-0.4834012582427316 -1.5094707504186562
-0.4740639382549733 -1.4831905077592773
-0.5020758982182483 -1.5226108717483458
-0.5020758982182483 -1.5620312357374142
-0.5580998181447985 -1.5488911144077246
-0.5954490980958319 -1.535750993078035
-0.6234610580591069 -1.4831905077592773
-0.5954490980958319 -1.3517892944623824
-0.4647266182672149 -1.286088687813935
-0.26864289852428946 -1.1021269891982823
0.0955125809982863 -0.9970060185607664
0.5437039404106873 -0.9313054119123191
1.1319550996394636 -0.9313054119123191
1.7668928588070316 -1.0758467465389032
2.4018306179745994 -1.3517892944623824
2.990081777203376 -1.66715220637493
3.4569477765912935 -2.140196574243751
3.6436941763464605 -2.705221791420399
3.6623688163219774 -3.151985916629841
3.494297056542327 -3.5199093138611466
3.1208042570319927 -3.6513105271580417
2.4578545379011496 -3.6250302844986626
1.5521344990885895 -3.5461895565205257
0.5156919804474122 -3.388508100564252
-0.35267877841411466 -3.2176865232782887
-0.8195447778020324 -3.138845795300152
-0.8755686977285825 -2.9154637326954305
-0.679484977985657 -2.7840625193985358
-0.36201609840187304 -2.6658014274313304
-0.13792041869567254 -2.455559486156299
-0.016535258854813946 -2.402999000837541
-0.0258725788425723 -2.1664768169031303
-0.11924577872015583 -2.0350756036062356
-0.2312936185732561 -1.8511139049905827
-0.33400413843859794 -1.7197126916936878
-0.4460519782916982 -1.6014515997264827
-0.4460519782916982 -1.5751713570671035
-0.4740639382549733 -1.5094707504186562
-0.4460519782916982 -1.588311478396793
-0.4647266182672149 -1.535750993078035
-0.43671465830393985 -1.5488911144077246
-0.45538929827945657 -1.4963306290889666
-0.4647266182672149 -1.4831905077592773
-0.4647266182672149 -1.4306300224405193
-0.5020758982182483 -1.4174899011108297
-0.4647266182672149 -1.3255090518030035
-0.45538929827945657 -1.3780695371217613
-0.4647266182672149 -1.3517892944623824
-0.5020758982182483 -1.3255090518030035
-0.5114132182060067 -1.3912096584514508
-0.5114132182060067 -1.4174899011108297
-0.49273857823049 -1.4043497797811404
-0.49273857823049 -1.4174899011108297
-0.49273857823049 -1.4437701437702088
-0.5114132182060067 -1.3912096584514508
-0.5114132182060067 -1.3912096584514508
-0.5020758982182483 -1.312368930473314
-0.5114132182060067 -1.3255090518030035
-0.4647266182672149 -1.312368930473314
-0.4740639382549733 -1.312368930473314
-0.4647266182672149 -1.3255090518030035
-0.5020758982182483 -1.312368930473314
-0.520750538193765 -1.3780695371217613
-0.520750538193765 -1.4043497797811404
-0.520750538193765 -1.3912096584514508
-0.5580998181447985 -1.364929415792072
-0.5114132182060067 -1.3255090518030035
-0.4740639382549733 -1.3255090518030035
-0.45538929827945657 -1.312368930473314
-0.45538929827945657 -1.2729485664842455
-0.4460519782916982 -1.312368930473314
-0.45538929827945657 -1.312368930473314
-0.4834012582427316 -1.2598084451545561
-0.5020758982182483 -1.312368930473314
-0.49273857823049 -1.3255090518030035
-0.49273857823049 -1.312368930473314
-0.4834012582427316 -1.3386491731326928
-0.49273857823049 -1.3517892944623824
-0.49273857823049 -1.3255090518030035
-0.4834012582427316 -1.2729485664842455
-0.45538929827945657 -1.2466683238248666
-0.45538929827945657 -1.2203880811654877
-0.4087026983406648 -1.2466683238248666
-0.4087026983406648 -1.233528202495177
-0.4273773383161815 -1.2466683238248666
-0.41804001832842314 -1.2992288091436246
-0.43671465830393985 -1.3255090518030035
-0.4087026983406648 -1.312368930473314
-0.4087026983406648 -1.3255090518030035
-0.41804001832842314 -1.3386491731326928
-0.4273773383161815 -1.2992288091436246
-0.4087026983406648 -1.2466683238248666
-0.35267877841411466 -1.233528202495177
-0.3246668184508396 -1.2466683238248666
-0.3153294984630813 -1.2203880811654877
-0.2873175384998062 -1.1941078385061086
-0.2873175384998062 -1.2598084451545561
-0.27798021851204785 -1.286088687813935
-0.27798021851204785 -1.2729485664842455
-0.2873175384998062 -1.312368930473314
-0.2312936185732561 -1.3255090518030035
-0.21261897859773937 -1.312368930473314
-0.21261897859773937 -1.2729485664842455
-0.1659323786589476 -1.2992288091436246
-0.15659505867118925 -1.2466683238248666
-0.10057113874463913 -1.2598084451545561
-0.06322185879360571 -1.233528202495177
-0.044547218818089006 -1.286088687813935
-0.0258725788425723 -1.286088687813935
-0.016535258854813946 -1.2598084451545561
0.002139381120702761 -1.2729485664842455
0.02081402109621947 -1.3255090518030035
0.048825981059494525 -1.3255090518030035
0.07683794102276958 -1.286088687813935
0.08617526101052794 -1.3255090518030035
0.07683794102276958 -1.286088687813935
0.14219918093707806 -1.2729485664842455
0.16087382091259478 -1.2729485664842455
0.18888578087586982 -1.286088687813935
0.20756042085138654 -1.3255090518030035
0.22623506082690326 -1.3386491731326928
0.23557238081466159 -1.3386491731326928
0.23557238081466159 -1.3912096584514508
0.24490970080241994 -1.4174899011108297
0.28225898075345335 -1.4569102650998982
0.31027094071672845 -1.4569102650998982
0.3289455806922451 -1.4831905077592773
0.3382829006800035 -1.4306300224405193
0.3476202206677618 -1.4043497797811404
0.36629486064327854 -1.4043497797811404
0.3569575406555202 -1.3780695371217613
0.3569575406555202 -1.4306300224405193
0.3943068206065536 -1.4963306290889666
0.3943068206065536 -1.4437701437702088
0.37563218063103687 -1.4831905077592773
0.3196082607044868 -1.4700503864295877
0.28225898075345335 -1.4963306290889666
0.22623506082690326 -1.5094707504186562
0.18888578087586982 -1.4569102650998982
0.15153650092483642 -1.4306300224405193
0.1328618609493197 -1.4306300224405193
0.114187220973803 -1.364929415792072
0.06750062103501124 -1.3517892944623824
0.048825981059494525 -1.3386491731326928
0.02081402109621947 -1.3780695371217613
0.002139381120702761 -1.4306300224405193
-0.05388453880584736 -1.4174899011108297
-0.11924577872015583 -1.4306300224405193
-0.13792041869567254 -1.4700503864295877
-0.20328165860998101 -1.4174899011108297
-0.2312936185732561 -1.4569102650998982
-0.24996825854877278 -1.4437701437702088
-0.26864289852428946 -1.3912096584514508
-0.24996825854877278 -1.364929415792072
-0.2312936185732561 -1.4174899011108297
-0.24063093856101442 -1.3517892944623824
-0.26864289852428946 -1.3517892944623824
-0.29665485848756457 -1.3912096584514508
-0.29665485848756457 -1.3912096584514508
-0.33400413843859794 -1.4174899011108297
-0.33400413843859794 -1.4174899011108297
-0.33400413843859794 -1.3780695371217613
-0.3433414584263563 -1.4174899011108297
-0.3433414584263563 -1.3780695371217613
-0.33400413843859794 -1.364929415792072
-0.3246668184508396 -1.3517892944623824
-0.3153294984630813 -1.3386491731326928
-0.3153294984630813 -1.3255090518030035
-0.33400413843859794 -1.3517892944623824
-0.3246668184508396 -1.4174899011108297
-0.3153294984630813 -1.4174899011108297
-0.3059921784753229 -1.4043497797811404
-0.33400413843859794 -1.4700503864295877
-0.3059921784753229 -1.4569102650998982
-0.2873175384998062 -1.4700503864295877
-0.3059921784753229 -1.3912096584514508
-0.2873175384998062 -1.3780695371217613
-0.25930557853653113 -1.3386491731326928
-0.24063093856101442 -1.3386491731326928
-0.22195629858549773 -1.3386491731326928
-0.20328165860998101 -1.3386491731326928
-0.22195629858549773 -1.4043497797811404
-0.2312936185732561 -1.3912096584514508
-0.2312936185732561 -1.4437701437702088
-0.2312936185732561 -1.4306300224405193
-0.24063093856101442 -1.4569102650998982
-0.24063093856101442 -1.4700503864295877
-0.1659323786589476 -1.4306300224405193
-0.13792041869567254 -1.4043497797811404
-0.12858309870791418 -1.3517892944623824
-0.10990845873239748 -1.364929415792072
-0.13792041869567254 -1.3386491731326928
-0.15659505867118925 -1.312368930473314
-0.1472577386834309 -1.312368930473314
-0.20328165860998101 -1.312368930473314
-0.21261897859773937 -1.2729485664842455
-0.17526969864670597 -1.1941078385061086
-0.10990845873239748 -1.0889868678685928
0.02081402109621947 -0.9313054119123191
0.22623506082690326 -0.8261844412748032
0.4970173404718955 -0.7079233493075978
0.7677996201168877 -0.7736239559560453
1.0759311797129134 -1.0101461398904559
1.3934000592966975 -1.4569102650998982
1.6828569789172063 -1.91681451163903
2.0376751384520237 -2.3898588795078513
2.4018306179745994 -2.810342762057915
2.7939980574604504 -3.3228074939158043
3.19550281693406 -3.914112953751831
3.5596582964566355 -4.43971780693941
3.923813775979211 -4.93904241746761
4.250619975550753 -5.385806542677053
4.568088855134538 -5.701169454589601
4.78284721485298 -5.885131153205253
4.932244334657113 -6.003392245172459
5.025617534534697 -6.069092851820906
4.997605574571422 -6.108513215809975
4.922907014669355 -6.121653337139664
4.848208454767288 -6.239914429106869
4.717485974938671 -6.21363418644749
4.577426175122296 -6.1873539437881115
4.418691735330404 -6.055952730491216
4.343993175428337 -5.885131153205253
4.343993175428337 -5.6091886052817745
4.428029055318162 -5.320105936028606
4.502727615220229 -5.096723873423884
4.512064935207987 -4.847061568159784
4.456041015281437 -4.6105393842253735
4.32531853545282 -4.387157321620652
4.063873575795586 -4.203195623005
3.7650793361873194 -3.9798135604002787
3.4289358166280186 -3.822132104444005
2.9994190971911343 -3.6118901631689733
2.485866497864425 -3.4016482218939412
1.83225409872134 -3.151985916629841
1.1039431396761885 -2.889183490036052
0.37563218063103687 -2.6001008207828833
-0.17526969864670597 -2.324158272859404
-0.49273857823049 -2.048215724935925
-0.6234610580591069 -1.7591330556827562
-0.5954490980958319 -1.4963306290889666
-0.5300878581815234 -1.3255090518030035
-0.5394251781692817 -1.2729485664842455
-0.5674371381325568 -1.2072479598357981
-0.651473018022382 -1.1809677171764192
-0.7355088979122072 -1.1546874745170401
-0.8568940577530657 -1.1152671105279717
-0.9129179776796159 -1.0232862612201454
-0.9502672576306493 -0.9313054119123191
-0.9782792175939243 -0.8393245626044926
-0.968941897606166 -0.8261844412748032
-0.9876165375816827 -0.8261844412748032
-0.9969538575694411 -0.8261844412748032
-1.0156284975449577 -0.8524646839341822
-1.0343031375204745 -0.8524646839341822
-1.0809897374592663 -0.7867640772857347
-1.1090016974225414 -0.7867640772857347
-1.1370136573858163 -0.7079233493075978
-1.1463509773735747 -0.6553628639888399
-1.1183390174102996 -0.5371017720216346
-1.0809897374592663 -0.48454128670287666
-1.0623150974837496 -0.41884068005442926
-1.0343031375204745 -0.35314007340598186
-1.024965817532716 -0.3399999520762924
-1.024965817532716 -0.3268598307466029
-1.0156284975449577 -0.28743946675753446
-1.0529777774959912 -0.28743946675753446
-1.0809897374592663 -0.274299345427845
-1.127676337398058 -0.2611592240981555
-1.1743629373368498 -0.22173886010908705
-1.2117122172878831 -0.18231849612001863
-1.2770734572021916 -0.14289813213095018
-1.3330973771287418 -0.1297580108012607
-1.3517720171042584 -0.14289813213095018
-1.4264705770063253 -0.14289813213095018
-1.4638198569573588 -0.18231849612001863
-1.5291810968716673 -0.20859873877939758
-1.5945423367859757 -0.274299345427845
-1.659903576700284 -0.274299345427845
-1.734602136602351 -0.2611592240981555
-1.8186380164921763 -0.23487898143877653
-1.9120112163697598 -0.10347776814188174
-1.9586978163085516 -0.06405740415281329
-1.9867097762718264 0.10676417313314995
-2.0147217362351015 0.15932465845190788
-2.052071016186135 0.2118851437706658
-2.0894202961371686 0.30386599307849216
-2.08008297614941 0.3564264783972501
-2.1454442160637184 0.38270672105662906
-2.229480095953544 0.44840732770507646
-2.294841335867852 0.4878276916941449
-2.378877215757677 0.5666684196722818
-2.425563815696469 0.6192289049910397
-2.4909250556107776 0.6980696329691766
-2.5376116555495694 0.8163307249363819
-2.5749609355006027 0.8951714529145188
-2.612310215451636 0.9608720595629662
-2.668334135378186 1.0791331515301716
-2.668334135378186 1.11855351551924
-2.733695375292495 1.2105343648270663
-2.771044655243528 1.223674486156756
-2.8083939351945615 1.223674486156756
-2.8550805351333532 1.2368146074864452
-2.901767135072145 1.2762349714755137
-2.9484537350109368 1.3025152141348928
-2.9858030149619705 1.3287954567942717
-2.9858030149619705 1.3287954567942717
-2.9858030149619705 1.3287954567942717
-2.9671283749864537 1.3682158207833401
-2.976465694974212 1.3419355781239612
-2.957791054998695 1.3419355781239612
-2.920441775047662 1.2893750928052032
-2.892429815084387 1.2630948501458243
-2.8830924950966286 1.1842541221676874
-2.8457432151455953 1.092273272859861
-2.8270685751700784 1.0002924235520347
-2.789719295219045 0.9214516955738977
-2.7430326952802533 0.8426109675957609
-2.668334135378186 0.7769103609473135
-2.5749609355006027 0.7506301182879345
-2.4629130956475027 0.6849295116394871
-2.369539895769919 0.5929486623316608
-2.2668293759045772 0.5141079343535239
-2.1454442160637184 0.408986963716008
-2.042733696198377 0.2907258717488027
-1.9586978163085516 0.18560490111128686
-1.865324616430968 0.027923445155013073
-1.7719514165533843 -0.05091728282312381
-1.6879155366635592 -0.16917837479032913
-1.6132169767614923 -0.274299345427845
-1.4918318169206337 -0.35314007340598186
-1.3611093370920169 -0.4057005587247398
-1.2490614972389167 -0.49768140803256616
-1.1650256173490914 -0.5371017720216346
-1.0529777774959912 -0.602802378670082
-0.9969538575694411 -0.6816431066482189
-0.9409299376428909 -0.7604838346263558
-0.8849060177163408 -0.8393245626044926
-0.8475567377653074 -0.9050251692529401
-0.8475567377653074 -0.9707257759013874
-0.8288820977897907 -1.0627066252092139
-0.782195497850999 -1.0758467465389032
-0.810207457814274 -1.0758467465389032
-0.7728581778632406 -1.0758467465389032
-0.7261715779244488 -1.1284072318576612
-0.7355088979122072 -1.1021269891982823
-0.7074969379489321 -1.1284072318576612
-0.6888222979734154 -1.1546874745170401
-0.6608103380101403 -1.1941078385061086
-0.679484977985657 -1.2072479598357981
-0.679484977985657 -1.233528202495177
-0.6888222979734154 -1.233528202495177
-0.6888222979734154 -1.233528202495177
-0.6981596179611738 -1.2992288091436246
-0.679484977985657 -1.2598084451545561
-0.651473018022382 -1.2072479598357981
-0.6608103380101403 -1.1941078385061086
-0.6141237380713486 -1.2072479598357981
-0.6141237380713486 -1.1284072318576612
-0.6141237380713486 -1.1809677171764192
-0.6421356980346237 -1.1941078385061086
-0.6421356980346237 -1.2072479598357981
-0.6701476579978987 -1.2203880811654877
-0.7168342579366904 -1.2466683238248666
-0.7074969379489321 -1.2598084451545561
-0.679484977985657 -1.233528202495177
-0.6701476579978987 -1.2466683238248666
-0.6234610580591069 -1.1941078385061086
-0.6234610580591069 -1.1941078385061086
-0.6234610580591069 -1.1941078385061086
-0.5861117781080735 -1.2203880811654877
-0.6047864180835902 -1.2466683238248666
-0.6234610580591069 -1.233528202495177
-0.6047864180835902 -1.2729485664842455
-0.5954490980958319 -1.2729485664842455
-0.6047864180835902 -1.286088687813935
-0.5954490980958319 -1.312368930473314
-0.6047864180835902 -1.3386491731326928
-0.5861117781080735 -1.312368930473314
-0.5861117781080735 -1.2598084451545561
-0.5674371381325568 -1.2203880811654877
-0.5300878581815234 -1.2072479598357981
-0.5020758982182483 -1.2072479598357981
-0.5114132182060067 -1.2072479598357981
-0.5114132182060067 -1.2466683238248666
-0.5300878581815234 -1.286088687813935
-0.5394251781692817 -1.2598084451545561
-0.5487624981570401 -1.3255090518030035
-0.5487624981570401 -1.3517892944623824
-0.5580998181447985 -1.312368930473314
-0.5394251781692817 -1.3255090518030035
-0.520750538193765 -1.312368930473314
-0.4740639382549733 -1.286088687813935
-0.5114132182060067 -1.2598084451545561
-0.4834012582427316 -1.2466683238248666
-0.49273857823049 -1.2466683238248666
-0.5020758982182483 -1.286088687813935
-0.5020758982182483 -1.2992288091436246
-0.5394251781692817 -1.3517892944623824
-0.5114132182060067 -1.3912096584514508
-0.5394251781692817 -1.4043497797811404
-0.5114132182060067 -1.3912096584514508
-0.5114132182060067 -1.364929415792072
-0.5020758982182483 -1.312368930473314
-0.4740639382549733 -1.3517892944623824
-0.45538929827945657 -1.2992288091436246
-0.45538929827945657 -1.2466683238248666
-0.4460519782916982 -1.2598084451545561
-0.43671465830393985 -1.2729485664842455
-0.45538929827945657 -1.3255090518030035
-0.4740639382549733 -1.2992288091436246
-0.5020758982182483 -1.364929415792072
-0.5114132182060067 -1.4043497797811404
-0.5114132182060067 -1.3780695371217613
-0.49273857823049 -1.4306300224405193
-0.4740639382549733 -1.364929415792072
-0.45538929827945657 -1.3912096584514508
-0.4460519782916982 -1.3912096584514508
-0.4273773383161815 -1.3780695371217613
-0.4647266182672149 -1.364929415792072
-0.4647266182672149 -1.3912096584514508
-0.4273773383161815 -1.4043497797811404
-0.45538929827945657 -1.4043497797811404
-0.4460519782916982 -1.4700503864295877
-0.4647266182672149 -1.4569102650998982
-0.45538929827945657 -1.4174899011108297
-0.45538929827945657 -1.4174899011108297
-0.45538929827945657 -1.3912096584514508
-0.43671465830393985 -1.3517892944623824
-0.43671465830393985 -1.3386491731326928
-0.4273773383161815 -1.3386491731326928
-0.3806907383773897 -1.3255090518030035
-0.3993653783529064 -1.3255090518030035
-0.3993653783529064 -1.3386491731326928
-0.41804001832842314 -1.3517892944623824
-0.45538929827945657 -1.364929415792072
-0.43671465830393985 -1.4306300224405193
-0.4460519782916982 -1.4437701437702088
-0.4647266182672149 -1.4174899011108297
-0.45538929827945657 -1.4043497797811404
-0.4087026983406648 -1.3517892944623824
-0.3993653783529064 -1.2992288091436246
-0.3713534183896314 -1.3255090518030035
-0.3713534183896314 -1.3517892944623824
-0.3993653783529064 -1.364929415792072
-0.4087026983406648 -1.3780695371217613
-0.3900280583651481 -1.4174899011108297
-0.4273773383161815 -1.4306300224405193
-0.41804001832842314 -1.4306300224405193
-0.4087026983406648 -1.4306300224405193
-0.4087026983406648 -1.4437701437702088
-0.3900280583651481 -1.3912096584514508
-0.41804001832842314 -1.3780695371217613
-0.3806907383773897 -1.3517892944623824
-0.33400413843859794 -1.3255090518030035
-0.35267877841411466 -1.312368930473314
-0.36201609840187304 -1.3386491731326928
-0.35267877841411466 -1.3780695371217613
-0.36201609840187304 -1.3780695371217613
-0.3900280583651481 -1.4174899011108297
-0.3993653783529064 -1.4306300224405193
-0.3900280583651481 -1.4306300224405193
-0.3900280583651481 -1.4043497797811404
-0.3993653783529064 -1.4306300224405193
-0.3713534183896314 -1.3912096584514508
-0.35267877841411466 -1.3780695371217613
-0.3433414584263563 -1.364929415792072
-0.3433414584263563 -1.3780695371217613
-0.33400413843859794 -1.3912096584514508
-0.33400413843859794 -1.4043497797811404
-0.35267877841411466 -1.4174899011108297
-0.3713534183896314 -1.4174899011108297
-0.3713534183896314 -1.4437701437702088
-0.3806907383773897 -1.4306300224405193
-0.3713534183896314 -1.4437701437702088
-0.3713534183896314 -1.4043497797811404
-0.3433414584263563 -1.3912096584514508
-0.33400413843859794 -1.3912096584514508
-0.3246668184508396 -1.3912096584514508
-0.3806907383773897 -1.4306300224405193
-0.3246668184508396 -1.3912096584514508
-0.3153294984630813 -1.4306300224405193
-0.36201609840187304 -1.4569102650998982
-0.3806907383773897 -1.4569102650998982
-0.3993653783529064 -1.4569102650998982
-0.3900280583651481 -1.4963306290889666
-0.3900280583651481 -1.4700503864295877
-0.35267877841411466 -1.4306300224405193
-0.3246668184508396 -1.4306300224405193
-0.33400413843859794 -1.4043497797811404
-0.2873175384998062 -1.3780695371217613
-0.3059921784753229 -1.3912096584514508
-0.2873175384998062 -1.4174899011108297
-0.33400413843859794 -1.4437701437702088
-0.3433414584263563 -1.4437701437702088
-0.3433414584263563 -1.4963306290889666
-0.36201609840187304 -1.4831905077592773
-0.3433414584263563 -1.4569102650998982
-0.3433414584263563 -1.4831905077592773
-0.3246668184508396 -1.4700503864295877
-0.33400413843859794 -1.4174899011108297
-0.29665485848756457 -1.4043497797811404
-0.2873175384998062 -1.364929415792072
-0.27798021851204785 -1.3517892944623824
-0.27798021851204785 -1.4306300224405193
-0.3059921784753229 -1.4174899011108297
-0.3059921784753229 -1.4569102650998982
-0.3433414584263563 -1.4700503864295877
-0.3433414584263563 -1.5094707504186562
-0.3246668184508396 -1.4831905077592773
-0.3246668184508396 -1.4831905077592773
-0.3433414584263563 -1.4700503864295877
-0.29665485848756457 -1.4437701437702088
-0.27798021851204785 -1.3780695371217613
-0.24996825854877278 -1.364929415792072
-0.26864289852428946 -1.3780695371217613
-0.26864289852428946 -1.364929415792072
-0.26864289852428946 -1.3912096584514508
-0.2873175384998062 -1.4174899011108297
-0.3246668184508396 -1.4437701437702088
-0.29665485848756457 -1.4437701437702088
-0.3059921784753229 -1.4437701437702088
-0.3153294984630813 -1.4043497797811404
-0.3059921784753229 -1.364929415792072
-0.2873175384998062 -1.3517892944623824
-0.24063093856101442 -1.364929415792072
-0.2312936185732561 -1.3255090518030035
-0.24063093856101442 -1.3255090518030035
-0.24063093856101442 -1.3780695371217613
-0.24996825854877278 -1.3912096584514508
-0.2873175384998062 -1.4306300224405193
-0.2873175384998062 -1.4437701437702088
-0.3153294984630813 -1.4569102650998982
-0.29665485848756457 -1.4306300224405193
-0.2873175384998062 -1.4569102650998982
-0.27798021851204785 -1.3780695371217613
-0.2312936185732561 -1.4043497797811404
-0.24063093856101442 -1.3386491731326928
-0.24063093856101442 -1.3386491731326928
-0.21261897859773937 -1.3517892944623824
-0.21261897859773937 -1.364929415792072
-0.2312936185732561 -1.3912096584514508
-0.25930557853653113 -1.364929415792072
-0.24996825854877278 -1.3912096584514508
-0.24063093856101442 -1.4306300224405193
-0.29665485848756457 -1.3780695371217613
-0.25930557853653113 -1.4043497797811404
-0.29665485848756457 -1.3386491731326928
-0.26864289852428946 -1.3255090518030035
-0.27798021851204785 -1.2992288091436246
-0.25930557853653113 -1.312368930473314
-0.21261897859773937 -1.3517892944623824
-0.2312936185732561 -1.3386491731326928
-0.26864289852428946 -1.3517892944623824
-0.25930557853653113 -1.3780695371217613
-0.26864289852428946 -1.4043497797811404
-0.2873175384998062 -1.4174899011108297
-0.2873175384998062 -1.3912096584514508
-0.24063093856101442 -1.3517892944623824
-0.22195629858549773 -1.3517892944623824
-0.2312936185732561 -1.3517892944623824
-0.21261897859773937 -1.312368930473314
-0.17526969864670597 -1.312368930473314
-0.1846070186344643 -1.312368930473314
-0.2312936185732561 -1.3386491731326928
-0.19394433862222266 -1.3255090518030035
-0.21261897859773937 -1.3386491731326928
-0.22195629858549773 -1.3912096584514508
-0.25930557853653113 -1.3912096584514508
-0.26864289852428946 -1.4306300224405193
-0.25930557853653113 -1.3912096584514508
-0.20328165860998101 -1.3780695371217613
-0.19394433862222266 -1.3255090518030035
-0.1659323786589476 -1.3386491731326928
-0.17526969864670597 -1.312368930473314
-0.1846070186344643 -1.3517892944623824
-0.17526969864670597 -1.3386491731326928
-0.19394433862222266 -1.3780695371217613
-0.1846070186344643 -1.3912096584514508
-0.21261897859773937 -1.4174899011108297
-0.20328165860998101 -1.4306300224405193
-0.22195629858549773 -1.4437701437702088
-0.20328165860998101 -1.4306300224405193
-0.17526969864670597 -1.3517892944623824
-0.1472577386834309 -1.3517892944623824
-0.11924577872015583 -1.2992288091436246
-0.10057113874463913 -1.233528202495177
-0.07255917878136407 -1.2466683238248666
-0.016535258854813946 -1.1941078385061086
0.002139381120702761 -1.1941078385061086
0.039488661071736174 -1.1809677171764192
0.048825981059494525 -1.1546874745170401
0.039488661071736174 -1.1678275958467297
0.06750062103501124 -1.1284072318576612
0.0955125809982863 -1.0889868678685928
0.07683794102276958 -1.0232862612201454
0.07683794102276958 -1.0101461398904559
0.08617526101052794 -1.0232862612201454
0.06750062103501124 -0.9970060185607664
0.05816330104725288 -1.1021269891982823
0.030151341083977823 -1.1941078385061086
0.002139381120702761 -1.2729485664842455
-0.044547218818089006 -1.3780695371217613
-0.044547218818089006 -1.4569102650998982
-0.10057113874463913 -1.5620312357374142
-0.1472577386834309 -1.5751713570671035
-0.1659323786589476 -1.5620312357374142
-0.1846070186344643 -1.5751713570671035
-0.19394433862222266 -1.5094707504186562
-0.17526969864670597 -1.4306300224405193
-0.17526969864670597 -1.3517892944623824
-0.1472577386834309 -1.3912096584514508
-0.13792041869567254 -1.364929415792072
-0.13792041869567254 -1.3780695371217613
-0.15659505867118925 -1.4174899011108297
-0.1659323786589476 -1.4831905077592773
-0.1659323786589476 -1.4831905077592773
-0.17526969864670597 -1.4831905077592773
-0.17526969864670597 -1.4700503864295877
-0.13792041869567254 -1.4306300224405193
-0.15659505867118925 -1.4174899011108297
-0.11924577872015583 -1.3912096584514508
-0.11924577872015583 -1.3255090518030035
-0.07255917878136407 -1.364929415792072
-0.10990845873239748 -1.3912096584514508
-0.10057113874463913 -1.3912096584514508
-0.11924577872015583 -1.4043497797811404
-0.15659505867118925 -1.3912096584514508
-0.20328165860998101 -1.4306300224405193
-0.25930557853653113 -1.4043497797811404
-0.25930557853653113 -1.3255090518030035
-0.17526969864670597 -1.2072479598357981
-0.05388453880584736 -1.0495665038795243
0.17021114090035314 -0.8524646839341822
0.5343666204229289 -0.7210634706372874
1.010569939798605 -0.7604838346263558
1.617495739002898 -0.8130443199451137
2.3271320580725328 -1.0889868678685928
2.990081777203376 -1.5226108717483458
3.5409836564811186 -2.0744959675953036
3.8491152160771445 -2.6658014274313304
3.9518257359424864 -3.2702470085970465
3.8771271760404193 -3.7564314977955573
3.6156822163831857 -4.045514167048726
3.1021296170564763 -4.137495016356552
2.280445458133741 -4.124354895026863
1.3280388193823889 -3.9009728324221418
0.38496950061879526 -3.743291376465868
-0.1846070186344643 -3.493629071201768
-0.3806907383773897 -3.243966765937668
-0.26864289852428946 -3.007444582003257
-0.035209898830330655 -2.7840625193985358
0.20756042085138654 -2.5344002141344357
0.28225898075345335 -2.3110181515297143
0.31027094071672845 -2.140196574243751
0.22623506082690326 -1.9562348756280985
0.15153650092483642 -1.7328528130233773
0.07683794102276958 -1.5751713570671035
-0.007197938867055592 -1.4174899011108297
-0.07255917878136407 -1.3780695371217613
-0.08189649876912242 -1.3386491731326928
-0.044547218818089006 -1.3386491731326928
-0.08189649876912242 -1.3517892944623824
-0.05388453880584736 -1.3386491731326928
-0.08189649876912242 -1.3517892944623824
-0.08189649876912242 -1.312368930473314
-0.09123381875688077 -1.286088687813935
-0.07255917878136407 -1.2598084451545561
-0.07255917878136407 -1.233528202495177
-0.06322185879360571 -1.2203880811654877
-0.044547218818089006 -1.1678275958467297
-0.06322185879360571 -1.1678275958467297
-0.08189649876912242 -1.1941078385061086
-0.07255917878136407 -1.1678275958467297
-0.10057113874463913 -1.2203880811654877
-0.10990845873239748 -1.2466683238248666
-0.10990845873239748 -1.2203880811654877
-0.10057113874463913 -1.1809677171764192
-0.08189649876912242 -1.1546874745170401
-0.07255917878136407 -1.1152671105279717
-0.08189649876912242 -1.0889868678685928
-0.07255917878136407 -1.0627066252092139
-0.07255917878136407 -1.0758467465389032
-0.05388453880584736 -1.0627066252092139
-0.044547218818089006 -1.0495665038795243
-0.07255917878136407 -1.0889868678685928
-0.07255917878136407 -1.1021269891982823
-0.06322185879360571 -1.1284072318576612
-0.12858309870791418 -1.1284072318576612
-0.09123381875688077 -1.1284072318576612
-0.10990845873239748 -1.0889868678685928
-0.07255917878136407 -1.0364263825498348
-0.08189649876912242 -1.0364263825498348
-0.044547218818089006 -0.983865897231077
-0.044547218818089006 -1.0101461398904559
-0.044547218818089006 -0.983865897231077
-0.05388453880584736 -0.983865897231077
-0.10057113874463913 -0.9970060185607664
-0.05388453880584736 -1.0101461398904559
-0.044547218818089006 -1.0364263825498348
-0.05388453880584736 -1.0627066252092139
-0.05388453880584736 -1.0232862612201454
-0.05388453880584736 -1.0495665038795243
-0.044547218818089006 -1.0101461398904559
-0.007197938867055592 -0.9707257759013874
0.011476701108461114 -0.9444455332420085
-0.007197938867055592 -0.8656048052638716
0.002139381120702761 -0.8918850479232506
-0.007197938867055592 -0.8787449265935611
-0.016535258854813946 -0.8787449265935611
-0.016535258854813946 -0.9181652905826295
0.002139381120702761 -0.9181652905826295
0.02081402109621947 -0.9050251692529401
0.030151341083977823 -0.9050251692529401
0.048825981059494525 -0.9313054119123191
0.06750062103501124 -0.8524646839341822
0.12352454096156136 -0.8524646839341822
0.114187220973803 -0.8393245626044926
0.14219918093707806 -0.7736239559560453
0.15153650092483642 -0.8393245626044926
0.17021114090035314 -0.7999041986154242
0.17021114090035314 -0.8130443199451137
0.18888578087586982 -0.7867640772857347
0.20756042085138654 -0.8393245626044926
0.20756042085138654 -0.8261844412748032
0.24490970080241994 -0.8787449265935611
0.29159630074121173 -0.8524646839341822
0.3196082607044868 -0.7867640772857347
0.36629486064327854 -0.7999041986154242
0.4223187805698287 -0.7473437132966663
0.44099342054534535 -0.7210634706372874
0.46900538050862045 -0.6816431066482189
0.4783427004963788 -0.7473437132966663
0.5250293004351706 -0.7604838346263558
0.5623785803862039 -0.7604838346263558
0.5810532203617207 -0.8261844412748032
0.5997278603372374 -0.7999041986154242
0.6090651803249957 -0.8524646839341822
0.6464144602760291 -0.8524646839341822
0.6931010602148209 -0.8656048052638716
0.721113020178096 -0.8393245626044926
0.7771369401046461 -0.8261844412748032
0.7864742600924044 -0.8393245626044926
0.8238235400434378 -0.7999041986154242
0.8238235400434378 -0.8261844412748032
0.8611728199944713 -0.8656048052638716
0.8518355000067129 -0.8787449265935611
0.879847459969988 -0.8918850479232506
0.879847459969988 -0.9444455332420085
0.8705101399822296 -0.9444455332420085
0.8705101399822296 -0.957585654571698
0.9265340599087798 -0.9313054119123191
0.9358713798965381 -0.9181652905826295
0.9265340599087798 -0.9181652905826295
0.9358713798965381 -0.8918850479232506
0.9265340599087798 -0.9181652905826295
0.8891847799577464 -0.9181652905826295
0.879847459969988 -0.9181652905826295
0.7864742600924044 -0.9313054119123191
0.7584623001291294 -0.9181652905826295
0.7024383802025793 -0.9181652905826295
0.6557517802637876 -0.957585654571698
0.6277398203005125 -0.957585654571698
0.5997278603372374 -0.8787449265935611
0.5810532203617207 -0.8918850479232506
0.5343666204229289 -0.8261844412748032
0.5156919804474122 -0.7999041986154242
0.48768002048413717 -0.8261844412748032
0.44099342054534535 -0.7999041986154242
0.4223187805698287 -0.8393245626044926
0.3382829006800035 -0.8656048052638716
0.3289455806922451 -0.8656048052638716
0.30093362072897006 -0.9444455332420085
0.22623506082690326 -0.9181652905826295
0.19822310086362818 -0.9181652905826295
0.20756042085138654 -0.8787449265935611
0.2168977408391449 -0.8656048052638716
0.20756042085138654 -0.8393245626044926
0.2168977408391449 -0.8130443199451137
0.20756042085138654 -0.8524646839341822
0.17954846088811147 -0.8524646839341822
0.16087382091259478 -0.8524646839341822
0.15153650092483642 -0.9181652905826295
0.114187220973803 -0.9707257759013874
0.114187220973803 -0.9707257759013874
0.114187220973803 -0.9707257759013874
0.0955125809982863 -0.957585654571698
0.114187220973803 -0.957585654571698
0.10484990098604464 -0.9050251692529401
0.14219918093707806 -0.8393245626044926
0.16087382091259478 -0.8261844412748032
0.17954846088811147 -0.8656048052638716
0.17954846088811147 -0.8918850479232506
0.17021114090035314 -0.9050251692529401
0.1328618609493197 -0.8787449265935611
0.16087382091259478 -0.9050251692529401
0.12352454096156136 -0.957585654571698
0.114187220973803 -0.9050251692529401
0.14219918093707806 -0.9050251692529401
0.1328618609493197 -0.8524646839341822
0.17021114090035314 -0.8524646839341822
0.17954846088811147 -0.8787449265935611
0.17954846088811147 -0.8656048052638716
0.23557238081466159 -0.8656048052638716
0.22623506082690326 -0.8918850479232506
0.24490970080241994 -0.9181652905826295
0.20756042085138654 -0.983865897231077
0.18888578087586982 -0.957585654571698
0.2168977408391449 -0.957585654571698
0.23557238081466159 -0.9707257759013874
0.24490970080241994 -0.9707257759013874
0.29159630074121173 -0.8787449265935611
0.30093362072897006 -0.8787449265935611
0.3196082607044868 -0.8787449265935611
0.3289455806922451 -0.8524646839341822
0.3289455806922451 -0.7867640772857347
0.3196082607044868 -0.8261844412748032
0.29159630074121173 -0.8130443199451137
0.28225898075345335 -0.7867640772857347
0.272921660765695 -0.7867640772857347
0.272921660765695 -0.7342035919669768
0.2542470207901783 -0.7079233493075978
0.26358434077793663 -0.6290826213294609
0.3476202206677618 -0.4582610440434977
0.46900538050862045 -0.3137197094169134
0.6464144602760291 -0.18231849612001863
0.8891847799577464 -0.05091728282312381
1.1226177796517052 -0.09033764681219225
1.3467134593579058 -0.23487898143877653
1.6081584190151395 -0.602802378670082
1.8509287386968567 -1.0495665038795243
2.121711018341849 -1.5620312357374142
2.4578545379011496 -1.943094754298409
2.8220100174237257 -2.3635786368484726
3.1674908569707845 -2.7709223980688464
3.5783329364321523 -3.2176865232782887
3.970500375918003 -3.743291376465868
4.32531853545282 -4.203195623005
4.642787415036604 -4.7025202335332
4.904232374693838 -5.109863994753574
5.100316094436764 -5.4383670279958105
5.268387854216414 -5.596048483952084
5.361761054093997 -5.6486089692708426
5.417784974020548 -5.7274496972489795
5.4084476540327895 -5.780010182567738
5.343086414118481 -5.793150303897427
5.296399814179689 -5.7274496972489795
5.203026614302106 -5.740589818578669
5.100316094436764 -5.635468847941153
4.95091897463263 -5.530347877303638
4.866883094742805 -5.333246057358295
4.8295338147917715 -5.175564601402021
4.83887113477953 -4.93904241746761
4.9135696946815965 -4.728800476192579
4.922907014669355 -4.4922782922581685
4.89489505470608 -4.347736957631584
4.7268232949264295 -4.084934531037795
4.530739575183504 -3.822132104444005
4.250619975550753 -3.6118901631689733
3.9331510959669695 -3.3622278579048728
3.625019536370944 -3.1257056739704625
3.1861654969463014 -2.8497631260469833
2.6912875375951084 -2.6001008207828833
2.0190004984765073 -2.376718758178162
1.3000268594191138 -2.1664768169031303
0.6277398203005125 -1.9299546329687196
0.16087382091259478 -1.66715220637493
-0.09123381875688077 -1.4174899011108297
-0.1659323786589476 -1.0889868678685928
-0.11924577872015583 -0.8656048052638716
-0.06322185879360571 -0.6553628639888399
-0.035209898830330655 -0.5502418933513241
-0.09123381875688077 -0.4451209227138082
-0.1846070186344643 -0.43198080138411876
-0.27798021851204785 -0.3925604373950503
-0.3433414584263563 -0.35314007340598186
-0.3900280583651481 -0.3399999520762924
-0.41804001832842314 -0.23487898143877653
-0.45538929827945657 -0.22173886010908705
-0.49273857823049 -0.16917837479032913
-0.49273857823049 -0.10347776814188174
-0.5020758982182483 -0.07719752548250278
-0.5020758982182483 0.027923445155013073
-0.4740639382549733 0.06734380914408152
-0.43671465830393985 0.1461845371222184
-0.41804001832842314 0.2644456290894237
-0.3900280583651481 0.2644456290894237
-0.36201609840187304 0.2907258717488027
-0.3806907383773897 0.31700611440818166
-0.4087026983406648 0.3432863570675606
-0.4647266182672149 0.3301462357378711
-0.5394251781692817 0.31700611440818166
-0.5861117781080735 0.3432863570675606
-0.6981596179611738 0.3301462357378711
-0.7074969379489321 0.2907258717488027
-0.782195497850999 0.2775857504191132
-0.8008701378265156 0.25130550775973426
-0.8195447778020324 0.2644456290894237
-0.838219417777549 0.2644456290894237
-0.8942433377040991 0.23816538643004476
-0.9596045776184077 0.23816538643004476
-1.024965817532716 0.25130550775973426
-1.127676337398058 0.2644456290894237
-1.2117122172878831 0.3301462357378711
-1.2770734572021916 0.39584684238631856
-1.370446657079775 0.4746875703644554
-1.3984586170430502 0.5535282983425923
-1.389121297055292 0.6455091476504187
-1.389121297055292 0.7112097542988661
-1.4077959370308086 0.8031906036066925
-1.4544825369696004 0.8163307249363819
-1.473157176945117 0.9083115742442083
-1.5665303768227006 0.9608720595629662
-1.6038796567737341 1.013432544881724
-1.659903576700284 1.0397127875411032
-1.7159274966268343 1.1054133941895505
-1.7532767765778676 1.1579738795083083
-1.8279753364799345 1.1711140008379979
-1.8466499764554511 1.2499547288161348
-1.893336576394243 1.3682158207833401
-1.9493604963207931 1.4864769127505455
-1.9867097762718264 1.5784577620583717
-1.9867097762718264 1.6441583687068193
-2.005384416247343 1.6704386113661982
-2.0707456561616517 1.7361392180146455
-2.154781536051477 1.775559582003714
-2.2201427759657855 1.8149799459927825
-2.2761666958923357 1.8675404313115405
-2.313515975843369 1.8675404313115405
-2.369539895769919 1.9332410379599878
-2.3602025757821607 1.9858015232787458
-2.397551855733194 2.0777823725865723
-2.397551855733194 2.0777823725865723
-2.397551855733194 2.13034285790533
-2.4068891757209525 2.182903343224088
-2.416226495708711 2.182903343224088
-2.425563815696469 2.13034285790533
-2.4722504156352607 2.13034285790533
-2.4535757756597443 2.0120817659381247
-2.4629130956475027 2.0120817659381247
-2.4068891757209525 1.9463811592896774
-2.378877215757677 1.8675404313115405
-2.3508652557944023 1.7886997033334036
-2.3228532958311274 1.7361392180146455
-2.2668293759045772 1.7098589753552667
-2.19213081600251 1.6835787326958878
-2.0987576161249266 1.5784577620583717
-2.042733696198377 1.4601966700911664
-1.9586978163085516 1.4076361847724086
-1.8466499764554511 1.2762349714755137
-1.7719514165533843 1.1579738795083083
-1.6692408966880425 1.013432544881724
-1.5665303768227006 0.9083115742442083
-1.4638198569573588 0.8426109675957609
-1.3611093370920169 0.7243498756285556
-1.2303868572633998 0.6586492689801081
-1.1370136573858163 0.6060887836613502
-1.0156284975449577 0.5272480556832133
-0.9222552976673742 0.44840732770507646
-0.838219417777549 0.3564264783972501
-0.7448462178999655 0.2907258717488027
-0.679484977985657 0.19874502244097633
-0.6421356980346237 0.1461845371222184
-0.5861117781080735 0.05420368781439203
-0.5300878581815234 -0.03777716149343433
-0.5114132182060067 -0.07719752548250278
-0.4740639382549733 -0.10347776814188174
-0.41804001832842314 -0.1297580108012607
-0.3806907383773897 -0.14289813213095018
-0.33400413843859794 -0.10347776814188174
-0.29665485848756457 -0.18231849612001863
-0.26864289852428946 -0.16917837479032913
-0.29665485848756457 -0.18231849612001863
-0.2873175384998062 -0.23487898143877653
-0.3059921784753229 -0.24801910276846603
-0.33400413843859794 -0.2611592240981555
-0.3433414584263563 -0.30057958808722396
-0.35267877841411466 -0.3399999520762924
-0.33400413843859794 -0.274299345427845
-0.3059921784753229 -0.24801910276846603
-0.2873175384998062 -0.24801910276846603
-0.29665485848756457 -0.20859873877939758
-0.26864289852428946 -0.1954586174497081
-0.24996825854877278 -0.20859873877939758
-0.25930557853653113 -0.16917837479032913
-0.27798021851204785 -0.22173886010908705
-0.2873175384998062 -0.23487898143877653
-0.3153294984630813 -0.2611592240981555
-0.25930557853653113 -0.23487898143877653
-0.29665485848756457 -0.23487898143877653
-0.27798021851204785 -0.274299345427845
-0.26864289852428946 -0.22173886010908705
-0.26864289852428946 -0.2611592240981555
-0.25930557853653113 -0.23487898143877653
-0.24996825854877278 -0.22173886010908705
-0.2312936185732561 -0.20859873877939758
-0.25930557853653113 -0.1954586174497081
-0.2312936185732561 -0.1954586174497081
-0.24996825854877278 -0.23487898143877653
-0.26864289852428946 -0.2611592240981555
-0.2873175384998062 -0.3137197094169134
-0.25930557853653113 -0.28743946675753446
-0.25930557853653113 -0.2611592240981555
-0.24996825854877278 -0.2611592240981555
-0.2312936185732561 -0.22173886010908705
-0.1846070186344643 -0.20859873877939758
-0.1846070186344643 -0.18231849612001863
-0.1846070186344643 -0.1954586174497081
-0.15659505867118925 -0.18231849612001863
-0.17526969864670597 -0.20859873877939758
-0.1846070186344643 -0.2611592240981555
-0.1846070186344643 -0.23487898143877653
-0.24063093856101442 -0.2611592240981555
-0.21261897859773937 -0.2611592240981555
-0.20328165860998101 -0.28743946675753446
-0.17526969864670597 -0.22173886010908705
-0.15659505867118925 -0.23487898143877653
-0.12858309870791418 -0.20859873877939758
-0.12858309870791418 -0.1954586174497081
-0.09123381875688077 -0.23487898143877653
-0.10990845873239748 -0.22173886010908705
-0.12858309870791418 -0.20859873877939758
-0.17526969864670597 -0.274299345427845
-0.15659505867118925 -0.2611592240981555
-0.19394433862222266 -0.274299345427845
-0.1846070186344643 -0.28743946675753446
-0.13792041869567254 -0.3137197094169134
-0.15659505867118925 -0.28743946675753446
-0.10990845873239748 -0.22173886010908705
-0.10057113874463913 -0.22173886010908705
-0.10990845873239748 -0.20859873877939758
-0.09123381875688077 -0.1954586174497081
-0.10057113874463913 -0.22173886010908705
-0.11924577872015583 -0.22173886010908705
-0.10990845873239748 -0.274299345427845
-0.10990845873239748 -0.28743946675753446
-0.10057113874463913 -0.28743946675753446
-0.10990845873239748 -0.3137197094169134
-0.13792041869567254 -0.274299345427845
-0.12858309870791418 -0.2611592240981555
-0.13792041869567254 -0.24801910276846603
-0.11924577872015583 -0.2611592240981555
-0.10057113874463913 -0.22173886010908705
-0.08189649876912242 -0.22173886010908705
-0.05388453880584736 -0.2611592240981555
-0.07255917878136407 -0.24801910276846603
-0.08189649876912242 -0.24801910276846603
-0.09123381875688077 -0.28743946675753446
-0.11924577872015583 -0.30057958808722396
-0.12858309870791418 -0.30057958808722396
-0.11924577872015583 -0.3137197094169134
-0.12858309870791418 -0.24801910276846603
-0.09123381875688077 -0.23487898143877653
-0.08189649876912242 -0.22173886010908705
-0.07255917878136407 -0.16917837479032913
-0.07255917878136407 -0.16917837479032913
-0.07255917878136407 -0.22173886010908705
-0.06322185879360571 -0.20859873877939758
-0.07255917878136407 -0.20859873877939758
-0.10990845873239748 -0.2611592240981555
-0.10990845873239748 -0.30057958808722396
-0.09123381875688077 -0.30057958808722396
-0.12858309870791418 -0.28743946675753446
-0.11924577872015583 -0.30057958808722396
-0.10990845873239748 -0.23487898143877653
-0.09123381875688077 -0.1954586174497081
-0.11924577872015583 -0.16917837479032913
-0.07255917878136407 -0.20859873877939758
-0.07255917878136407 -0.22173886010908705
-0.05388453880584736 -0.274299345427845
-0.09123381875688077 -0.274299345427845
-0.10057113874463913 -0.28743946675753446
-0.10990845873239748 -0.30057958808722396
-0.10057113874463913 -0.274299345427845
-0.11924577872015583 -0.274299345427845
-0.12858309870791418 -0.24801910276846603
-0.10057113874463913 -0.18231849612001863
-0.10057113874463913 -0.16917837479032913
-0.09123381875688077 -0.15603825346063965
-0.07255917878136407 -0.14289813213095018
-0.07255917878136407 -0.14289813213095018
-0.044547218818089006 -0.16917837479032913
-0.06322185879360571 -0.18231849612001863
-0.09123381875688077 -0.1954586174497081
-0.08189649876912242 -0.274299345427845
-0.10990845873239748 -0.2611592240981555
-0.11924577872015583 -0.23487898143877653
-0.10990845873239748 -0.20859873877939758
-0.09123381875688077 -0.18231849612001863
-0.10990845873239748 -0.15603825346063965
-0.10057113874463913 -0.15603825346063965
-0.10990845873239748 -0.16917837479032913
-0.10057113874463913 -0.10347776814188174
-0.07255917878136407 -0.16917837479032913
-0.10990845873239748 -0.20859873877939758
-0.1472577386834309 -0.22173886010908705
-0.13792041869567254 -0.1954586174497081
-0.11924577872015583 -0.23487898143877653
-0.13792041869567254 -0.22173886010908705
-0.12858309870791418 -0.23487898143877653
-0.13792041869567254 -0.18231849612001863
-0.09123381875688077 -0.10347776814188174
-0.08189649876912242 -0.10347776814188174
-0.09123381875688077 -0.10347776814188174
-0.044547218818089006 -0.10347776814188174
-0.044547218818089006 -0.11661788947157121
-0.044547218818089006 -0.14289813213095018
-0.044547218818089006 -0.14289813213095018
-0.08189649876912242 -0.16917837479032913
-0.09123381875688077 -0.16917837479032913
-0.10057113874463913 -0.22173886010908705
-0.10057113874463913 -0.1954586174497081
-0.07255917878136407 -0.10347776814188174
-0.06322185879360571 -0.07719752548250278
-0.07255917878136407 -0.09033764681219225
-0.05388453880584736 -0.07719752548250278
-0.07255917878136407 -0.06405740415281329
-0.06322185879360571 -0.10347776814188174
-0.06322185879360571 -0.11661788947157121
-0.08189649876912242 -0.14289813213095018
-0.08189649876912242 -0.1954586174497081
-0.09123381875688077 -0.15603825346063965
-0.10057113874463913 -0.15603825346063965
-0.09123381875688077 -0.11661788947157121
-0.09123381875688077 -0.07719752548250278
-0.044547218818089006 -0.06405740415281329
-0.044547218818089006 -0.07719752548250278
-0.044547218818089006 -0.10347776814188174
-0.044547218818089006 -0.05091728282312381
-0.035209898830330655 -0.03777716149343433
-0.044547218818089006 -0.06405740415281329
-0.09123381875688077 -0.11661788947157121
-0.10057113874463913 -0.1297580108012607
-0.10990845873239748 -0.16917837479032913
-0.10990845873239748 -0.1297580108012607
-0.10990845873239748 -0.14289813213095018
-0.044547218818089006 -0.07719752548250278
-0.05388453880584736 -0.11661788947157121
-0.08189649876912242 -0.05091728282312381
-0.035209898830330655 -0.09033764681219225
-0.08189649876912242 -0.05091728282312381
-0.11924577872015583 -0.02463704016374485
-0.08189649876912242 -0.09033764681219225
-0.09123381875688077 -0.11661788947157121
-0.10057113874463913 -0.1297580108012607
-0.08189649876912242 -0.10347776814188174
-0.07255917878136407 -0.1297580108012607
-0.044547218818089006 -0.07719752548250278
-0.0258725788425723 -0.06405740415281329
-0.0258725788425723 -0.02463704016374485
-0.016535258854813946 0.001643202495634113
-0.0258725788425723 0.014783323825323593
-0.035209898830330655 -0.011496918834055368
-0.06322185879360571 0.027923445155013073
-0.08189649876912242 -0.02463704016374485
-0.08189649876912242 -0.07719752548250278
-0.10057113874463913 -0.09033764681219225
-0.08189649876912242 -0.06405740415281329
-0.07255917878136407 -0.07719752548250278
-0.05388453880584736 -0.03777716149343433
-0.05388453880584736 -0.03777716149343433
-0.035209898830330655 0.014783323825323593
-0.016535258854813946 0.04106356648470256
-0.007197938867055592 0.027923445155013073
-0.016535258854813946 -0.011496918834055368
-0.044547218818089006 -0.011496918834055368
-0.044547218818089006 -0.011496918834055368
-0.07255917878136407 -0.03777716149343433
-0.07255917878136407 -0.06405740415281329
-0.08189649876912242 -0.03777716149343433
-0.06322185879360571 -0.03777716149343433
-0.044547218818089006 0.001643202495634113
-0.05388453880584736 0.05420368781439203
-0.016535258854813946 0.04106356648470256
-0.016535258854813946 0.06734380914408152
-0.007197938867055592 0.06734380914408152
-0.007197938867055592 0.06734380914408152
-0.016535258854813946 0.06734380914408152
-0.035209898830330655 0.014783323825323593
-0.035209898830330655 -0.011496918834055368
-0.07255917878136407 -0.02463704016374485
-0.05388453880584736 -0.05091728282312381
-0.10057113874463913 -0.011496918834055368
-0.08189649876912242 -0.011496918834055368
-0.10057113874463913 0.001643202495634113
-0.07255917878136407 0.001643202495634113
-0.05388453880584736 0.09362405180346048
-0.044547218818089006 0.09362405180346048
-0.035209898830330655 0.080483930473771
-0.016535258854813946 0.05420368781439203
-0.016535258854813946 0.05420368781439203
-0.035209898830330655 0.014783323825323593
-0.044547218818089006 0.027923445155013073
-0.07255917878136407 -0.011496918834055368
-0.06322185879360571 0.027923445155013073
-0.09123381875688077 0.05420368781439203
-0.035209898830330655 0.09362405180346048
-0.016535258854813946 0.11990429446283944
0.002139381120702761 0.11990429446283944
0.002139381120702761 0.10676417313314995
0.02081402109621947 0.1461845371222184
0.030151341083977823 0.11990429446283944
-0.007197938867055592 0.080483930473771
-0.0258725788425723 0.04106356648470256
-0.0258725788425723 0.014783323825323593
-0.05388453880584736 0.027923445155013073
-0.044547218818089006 0.04106356648470256
-0.044547218818089006 0.05420368781439203
-0.016535258854813946 0.05420368781439203
0.02081402109621947 0.10676417313314995
0.030151341083977823 0.13304441579252893
0.06750062103501124 0.10676417313314995
0.05816330104725288 0.13304441579252893
0.039488661071736174 0.18560490111128686
0.06750062103501124 0.17246477978159735
0.10484990098604464 0.18560490111128686
0.12352454096156136 0.17246477978159735
0.15153650092483642 0.22502526510035528
0.18888578087586982 0.25130550775973426
0.23557238081466159 0.2907258717488027
0.272921660765695 0.36956659972693956
0.30093362072897006 0.43526720637538696
0.3289455806922451 0.46154744903476597
0.3196082607044868 0.44840732770507646
0.29159630074121173 0.46154744903476597
0.28225898075345335 0.44840732770507646
0.23557238081466159 0.38270672105662906
0.2168977408391449 0.3301462357378711
0.17021114090035314 0.2775857504191132
0.16087382091259478 0.17246477978159735
0.17021114090035314 0.11990429446283944
0.1328618609493197 0.09362405180346048
0.114187220973803 0.05420368781439203
0.06750062103501124 0.05420368781439203
0.05816330104725288 0.05420368781439203
0.07683794102276958 0.027923445155013073
-0.016535258854813946 0.027923445155013073
-0.05388453880584736 0.04106356648470256
-0.044547218818089006 0.05420368781439203
-0.044547218818089006 0.080483930473771
-0.044547218818089006 0.06734380914408152
-0.0258725788425723 0.027923445155013073
-0.035209898830330655 0.04106356648470256
-0.016535258854813946 0.06734380914408152
0.011476701108461114 0.10676417313314995
0.02081402109621947 0.15932465845190788
0.039488661071736174 0.2118851437706658
0.039488661071736174 0.13304441579252893
0.02081402109621947 0.09362405180346048
0.02081402109621947 0.09362405180346048
0.002139381120702761 0.06734380914408152
-0.007197938867055592 0.06734380914408152
-0.016535258854813946 0.027923445155013073
-0.016535258854813946 0.014783323825323593
-0.007197938867055592 0.04106356648470256
-0.007197938867055592 0.06734380914408152
-0.007197938867055592 0.09362405180346048
-0.0258725788425723 0.11990429446283944
-0.0258725788425723 0.17246477978159735
-0.09123381875688077 0.18560490111128686
-0.12858309870791418 0.2118851437706658
-0.12858309870791418 0.2775857504191132
-0.06322185879360571 0.3564264783972501
0.114187220973803 0.46154744903476597
0.3569575406555202 0.5666684196722818
0.7304503401658543 0.6323690263207292
1.272014899455839 0.5929486623316608
1.8602660586846151 0.5666684196722818
2.5045411378399414 0.408986963716008
3.1208042570319927 0.22502526510035528
3.606344896395427 -0.10347776814188174
3.9611630559302444 -0.576522136010703
4.073210895783345 -1.0889868678685928
4.054536255807828 -1.5620312357374142
3.839777896089386 -1.8642540263202723
3.41959849664026 -2.021935482276546
2.784660737472692 -2.021935482276546
1.8789406986601318 -1.943094754298409
0.907859419933263 -1.7722731770124458
0.12352454096156136 -1.5751713570671035
-0.27798021851204785 -1.3912096584514508
-0.3059921784753229 -1.2203880811654877
-0.09123381875688077 -1.0495665038795243
0.20756042085138654 -0.8524646839341822
0.44099342054534535 -0.7342035919669768
0.5156919804474122 -0.576522136010703
0.4970173404718955 -0.48454128670287666
0.36629486064327854 -0.3925604373950503
0.2542470207901783 -0.1954586174497081
0.15153650092483642 -0.07719752548250278
0.07683794102276958 0.014783323825323593
0.08617526101052794 0.11990429446283944
0.0955125809982863 0.17246477978159735
0.10484990098604464 0.2118851437706658
0.114187220973803 0.2644456290894237
0.12352454096156136 0.2644456290894237
0.10484990098604464 0.23816538643004476
0.07683794102276958 0.2644456290894237
0.10484990098604464 0.25130550775973426
0.08617526101052794 0.23816538643004476
0.05816330104725288 0.23816538643004476
0.05816330104725288 0.22502526510035528
0.039488661071736174 0.2644456290894237
0.030151341083977823 0.2907258717488027
0.05816330104725288 0.31700611440818166
0.048825981059494525 0.38270672105662906
0.07683794102276958 0.38270672105662906
0.0955125809982863 0.36956659972693956
0.10484990098604464 0.38270672105662906
0.07683794102276958 0.408986963716008
0.08617526101052794 0.39584684238631856
0.048825981059494525 0.3432863570675606
0.039488661071736174 0.3564264783972501
0.05816330104725288 0.36956659972693956
0.048825981059494525 0.36956659972693956
0.039488661071736174 0.36956659972693956
0.06750062103501124 0.43526720637538696
0.07683794102276958 0.4878276916941449
0.0955125809982863 0.46154744903476597
0.10484990098604464 0.4746875703644554
0.08617526101052794 0.4746875703644554
0.07683794102276958 0.43526720637538696
0.07683794102276958 0.4878276916941449
0.030151341083977823 0.38270672105662906
0.02081402109621947 0.39584684238631856
0.039488661071736174 0.36956659972693956
0.011476701108461114 0.36956659972693956
-0.0258725788425723 0.43526720637538696
0.011476701108461114 0.46154744903476597
0.039488661071736174 0.5009678130238344
0.07683794102276958 0.5009678130238344
0.0955125809982863 0.5272480556832133
0.08617526101052794 0.5272480556832133
0.048825981059494525 0.4878276916941449
0.06750062103501124 0.5141079343535239
0.06750062103501124 0.5009678130238344
0.07683794102276958 0.4746875703644554
0.05816330104725288 0.5009678130238344
0.048825981059494525 0.5009678130238344
0.07683794102276958 0.4878276916941449
0.10484990098604464 0.5272480556832133
0.1328618609493197 0.5929486623316608
0.15153650092483642 0.5798085410019713
0.17021114090035314 0.6192289049910397
0.18888578087586982 0.6060887836613502
0.20756042085138654 0.5929486623316608
0.17021114090035314 0.5403881770129029
0.17954846088811147 0.5403881770129029
0.17021114090035314 0.5009678130238344
0.17021114090035314 0.5141079343535239
0.17954846088811147 0.5141079343535239
0.17021114090035314 0.5403881770129029
0.22623506082690326 0.5403881770129029
0.272921660765695 0.5535282983425923
0.29159630074121173 0.6323690263207292
0.3476202206677618 0.6192289049910397
0.3382829006800035 0.6455091476504187
0.3289455806922451 0.6060887836613502
0.36629486064327854 0.6192289049910397
0.38496950061879526 0.5666684196722818
0.38496950061879526 0.5666684196722818
0.403644140594312 0.5403881770129029
0.4129814605820703 0.5272480556832133
0.431656100557587 0.5929486623316608
0.44099342054534535 0.6192289049910397
0.5063546604596538 0.6586492689801081
0.5717159003739624 0.6455091476504187
0.5810532203617207 0.6849295116394871
0.6184025003127541 0.6586492689801081
0.6277398203005125 0.6323690263207292
0.6464144602760291 0.6060887836613502
0.6650891002515459 0.5141079343535239
0.6837637402270625 0.5009678130238344
0.7304503401658543 0.5009678130238344
0.7304503401658543 0.4746875703644554
0.7397876601536126 0.5009678130238344
0.7491249801413711 0.5403881770129029
0.7771369401046461 0.5403881770129029
0.8144862200556795 0.5535282983425923
0.8611728199944713 0.5798085410019713
0.879847459969988 0.5798085410019713
0.879847459969988 0.5929486623316608
0.9171967399210214 0.5141079343535239
0.9171967399210214 0.4746875703644554
0.8985220999455047 0.44840732770507646
0.9171967399210214 0.44840732770507646
0.8985220999455047 0.5141079343535239
0.8891847799577464 0.4878276916941449
0.9171967399210214 0.5141079343535239
0.9638833398598131 0.5272480556832133
0.9545460198720548 0.5798085410019713
0.9265340599087798 0.6060887836613502
0.8985220999455047 0.5666684196722818
0.8611728199944713 0.5929486623316608
0.8144862200556795 0.5403881770129029
0.7397876601536126 0.5272480556832133
0.6650891002515459 0.5141079343535239
0.6370771402882708 0.5009678130238344
0.590390540349479 0.5141079343535239
0.5437039404106873 0.5666684196722818
0.5250293004351706 0.5798085410019713
0.5250293004351706 0.6586492689801081
0.5063546604596538 0.6455091476504187
0.4970173404718955 0.6586492689801081
0.44099342054534535 0.6586492689801081
0.4223187805698287 0.6455091476504187
0.36629486064327854 0.6455091476504187
0.3289455806922451 0.6323690263207292
0.3196082607044868 0.5929486623316608
0.28225898075345335 0.5666684196722818
0.31027094071672845 0.6060887836613502
0.26358434077793663 0.6192289049910397
0.28225898075345335 0.6455091476504187
0.272921660765695 0.6849295116394871
0.24490970080241994 0.737489996958245
0.26358434077793663 0.7112097542988661
0.26358434077793663 0.6586492689801081
0.23557238081466159 0.6586492689801081
0.24490970080241994 0.6192289049910397
0.23557238081466159 0.6192289049910397
0.23557238081466159 0.5929486623316608
0.20756042085138654 0.5666684196722818
0.2168977408391449 0.5798085410019713
0.2168977408391449 0.6323690263207292
0.24490970080241994 0.6192289049910397
0.2542470207901783 0.6586492689801081
0.24490970080241994 0.6192289049910397
0.29159630074121173 0.6849295116394871
0.29159630074121173 0.6455091476504187
0.28225898075345335 0.6717893903097977
0.28225898075345335 0.6455091476504187
0.272921660765695 0.5929486623316608
0.29159630074121173 0.5798085410019713
0.28225898075345335 0.6323690263207292
0.28225898075345335 0.6060887836613502
0.28225898075345335 0.6455091476504187
0.3289455806922451 0.6717893903097977
0.3476202206677618 0.6849295116394871
0.37563218063103687 0.7112097542988661
0.403644140594312 0.6980696329691766
0.4129814605820703 0.6980696329691766
0.38496950061879526 0.6849295116394871
0.403644140594312 0.6980696329691766
0.37563218063103687 0.6717893903097977
0.3569575406555202 0.6717893903097977
0.36629486064327854 0.6717893903097977
0.3382829006800035 0.7506301182879345
0.36629486064327854 0.8163307249363819
0.4223187805698287 0.9477319382332767
0.4970173404718955 1.0528529088707925
0.6277398203005125 1.1711140008379979
0.8331608600311963 1.3287954567942717
1.0759311797129134 1.3813559421130297
1.3373761393701473 1.3550756994536506
1.645507698966173 1.11855351551924
1.9629765785499569 0.7506301182879345
2.280445458133741 0.3564264783972501
2.6819502176073504 -0.05091728282312381
3.092792297068718 -0.5239616506919451
3.5409836564811186 -0.9444455332420085
3.998512335881278 -1.5226108717483458
4.456041015281437 -2.0613558462656143
4.848208454767288 -2.626381063442262
5.156340014363314 -3.165126037959531
5.436459613996065 -3.638170405828352
5.623206013751232 -3.9798135604002787
5.707241893641057 -4.229475865664378
5.781940453543124 -4.321456714972205
5.781940453543124 -4.413437564280032
5.716579213628815 -4.4922782922581685
5.623206013751232 -4.518558534917547
5.473808893947098 -4.544838777576926
5.3057371341674475 -4.505418413587858
5.137665374387797 -4.374017200290963
5.025617534534697 -4.176915380345621
4.95091897463263 -4.006093803059658
4.969593614608147 -3.717011133806489
5.0162802145469385 -3.467348828542389
5.062966814485731 -3.1914062806189096
5.044292174510214 -2.9680242180141887
4.922907014669355 -2.7840625193985358
4.745497934901946 -2.4949798501453673
4.456041015281437 -2.219037302221888
4.138572135697653 -1.91681451163903
3.7650793361873194 -1.66715220637493
3.2702013768361264 -1.4174899011108297
2.6819502176073504 -1.1152671105279717
1.9443019385744402 -0.8787449265935611
1.1879790195660136 -0.6422227426591505
0.5250293004351706 -0.3137197094169134
0.07683794102276958 -0.02463704016374485
-0.11924577872015583 0.2775857504191132
-0.1472577386834309 0.5403881770129029
-0.09123381875688077 0.763770239617624
-0.08189649876912242 0.9083115742442083
-0.10057113874463913 0.9871523022223452
-0.13792041869567254 1.013432544881724
-0.24996825854877278 1.065993030200482
-0.29665485848756457 1.1316936368489294
-0.36201609840187304 1.2105343648270663
-0.4273773383161815 1.223674486156756
-0.49273857823049 1.2762349714755137
-0.49273857823049 1.3287954567942717
-0.5487624981570401 1.3813559421130297
-0.6047864180835902 1.4076361847724086
-0.6047864180835902 1.3419355781239612
-0.6888222979734154 1.3813559421130297
-0.679484977985657 1.4076361847724086
-0.6701476579978987 1.4996170340802348
-0.6701476579978987 1.5390373980693033
-0.679484977985657 1.5653176407286824
-0.6608103380101403 1.6047380047177509
-0.6701476579978987 1.6047380047177509
-0.6888222979734154 1.696718854025577
-0.7168342579366904 1.696718854025577
-0.7635208578754822 1.696718854025577
-0.7635208578754822 1.7361392180146455
-0.782195497850999 1.775559582003714
-0.7635208578754822 1.8412601886521613
-0.7448462178999655 1.9332410379599878
-0.7448462178999655 1.9858015232787458
-0.7261715779244488 2.025221887267814
-0.7074969379489321 2.13034285790533
-0.7074969379489321 2.182903343224088
-0.7448462178999655 2.196043464553777
-0.7635208578754822 2.288024313861604
-0.8288820977897907 2.274884192531914
-0.9315926176551326 2.301164435191293
-1.0062911775571994 2.274884192531914
-1.1090016974225414 2.301164435191293
-1.183700257324608 2.2617440712022248
-1.2303868572633998 2.2486039498725354
-1.258398817226675 2.301164435191293
-1.3237600571409833 2.274884192531914
-1.417133257018567 2.3274446778506723
-1.473157176945117 2.4062854058288092
-1.5665303768227006 2.458845891147567
-1.631891616737009 2.511406376466325
-1.7159274966268343 2.5508267404553933
-1.8093006965044178 2.64280758976322
-1.8746619364187262 2.6953680750819777
-1.921348536357518 2.7610686817304253
-2.0147217362351015 2.8530495310382515
-2.0614083361738933 2.9187501376866987
-2.0987576161249266 3.0107309869945253
-2.0987576161249266 3.1027118363023516
-2.1454442160637184 3.194692685610178
-2.19213081600251 3.220972928269557
-2.229480095953544 3.326093898907073
-2.2855040158800937 3.39179450555552
-2.3508652557944023 3.4312148695445885
-2.378877215757677 3.418074748214899
-2.4535757756597443 3.4574951122039677
-2.4722504156352607 3.496915476193036
-2.528274335561811 3.523195718852415
-2.528274335561811 3.6151765681602415
-2.5376116555495694 3.6677370534789993
-2.5095996955862945 3.6940172961383784
-2.528274335561811 3.6808771748086886
-2.5095996955862945 3.7071574174680677
-2.5376116555495694 3.6808771748086886
-2.5376116555495694 3.65459693214931
-2.500262375598536 3.6020364468305517
-2.4909250556107776 3.575756204171173
-2.4722504156352607 3.5363358401821046
-2.425563815696469 3.418074748214899
-2.397551855733194 3.3786543842258308
-2.341527935806644 3.3523741415664516
-2.257492055916819 3.326093898907073
-2.1641188560392353 3.2603932922586254
-2.0614083361738933 3.220972928269557
-1.9680351362963098 3.168412442950799
-1.8839992564064847 3.0764315936429725
-1.8186380164921763 2.9975908656648356
-1.7065901766390759 2.8004890457194933
-1.6132169767614923 2.734788439071046
-1.5291810968716673 2.6033872257741515
-1.417133257018567 2.537686619125704
-1.3237600571409833 2.38000516316943
-1.1930375773123665 2.288024313861604
-1.0903270574470245 2.2354638285428456
-0.9596045776184077 2.13034285790533
-0.8288820977897907 2.1172027365756407
-0.7541835378877239 2.025221887267814
-0.679484977985657 1.8412601886521613
-0.6047864180835902 1.775559582003714
-0.5674371381325568 1.6704386113661982
-0.4834012582427316 1.5784577620583717
-0.45538929827945657 1.4864769127505455
-0.41804001832842314 1.4339164274317875
-0.3900280583651481 1.4076361847724086
-0.35267877841411466 1.3682158207833401
-0.3153294984630813 1.3813559421130297
-0.26864289852428946 1.3156553354645821
-0.2312936185732561 1.3813559421130297
-0.2312936185732561 1.3550756994536506
-0.21261897859773937 1.3156553354645821
-0.20328165860998101 1.3025152141348928
-0.20328165860998101 1.2630948501458243
-0.21261897859773937 1.2499547288161348
-0.22195629858549773 1.2105343648270663
-0.25930557853653113 1.1711140008379979
-0.24996825854877278 1.144833758178619
-0.26864289852428946 1.2368146074864452
-0.24996825854877278 1.1973942434973768
-0.2312936185732561 1.223674486156756
-0.19394433862222266 1.2762349714755137
-0.17526969864670597 1.3025152141348928
-0.1659323786589476 1.2499547288161348
-0.20328165860998101 1.2630948501458243
-0.1846070186344643 1.2368146074864452
-0.19394433862222266 1.2368146074864452
-0.19394433862222266 1.1711140008379979
-0.19394433862222266 1.2105343648270663
-0.21261897859773937 1.1973942434973768
-0.1846070186344643 1.2368146074864452
-0.20328165860998101 1.2630948501458243
-0.19394433862222266 1.3025152141348928
-0.15659505867118925 1.3419355781239612
-0.11924577872015583 1.3550756994536506
-0.10990845873239748 1.3287954567942717
-0.11924577872015583 1.2893750928052032
-0.10990845873239748 1.2630948501458243
-0.13792041869567254 1.2630948501458243
-0.1659323786589476 1.2105343648270663
-0.15659505867118925 1.1973942434973768
-0.15659505867118925 1.1842541221676874
-0.1659323786589476 1.2499547288161348
-0.10990845873239748 1.2630948501458243
-0.10057113874463913 1.3156553354645821
-0.07255917878136407 1.2762349714755137
-0.05388453880584736 1.3287954567942717
-0.09123381875688077 1.2893750928052032
-0.09123381875688077 1.2893750928052032
-0.07255917878136407 1.2368146074864452
-0.09123381875688077 1.2368146074864452
-0.09123381875688077 1.2105343648270663
-0.10990845873239748 1.2105343648270663
-0.10990845873239748 1.223674486156756
-0.13792041869567254 1.1842541221676874
-0.07255917878136407 1.2368146074864452
-0.07255917878136407 1.2499547288161348
-0.044547218818089006 1.2630948501458243
-0.0258725788425723 1.2762349714755137
-0.0258725788425723 1.2630948501458243
-0.044547218818089006 1.2499547288161348
-0.035209898830330655 1.223674486156756
-0.044547218818089006 1.1842541221676874
-0.06322185879360571 1.1579738795083083
-0.09123381875688077 1.144833758178619
-0.11924577872015583 1.144833758178619
-0.09123381875688077 1.1711140008379979
-0.08189649876912242 1.2105343648270663
-0.05388453880584736 1.1973942434973768
-0.044547218818089006 1.1973942434973768
-0.035209898830330655 1.223674486156756
-0.016535258854813946 1.223674486156756
-0.05388453880584736 1.1711140008379979
-0.06322185879360571 1.1054133941895505
-0.06322185879360571 1.1579738795083083
-0.05388453880584736 1.144833758178619
-0.09123381875688077 1.1711140008379979
-0.08189649876912242 1.1316936368489294
-0.07255917878136407 1.1579738795083083
-0.06322185879360571 1.1973942434973768
-0.035209898830330655 1.1711140008379979
-0.007197938867055592 1.223674486156756
-0.007197938867055592 1.1842541221676874
-0.016535258854813946 1.2105343648270663
-0.0258725788425723 1.1579738795083083
-0.0258725788425723 1.1316936368489294
-0.035209898830330655 1.1711140008379979
-0.05388453880584736 1.092273272859861
-0.035209898830330655 1.1054133941895505
-0.07255917878136407 1.092273272859861
-0.07255917878136407 1.1054133941895505
-0.035209898830330655 1.144833758178619
-0.0258725788425723 1.1579738795083083
-0.016535258854813946 1.1842541221676874
0.02081402109621947 1.1842541221676874
-0.007197938867055592 1.1711140008379979
-0.007197938867055592 1.1579738795083083
-0.016535258854813946 1.1711140008379979
-0.035209898830330655 1.11855351551924
-0.06322185879360571 1.1054133941895505
-0.044547218818089006 1.092273272859861
-0.07255917878136407 1.11855351551924
-0.05388453880584736 1.092273272859861
-0.0258725788425723 1.1316936368489294
-0.035209898830330655 1.1316936368489294
-0.0258725788425723 1.1842541221676874
-0.007197938867055592 1.1842541221676874
0.030151341083977823 1.2105343648270663
0.002139381120702761 1.2105343648270663
0.002139381120702761 1.144833758178619
-0.044547218818089006 1.1054133941895505
-0.016535258854813946 1.1054133941895505
-0.044547218818089006 1.1054133941895505
-0.0258725788425723 1.0791331515301716
-0.0258725788425723 1.0791331515301716
-0.007197938867055592 1.092273272859861
0.002139381120702761 1.1579738795083083
0.011476701108461114 1.1711140008379979
0.039488661071736174 1.1579738795083083
0.02081402109621947 1.1579738795083083
0.02081402109621947 1.144833758178619
0.02081402109621947 1.144833758178619
0.002139381120702761 1.1316936368489294
-0.007197938867055592 1.092273272859861
-0.007197938867055592 1.092273272859861
-0.044547218818089006 1.0528529088707925
-0.016535258854813946 1.065993030200482
-0.016535258854813946 1.1054133941895505
0.02081402109621947 1.144833758178619
0.011476701108461114 1.1579738795083083
0.030151341083977823 1.144833758178619
0.011476701108461114 1.1316936368489294
-0.016535258854813946 1.1054133941895505
0.002139381120702761 1.092273272859861
0.002139381120702761 1.013432544881724
-0.016535258854813946 1.0528529088707925
-0.044547218818089006 1.0528529088707925
-0.044547218818089006 1.065993030200482
-0.016535258854813946 1.0791331515301716
0.002139381120702761 1.0791331515301716
0.011476701108461114 1.1054133941895505
0.030151341083977823 1.144833758178619
0.039488661071736174 1.1579738795083083
0.030151341083977823 1.1054133941895505
0.030151341083977823 1.144833758178619
-0.016535258854813946 1.092273272859861
-0.035209898830330655 1.092273272859861
-0.035209898830330655 1.092273272859861
0.02081402109621947 1.1054133941895505
-0.016535258854813946 1.11855351551924
-0.007197938867055592 1.144833758178619
0.02081402109621947 1.1711140008379979
0.02081402109621947 1.1842541221676874
0.030151341083977823 1.1842541221676874
0.030151341083977823 1.2105343648270663
0.05816330104725288 1.1711140008379979
0.048825981059494525 1.1579738795083083
0.030151341083977823 1.1579738795083083
0.011476701108461114 1.11855351551924
-0.007197938867055592 1.0791331515301716
-0.007197938867055592 1.0528529088707925
-0.044547218818089006 1.1054133941895505
-0.035209898830330655 1.0528529088707925
-0.035209898830330655 1.1054133941895505
-0.007197938867055592 1.1316936368489294
-0.016535258854813946 1.11855351551924
0.039488661071736174 1.144833758178619
0.05816330104725288 1.1579738795083083
0.039488661071736174 1.1579738795083083
0.06750062103501124 1.144833758178619
0.039488661071736174 1.144833758178619
0.039488661071736174 1.11855351551924
0.039488661071736174 1.0791331515301716
0.02081402109621947 1.065993030200482
0.030151341083977823 1.0791331515301716
0.030151341083977823 1.092273272859861
0.05816330104725288 1.1579738795083083
0.07683794102276958 1.2105343648270663
0.06750062103501124 1.1842541221676874
0.05816330104725288 1.1579738795083083
0.08617526101052794 1.1579738795083083
0.030151341083977823 1.1316936368489294
0.05816330104725288 1.1054133941895505
0.039488661071736174 1.1054133941895505
0.048825981059494525 1.0791331515301716
0.048825981059494525 1.092273272859861
0.039488661071736174 1.092273272859861
0.05816330104725288 1.11855351551924
0.05816330104725288 1.144833758178619
0.05816330104725288 1.2105343648270663
0.0955125809982863 1.1973942434973768
0.07683794102276958 1.223674486156756
0.08617526101052794 1.1973942434973768
0.039488661071736174 1.1711140008379979
0.048825981059494525 1.1842541221676874
0.06750062103501124 1.1711140008379979
0.048825981059494525 1.1711140008379979
0.039488661071736174 1.144833758178619
0.039488661071736174 1.1579738795083083
0.05816330104725288 1.1842541221676874
0.05816330104725288 1.2105343648270663
0.05816330104725288 1.2105343648270663
0.048825981059494525 1.2368146074864452
0.05816330104725288 1.2368146074864452
0.05816330104725288 1.223674486156756
0.039488661071736174 1.1711140008379979
0.030151341083977823 1.1579738795083083
0.030151341083977823 1.1579738795083083
0.002139381120702761 1.1316936368489294
0.030151341083977823 1.1842541221676874
0.02081402109621947 1.1711140008379979
0.030151341083977823 1.1973942434973768
0.05816330104725288 1.2762349714755137
0.06750062103501124 1.2762349714755137
0.0955125809982863 1.2893750928052032
0.08617526101052794 1.3025152141348928
0.08617526101052794 1.2893750928052032
0.08617526101052794 1.2368146074864452
0.08617526101052794 1.2499547288161348
0.039488661071736174 1.1973942434973768
0.039488661071736174 1.1973942434973768
0.05816330104725288 1.2105343648270663
0.06750062103501124 1.1842541221676874
0.06750062103501124 1.2499547288161348
0.10484990098604464 1.2368146074864452
0.0955125809982863 1.2499547288161348
0.07683794102276958 1.2893750928052032
0.114187220973803 1.2893750928052032
0.048825981059494525 1.3025152141348928
0.06750062103501124 1.2630948501458243
0.06750062103501124 1.2105343648270663
0.06750062103501124 1.1973942434973768
0.05816330104725288 1.2105343648270663
0.048825981059494525 1.1842541221676874
0.06750062103501124 1.223674486156756
0.0955125809982863 1.2368146074864452
0.07683794102276958 1.3025152141348928
0.114187220973803 1.3287954567942717
0.12352454096156136 1.3156553354645821
0.12352454096156136 1.3156553354645821
0.12352454096156136 1.3156553354645821
0.1328618609493197 1.2499547288161348
0.1328618609493197 1.2499547288161348
0.10484990098604464 1.2105343648270663
0.0955125809982863 1.2499547288161348
0.0955125809982863 1.2893750928052032
0.1328618609493197 1.3287954567942717
0.17021114090035314 1.3813559421130297
0.22623506082690326 1.447056548761477
0.272921660765695 1.473336791420856
0.3289455806922451 1.5390373980693033
0.38496950061879526 1.5521775193989928
0.3943068206065536 1.5915978833880613
0.38496950061879526 1.5653176407286824
0.4223187805698287 1.5127571554099244
0.37563218063103687 1.5390373980693033
0.36629486064327854 1.525897276739614
0.3289455806922451 1.5127571554099244
0.30093362072897006 1.5127571554099244
0.28225898075345335 1.5127571554099244
0.29159630074121173 1.5127571554099244
0.272921660765695 1.473336791420856
0.29159630074121173 1.4207763061020982
0.24490970080241994 1.3025152141348928
0.2168977408391449 1.223674486156756
0.17954846088811147 1.2105343648270663
0.16087382091259478 1.0791331515301716
0.114187220973803 1.0791331515301716
0.07683794102276958 1.0397127875411032
0.048825981059494525 1.065993030200482
0.039488661071736174 1.144833758178619
0.048825981059494525 1.144833758178619
0.039488661071736174 1.223674486156756
0.07683794102276958 1.3156553354645821
0.10484990098604464 1.2893750928052032
0.10484990098604464 1.2499547288161348
0.114187220973803 1.2630948501458243
0.0955125809982863 1.223674486156756
0.08617526101052794 1.2105343648270663
0.0955125809982863 1.1973942434973768
0.048825981059494525 1.1973942434973768
0.039488661071736174 1.2105343648270663
0.05816330104725288 1.1973942434973768
0.07683794102276958 1.2499547288161348
0.08617526101052794 1.2368146074864452
0.1328618609493197 1.3156553354645821
0.15153650092483642 1.2762349714755137
0.14219918093707806 1.2499547288161348
0.10484990098604464 1.2762349714755137
0.05816330104725288 1.2762349714755137
0.011476701108461114 1.2893750928052032
-0.035209898830330655 1.2893750928052032
0.011476701108461114 1.3682158207833401
0.12352454096156136 1.4864769127505455
0.3476202206677618 1.696718854025577
0.7304503401658543 1.801839824663093
1.272014899455839 1.8675404313115405
1.8882780186478902 1.7624194606740244
2.635263617668558 1.5521775193989928
3.279538696823885 1.1842541221676874
3.783753976162836 0.6586492689801081
4.110560175734379 0.04106356648470256
4.175921415648687 -0.602802378670082
4.110560175734379 -1.0232862612201454
3.7930912961505943 -1.2992288091436246
3.279538696823885 -1.3517892944623824
2.467191857888908 -1.312368930473314
1.4961105791620393 -1.1021269891982823
0.5717159003739624 -0.9181652905826295
-0.0258725788425723 -0.6947832279779084
-0.22195629858549773 -0.4451209227138082
-0.10990845873239748 -0.20859873877939758
0.14219918093707806 0.001643202495634113
0.4129814605820703 0.2118851437706658
0.5250293004351706 0.36956659972693956
0.5437039404106873 0.5666684196722818
0.44099342054534535 0.763770239617624
0.3382829006800035 0.9083115742442083
0.20756042085138654 1.0528529088707925
0.12352454096156136 1.1579738795083083
0.1328618609493197 1.2368146074864452
0.114187220973803 1.3156553354645821
0.10484990098604464 1.3156553354645821
0.14219918093707806 1.3550756994536506
0.12352454096156136 1.3550756994536506
0.1328618609493197 1.3419355781239612
0.0955125809982863 1.394496063442719
0.0955125809982863 1.3419355781239612
0.07683794102276958 1.3813559421130297
0.08617526101052794 1.4339164274317875
0.08617526101052794 1.447056548761477
0.08617526101052794 1.473336791420856
0.08617526101052794 1.4996170340802348
0.10484990098604464 1.4996170340802348
0.07683794102276958 1.525897276739614
0.10484990098604464 1.4864769127505455
0.10484990098604464 1.525897276739614
0.10484990098604464 1.4996170340802348
0.08617526101052794 1.4864769127505455
0.08617526101052794 1.4601966700911664
0.07683794102276958 1.447056548761477
0.05816330104725288 1.4601966700911664
0.05816330104725288 1.4864769127505455
0.06750062103501124 1.4864769127505455
0.07683794102276958 1.5521775193989928
0.08617526101052794 1.5653176407286824
0.1328618609493197 1.5653176407286824
0.1328618609493197 1.6441583687068193
0.114187220973803 1.5784577620583717
0.10484990098604464 1.5784577620583717
0.08617526101052794 1.6047380047177509
0.07683794102276958 1.5915978833880613
0.048825981059494525 1.5915978833880613
0.030151341083977823 1.6047380047177509
0.048825981059494525 1.5653176407286824
0.048825981059494525 1.6178781260474402
0.08617526101052794 1.6441583687068193
0.10484990098604464 1.696718854025577
0.1328618609493197 1.6835787326958878
0.12352454096156136 1.6704386113661982
0.12352454096156136 1.6310182473771297
0.12352454096156136 1.6572984900365086
0.114187220973803 1.6704386113661982
0.0955125809982863 1.6178781260474402
0.06750062103501124 1.6178781260474402
0.07683794102276958 1.6047380047177509
0.08617526101052794 1.5915978833880613
0.1328618609493197 1.6441583687068193
0.1328618609493197 1.7098589753552667
0.15153650092483642 1.696718854025577
0.20756042085138654 1.696718854025577
0.2168977408391449 1.696718854025577
0.23557238081466159 1.7229990966849562
0.20756042085138654 1.7098589753552667
0.23557238081466159 1.7098589753552667
0.22623506082690326 1.6835787326958878
0.22623506082690326 1.6835787326958878
0.22623506082690326 1.6704386113661982
0.24490970080241994 1.696718854025577
0.26358434077793663 1.7361392180146455
0.31027094071672845 1.775559582003714
0.3382829006800035 1.775559582003714
0.38496950061879526 1.7886997033334036
0.4223187805698287 1.801839824663093
0.431656100557587 1.7229990966849562
0.431656100557587 1.7624194606740244
0.4783427004963788 1.6835787326958878
0.48768002048413717 1.6835787326958878
0.4970173404718955 1.7098589753552667
0.5343666204229289 1.749279339344335
0.5530412603984456 1.7098589753552667
0.5810532203617207 1.6835787326958878
0.590390540349479 1.7229990966849562
0.6370771402882708 1.7624194606740244
0.6557517802637876 1.7624194606740244
0.7304503401658543 1.801839824663093
0.7584623001291294 1.7229990966849562
0.721113020178096 1.6835787326958878
0.7491249801413711 1.7098589753552667
0.7864742600924044 1.6572984900365086
0.7677996201168877 1.6310182473771297
0.8144862200556795 1.6572984900365086
0.8331608600311963 1.6704386113661982
0.8424981800189546 1.6704386113661982
0.907859419933263 1.6572984900365086
0.9452086998842965 1.696718854025577
0.9732206598475716 1.6704386113661982
0.9825579798353299 1.6310182473771297
0.9825579798353299 1.6178781260474402
0.9732206598475716 1.5653176407286824
0.9825579798353299 1.5521775193989928
0.9825579798353299 1.473336791420856
0.9825579798353299 1.4996170340802348
0.9732206598475716 1.5127571554099244
0.9732206598475716 1.5390373980693033
0.9732206598475716 1.5521775193989928
0.9732206598475716 1.5915978833880613
0.9358713798965381 1.6178781260474402
0.907859419933263 1.5915978833880613
0.879847459969988 1.6572984900365086
0.8424981800189546 1.6441583687068193
0.7771369401046461 1.6572984900365086
0.7024383802025793 1.6310182473771297
0.6650891002515459 1.5784577620583717
0.6277398203005125 1.6047380047177509
0.5810532203617207 1.5915978833880613
0.5343666204229289 1.5653176407286824
0.5156919804474122 1.6310182473771297
0.48768002048413717 1.6572984900365086
0.46900538050862045 1.6310182473771297
0.45033074053310373 1.6704386113661982
0.4223187805698287 1.6704386113661982
0.37563218063103687 1.6572984900365086
0.3943068206065536 1.5915978833880613
0.3289455806922451 1.6047380047177509
0.31027094071672845 1.5390373980693033
0.24490970080241994 1.525897276739614
0.2542470207901783 1.525897276739614
0.2542470207901783 1.5521775193989928
0.272921660765695 1.6178781260474402
0.272921660765695 1.6441583687068193
0.272921660765695 1.6572984900365086
0.30093362072897006 1.6704386113661982
0.3196082607044868 1.6178781260474402
0.3196082607044868 1.6310182473771297
0.272921660765695 1.6047380047177509
0.2542470207901783 1.5915978833880613
0.23557238081466159 1.5915978833880613
0.20756042085138654 1.5784577620583717
0.20756042085138654 1.525897276739614
0.23557238081466159 1.5915978833880613
0.22623506082690326 1.6047380047177509
0.26358434077793663 1.6310182473771297
0.29159630074121173 1.6835787326958878
0.30093362072897006 1.6704386113661982
0.31027094071672845 1.6047380047177509
0.31027094071672845 1.6178781260474402
0.28225898075345335 1.5784577620583717
0.31027094071672845 1.5915978833880613
0.26358434077793663 1.5653176407286824
0.26358434077793663 1.5390373980693033
0.30093362072897006 1.5653176407286824
0.3569575406555202 1.5653176407286824
0.36629486064327854 1.5784577620583717
0.4223187805698287 1.6047380047177509
0.403644140594312 1.696718854025577
0.4223187805698287 1.7361392180146455
0.4223187805698287 1.7624194606740244
0.403644140594312 1.749279339344335
0.4129814605820703 1.749279339344335
0.38496950061879526 1.749279339344335
0.3943068206065536 1.828120067322472
0.38496950061879526 1.854400309981851
0.46900538050862045 1.9463811592896774
0.5997278603372374 2.0909224939162616
0.8144862200556795 2.196043464553777
1.0479192197496383 2.301164435191293
1.3373761393701473 2.288024313861604
1.617495739002898 2.0646422512568825
1.8882780186478902 1.749279339344335
2.2150842182194324 1.2893750928052032
2.5792396977420085 0.7900504822770029
2.9527324972523425 0.3564264783972501
3.344899936738193 -0.10347776814188174
3.7744166561750774 -0.6553628639888399
4.194596055624204 -1.2072479598357981
4.568088855134538 -1.745992934353067
4.9135696946815965 -2.219037302221888
5.184351974326589 -2.626381063442262
5.389773014057273 -2.876043368706362
5.548507453849164 -3.0205847033329465
5.613868693763473 -3.0994254313110834
5.651217973714506 -3.1782661592892203
5.641880653726748 -3.2176865232782887
5.604531373775715 -3.2833871299267363
5.5111581738981315 -3.3228074939158043
5.399110334045031 -3.3622278579048728
5.249713214240898 -3.3228074939158043
5.081641454461247 -3.243966765937668
4.95091897463263 -3.0731451886517043
4.857545774755047 -2.8497631260469833
4.904232374693838 -2.6001008207828833
4.922907014669355 -2.350438515518783
4.960256294620389 -2.1796169382328197
4.978930934595905 -1.9825151182874774
4.904232374693838 -1.7591330556827562
4.736160614914188 -1.5620312357374142
4.474715655256954 -1.3912096584514508
4.2319453355752366 -1.1546874745170401
3.923813775979211 -0.957585654571698
3.625019536370944 -0.7210634706372874
3.260864056848368 -0.5108215293622557
2.803335377448209 -0.22173886010908705
2.2150842182194324 0.001643202495634113
1.514785219137556 0.2118851437706658
0.8705101399822296 0.46154744903476597
0.403644140594312 0.7243498756285556
0.05816330104725288 0.9608720595629662
-0.06322185879360571 1.2893750928052032
-0.12858309870791418 1.5127571554099244
-0.07255917878136407 1.6704386113661982
-0.06322185879360571 1.775559582003714
-0.10990845873239748 1.854400309981851
-0.1472577386834309 1.9332410379599878
-0.22195629858549773 1.9332410379599878
-0.2873175384998062 2.025221887267814
-0.3713534183896314 2.051502129927193
-0.4460519782916982 2.104062615245951
-0.49273857823049 2.1434829792350194
-0.4834012582427316 2.182903343224088
-0.5114132182060067 2.1434829792350194
-0.5114132182060067 2.182903343224088
-0.5580998181447985 2.2354638285428456
-0.5861117781080735 2.274884192531914
-0.5954490980958319 2.353724920510051
-0.6047864180835902 2.4194255271584986
-0.5487624981570401 2.4982662551366355
-0.5487624981570401 2.5508267404553933
-0.520750538193765 2.64280758976322
-0.49273857823049 2.6690878324225986
-0.4647266182672149 2.708508196411667
-0.4740639382549733 2.6822279537522884
-0.49273857823049 2.7610686817304253
-0.5114132182060067 2.7479285604007355
-0.5487624981570401 2.721648317741357
-0.5487624981570401 2.8004890457194933
-0.5954490980958319 2.8004890457194933
-0.6234610580591069 2.8004890457194933
-0.651473018022382 2.87932977369763
-0.7074969379489321 2.866189652367941
-0.7448462178999655 2.87932977369763
-0.7915328178387573 2.8399094097085618
-0.8568940577530657 2.7610686817304253
-0.9782792175939243 2.7610686817304253
-0.9969538575694411 2.721648317741357
-1.024965817532716 2.6559477110929093
-1.0903270574470245 2.64280758976322
-1.1650256173490914 2.708508196411667
-1.202374897300125 2.708508196411667
-1.2397241772511582 2.8399094097085618
-1.314422737153225 2.87932977369763
-1.3611093370920169 3.0107309869945253
-1.389121297055292 3.1027118363023516
-1.4077959370308086 3.1289920789617307
-1.4824944969328755 3.194692685610178
-1.4824944969328755 3.247253170928936
-1.547855736847184 3.2603932922586254
-1.5945423367859757 3.2735334135883147
-1.6412289367247674 3.299813656247694
-1.6972528566513176 3.3392340202367623
-1.7532767765778676 3.39179450555552
-1.762614096565626 3.4837753548633463
-1.8093006965044178 3.5626160828414832
-1.8279753364799345 3.64145681081962
-1.8839992564064847 3.7728580241165153
-1.9586978163085516 3.7728580241165153
-1.9960470962595849 3.8122783881055837
-2.02405905622286 3.930539480072789
-2.0987576161249266 3.9436796014024784
-2.126769576088202 3.983099965391547
-2.2201427759657855 4.009380208050926
-2.257492055916819 4.048800572039994
-2.313515975843369 4.114501178688442
-2.369539895769919 4.206482027996268
-2.369539895769919 4.232762270655647
-2.397551855733194 4.351023362622852
-2.378877215757677 4.377303605282231
-2.416226495708711 4.4167239692713
-2.4535757756597443 4.39044372661192
-2.4535757756597443 4.4167239692713
-2.481587735623019 4.377303605282231
-2.5095996955862945 4.337883241293163
-2.5189370155740525 4.298462877304094
-2.5189370155740525 4.272182634644715
-2.528274335561811 4.285322755974405
-2.4629130956475027 4.259042513315026
-2.4535757756597443 4.245902391985337
-2.3602025757821607 4.1539215426775105
-2.341527935806644 4.1539215426775105
-2.257492055916819 4.061940693369683
-2.210805455978027 3.983099965391547
-2.1734561760269937 3.8911191160837206
-2.1361068960759604 3.799138266775894
-2.0894202961371686 3.6808771748086886
-1.9960470962595849 3.628316689489931
-1.9120112163697598 3.496915476193036
-1.7906260565289012 3.39179450555552
-1.6692408966880425 3.326093898907073
-1.547855736847184 3.2866735349180045
-1.473157176945117 3.247253170928936
-1.3797839770675335 3.14213220029142
-1.258398817226675 3.0895717149726623
-1.202374897300125 2.971310623005457
-1.0903270574470245 2.8530495310382515
-1.024965817532716 2.721648317741357
-0.9222552976673742 2.62966746843353
-0.838219417777549 2.537686619125704
-0.7635208578754822 2.3931452844991195
-0.6888222979734154 2.353724920510051
-0.6327983780468652 2.288024313861604
-0.5674371381325568 2.2354638285428456
-0.4834012582427316 2.196043464553777
-0.41804001832842314 2.1697632218943985
-0.3713534183896314 2.0909224939162616
-0.36201609840187304 2.0777823725865723
-0.3713534183896314 2.0120817659381247
-0.35267877841411466 2.0120817659381247
-0.35267877841411466 1.9595212806193667
-0.33400413843859794 1.906960795300609
-0.33400413843859794 1.906960795300609
-0.3059921784753229 1.8938206739709194
-0.3153294984630813 1.9595212806193667
-0.3246668184508396 1.9726614019490563
-0.27798021851204785 1.9726614019490563
-0.27798021851204785 2.038362008597504
-0.26864289852428946 1.9989416446084352
-0.26864289852428946 2.025221887267814
-0.27798021851204785 1.9858015232787458
-0.2873175384998062 1.9201009166302982
-0.29665485848756457 1.9332410379599878
-0.3153294984630813 1.9332410379599878
-0.3059921784753229 1.8938206739709194
-0.27798021851204785 1.9463811592896774
-0.29665485848756457 1.9595212806193667
-0.27798021851204785 2.0120817659381247
-0.25930557853653113 1.9858015232787458
-0.24996825854877278 2.038362008597504
-0.25930557853653113 2.038362008597504
-0.2312936185732561 2.0120817659381247
-0.24996825854877278 1.9726614019490563
-0.27798021851204785 1.9726614019490563
-0.26864289852428946 1.906960795300609
-0.2873175384998062 1.9332410379599878
-0.25930557853653113 1.8938206739709194
-0.24996825854877278 1.9201009166302982
-0.2312936185732561 1.9201009166302982
-0.24063093856101442 1.9463811592896774
-0.2312936185732561 1.9858015232787458
-0.21261897859773937 2.038362008597504
-0.1846070186344643 1.9858015232787458
-0.1846070186344643 1.9989416446084352
-0.20328165860998101 1.9595212806193667
-0.19394433862222266 1.9201009166302982
-0.20328165860998101 1.9463811592896774
-0.2312936185732561 1.9201009166302982
-0.22195629858549773 1.8938206739709194
-0.19394433862222266 1.8938206739709194
-0.19394433862222266 1.9332410379599878
-0.1472577386834309 1.9201009166302982
-0.15659505867118925 1.9332410379599878
-0.15659505867118925 1.9463811592896774
-0.15659505867118925 1.9463811592896774
-0.1472577386834309 1.9201009166302982
-0.1659323786589476 1.906960795300609
-0.15659505867118925 1.8938206739709194
-0.1472577386834309 1.854400309981851
-0.1472577386834309 1.8675404313115405
-0.17526969864670597 1.8149799459927825
-0.1846070186344643 1.854400309981851
-0.15659505867118925 1.8806805526412298
-0.17526969864670597 1.906960795300609
-0.15659505867118925 1.9201009166302982
-0.1659323786589476 1.9858015232787458
-0.12858309870791418 1.9332410379599878
-0.11924577872015583 1.9332410379599878
-0.11924577872015583 1.9332410379599878
-0.15659505867118925 1.8412601886521613
-0.13792041869567254 1.8149799459927825
-0.1659323786589476 1.801839824663093
-0.15659505867118925 1.8149799459927825
-0.20328165860998101 1.7886997033334036
-0.21261897859773937 1.8149799459927825
-0.20328165860998101 1.8675404313115405
-0.13792041869567254 1.8675404313115405
-0.12858309870791418 1.8806805526412298
-0.12858309870791418 1.9201009166302982
-0.15659505867118925 1.854400309981851
-0.17526969864670597 1.8675404313115405
-0.15659505867118925 1.801839824663093
-0.15659505867118925 1.801839824663093
-0.1659323786589476 1.7624194606740244
-0.17526969864670597 1.7886997033334036
-0.19394433862222266 1.7624194606740244
-0.17526969864670597 1.828120067322472
-0.1472577386834309 1.8675404313115405
-0.13792041869567254 1.8806805526412298
-0.11924577872015583 1.906960795300609
-0.1472577386834309 1.906960795300609
-0.11924577872015583 1.8938206739709194
-0.11924577872015583 1.828120067322472
-0.1472577386834309 1.828120067322472
-0.1659323786589476 1.7624194606740244
-0.1659323786589476 1.801839824663093
-0.1659323786589476 1.749279339344335
-0.19394433862222266 1.7624194606740244
-0.15659505867118925 1.7624194606740244
-0.13792041869567254 1.8412601886521613
-0.11924577872015583 1.801839824663093
-0.11924577872015583 1.8675404313115405
-0.10990845873239748 1.8412601886521613
-0.10990845873239748 1.801839824663093
-0.12858309870791418 1.8149799459927825
-0.1472577386834309 1.7886997033334036
-0.1472577386834309 1.749279339344335
-0.1659323786589476 1.749279339344335
-0.1659323786589476 1.7098589753552667
-0.1659323786589476 1.749279339344335
-0.1659323786589476 1.775559582003714
-0.1472577386834309 1.7886997033334036
-0.11924577872015583 1.8675404313115405
-0.11924577872015583 1.8149799459927825
-0.13792041869567254 1.8675404313115405
-0.12858309870791418 1.854400309981851
-0.1472577386834309 1.8412601886521613
-0.1659323786589476 1.775559582003714
-0.1659323786589476 1.7229990966849562
-0.17526969864670597 1.7361392180146455
-0.1846070186344643 1.7098589753552667
-0.15659505867118925 1.749279339344335
-0.15659505867118925 1.7361392180146455
-0.15659505867118925 1.7624194606740244
-0.13792041869567254 1.7886997033334036
-0.12858309870791418 1.828120067322472
-0.10057113874463913 1.801839824663093
-0.10990845873239748 1.801839824663093
-0.10057113874463913 1.7886997033334036
-0.1472577386834309 1.7624194606740244
-0.1472577386834309 1.7361392180146455
-0.1659323786589476 1.7098589753552667
-0.13792041869567254 1.7361392180146455
-0.13792041869567254 1.7229990966849562
-0.12858309870791418 1.775559582003714
-0.11924577872015583 1.828120067322472
-0.10057113874463913 1.8149799459927825
-0.10990845873239748 1.854400309981851
-0.10057113874463913 1.828120067322472
-0.10990845873239748 1.854400309981851
-0.13792041869567254 1.8149799459927825
-0.13792041869567254 1.8149799459927825
-0.13792041869567254 1.7229990966849562
-0.13792041869567254 1.7361392180146455
-0.1472577386834309 1.7229990966849562
-0.13792041869567254 1.7361392180146455
-0.13792041869567254 1.749279339344335
-0.15659505867118925 1.8149799459927825
-0.10057113874463913 1.7886997033334036
-0.11924577872015583 1.8412601886521613
-0.10990845873239748 1.801839824663093
-0.10057113874463913 1.8412601886521613
-0.10990845873239748 1.775559582003714
-0.10990845873239748 1.801839824663093
-0.12858309870791418 1.7361392180146455
-0.12858309870791418 1.7098589753552667
-0.15659505867118925 1.7361392180146455
-0.15659505867118925 1.7229990966849562
-0.15659505867118925 1.801839824663093
-0.11924577872015583 1.801839824663093
-0.12858309870791418 1.8806805526412298
-0.10057113874463913 1.854400309981851
-0.12858309870791418 1.8806805526412298
-0.10057113874463913 1.8412601886521613
-0.15659505867118925 1.828120067322472
-0.11924577872015583 1.828120067322472
-0.12858309870791418 1.775559582003714
-0.17526969864670597 1.749279339344335
-0.15659505867118925 1.775559582003714
-0.13792041869567254 1.749279339344335
-0.11924577872015583 1.775559582003714
-0.10990845873239748 1.8149799459927825
-0.08189649876912242 1.801839824663093
-0.07255917878136407 1.828120067322472
-0.07255917878136407 1.8149799459927825
-0.08189649876912242 1.8149799459927825
-0.07255917878136407 1.828120067322472
-0.09123381875688077 1.801839824663093
-0.10990845873239748 1.7886997033334036
-0.10990845873239748 1.7361392180146455
-0.1472577386834309 1.749279339344335
-0.12858309870791418 1.7886997033334036
-0.12858309870791418 1.775559582003714
-0.11924577872015583 1.7886997033334036
-0.10057113874463913 1.8149799459927825
-0.07255917878136407 1.8938206739709194
-0.07255917878136407 1.828120067322472
-0.07255917878136407 1.7886997033334036
-0.07255917878136407 1.7624194606740244
-0.09123381875688077 1.7361392180146455
-0.08189649876912242 1.749279339344335
-0.11924577872015583 1.749279339344335
-0.11924577872015583 1.7361392180146455
-0.10990845873239748 1.7624194606740244
-0.10990845873239748 1.775559582003714
-0.08189649876912242 1.7624194606740244
-0.07255917878136407 1.8149799459927825
-0.06322185879360571 1.828120067322472
-0.044547218818089006 1.854400309981851
-0.035209898830330655 1.8412601886521613
-0.044547218818089006 1.828120067322472
-0.05388453880584736 1.7886997033334036
-0.10057113874463913 1.7886997033334036
-0.09123381875688077 1.7229990966849562
-0.09123381875688077 1.749279339344335
-0.10990845873239748 1.7229990966849562
-0.10057113874463913 1.801839824663093
-0.05388453880584736 1.8149799459927825
-0.06322185879360571 1.828120067322472
-0.044547218818089006 1.8412601886521613
-0.044547218818089006 1.8412601886521613
-0.07255917878136407 1.801839824663093
-0.08189649876912242 1.801839824663093
-0.08189649876912242 1.801839824663093
-0.06322185879360571 1.7624194606740244
-0.10057113874463913 1.7361392180146455
-0.10057113874463913 1.775559582003714
-0.10057113874463913 1.749279339344335
-0.10057113874463913 1.775559582003714
-0.10990845873239748 1.828120067322472
-0.08189649876912242 1.828120067322472
-0.06322185879360571 1.854400309981851
-0.0258725788425723 1.854400309981851
-0.044547218818089006 1.828120067322472
-0.0258725788425723 1.8149799459927825
-0.035209898830330655 1.8149799459927825
-0.0258725788425723 1.801839824663093
-0.05388453880584736 1.749279339344335
-0.0258725788425723 1.7361392180146455
-0.05388453880584736 1.7229990966849562
-0.05388453880584736 1.749279339344335
-0.044547218818089006 1.8149799459927825
-0.016535258854813946 1.854400309981851
-0.016535258854813946 1.8806805526412298
0.002139381120702761 1.828120067322472
-0.016535258854813946 1.7886997033334036
-0.016535258854813946 1.749279339344335
-0.007197938867055592 1.7624194606740244
0.002139381120702761 1.7624194606740244
-0.007197938867055592 1.7361392180146455
-0.035209898830330655 1.7361392180146455
0.011476701108461114 1.7886997033334036
0.039488661071736174 1.8412601886521613
0.05816330104725288 1.9201009166302982
0.114187220973803 1.9332410379599878
0.17954846088811147 1.9989416446084352
0.24490970080241994 2.038362008597504
0.26358434077793663 2.0909224939162616
0.30093362072897006 2.1172027365756407
0.272921660765695 2.051502129927193
0.29159630074121173 2.0909224939162616
0.26358434077793663 2.0909224939162616
0.272921660765695 2.0120817659381247
0.23557238081466159 2.025221887267814
0.2168977408391449 2.025221887267814
0.20756042085138654 2.0120817659381247
0.19822310086362818 1.9726614019490563
0.16087382091259478 1.8938206739709194
0.18888578087586982 1.854400309981851
0.18888578087586982 1.775559582003714
0.14219918093707806 1.6835787326958878
0.0955125809982863 1.6178781260474402
0.05816330104725288 1.5915978833880613
-0.007197938867055592 1.5521775193989928
-0.007197938867055592 1.5784577620583717
-0.007197938867055592 1.6704386113661982
-0.007197938867055592 1.696718854025577
0.030151341083977823 1.7229990966849562
0.048825981059494525 1.775559582003714
0.011476701108461114 1.7624194606740244
0.048825981059494525 1.775559582003714
0.06750062103501124 1.775559582003714
0.048825981059494525 1.775559582003714
0.05816330104725288 1.7361392180146455
0.05816330104725288 1.7229990966849562
0.011476701108461114 1.7229990966849562
0.02081402109621947 1.6835787326958878
0.030151341083977823 1.696718854025577
0.030151341083977823 1.6835787326958878
0.05816330104725288 1.7098589753552667
0.05816330104725288 1.749279339344335
0.0955125809982863 1.749279339344335
0.08617526101052794 1.775559582003714
0.039488661071736174 1.696718854025577
-0.035209898830330655 1.7624194606740244
-0.09123381875688077 1.7624194606740244
-0.11924577872015583 1.8149799459927825
-0.06322185879360571 1.906960795300609
0.0955125809982863 2.038362008597504
0.3196082607044868 2.2354638285428456
0.7024383802025793 2.3405847991803617
1.2346656195048054 2.3405847991803617
1.8696033786723734 2.2486039498725354
2.5885770177297664 1.9595212806193667
3.2888760168116433 1.5521775193989928
3.8304405761016276 0.9477319382332767
4.1479094556854115 0.3301462357378711
4.222608015587478 -0.274299345427845
4.082548215771103 -0.7473437132966663
3.681043456297494 -0.9970060185607664
2.9340578572768257 -1.0364263825498348
1.9162899786111651 -0.9444455332420085
0.8985220999455047 -0.7473437132966663
0.12352454096156136 -0.48454128670287666
-0.24063093856101442 -0.22173886010908705
-0.22195629858549773 0.10676417313314995
0.048825981059494525 0.3432863570675606
0.3196082607044868 0.5798085410019713
0.5063546604596538 0.763770239617624
0.5437039404106873 0.9083115742442083
0.46900538050862045 1.1316936368489294
0.3943068206065536 1.1711140008379979
0.22623506082690326 1.3287954567942717
0.14219918093707806 1.4601966700911664
0.08617526101052794 1.5521775193989928
0.06750062103501124 1.6441583687068193
0.0955125809982863 1.6835787326958878
0.10484990098604464 1.7624194606740244
0.14219918093707806 1.749279339344335
0.114187220973803 1.828120067322472
0.14219918093707806 1.8149799459927825
0.1328618609493197 1.8149799459927825
0.10484990098604464 1.828120067322472
0.06750062103501124 1.7886997033334036
0.05816330104725288 1.7886997033334036
0.039488661071736174 1.7886997033334036
0.05816330104725288 1.8412601886521613
0.039488661071736174 1.8806805526412298
0.0955125809982863 1.8938206739709194
0.114187220973803 1.9726614019490563
0.10484990098604464 1.9595212806193667
0.12352454096156136 1.9463811592896774
0.12352454096156136 1.9726614019490563
0.0955125809982863 1.906960795300609
0.06750062103501124 1.8806805526412298
0.048825981059494525 1.8806805526412298
0.07683794102276958 1.8806805526412298
0.06750062103501124 1.8675404313115405
0.0955125809982863 1.9201009166302982
0.0955125809982863 1.9595212806193667
0.10484990098604464 2.0120817659381247
0.114187220973803 2.0120817659381247
0.0955125809982863 2.0120817659381247
0.12352454096156136 1.9858015232787458
0.12352454096156136 2.0120817659381247
0.114187220973803 1.9989416446084352
0.07683794102276958 1.9595212806193667
0.08617526101052794 1.9463811592896774
0.06750062103501124 1.9726614019490563
0.05816330104725288 1.9463811592896774
0.048825981059494525 1.9463811592896774
0.048825981059494525 2.025221887267814
0.07683794102276958 2.038362008597504
0.0955125809982863 2.0777823725865723
0.06750062103501124 2.0777823725865723
0.10484990098604464 2.038362008597504
0.08617526101052794 2.051502129927193
0.07683794102276958 2.025221887267814
0.0955125809982863 2.038362008597504
0.0955125809982863 1.9989416446084352
0.0955125809982863 1.9989416446084352
0.08617526101052794 2.038362008597504
0.114187220973803 2.0646422512568825
0.114187220973803 2.0777823725865723
0.14219918093707806 2.13034285790533
0.17021114090035314 2.1697632218943985
0.19822310086362818 2.156623100564709
0.19822310086362818 2.156623100564709
0.19822310086362818 2.13034285790533
0.20756042085138654 2.1434829792350194
0.16087382091259478 2.0909224939162616
0.17021114090035314 2.104062615245951
0.2168977408391449 2.0909224939162616
0.2168977408391449 2.1172027365756407
0.24490970080241994 2.1172027365756407
0.28225898075345335 2.1697632218943985
0.29159630074121173 2.156623100564709
0.28225898075345335 2.196043464553777
0.3289455806922451 2.2223237072131563
0.36629486064327854 2.2617440712022248
0.37563218063103687 2.209183585883467
0.3476202206677618 2.2223237072131563
0.403644140594312 2.209183585883467
0.44099342054534535 2.196043464553777
0.44099342054534535 2.2223237072131563
0.45966806052086207 2.2486039498725354
0.4970173404718955 2.301164435191293
0.5437039404106873 2.2617440712022248
0.5530412603984456 2.288024313861604
0.5997278603372374 2.3274446778506723
0.6370771402882708 2.353724920510051
0.6744264202393042 2.3143045565209825
0.7024383802025793 2.3143045565209825
0.6931010602148209 2.2617440712022248
0.7117757001903376 2.2486039498725354
0.7397876601536126 2.2354638285428456
0.7491249801413711 2.2223237072131563
0.7677996201168877 2.209183585883467
0.7958115800801628 2.2486039498725354
0.8424981800189546 2.2486039498725354
0.879847459969988 2.2486039498725354
0.9265340599087798 2.2617440712022248
0.9358713798965381 2.2486039498725354
0.9732206598475716 2.2486039498725354
0.9918952998230882 2.2223237072131563
0.9918952998230882 2.209183585883467
0.9918952998230882 2.13034285790533
1.010569939798605 2.1172027365756407
0.9918952998230882 2.1172027365756407
1.0012326198108465 2.13034285790533
1.0199072597863632 2.1172027365756407
1.0572565397373967 2.1697632218943985
1.0479192197496383 2.1434829792350194
1.0572565397373967 2.156623100564709
0.9918952998230882 2.196043464553777
0.9825579798353299 2.196043464553777
0.9358713798965381 2.1434829792350194
0.879847459969988 2.0777823725865723
0.8611728199944713 2.104062615245951
0.8144862200556795 2.051502129927193
0.7584623001291294 2.051502129927193
0.6931010602148209 2.051502129927193
0.6557517802637876 2.0646422512568825
0.6277398203005125 2.051502129927193
0.5997278603372374 2.051502129927193
0.5530412603984456 2.1172027365756407
0.5437039404106873 2.104062615245951
0.5250293004351706 2.0777823725865723
0.5156919804474122 2.051502129927193
0.4783427004963788 1.9989416446084352
0.4223187805698287 1.9858015232787458
0.3569575406555202 1.9726614019490563
0.3382829006800035 1.906960795300609
0.3196082607044868 1.9463811592896774
0.3196082607044868 1.9595212806193667
0.31027094071672845 1.9858015232787458
0.30093362072897006 2.0120817659381247
0.31027094071672845 2.025221887267814
0.30093362072897006 1.9989416446084352
0.3196082607044868 1.9989416446084352
0.30093362072897006 1.9726614019490563
0.29159630074121173 1.9201009166302982
0.26358434077793663 1.9201009166302982
0.22623506082690326 1.854400309981851
0.2168977408391449 1.854400309981851
0.2168977408391449 1.8675404313115405
0.23557238081466159 1.8938206739709194
0.23557238081466159 1.9201009166302982
0.24490970080241994 1.9332410379599878
0.272921660765695 1.9332410379599878
0.28225898075345335 1.9332410379599878
0.2542470207901783 1.9726614019490563
0.2542470207901783 1.9595212806193667
0.23557238081466159 1.9201009166302982
0.26358434077793663 1.8938206739709194
0.26358434077793663 1.8675404313115405
0.272921660765695 1.8938206739709194
0.272921660765695 1.8806805526412298
0.29159630074121173 1.9201009166302982
0.30093362072897006 1.9332410379599878
0.3196082607044868 1.9595212806193667
0.3382829006800035 1.9858015232787458
0.3569575406555202 1.9858015232787458
0.3569575406555202 1.9463811592896774
0.3382829006800035 1.9463811592896774
0.3289455806922451 1.9332410379599878
0.3289455806922451 1.8938206739709194
0.31027094071672845 1.8938206739709194
0.31027094071672845 1.854400309981851
0.3196082607044868 1.8412601886521613
0.31027094071672845 1.8938206739709194
0.3476202206677618 1.8938206739709194
0.3569575406555202 1.9332410379599878
0.37563218063103687 1.9463811592896774
0.37563218063103687 1.9463811592896774
0.403644140594312 1.9595212806193667
0.38496950061879526 1.9201009166302982
0.3943068206065536 1.8675404313115405
0.36629486064327854 1.8675404313115405
0.3569575406555202 1.828120067322472
0.3476202206677618 1.828120067322472
0.3569575406555202 1.828120067322472
0.3196082607044868 1.8675404313115405
0.3289455806922451 1.8412601886521613
0.3943068206065536 1.8938206739709194
0.3943068206065536 1.9463811592896774
0.3943068206065536 1.9595212806193667
0.403644140594312 1.9595212806193667
0.37563218063103687 1.9332410379599878
0.3476202206677618 1.906960795300609
0.31027094071672845 1.8675404313115405
0.31027094071672845 1.828120067322472
0.29159630074121173 1.8412601886521613
0.272921660765695 1.8675404313115405
0.272921660765695 1.8675404313115405
0.28225898075345335 1.8938206739709194
0.30093362072897006 1.8938206739709194
0.31027094071672845 1.9463811592896774
0.3289455806922451 1.9332410379599878
0.30093362072897006 1.9463811592896774
0.272921660765695 1.9201009166302982
0.2542470207901783 1.906960795300609
0.22623506082690326 1.8412601886521613
0.23557238081466159 1.8675404313115405
0.23557238081466159 1.8149799459927825
0.20756042085138654 1.828120067322472
0.24490970080241994 1.8412601886521613
0.22623506082690326 1.9201009166302982
0.2542470207901783 1.8938206739709194
0.23557238081466159 1.9858015232787458
0.272921660765695 1.9595212806193667
0.23557238081466159 1.9332410379599878
0.22623506082690326 1.9332410379599878
0.22623506082690326 1.8938206739709194
0.19822310086362818 1.8675404313115405
0.17954846088811147 1.8149799459927825
0.17954846088811147 1.8149799459927825
0.17954846088811147 1.8412601886521613
0.16087382091259478 1.8675404313115405
0.16087382091259478 1.9201009166302982
0.19822310086362818 1.9332410379599878
0.18888578087586982 1.906960795300609
0.20756042085138654 1.906960795300609
0.20756042085138654 1.8806805526412298
0.19822310086362818 1.8675404313115405
0.17021114090035314 1.854400309981851
0.14219918093707806 1.801839824663093
0.14219918093707806 1.801839824663093
0.1328618609493197 1.801839824663093
0.15153650092483642 1.8149799459927825
0.15153650092483642 1.8675404313115405
0.17021114090035314 1.8938206739709194
0.17954846088811147 1.9332410379599878
0.20756042085138654 1.9201009166302982
0.23557238081466159 1.9201009166302982
0.23557238081466159 1.9201009166302982
0.2542470207901783 1.9595212806193667
0.23557238081466159 1.9726614019490563
0.2542470207901783 1.9858015232787458
0.272921660765695 1.9726614019490563
0.30093362072897006 1.9858015232787458
0.3289455806922451 2.038362008597504
0.403644140594312 2.0909224939162616
0.44099342054534535 2.1434829792350194
0.48768002048413717 2.1434829792350194
0.46900538050862045 2.209183585883467
0.45033074053310373 2.2486039498725354
0.44099342054534535 2.156623100564709
0.403644140594312 2.156623100564709
0.3569575406555202 2.0909224939162616
0.3196082607044868 2.0120817659381247
0.22623506082690326 1.9201009166302982
0.19822310086362818 1.8806805526412298
0.23557238081466159 1.8675404313115405
0.18888578087586982 1.801839824663093
0.19822310086362818 1.749279339344335
0.18888578087586982 1.7361392180146455
0.17021114090035314 1.7624194606740244
0.16087382091259478 1.801839824663093
0.114187220973803 1.8412601886521613
0.08617526101052794 1.854400309981851
0.08617526101052794 1.854400309981851
0.05816330104725288 1.8149799459927825
0.08617526101052794 1.801839824663093
0.07683794102276958 1.7886997033334036
0.07683794102276958 1.801839824663093
0.07683794102276958 1.8149799459927825
0.08617526101052794 1.828120067322472
0.10484990098604464 1.8806805526412298
0.10484990098604464 1.8806805526412298
0.12352454096156136 1.8938206739709194
0.10484990098604464 1.8938206739709194
0.0955125809982863 1.8675404313115405
0.07683794102276958 1.8675404313115405
0.039488661071736174 1.854400309981851
0.05816330104725288 1.828120067322472
0.08617526101052794 1.7624194606740244
0.08617526101052794 1.8412601886521613
0.0955125809982863 1.828120067322472
0.06750062103501124 1.854400309981851
0.07683794102276958 1.8806805526412298
0.06750062103501124 1.906960795300609
0.06750062103501124 1.9463811592896774
0.039488661071736174 2.0120817659381247
0.048825981059494525 2.13034285790533
0.17021114090035314 2.3274446778506723
0.4223187805698287 2.4194255271584986
0.8051489000679212 2.458845891147567
1.3747254193211806 2.3931452844991195
2.0190004984765073 2.209183585883467
2.7939980574604504 1.775559582003714
