1.2470332053439992 -3.3141088520232858
1.3087486092306282 -3.349901531928995
1.3581209323399315 -3.2783161721175764
1.4445224977812123 -3.224627152259012
1.5185809824451673 -3.2425234922118666
1.592639467109122 -3.2425234922118666
1.6296687094410995 -3.3141088520232858
1.6543548709957512 -3.2783161721175764
1.7160702748823802 -3.296212512070431
1.7530995172143577 -3.2604198321647213
1.7654425979916835 -3.2067308123061573
1.7407564364370318 -3.224627152259012
1.7037271941050545 -3.2067308123061573
1.6913841133277285 -3.170938132400448
1.6913841133277285 -3.1530417924475933
1.7654425979916835 -3.081456432636174
1.790128759546335 -3.081456432636174
1.8148149211009867 -3.1530417924475933
1.7530995172143577 -3.1530417924475933
1.6913841133277285 -3.1888344723533026
1.6790410325504028 -3.099352772589029
1.728413355659706 -3.045663752730465
1.728413355659706 -3.0635600926833195
1.7777856787690094 -3.1172491125418835
1.7777856787690094 -3.1530417924475933
1.7530995172143577 -3.1530417924475933
1.7530995172143577 -3.135145452494738
1.6913841133277285 -3.099352772589029
1.6420117902184252 -3.081456432636174
1.5802963863317963 -3.135145452494738
1.530924063222493 -3.135145452494738
1.5185809824451673 -3.1172491125418835
1.5185809824451673 -3.081456432636174
1.5062379016678413 -3.099352772589029
1.4815517401131897 -3.135145452494738
1.469208659335864 -3.1888344723533026
1.4321794170038864 -3.1530417924475933
1.4074932554492348 -3.135145452494738
1.3828070938945831 -3.1530417924475933
1.3828070938945831 -3.081456432636174
1.3828070938945831 -3.135145452494738
1.395150174671909 -3.1888344723533026
1.3828070938945831 -3.224627152259012
1.3457778515626058 -3.2604198321647213
1.3457778515626058 -3.2067308123061573
1.3210916900079541 -3.1172491125418835
1.3334347707852798 -3.081456432636174
1.2964055284533025 -3.135145452494738
1.3087486092306282 -3.1530417924475933
1.3087486092306282 -3.224627152259012
1.3457778515626058 -3.170938132400448
1.3704640131172574 -3.081456432636174
1.3704640131172574 -3.099352772589029
1.3581209323399315 -3.135145452494738
1.3457778515626058 -3.2067308123061573
1.3210916900079541 -3.170938132400448
1.2964055284533025 -3.135145452494738
1.2840624476759765 -3.1172491125418835
1.3334347707852798 -3.1172491125418835
1.3581209323399315 -3.1172491125418835
1.3210916900079541 -3.1530417924475933
1.3087486092306282 -3.099352772589029
1.3210916900079541 -3.081456432636174
1.3704640131172574 -3.045663752730465
1.4198363362265607 -3.0635600926833195
1.4198363362265607 -3.0635600926833195
1.3457778515626058 -3.099352772589029
1.3210916900079541 -3.099352772589029
1.3704640131172574 -3.02776741277761
1.4074932554492348 -2.9740783929190457
1.4074932554492348 -2.956182052966191
1.4074932554492348 -2.9740783929190457
1.3704640131172574 -3.009871072824755
1.3828070938945831 -3.02776741277761
1.4074932554492348 -3.045663752730465
1.4445224977812123 -3.045663752730465
1.395150174671909 -3.045663752730465
1.3828070938945831 -3.045663752730465
1.3457778515626058 -2.9919747328719004
1.3210916900079541 -2.9382857130133364
1.3581209323399315 -2.8488040132490626
1.395150174671909 -2.741425973531934
1.469208659335864 -2.68773695367337
1.5062379016678413 -2.6698406137205155
1.5556102247771446 -2.68773695367337
1.5556102247771446 -2.741425973531934
1.6173256286637736 -2.68773695367337
1.6173256286637736 -2.5982552539090964
1.604982547886448 -2.6698406137205155
1.6296687094410995 -2.7593223134847893
1.666697951773077 -2.902493033107627
1.728413355659706 -2.902493033107627
1.7777856787690094 -2.7593223134847893
1.8271580018783127 -2.616151593861951
1.8271580018783127 -2.5982552539090964
1.8518441634329643 -2.634047933814806
1.9135595673195933 -2.705633293626225
1.9752749712062225 -2.8130113333433533
2.074019617424829 -2.741425973531934
2.074019617424829 -2.705633293626225
1.9876180519835482 -2.68773695367337
1.9135595673195933 -2.777218653437644
1.8148149211009867 -2.830907673296208
1.8271580018783127 -2.8488040132490626
1.790128759546335 -2.8845966931547724
1.6913841133277285 -2.8845966931547724
1.592639467109122 -2.9382857130133364
1.4815517401131897 -2.956182052966191
1.3704640131172574 -3.009871072824755
1.2346901245666733 -2.956182052966191
1.2223470437893476 -2.8845966931547724
1.2470332053439992 -2.8130113333433533
1.2840624476759765 -2.8845966931547724
1.2964055284533025 -2.902493033107627
1.2840624476759765 -2.9740783929190457
1.2223470437893476 -2.956182052966191
1.2717193668986508 -2.8845966931547724
1.2840624476759765 -2.8667003532019173
1.2964055284533025 -2.902493033107627
1.2717193668986508 -2.956182052966191
1.2470332053439992 -2.9919747328719004
1.2470332053439992 -2.956182052966191
1.2100039630120216 -2.956182052966191
1.2470332053439992 -2.902493033107627
1.2346901245666733 -2.8845966931547724
1.2223470437893476 -2.8845966931547724
1.197660882234696 -2.8845966931547724
1.1729747206800443 -2.8667003532019173
1.2470332053439992 -2.8845966931547724
1.2964055284533025 -2.8488040132490626
1.3087486092306282 -2.8488040132490626
1.2840624476759765 -2.8667003532019173
1.2717193668986508 -2.902493033107627
1.259376286121325 -2.9203893730604817
1.2470332053439992 -2.8667003532019173
1.2840624476759765 -2.777218653437644
1.3704640131172574 -2.741425973531934
1.456865578558538 -2.7951149933904986
1.6296687094410995 -2.902493033107627
1.9012164865422676 -3.02776741277761
2.345567394525997 -3.1530417924475933
2.876319867951007 -3.3856942118347044
3.4441015837079947 -3.564657611363252
3.987197137910331 -3.6362429711746707
4.443891126671386 -3.6362429711746707
4.703095822995229 -3.5109685915046875
4.801840469213835 -3.3856942118347044
4.740125065327206 -3.403590551787559
4.308117238120802 -3.421486891740414
3.7526786031411405 -3.296212512070431
3.3330138567120624 -3.170938132400448
3.1478676450521754 -3.135145452494738
3.0120937565015913 -3.081456432636174
2.765232140955075 -2.9919747328719004
2.357910475303323 -2.9382857130133364
1.9135595673195933 -2.9203893730604817
1.604982547886448 -2.9203893730604817
1.4321794170038864 -2.8845966931547724
1.3210916900079541 -2.830907673296208
1.1729747206800443 -2.777218653437644
1.0001715897974828 -2.7235296335790795
0.8767407820242246 -2.68773695367337
0.7409668934736405 -2.634047933814806
0.6175360857003824 -2.5266698940976777
0.5928499241457308 -2.4729808742391133
0.6175360857003824 -2.34770649456913
0.7162807319189889 -2.3656028345219853
0.7039376511416631 -2.4013955144276946
0.6422222472550341 -2.4550845342862586
0.6175360857003824 -2.4908772141919684
0.6422222472550341 -2.4908772141919684
0.7286238126963147 -2.4192918543805493
0.7903392165829438 -2.3656028345219853
0.7409668934736405 -2.4192918543805493
0.7039376511416631 -2.437188194333404
0.7039376511416631 -2.4550845342862586
0.777996135805618 -2.294017474710566
0.8397115396922471 -2.240328454852002
0.8397115396922471 -2.240328454852002
0.7903392165829438 -2.222432114899147
0.7039376511416631 -2.2761211347577115
0.5928499241457308 -2.2761211347577115
0.5311345202591017 -2.2045357749462924
0.4941052779271242 -2.1329504151348737
0.44473295481782094 -2.1508467550877284
0.44473295481782094 -2.1508467550877284
0.4817621971497984 -2.2045357749462924
0.5311345202591017 -2.222432114899147
0.580506843368405 -2.1329504151348737
0.6051930049230566 -2.1329504151348737
0.6298791664777083 -2.1329504151348737
0.6175360857003824 -2.1866394349934377
0.6298791664777083 -2.2045357749462924
0.6545653280323598 -2.2045357749462924
0.6915945703643372 -2.240328454852002
0.7039376511416631 -2.222432114899147
0.7162807319189889 -2.258224794804857
0.6915945703643372 -2.258224794804857
0.6915945703643372 -2.2761211347577115
0.7162807319189889 -2.2761211347577115
0.7903392165829438 -2.2045357749462924
0.8397115396922471 -2.1866394349934377
0.8026822973602696 -2.2045357749462924
0.7162807319189889 -2.2045357749462924
0.6175360857003824 -2.2045357749462924
0.5187914394817759 -2.168743095040583
0.38301755093119183 -2.0971577352291644
0.33364522782188855 -1.971883355559181
0.34598830859921437 -1.971883355559181
0.44473295481782094 -1.971883355559181
0.5311345202591017 -2.0792613952763093
0.5558206818137533 -2.0792613952763093
0.580506843368405 -2.0255723754177453
0.5187914394817759 -1.971883355559181
0.5558206818137533 -1.971883355559181
0.6051930049230566 -2.0255723754177453
0.7039376511416631 -2.0792613952763093
0.7656530550282922 -2.0792613952763093
0.8150253781375955 -2.0076760354648906
0.9014269435788762 -1.9360906756534717
0.9507992666881795 -1.971883355559181
0.913770024356202 -2.0255723754177453
0.8643977012468987 -2.0792613952763093
0.8520546204695729 -2.0434687153706
0.9261131051335278 -1.9897796955120357
1.049543912906786 -1.9002979957477621
1.111259316793415 -1.9002979957477621
1.0125146705748085 -1.9539870156063264
0.8520546204695729 -1.971883355559181
0.7533099742509664 -1.971883355559181
0.7656530550282922 -1.9002979957477621
0.8273684589149213 -1.8824016557949075
0.8767407820242246 -1.971883355559181
0.913770024356202 -1.9897796955120357
0.9014269435788762 -1.9897796955120357
0.9261131051335278 -1.9897796955120357
0.9754854282428311 -1.971883355559181
1.0001715897974828 -1.9539870156063264
1.0125146705748085 -2.0255723754177453
1.049543912906786 -2.0792613952763093
1.0001715897974828 -2.1329504151348737
0.9754854282428311 -2.115054075182019
0.9754854282428311 -2.0434687153706
0.8890838628015504 -2.0434687153706
0.8273684589149213 -2.0613650553234546
0.7533099742509664 -2.0792613952763093
0.7656530550282922 -2.0255723754177453
0.8520546204695729 -1.9360906756534717
0.9754854282428311 -1.8645053158420528
1.049543912906786 -1.8824016557949075
1.0248577513521344 -1.9181943357006168
0.8890838628015504 -1.9897796955120357
0.7656530550282922 -2.0255723754177453
0.6422222472550341 -2.0255723754177453
0.7286238126963147 -1.9360906756534717
0.8397115396922471 -1.8645053158420528
0.9261131051335278 -1.8645053158420528
0.8520546204695729 -1.8287126359363433
0.6422222472550341 -1.8824016557949075
0.45707603559514676 -1.9360906756534717
0.4694191163724726 -1.9002979957477621
0.6051930049230566 -1.8108162959834886
0.7533099742509664 -1.775023616077779
0.8520546204695729 -1.7392309361720697
0.8397115396922471 -1.7213345962192148
0.7162807319189889 -1.6855419163135055
0.5558206818137533 -1.649749236407796
0.45707603559514676 -1.6318528964549412
0.4817621971497984 -1.7571272761249244
0.6051930049230566 -1.8108162959834886
0.7286238126963147 -1.9181943357006168
0.7533099742509664 -1.9539870156063264
0.7162807319189889 -1.9360906756534717
0.6669084088096856 -1.9181943357006168
0.6915945703643372 -1.8824016557949075
0.777996135805618 -1.9360906756534717
0.8397115396922471 -1.9539870156063264
0.9014269435788762 -1.9360906756534717
0.9507992666881795 -1.8824016557949075
0.913770024356202 -1.9002979957477621
0.8397115396922471 -1.9539870156063264
0.7039376511416631 -2.0076760354648906
0.6298791664777083 -2.0613650553234546
0.6175360857003824 -2.0792613952763093
0.7039376511416631 -1.9897796955120357
0.777996135805618 -1.971883355559181
0.8150253781375955 -1.9897796955120357
0.7903392165829438 -1.9539870156063264
0.7533099742509664 -1.9002979957477621
0.7409668934736405 -1.9181943357006168
0.8520546204695729 -1.9181943357006168
0.8643977012468987 -1.8824016557949075
0.8150253781375955 -1.9181943357006168
0.777996135805618 -1.8824016557949075
0.7656530550282922 -1.9002979957477621
0.7656530550282922 -1.8824016557949075
0.7903392165829438 -1.8645053158420528
0.8150253781375955 -1.8287126359363433
0.7162807319189889 -1.846608975889198
0.6298791664777083 -1.8645053158420528
0.6298791664777083 -1.9181943357006168
0.6915945703643372 -1.9360906756534717
0.8397115396922471 -1.9002979957477621
0.913770024356202 -1.8108162959834886
0.9631423474655053 -1.7571272761249244
0.9261131051335278 -1.7571272761249244
0.8890838628015504 -1.775023616077779
0.7656530550282922 -1.7213345962192148
0.6051930049230566 -1.649749236407796
0.4941052779271242 -1.5244748567378128
0.4694191163724726 -1.4886821768321035
0.580506843368405 -1.4707858368792488
0.7162807319189889 -1.4349931569735392
0.8643977012468987 -1.3455114572092657
1.0618869936841118 -1.3455114572092657
1.0618869936841118 -1.3276151172564108
0.9014269435788762 -1.381304137114975
0.7286238126963147 -1.381304137114975
0.6792514895870114 -1.381304137114975
0.8397115396922471 -1.4349931569735392
1.0989162360160893 -1.452889496926394
1.2100039630120216 -1.4170968170206846
1.2346901245666733 -1.4349931569735392
1.1606316399027183 -1.452889496926394
1.1482885591253926 -1.381304137114975
1.1482885591253926 -1.3634077971621203
1.197660882234696 -1.3097187773035561
1.3334347707852798 -1.2918224373507015
1.5062379016678413 -1.2739260973978468
1.5062379016678413 -1.381304137114975
1.4321794170038864 -1.4349931569735392
1.3087486092306282 -1.5244748567378128
1.2717193668986508 -1.5065785167849581
1.2840624476759765 -1.5244748567378128
1.3087486092306282 -1.5602675366435224
1.3334347707852798 -1.6139565565020866
1.1482885591253926 -1.6855419163135055
0.8643977012468987 -1.7392309361720697
0.6175360857003824 -1.7213345962192148
0.6175360857003824 -1.7213345962192148
0.6915945703643372 -1.7213345962192148
0.7656530550282922 -1.6855419163135055
0.9014269435788762 -1.649749236407796
0.9507992666881795 -1.649749236407796
0.9384561859108537 -1.6676455763606508
0.7409668934736405 -1.6676455763606508
0.5681637625910791 -1.649749236407796
0.45707603559514676 -1.649749236407796
0.4694191163724726 -1.6855419163135055
0.4941052779271242 -1.7034382562663601
0.6051930049230566 -1.7213345962192148
0.7039376511416631 -1.7571272761249244
0.8150253781375955 -1.7392309361720697
0.8767407820242246 -1.6676455763606508
0.8890838628015504 -1.649749236407796
0.7903392165829438 -1.649749236407796
0.6669084088096856 -1.6676455763606508
0.580506843368405 -1.6855419163135055
0.6175360857003824 -1.6855419163135055
0.777996135805618 -1.6855419163135055
0.8890838628015504 -1.7571272761249244
0.8890838628015504 -1.7929199560306337
0.9014269435788762 -1.7034382562663601
0.9631423474655053 -1.649749236407796
0.9384561859108537 -1.6855419163135055
0.7162807319189889 -1.7213345962192148
0.50644835870445 -1.6855419163135055
0.4817621971497984 -1.6318528964549412
0.6915945703643372 -1.578163876596377
0.9631423474655053 -1.578163876596377
1.1729747206800443 -1.6318528964549412
1.4321794170038864 -1.7392309361720697
1.7037271941050545 -1.9360906756534717
2.0987057789794807 -2.1329504151348737
2.617115171627165 -2.3298101546162755
3.1355245642748493 -2.5266698940976777
3.6045616338132307 -2.562462574003387
3.9501678955783537 -2.4908772141919684
4.0612556225742855 -2.4013955144276946
4.160000268792892 -2.3656028345219853
4.085941784128938 -2.294017474710566
3.777364764695792 -2.240328454852002
3.3206707759347367 -2.1866394349934377
2.901006029505659 -2.168743095040583
2.5924290100725136 -2.1508467550877284
2.333224313748671 -2.0971577352291644
2.0123042135382 -1.9360906756534717
1.6543548709957512 -1.8287126359363433
1.3457778515626058 -1.8108162959834886
1.1482885591253926 -1.8287126359363433
1.0125146705748085 -1.8108162959834886
0.8643977012468987 -1.775023616077779
0.7656530550282922 -1.6855419163135055
0.6422222472550341 -1.5960602165492317
0.5187914394817759 -1.5244748567378128
0.3583313893765402 -1.5423711966906677
0.27192982393525944 -1.5244748567378128
0.24724366238060783 -1.452889496926394
0.34598830859921437 -1.3992004770678297
0.4200467932631693 -1.3097187773035561
0.45707603559514676 -1.3455114572092657
0.4200467932631693 -1.3992004770678297
0.2966159854899111 -1.4707858368792488
0.2595867431579336 -1.5423711966906677
0.28427290471258526 -1.5423711966906677
0.38301755093119183 -1.452889496926394
0.4323898740404951 -1.5065785167849581
0.50644835870445 -1.5244748567378128
0.50644835870445 -1.4886821768321035
0.50644835870445 -1.5065785167849581
0.5434776010364275 -1.452889496926394
0.5434776010364275 -1.4170968170206846
0.4941052779271242 -1.452889496926394
0.4077037124858435 -1.5065785167849581
0.3089590662672369 -1.4886821768321035
0.3213021470445627 -1.5244748567378128
0.4323898740404951 -1.4349931569735392
0.45707603559514676 -1.3634077971621203
0.4323898740404951 -1.381304137114975
0.4077037124858435 -1.3992004770678297
0.4694191163724726 -1.5065785167849581
0.45707603559514676 -1.452889496926394
0.39536063170851765 -1.4349931569735392
0.34598830859921437 -1.3992004770678297
0.34598830859921437 -1.3276151172564108
0.4200467932631693 -1.3097187773035561
0.44473295481782094 -1.3097187773035561
0.4077037124858435 -1.3097187773035561
0.3583313893765402 -1.256029757444992
0.3583313893765402 -1.1665480576807183
0.3583313893765402 -1.2202370775392826
0.39536063170851765 -1.256029757444992
0.4077037124858435 -1.3992004770678297
0.38301755093119183 -1.4170968170206846
0.2966159854899111 -1.3634077971621203
0.27192982393525944 -1.2918224373507015
0.2595867431579336 -1.256029757444992
0.2966159854899111 -1.2918224373507015
0.2966159854899111 -1.3992004770678297
0.21021442004863036 -1.3634077971621203
0.19787133927130454 -1.2918224373507015
0.27192982393525944 -1.2202370775392826
0.3213021470445627 -1.2918224373507015
0.27192982393525944 -1.3097187773035561
0.11146977383002381 -1.3455114572092657
0.037411289166068895 -1.3097187773035561
0.13615593538467544 -1.2381334174921372
0.2595867431579336 -1.184444397633573
0.3213021470445627 -1.184444397633573
0.3213021470445627 -1.256029757444992
0.2966159854899111 -1.184444397633573
0.3089590662672369 -1.1665480576807183
0.33364522782188855 -1.1486517177278637
0.370674470153866 -1.1307553777750088
0.38301755093119183 -1.2202370775392826
0.38301755093119183 -1.2381334174921372
0.370674470153866 -1.2739260973978468
0.39536063170851765 -1.2918224373507015
0.4694191163724726 -1.2381334174921372
0.5434776010364275 -1.184444397633573
0.6298791664777083 -1.1486517177278637
0.6422222472550341 -1.1486517177278637
0.5681637625910791 -1.2381334174921372
0.50644835870445 -1.2918224373507015
0.5311345202591017 -1.256029757444992
0.6545653280323598 -1.184444397633573
0.7903392165829438 -1.1486517177278637
0.8273684589149213 -1.2023407375864277
0.777996135805618 -1.2023407375864277
0.6545653280323598 -1.256029757444992
0.6669084088096856 -1.2202370775392826
0.7903392165829438 -1.1665480576807183
0.8767407820242246 -1.2023407375864277
0.8520546204695729 -1.2202370775392826
0.8026822973602696 -1.2739260973978468
0.7656530550282922 -1.256029757444992
0.7039376511416631 -1.184444397633573
0.6792514895870114 -1.1128590378221541
0.7039376511416631 -1.1128590378221541
0.6915945703643372 -1.1128590378221541
0.6669084088096856 -1.1486517177278637
0.580506843368405 -1.1486517177278637
0.5187914394817759 -1.1128590378221541
0.5187914394817759 -1.0770663579164448
0.5311345202591017 -1.0949626978692995
0.4941052779271242 -1.1128590378221541
0.4200467932631693 -1.1665480576807183
0.39536063170851765 -1.1665480576807183
0.39536063170851765 -1.05917001796359
0.3583313893765402 -0.9696883181993163
0.38301755093119183 -0.9338956382936069
0.3583313893765402 -1.0233773380578806
0.2966159854899111 -1.0233773380578806
0.2595867431579336 -1.0054809981050257
0.3089590662672369 -0.987584658152171
0.33364522782188855 -0.9696883181993163
0.3583313893765402 -1.0054809981050257
0.2966159854899111 -1.0770663579164448
0.21021442004863036 -1.0412736780107352
0.14849901616200126 -1.05917001796359
0.1731851777166529 -1.0054809981050257
0.1731851777166529 -0.9338956382936069
0.22255750082595618 -0.9696883181993163
0.28427290471258526 -1.05917001796359
0.2966159854899111 -1.0770663579164448
0.24724366238060783 -1.0949626978692995
0.22255750082595618 -1.0233773380578806
0.22255750082595618 -0.9696883181993163
0.24724366238060783 -0.9696883181993163
0.21021442004863036 -1.0233773380578806
0.12381285460734963 -1.0054809981050257
0.11146977383002381 -1.05917001796359
0.13615593538467544 -1.05917001796359
0.234900581603282 -1.0054809981050257
0.33364522782188855 -1.0233773380578806
0.3583313893765402 -1.0412736780107352
0.3089590662672369 -1.0770663579164448
0.21021442004863036 -1.0412736780107352
0.22255750082595618 -1.0054809981050257
0.234900581603282 -0.9517919782464616
0.21021442004863036 -0.987584658152171
0.14849901616200126 -1.0054809981050257
0.13615593538467544 -1.0412736780107352
0.08678361227537217 -1.0412736780107352
0.09912669305269799 -0.9696883181993163
0.12381285460734963 -1.0233773380578806
0.14849901616200126 -0.987584658152171
0.12381285460734963 -1.0054809981050257
0.13615593538467544 -1.0233773380578806
0.13615593538467544 -1.0054809981050257
0.14849901616200126 -0.9159992983407521
0.14849901616200126 -0.9696883181993163
0.16084209693932708 -0.987584658152171
0.13615593538467544 -1.0233773380578806
0.09912669305269799 -1.0412736780107352
0.037411289166068895 -0.987584658152171
0.025068208388743077 -0.9696883181993163
0.012725127611417258 -0.987584658152171
-0.0243041147205602 -1.0054809981050257
0.00038204683409143886 -0.987584658152171
-0.03664719549788602 -1.0233773380578806
-0.06133335705253765 -1.0412736780107352
-0.0243041147205602 -0.9696883181993163
0.037411289166068895 -0.9517919782464616
0.049754369943394716 -0.8981029583878974
0.012725127611417258 -0.8981029583878974
-0.0243041147205602 -0.8444139385293332
-0.07367643782986348 -0.790724918670769
-0.04899027627521184 -0.7370358988122049
0.00038204683409143886 -0.6117615191422218
0.07444053149804636 -0.5759688392365123
0.21021442004863036 -0.593865179189367
0.3089590662672369 -0.6475541990479312
0.3213021470445627 -0.665450539000786
0.33364522782188855 -0.6475541990479312
0.2595867431579336 -0.6475541990479312
0.24724366238060783 -0.7012432189064954
0.28427290471258526 -0.7191395588593501
0.34598830859921437 -0.7370358988122049
0.4200467932631693 -0.7549322387650595
0.4694191163724726 -0.7012432189064954
0.5187914394817759 -0.665450539000786
0.50644835870445 -0.6475541990479312
0.45707603559514676 -0.6833468789536407
0.4817621971497984 -0.790724918670769
0.4077037124858435 -0.8265175985764784
0.4077037124858435 -0.7728285787179143
0.38301755093119183 -0.7370358988122049
0.39536063170851765 -0.6833468789536407
0.39536063170851765 -0.7549322387650595
0.3583313893765402 -0.7728285787179143
0.28427290471258526 -0.862310278482188
0.18552825849397872 -0.862310278482188
0.09912669305269799 -0.8802066184350427
0.06209745072072053 -0.8981029583878974
0.00038204683409143886 -0.8802066184350427
-0.09836259938451511 -0.9517919782464616
-0.19710724560312165 -0.9338956382936069
-0.24647956871242493 -0.9159992983407521
-0.2217934071577733 -0.9517919782464616
-0.20945032638044747 -0.9159992983407521
-0.17242108404847004 -0.8802066184350427
-0.19710724560312165 -0.9517919782464616
-0.2835088110444024 -0.9696883181993163
-0.38225345726300897 -0.9517919782464616
-0.4069396188176606 -0.9159992983407521
-0.38225345726300897 -0.9517919782464616
-0.2958518918217282 -0.9338956382936069
-0.2341364879350991 -0.9517919782464616
-0.2341364879350991 -0.9517919782464616
-0.24647956871242493 -0.8981029583878974
-0.2341364879350991 -0.862310278482188
-0.18476416482579586 -0.862310278482188
-0.16007800327114421 -0.862310278482188
-0.24647956871242493 -0.8444139385293332
-0.36991037648568315 -0.8802066184350427
-0.41928269959498643 -0.862310278482188
-0.3575672957083573 -0.862310278482188
-0.2711657302670766 -0.8265175985764784
-0.20945032638044747 -0.862310278482188
-0.25882264948975076 -0.9159992983407521
-0.3328811341537057 -0.9517919782464616
-0.36991037648568315 -0.9159992983407521
-0.3328811341537057 -0.862310278482188
-0.2835088110444024 -0.7728285787179143
-0.25882264948975076 -0.7191395588593501
-0.20945032638044747 -0.7728285787179143
-0.09836259938451511 -0.7728285787179143
0.16084209693932708 -0.7728285787179143
0.4817621971497984 -0.8265175985764784
0.8767407820242246 -0.9159992983407521
1.2346901245666733 -1.0949626978692995
1.666697951773077 -1.381304137114975
2.061676536647503 -1.5602675366435224
2.5430566869632103 -1.4886821768321035
2.901006029505659 -1.3276151172564108
3.098495321942872 -1.1486517177278637
3.0738091603882203 -1.0949626978692995
2.765232140955075 -1.1307553777750088
2.209793505975413 -1.1128590378221541
1.592639467109122 -1.0770663579164448
1.2964055284533025 -1.0412736780107352
1.2346901245666733 -0.9517919782464616
1.0372008321294601 -0.8802066184350427
0.6545653280323598 -0.790724918670769
0.21021442004863036 -0.7370358988122049
-0.03664719549788602 -0.6475541990479312
-0.18476416482579586 -0.593865179189367
-0.2711657302670766 -0.6117615191422218
-0.45631194192696384 -0.5759688392365123
-0.5550565881455705 -0.5222798193779481
-0.5673996689228963 -0.41490177966081976
-0.518027345813593 -0.30752373994369137
-0.518027345813593 -0.20014570022656303
-0.6538012343641769 -0.16435302032085355
-0.8759766883560417 -0.1285603404151441
-0.9747213345746483 -0.1285603404151441
-0.9500351730199966 -0.09276766050943465
-0.789575122914761 -0.14645668036799883
-0.6908304766961544 -0.11066400046228939
-0.6784873959188286 -0.056974980603725196
-0.6291150728095253 -0.056974980603725196
-0.6538012343641769 -0.02118230069801574
-0.6661443151415027 -0.0032859607451610137
-0.7031735574734802 0.05040305911340317
-0.7278597190281318 -0.0032859607451610137
-0.7648889613601093 -0.039078640650870466
-0.7648889613601093 -0.0032859607451610137
-0.8019182036920868 -0.02118230069801574
-0.8019182036920868 -0.02118230069801574
-0.8142612844694126 0.05040305911340317
-0.7525458805827835 0.08619573901911262
-0.715516638250806 0.08619573901911262
-0.715516638250806 0.08619573901911262
-0.6908304766961544 0.014610379207693714
-0.7278597190281318 -0.02118230069801574
-0.7402027998054577 0.05040305911340317
-0.7278597190281318 0.10409207897196736
-0.715516638250806 0.12198841892482208
-0.6908304766961544 0.12198841892482208
-0.6908304766961544 0.05040305911340317
-0.6908304766961544 0.10409207897196736
-0.6784873959188286 0.12198841892482208
-0.6661443151415027 0.17567743878338626
-0.6661443151415027 0.193573778736241
-0.6784873959188286 0.17567743878338626
-0.6908304766961544 0.15778109883053154
-0.7031735574734802 0.13988475887767682
-0.6784873959188286 0.17567743878338626
-0.715516638250806 0.193573778736241
-0.7031735574734802 0.15778109883053154
-0.7402027998054577 0.15778109883053154
-0.789575122914761 0.13988475887767682
-0.8389474460240642 0.12198841892482208
-0.8389474460240642 0.2114701186890957
-0.8142612844694126 0.22936645864195046
-0.8142612844694126 0.2651591385476599
-0.8389474460240642 0.28305547850051466
-0.9130059306880192 0.28305547850051466
-0.9376920922426708 0.24726279859480518
-0.9376920922426708 0.2651591385476599
-0.8759766883560417 0.2651591385476599
-0.8512905268013901 0.22936645864195046
-0.8266043652467384 0.193573778736241
-0.8389474460240642 0.2114701186890957
-0.9130059306880192 0.24726279859480518
-0.8636336075787159 0.2114701186890957
-0.8759766883560417 0.3188481584062241
-0.8266043652467384 0.2651591385476599
-0.789575122914761 0.28305547850051466
-0.789575122914761 0.28305547850051466
-0.8019182036920868 0.3009518184533694
-0.7525458805827835 0.35464083831193355
-0.7031735574734802 0.42622619812335244
-0.6044289112548736 0.390433518217643
-0.6167719920321995 0.3188481584062241
-0.5920858304775478 0.2651591385476599
-0.6291150728095253 0.28305547850051466
-0.6291150728095253 0.3188481584062241
-0.579742749700222 0.35464083831193355
-0.4933411842589413 0.390433518217643
-0.4069396188176606 0.3367444983590788
-0.3452242149310315 0.3188481584062241
-0.3452242149310315 0.3009518184533694
-0.3328811341537057 0.3188481584062241
-0.32053805337637986 0.390433518217643
-0.2835088110444024 0.3367444983590788
-0.25882264948975076 0.35464083831193355
-0.25882264948975076 0.28305547850051466
-0.24647956871242493 0.3188481584062241
-0.2341364879350991 0.3367444983590788
-0.20945032638044747 0.3188481584062241
-0.20945032638044747 0.3188481584062241
-0.18476416482579586 0.22936645864195046
-0.2217934071577733 0.2651591385476599
-0.2341364879350991 0.28305547850051466
-0.20945032638044747 0.3367444983590788
-0.2217934071577733 0.3367444983590788
-0.20945032638044747 0.2651591385476599
-0.2711657302670766 0.24726279859480518
-0.3452242149310315 0.2651591385476599
-0.36991037648568315 0.3188481584062241
-0.36991037648568315 0.37253717826478827
-0.3328811341537057 0.44412253807620716
-0.2835088110444024 0.4620188780290619
-0.32053805337637986 0.44412253807620716
-0.3452242149310315 0.4083298581704977
-0.38225345726300897 0.42622619812335244
-0.36991037648568315 0.4978115579347714
-0.2958518918217282 0.5872932576990451
-0.25882264948975076 0.515707897887626
-0.24647956871242493 0.5872932576990451
-0.18476416482579586 0.5336042378404808
-0.20945032638044747 0.5336042378404808
-0.18476416482579586 0.6051895976518997
-0.19710724560312165 0.6230859376047545
-0.20945032638044747 0.658878617510464
-0.2835088110444024 0.6230859376047545
-0.2835088110444024 0.6051895976518997
-0.3328811341537057 0.658878617510464
-0.36991037648568315 0.7304639773218828
-0.3945965380403348 0.8020493371333017
-0.4069396188176606 0.7662566572275923
-0.46865502270428966 0.7304639773218828
-0.5056842650362672 0.7304639773218828
-0.5673996689228963 0.7662566572275923
-0.518027345813593 0.7483603172747375
-0.4933411842589413 0.7662566572275923
-0.46865502270428966 0.7125676373690281
-0.4316257803723122 0.6767749574633186
-0.4809981034816155 0.6767749574633186
-0.443968861149638 0.7304639773218828
-0.46865502270428966 0.8378420170390112
-0.41928269959498643 0.9452200567561395
-0.4316257803723122 0.9452200567561395
-0.443968861149638 0.9631163967089943
-0.46865502270428966 0.9273237168032848
-0.5056842650362672 0.8915310368975754
-0.4933411842589413 0.9094273768504301
-0.5303704265909188 0.9631163967089943
-0.5550565881455705 0.9452200567561395
-0.6044289112548736 0.9452200567561395
-0.6291150728095253 0.9273237168032848
-0.6414581535868511 0.9989090766147037
-0.5673996689228963 0.9810127366618491
-0.579742749700222 1.0168054165675584
-0.5673996689228963 0.9094273768504301
-0.5920858304775478 0.8378420170390112
-0.6167719920321995 0.7841529971804471
-0.6661443151415027 0.7483603172747375
-0.6291150728095253 0.8199456770861565
-0.5673996689228963 0.8736346969447206
-0.518027345813593 0.8199456770861565
-0.5303704265909188 0.6946712974161734
-0.5056842650362672 0.658878617510464
-0.5673996689228963 0.5872932576990451
-0.579742749700222 0.5693969177461903
-0.6044289112548736 0.6230859376047545
-0.6167719920321995 0.6409822775576092
-0.6291150728095253 0.7125676373690281
-0.6661443151415027 0.7662566572275923
-0.6538012343641769 0.855738356991866
-0.579742749700222 0.9094273768504301
-0.45631194192696384 0.9631163967089943
-0.36991037648568315 0.9452200567561395
-0.30819497259905404 0.8915310368975754
-0.30819497259905404 0.9273237168032848
-0.3452242149310315 0.9631163967089943
-0.3575672957083573 1.0704944364261226
-0.32053805337637986 1.1241834562846869
-0.2341364879350991 1.0347017565204133
-0.1477349224938184 0.9989090766147037
-0.04899027627521184 0.9989090766147037
-0.01196103394323438 0.9631163967089943
-0.04899027627521184 1.0347017565204133
-0.09836259938451511 1.1420797962375415
-0.11070568016184093 1.1420797962375415
-0.11070568016184093 1.0883907763789773
-0.04899027627521184 1.052598096473268
-0.0243041147205602 1.0168054165675584
-0.03664719549788602 1.0704944364261226
-0.07367643782986348 1.0883907763789773
-0.1477349224938184 1.0704944364261226
-0.20945032638044747 1.0704944364261226
-0.2835088110444024 1.0347017565204133
-0.38225345726300897 1.0347017565204133
-0.41928269959498643 1.0704944364261226
-0.4809981034816155 1.1599761361903962
-0.5427135073682446 1.1599761361903962
-0.6414581535868511 1.1241834562846869
-0.6908304766961544 1.1241834562846869
-0.7772320421374351 1.1241834562846869
-0.715516638250806 1.177872476143251
-0.7031735574734802 1.2136651560489604
-0.6661443151415027 1.2136651560489604
-0.6661443151415027 1.1957688160961057
-0.6784873959188286 1.1241834562846869
-0.7278597190281318 1.0347017565204133
-0.715516638250806 1.0704944364261226
-0.6661443151415027 1.1062871163318322
-0.6538012343641769 1.0704944364261226
-0.6414581535868511 1.0347017565204133
-0.6908304766961544 1.052598096473268
-0.715516638250806 1.0347017565204133
-0.715516638250806 1.0883907763789773
-0.715516638250806 1.1241834562846869
-0.715516638250806 1.0347017565204133
-0.7031735574734802 1.0168054165675584
-0.6661443151415027 1.0168054165675584
-0.6291150728095253 1.0168054165675584
-0.6167719920321995 1.0883907763789773
-0.5673996689228963 1.0704944364261226
-0.5920858304775478 0.9810127366618491
-0.6167719920321995 0.9273237168032848
-0.6538012343641769 0.855738356991866
-0.6784873959188286 0.8736346969447206
-0.6291150728095253 0.9631163967089943
-0.5427135073682446 0.9989090766147037
-0.41928269959498643 0.9631163967089943
-0.2341364879350991 0.855738356991866
0.08678361227537217 0.6767749574633186
0.4817621971497984 0.515707897887626
0.9631423474655053 0.35464083831193355
1.5185809824451673 0.17567743878338626
2.0369903750928517 0.03250671916054844
2.419625879189952 -0.039078640650870466
2.703516737068446 -0.02118230069801574
2.8392906256190296 0.08619573901911262
2.938035271837636 0.22936645864195046
2.876319867951007 0.24726279859480518
2.6294582524044907 0.22936645864195046
2.086362698202155 0.2651591385476599
1.5802963863317963 0.3009518184533694
1.2470332053439992 0.35464083831193355
1.0742300744614377 0.5515005777933355
0.8397115396922471 0.7125676373690281
0.4694191163724726 0.8020493371333017
0.08678361227537217 0.855738356991866
-0.13539184171649257 0.8378420170390112
-0.25882264948975076 0.9273237168032848
-0.36991037648568315 1.0168054165675584
-0.518027345813593 1.0883907763789773
-0.6661443151415027 1.1241834562846869
-0.8019182036920868 1.1420797962375415
-0.8512905268013901 1.177872476143251
-0.9376920922426708 1.177872476143251
-0.9870644153519741 1.24945783595467
-0.9994074961292999 1.3568358756717982
-1.0364367384612774 1.374732215624653
-1.1104952231252323 1.3926285555775078
-1.1475244654572097 1.3926285555775078
-1.1845537077891872 1.3568358756717982
-1.1722106270118613 1.3926285555775078
-1.1598675462345356 1.4105248955303624
-1.1475244654572097 1.3926285555775078
-1.1722106270118613 1.4284212354832173
-1.2462691116758162 1.5357992752003455
-1.2956414347851195 1.5894882950589098
-1.2092398693438389 1.6073846350117644
-1.0858090615705807 1.643177314917474
-0.9994074961292999 1.571591955106055
-0.9747213345746483 1.5357992752003455
-0.9994074961292999 1.5000065952946362
-1.048779819238603 1.5179029352474909
-1.0364367384612774 1.4821102553417813
-0.9747213345746483 1.5357992752003455
-0.9500351730199966 1.5000065952946362
-0.9623782537973224 1.5000065952946362
-0.9500351730199966 1.446317575436072
-0.9500351730199966 1.446317575436072
-0.9500351730199966 1.5357992752003455
-0.9376920922426708 1.571591955106055
-0.9623782537973224 1.5357992752003455
-0.9500351730199966 1.5536956151532002
-0.9623782537973224 1.571591955106055
-0.9994074961292999 1.6073846350117644
-0.9870644153519741 1.643177314917474
-0.9747213345746483 1.7147626747288929
-0.9500351730199966 1.6610736548703287
-0.9747213345746483 1.6968663347760382
-1.0734659807932547 1.6968663347760382
-1.1475244654572097 1.6610736548703287
-1.135181384679884 1.6968663347760382
-1.122838303902558 1.768451694587457
-1.061122900015929 1.7863480345403118
-1.048779819238603 1.8221407144460213
-1.0981521423479064 1.7505553546346022
-1.1845537077891872 1.8042443744931664
-1.1475244654572097 1.768451694587457
-1.1598675462345356 1.8579333943517307
-1.1598675462345356 1.8221407144460213
-1.196896788566513 1.840037054398876
-1.2586121924531422 1.8937260742574402
-1.3079845155624454 1.9116224142102949
-1.2832983540077938 1.8758297343045853
-1.2586121924531422 1.9116224142102949
-1.2215829501211646 1.9474150941160042
-1.196896788566513 1.9474150941160042
-1.1722106270118613 1.9116224142102949
-1.2215829501211646 1.8758297343045853
-1.1722106270118613 1.8937260742574402
-1.1475244654572097 1.9832077740217138
-1.122838303902558 1.9474150941160042
-1.0858090615705807 1.965311434068859
-1.0364367384612774 1.8937260742574402
-1.0364367384612774 1.8937260742574402
-0.9747213345746483 1.9116224142102949
-0.9500351730199966 1.9295187541631496
-0.9130059306880192 1.9295187541631496
-0.925349011465345 1.8937260742574402
-0.8883197691333675 1.8579333943517307
-0.9130059306880192 1.8579333943517307
-0.9130059306880192 1.8579333943517307
-0.8266043652467384 1.8579333943517307
-0.7402027998054577 1.8579333943517307
-0.7031735574734802 1.8042443744931664
-0.6908304766961544 1.7863480345403118
-0.6661443151415027 1.768451694587457
-0.6167719920321995 1.8579333943517307
-0.579742749700222 1.8758297343045853
-0.5427135073682446 1.8579333943517307
-0.5550565881455705 1.840037054398876
-0.5427135073682446 1.8042443744931664
-0.518027345813593 1.7863480345403118
-0.5056842650362672 1.840037054398876
-0.4809981034816155 1.8758297343045853
-0.4933411842589413 1.9116224142102949
-0.5550565881455705 1.8758297343045853
-0.5673996689228963 1.8579333943517307
-0.579742749700222 1.8042443744931664
-0.5673996689228963 1.840037054398876
-0.5673996689228963 1.8937260742574402
-0.6044289112548736 1.8579333943517307
-0.6784873959188286 1.8758297343045853
-0.7402027998054577 1.9116224142102949
-0.7525458805827835 1.9116224142102949
-0.7402027998054577 1.9474150941160042
-0.7648889613601093 1.9832077740217138
-0.7648889613601093 1.965311434068859
-0.8142612844694126 1.9295187541631496
-0.8759766883560417 1.9474150941160042
-0.9376920922426708 1.9474150941160042
-0.9623782537973224 1.9832077740217138
-0.9500351730199966 2.126378493644552
-0.9500351730199966 2.0547931338331327
-0.9623782537973224 2.036896793880278
-0.9870644153519741 1.9832077740217138
-1.0240936576839514 2.036896793880278
-1.048779819238603 2.090585813738842
-0.9994074961292999 2.1442748335974064
-0.9747213345746483 2.0726894737859873
-0.9994074961292999 2.090585813738842
-0.9994074961292999 2.0547931338331327
-1.048779819238603 2.0547931338331327
-1.0364367384612774 2.090585813738842
-1.048779819238603 2.1084821536916967
-1.048779819238603 2.0726894737859873
-1.048779819238603 2.036896793880278
-0.9994074961292999 2.036896793880278
-1.0240936576839514 2.0190004539274233
-0.9994074961292999 2.0726894737859873
-0.9994074961292999 2.126378493644552
-1.0117505769066257 2.1084821536916967
-1.0117505769066257 2.0726894737859873
-1.0117505769066257 2.0190004539274233
-1.048779819238603 1.965311434068859
-1.0364367384612774 1.9832077740217138
-1.061122900015929 2.0547931338331327
-1.0117505769066257 2.036896793880278
-1.0364367384612774 2.0011041139745687
-1.061122900015929 1.9295187541631496
-1.061122900015929 1.9474150941160042
-1.061122900015929 2.036896793880278
-1.0117505769066257 2.0547931338331327
-0.9994074961292999 2.036896793880278
-1.048779819238603 1.965311434068859
-1.0858090615705807 1.8937260742574402
-1.122838303902558 1.9295187541631496
-1.048779819238603 1.965311434068859
-0.9870644153519741 1.9474150941160042
-0.9870644153519741 1.9116224142102949
-1.0240936576839514 1.8937260742574402
-1.0858090615705807 1.8937260742574402
-1.122838303902558 1.9116224142102949
-1.0858090615705807 1.9474150941160042
-1.061122900015929 2.0011041139745687
-1.0117505769066257 1.965311434068859
-1.0858090615705807 1.965311434068859
-1.122838303902558 1.9832077740217138
-1.1475244654572097 1.9474150941160042
-1.1722106270118613 1.965311434068859
-1.1598675462345356 1.965311434068859
-1.1598675462345356 1.9832077740217138
-1.196896788566513 1.965311434068859
-1.2092398693438389 1.9295187541631496
-1.2462691116758162 1.9295187541631496
-1.2092398693438389 2.0011041139745687
-1.2215829501211646 2.0726894737859873
-1.2215829501211646 2.0547931338331327
-1.196896788566513 2.036896793880278
-1.1722106270118613 2.0547931338331327
-1.1722106270118613 2.126378493644552
-1.1475244654572097 2.251652873314535
-1.0981521423479064 2.359030913031663
-1.061122900015929 2.376927252984518
-0.9747213345746483 2.359030913031663
-0.9376920922426708 2.251652873314535
-0.9500351730199966 2.251652873314535
-0.9623782537973224 2.305341893173099
-0.9623782537973224 2.3232382331259536
-0.9747213345746483 2.2695492132673896
-0.9500351730199966 2.215860193408825
-0.9130059306880192 2.162171173550261
-0.8636336075787159 2.180067513503116
-0.789575122914761 2.180067513503116
-0.7402027998054577 2.251652873314535
-0.6908304766961544 2.2874455532202442
-0.7031735574734802 2.215860193408825
-0.6661443151415027 2.180067513503116
-0.6414581535868511 2.090585813738842
-0.6167719920321995 2.090585813738842
-0.6167719920321995 2.1084821536916967
-0.6291150728095253 2.0726894737859873
-0.715516638250806 2.036896793880278
-0.7772320421374351 2.0011041139745687
-0.8389474460240642 1.8937260742574402
-0.8883197691333675 1.8579333943517307
-0.925349011465345 1.840037054398876
-0.9870644153519741 1.8042443744931664
-1.122838303902558 1.840037054398876
-1.2586121924531422 1.7863480345403118
-1.3450137578944228 1.8221407144460213
-1.3573568386717487 1.8758297343045853
-1.3203275963397711 1.8579333943517307
-1.2956414347851195 1.8221407144460213
-1.3079845155624454 1.8221407144460213
-1.3573568386717487 1.7505553546346022
-1.4314153233357036 1.7863480345403118
-1.394386081003726 1.7505553546346022
-1.3573568386717487 1.7863480345403118
-1.3203275963397711 1.768451694587457
-1.2956414347851195 1.7505553546346022
-1.2956414347851195 1.7326590146817475
-1.3573568386717487 1.7326590146817475
-1.3203275963397711 1.8042443744931664
-1.3079845155624454 1.8579333943517307
-1.2709552732304679 1.840037054398876
-1.2586121924531422 1.8221407144460213
-1.2709552732304679 1.7863480345403118
-1.2956414347851195 1.768451694587457
-1.2832983540077938 1.8221407144460213
-1.2462691116758162 1.8758297343045853
-1.2462691116758162 1.8042443744931664
-1.2462691116758162 1.8221407144460213
-1.2462691116758162 1.7863480345403118
-1.2462691116758162 1.7505553546346022
-1.196896788566513 1.7147626747288929
-1.1598675462345356 1.7863480345403118
-1.1475244654572097 1.840037054398876
-1.122838303902558 1.8758297343045853
-1.135181384679884 1.8579333943517307
-1.0734659807932547 1.9116224142102949
-0.9006628499106933 1.8579333943517307
-0.579742749700222 1.7863480345403118
-0.12304876093916675 1.6252809749646193
0.3213021470445627 1.374732215624653
0.7533099742509664 1.1062871163318322
1.197660882234696 0.9273237168032848
1.7160702748823802 0.8915310368975754
2.1110488597568065 1.0704944364261226
2.3208812329713453 1.2136651560489604
2.3702535560806486 1.3389395357189435
2.1604211828661097 1.2852505158603793
1.6296687094410995 1.2852505158603793
1.1482885591253926 1.3568358756717982
0.8520546204695729 1.4821102553417813
0.7409668934736405 1.5179029352474909
0.5928499241457308 1.446317575436072
0.34598830859921437 1.5536956151532002
-0.07367643782986348 1.6610736548703287
-0.518027345813593 1.7505553546346022
-0.789575122914761 1.840037054398876
-0.9006628499106933 1.7505553546346022
-1.0858090615705807 1.7326590146817475
-1.2462691116758162 1.7505553546346022
-1.394386081003726 1.7863480345403118
-1.4561014848903553 1.965311434068859
-1.468444565667681 2.0547931338331327
-1.480787646445007 2.1084821536916967
-1.480787646445007 2.126378493644552
-1.542503050331636 2.090585813738842
-1.5548461311089616 2.126378493644552
-1.53015996955431 2.126378493644552
-1.4931307272223326 2.162171173550261
-1.5178168887769843 2.162171173550261
-1.5178168887769843 2.126378493644552
-1.53015996955431 2.036896793880278
-1.5178168887769843 2.036896793880278
-1.53015996955431 2.0547931338331327
-1.480787646445007 2.0547931338331327
-1.468444565667681 2.036896793880278
-1.4314153233357036 2.090585813738842
-1.4437584041130294 2.036896793880278
-1.4190722425583777 2.0190004539274233
-1.3696999194490744 2.0726894737859873
-1.332670677117097 2.0726894737859873
-1.332670677117097 2.126378493644552
-1.3450137578944228 2.090585813738842
-1.3450137578944228 2.0726894737859873
-1.332670677117097 2.1084821536916967
-1.2832983540077938 2.1084821536916967
-1.2339260308984905 2.1084821536916967
-1.196896788566513 2.090585813738842
-1.1475244654572097 2.0726894737859873
-1.1475244654572097 2.036896793880278
-1.1722106270118613 2.090585813738842
-1.196896788566513 2.180067513503116
-1.1598675462345356 2.180067513503116
-1.122838303902558 2.1084821536916967
-1.122838303902558 2.1084821536916967
-1.0981521423479064 2.0547931338331327
-1.1104952231252323 2.090585813738842
-1.122838303902558 2.1084821536916967
-1.1104952231252323 2.180067513503116
-1.1104952231252323 2.162171173550261
-1.0981521423479064 2.1442748335974064
-1.0734659807932547 2.090585813738842
-1.1104952231252323 2.090585813738842
-1.0981521423479064 2.126378493644552
-1.122838303902558 2.1979638534559705
-1.122838303902558 2.162171173550261
-1.1104952231252323 2.162171173550261
-1.1104952231252323 2.090585813738842
-1.0981521423479064 2.1084821536916967
-1.0858090615705807 2.162171173550261
-1.061122900015929 2.1979638534559705
-1.0117505769066257 2.23375653336168
-0.9994074961292999 2.180067513503116
-0.9747213345746483 2.1979638534559705
-0.9870644153519741 2.1442748335974064
-0.9747213345746483 2.1979638534559705
-0.8759766883560417 2.1979638534559705
-0.8266043652467384 2.162171173550261
-0.8266043652467384 2.1979638534559705
-0.7772320421374351 2.1979638534559705
-0.7648889613601093 2.162171173550261
-0.7525458805827835 2.180067513503116
-0.7031735574734802 2.180067513503116
-0.6784873959188286 2.251652873314535
-0.6538012343641769 2.1979638534559705
-0.5920858304775478 2.180067513503116
-0.6044289112548736 2.162171173550261
-0.4809981034816155 2.180067513503116
-0.4069396188176606 2.180067513503116
-0.3575672957083573 2.1979638534559705
-0.3328811341537057 2.1979638534559705
-0.2835088110444024 2.1442748335974064
-0.25882264948975076 2.126378493644552
-0.19710724560312165 2.180067513503116
-0.17242108404847004 2.1979638534559705
-0.12304876093916675 2.215860193408825
-0.1477349224938184 2.162171173550261
-0.16007800327114421 2.180067513503116
-0.2217934071577733 2.126378493644552
-0.2217934071577733 2.162171173550261
-0.18476416482579586 2.162171173550261
-0.16007800327114421 2.126378493644552
-0.17242108404847004 2.180067513503116
-0.20945032638044747 2.126378493644552
-0.2341364879350991 2.090585813738842
-0.2217934071577733 2.1084821536916967
-0.2217934071577733 2.162171173550261
-0.24647956871242493 2.126378493644552
-0.2835088110444024 2.090585813738842
-0.3328811341537057 2.090585813738842
-0.41928269959498643 2.0726894737859873
-0.4069396188176606 2.126378493644552
-0.38225345726300897 2.1979638534559705
-0.3945965380403348 2.180067513503116
-0.3945965380403348 2.180067513503116
-0.4069396188176606 2.162171173550261
-0.45631194192696384 2.090585813738842
-0.4809981034816155 2.1084821536916967
-0.4809981034816155 2.1084821536916967
-0.5056842650362672 2.1084821536916967
-0.5056842650362672 2.090585813738842
-0.5056842650362672 2.0726894737859873
-0.5303704265909188 2.126378493644552
-0.5303704265909188 2.162171173550261
-0.4809981034816155 2.126378493644552
-0.518027345813593 2.1084821536916967
-0.5056842650362672 2.1084821536916967
-0.5550565881455705 2.126378493644552
-0.5427135073682446 2.162171173550261
-0.5303704265909188 2.1979638534559705
-0.4933411842589413 2.23375653336168
-0.45631194192696384 2.1979638534559705
-0.41928269959498643 2.215860193408825
-0.443968861149638 2.180067513503116
-0.5303704265909188 2.126378493644552
-0.5056842650362672 2.090585813738842
-0.46865502270428966 2.1442748335974064
-0.45631194192696384 2.126378493644552
-0.4316257803723122 2.090585813738842
-0.45631194192696384 2.0726894737859873
-0.4809981034816155 2.0547931338331327
-0.46865502270428966 2.0726894737859873
-0.4809981034816155 2.1084821536916967
-0.41928269959498643 2.1084821536916967
-0.4316257803723122 2.0547931338331327
-0.41928269959498643 2.036896793880278
-0.41928269959498643 2.036896793880278
-0.41928269959498643 2.090585813738842
-0.41928269959498643 2.1084821536916967
-0.3945965380403348 2.0547931338331327
-0.4069396188176606 1.9832077740217138
-0.41928269959498643 1.9295187541631496
-0.4316257803723122 1.9116224142102949
-0.4809981034816155 1.965311434068859
-0.443968861149638 2.0190004539274233
-0.443968861149638 2.0011041139745687
-0.46865502270428966 1.9474150941160042
-0.46865502270428966 1.8758297343045853
-0.4933411842589413 1.8937260742574402
-0.443968861149638 1.965311434068859
-0.4069396188176606 2.0190004539274233
-0.3328811341537057 1.9832077740217138
-0.36991037648568315 1.9474150941160042
-0.3945965380403348 1.965311434068859
-0.443968861149638 1.9474150941160042
-0.41928269959498643 1.9295187541631496
-0.3575672957083573 1.9832077740217138
-0.3575672957083573 1.9832077740217138
-0.36991037648568315 1.9474150941160042
-0.3945965380403348 1.9474150941160042
-0.4316257803723122 1.965311434068859
-0.4316257803723122 1.9832077740217138
-0.3945965380403348 2.0547931338331327
-0.3945965380403348 2.0547931338331327
-0.3945965380403348 2.036896793880278
-0.4069396188176606 2.036896793880278
-0.3945965380403348 2.090585813738842
-0.3328811341537057 2.180067513503116
-0.2958518918217282 2.251652873314535
-0.24647956871242493 2.3232382331259536
-0.2341364879350991 2.3232382331259536
-0.20945032638044747 2.251652873314535
-0.17242108404847004 2.2695492132673896
-0.11070568016184093 2.305341893173099
-0.11070568016184093 2.359030913031663
-0.12304876093916675 2.305341893173099
-0.16007800327114421 2.251652873314535
-0.08601951860718929 2.1979638534559705
-0.03664719549788602 2.23375653336168
0.037411289166068895 2.2695492132673896
0.049754369943394716 2.251652873314535
0.037411289166068895 2.215860193408825
0.025068208388743077 2.215860193408825
0.012725127611417258 2.1979638534559705
0.07444053149804636 2.180067513503116
0.13615593538467544 2.1442748335974064
0.18552825849397872 2.162171173550261
0.234900581603282 2.126378493644552
0.1731851777166529 2.126378493644552
0.08678361227537217 2.126378493644552
0.08678361227537217 2.036896793880278
0.06209745072072053 2.0547931338331327
0.049754369943394716 2.1084821536916967
0.00038204683409143886 2.0190004539274233
-0.08601951860718929 2.0011041139745687
-0.19710724560312165 1.965311434068859
-0.38225345726300897 1.8937260742574402
-0.443968861149638 1.9116224142102949
-0.443968861149638 1.9474150941160042
-0.4809981034816155 1.8937260742574402
-0.45631194192696384 1.9295187541631496
-0.46865502270428966 1.9116224142102949
-0.5056842650362672 1.9116224142102949
-0.5056842650362672 1.8937260742574402
-0.4933411842589413 1.9474150941160042
-0.4933411842589413 1.8937260742574402
-0.4933411842589413 1.8579333943517307
-0.5056842650362672 1.840037054398876
-0.518027345813593 1.8937260742574402
-0.5056842650362672 1.8937260742574402
-0.45631194192696384 1.9474150941160042
-0.41928269959498643 1.9474150941160042
-0.5056842650362672 1.9295187541631496
-0.4933411842589413 1.9116224142102949
-0.518027345813593 1.9116224142102949
-0.4809981034816155 1.9295187541631496
-0.4316257803723122 1.9474150941160042
-0.3945965380403348 1.965311434068859
-0.36991037648568315 1.9116224142102949
-0.3945965380403348 1.9116224142102949
-0.443968861149638 1.8221407144460213
-0.4069396188176606 1.8579333943517307
-0.3945965380403348 1.8937260742574402
-0.3575672957083573 1.8579333943517307
-0.3452242149310315 1.8042443744931664
-0.36991037648568315 1.7863480345403118
-0.36991037648568315 1.8221407144460213
-0.3328811341537057 1.8937260742574402
-0.2835088110444024 1.965311434068859
-0.16007800327114421 1.9474150941160042
0.025068208388743077 1.8758297343045853
0.2966159854899111 1.7147626747288929
0.6915945703643372 1.643177314917474
1.123602397570741 1.4284212354832173
1.592639467109122 1.2852505158603793
2.0369903750928517 1.0704944364261226
2.4443120407446037 1.0347017565204133
2.7282028986230973 1.1062871163318322
2.8639767871736814 1.24945783595467
2.901006029505659 1.3926285555775078
2.7158598178457716 1.4284212354832173
2.2838519906393677 1.4105248955303624
1.7407564364370318 1.4642139153889266
1.3581209323399315 1.5536956151532002
1.2346901245666733 1.5894882950589098
1.18531780145737 1.5894882950589098
1.0865731552387634 1.643177314917474
0.8026822973602696 1.7326590146817475
0.39536063170851765 1.840037054398876
0.07444053149804636 1.8579333943517307
-0.06133335705253765 1.840037054398876
-0.11070568016184093 1.9295187541631496
-0.17242108404847004 2.0011041139745687
-0.2958518918217282 2.0011041139745687
-0.4316257803723122 2.090585813738842
-0.518027345813593 2.126378493644552
-0.6291150728095253 2.1442748335974064
-0.6908304766961544 2.2695492132673896
-0.715516638250806 2.305341893173099
-0.7278597190281318 2.2695492132673896
-0.715516638250806 2.215860193408825
-0.7525458805827835 2.0726894737859873
-0.8512905268013901 2.0547931338331327
-0.9006628499106933 2.0547931338331327
-0.9006628499106933 2.0190004539274233
-0.8883197691333675 2.036896793880278
-0.8759766883560417 2.0011041139745687
-0.8759766883560417 2.0190004539274233
-0.9006628499106933 2.0547931338331327
-0.8636336075787159 2.126378493644552
-0.8266043652467384 2.162171173550261
-0.8142612844694126 2.1442748335974064
-0.8759766883560417 2.1084821536916967
-0.9006628499106933 2.0547931338331327
-0.9130059306880192 2.090585813738842
-0.9130059306880192 2.1442748335974064
-0.8759766883560417 2.180067513503116
-0.8636336075787159 2.180067513503116
-0.8759766883560417 2.180067513503116
-0.8759766883560417 2.1979638534559705
-0.9130059306880192 2.180067513503116
-0.8759766883560417 2.2695492132673896
-0.8142612844694126 2.3232382331259536
-0.8019182036920868 2.2874455532202442
-0.789575122914761 2.305341893173099
-0.8019182036920868 2.215860193408825
-0.8636336075787159 2.180067513503116
-0.8389474460240642 2.215860193408825
-0.8019182036920868 2.2695492132673896
-0.789575122914761 2.251652873314535
-0.7772320421374351 2.305341893173099
-0.8142612844694126 2.3411345730788082
-0.8389474460240642 2.359030913031663
-0.789575122914761 2.3948235929373727
-0.7648889613601093 2.3948235929373727
-0.7402027998054577 2.3948235929373727
-0.7525458805827835 2.376927252984518
-0.7772320421374351 2.3948235929373727
-0.7772320421374351 2.4127199328902273
-0.7648889613601093 2.4485126127959367
-0.715516638250806 2.555890652513065
-0.6784873959188286 2.555890652513065
-0.6784873959188286 2.484305292701646
-0.6908304766961544 2.484305292701646
-0.7031735574734802 2.4485126127959367
-0.7031735574734802 2.4127199328902273
-0.6538012343641769 2.430616272843082
-0.6661443151415027 2.3948235929373727
-0.6538012343641769 2.376927252984518
-0.6661443151415027 2.376927252984518
-0.6538012343641769 2.3948235929373727
-0.6538012343641769 2.4664089527487914
-0.6044289112548736 2.520097972607356
-0.5427135073682446 2.5379943125602105
-0.5303704265909188 2.484305292701646
-0.518027345813593 2.484305292701646
-0.4933411842589413 2.5022016326545007
-0.45631194192696384 2.5379943125602105
-0.3945965380403348 2.5379943125602105
-0.3452242149310315 2.520097972607356
-0.32053805337637986 2.4664089527487914
-0.30819497259905404 2.4664089527487914
-0.2711657302670766 2.4485126127959367
-0.2217934071577733 2.520097972607356
-0.18476416482579586 2.57378699246592
-0.12304876093916675 2.555890652513065
-0.09836259938451511 2.484305292701646
-0.07367643782986348 2.484305292701646
-0.07367643782986348 2.4664089527487914
-0.03664719549788602 2.555890652513065
-0.0243041147205602 2.5916833324187745
0.025068208388743077 2.627476012324484
0.012725127611417258 2.57378699246592
0.00038204683409143886 2.5022016326545007
-0.01196103394323438 2.484305292701646
-0.01196103394323438 2.4664089527487914
0.037411289166068895 2.4664089527487914
0.037411289166068895 2.4485126127959367
0.00038204683409143886 2.3948235929373727
-0.01196103394323438 2.376927252984518
-0.04899027627521184 2.359030913031663
-0.03664719549788602 2.4127199328902273
0.012725127611417258 2.5022016326545007
0.00038204683409143886 2.5022016326545007
0.037411289166068895 2.5022016326545007
0.00038204683409143886 2.4664089527487914
-0.06133335705253765 2.520097972607356
-0.07367643782986348 2.555890652513065
-0.06133335705253765 2.5916833324187745
-0.07367643782986348 2.5916833324187745
-0.08601951860718929 2.520097972607356
-0.1477349224938184 2.5379943125602105
-0.16007800327114421 2.5379943125602105
-0.13539184171649257 2.5916833324187745
-0.09836259938451511 2.627476012324484
-0.07367643782986348 2.57378699246592
-0.08601951860718929 2.609579672371629
-0.11070568016184093 2.555890652513065
-0.12304876093916675 2.57378699246592
-0.1477349224938184 2.627476012324484
-0.1477349224938184 2.609579672371629
-0.1477349224938184 2.555890652513065
-0.17242108404847004 2.57378699246592
-0.19710724560312165 2.5022016326545007
-0.20945032638044747 2.5022016326545007
-0.19710724560312165 2.520097972607356
-0.1477349224938184 2.5916833324187745
-0.1477349224938184 2.609579672371629
-0.1477349224938184 2.555890652513065
-0.1477349224938184 2.520097972607356
-0.17242108404847004 2.520097972607356
-0.18476416482579586 2.5022016326545007
-0.16007800327114421 2.520097972607356
-0.16007800327114421 2.484305292701646
-0.17242108404847004 2.520097972607356
-0.19710724560312165 2.4485126127959367
-0.20945032638044747 2.430616272843082
-0.1477349224938184 2.4127199328902273
-0.12304876093916675 2.3948235929373727
-0.11070568016184093 2.4127199328902273
-0.16007800327114421 2.359030913031663
-0.19710724560312165 2.2695492132673896
-0.20945032638044747 2.305341893173099
-0.1477349224938184 2.359030913031663
-0.11070568016184093 2.3948235929373727
-0.08601951860718929 2.430616272843082
-0.09836259938451511 2.359030913031663
-0.13539184171649257 2.3232382331259536
-0.17242108404847004 2.305341893173099
-0.18476416482579586 2.376927252984518
-0.16007800327114421 2.4664089527487914
-0.09836259938451511 2.484305292701646
-0.08601951860718929 2.484305292701646
-0.09836259938451511 2.4664089527487914
-0.13539184171649257 2.5022016326545007
-0.13539184171649257 2.520097972607356
-0.1477349224938184 2.5022016326545007
-0.1477349224938184 2.5022016326545007
-0.1477349224938184 2.484305292701646
-0.16007800327114421 2.5022016326545007
-0.1477349224938184 2.4485126127959367
-0.13539184171649257 2.520097972607356
-0.12304876093916675 2.555890652513065
-0.13539184171649257 2.5379943125602105
-0.1477349224938184 2.4664089527487914
-0.17242108404847004 2.484305292701646
-0.2341364879350991 2.4485126127959367
-0.2711657302670766 2.5022016326545007
-0.32053805337637986 2.555890652513065
-0.2835088110444024 2.5916833324187745
-0.2835088110444024 2.6632686922301936
-0.25882264948975076 2.752750391994467
-0.19710724560312165 2.7885430719001767
-0.16007800327114421 2.8601284317115954
-0.08601951860718929 2.8601284317115954
-0.04899027627521184 2.8422320917587407
-0.06133335705253765 2.7885430719001767
-0.08601951860718929 2.7885430719001767
-0.1477349224938184 2.8422320917587407
-0.1477349224938184 2.8601284317115954
-0.12304876093916675 2.8601284317115954
-0.06133335705253765 2.824335751805886
-0.01196103394323438 2.752750391994467
0.012725127611417258 2.699061372135903
0.025068208388743077 2.7169577120887576
0.06209745072072053 2.7885430719001767
0.12381285460734963 2.9317137915230145
0.18552825849397872 2.8959211116173047
0.21021442004863036 2.8422320917587407
0.234900581603282 2.7885430719001767
0.22255750082595618 2.627476012324484
0.1731851777166529 2.645372352277339
0.13615593538467544 2.645372352277339
0.13615593538467544 2.645372352277339
0.07444053149804636 2.609579672371629
0.08678361227537217 2.555890652513065
0.049754369943394716 2.5022016326545007
0.00038204683409143886 2.484305292701646
-0.13539184171649257 2.4664089527487914
-0.25882264948975076 2.3948235929373727
-0.36991037648568315 2.3411345730788082
-0.46865502270428966 2.2874455532202442
-0.5303704265909188 2.251652873314535
-0.518027345813593 2.2695492132673896
-0.5056842650362672 2.23375653336168
-0.4809981034816155 2.23375653336168
-0.4809981034816155 2.180067513503116
-0.443968861149638 2.162171173550261
-0.4069396188176606 2.162171173550261
-0.3328811341537057 2.2695492132673896
-0.3328811341537057 2.3411345730788082
-0.45631194192696384 2.2695492132673896
-0.5550565881455705 2.2695492132673896
-0.6908304766961544 2.215860193408825
-0.7525458805827835 2.251652873314535
-0.6538012343641769 2.2874455532202442
-0.579742749700222 2.359030913031663
-0.443968861149638 2.376927252984518
-0.4316257803723122 2.3948235929373727
-0.45631194192696384 2.3411345730788082
-0.4933411842589413 2.3411345730788082
-0.5056842650362672 2.3948235929373727
-0.4933411842589413 2.4127199328902273
-0.5056842650362672 2.3948235929373727
-0.4809981034816155 2.3411345730788082
-0.46865502270428966 2.2695492132673896
-0.45631194192696384 2.23375653336168
-0.46865502270428966 2.2874455532202442
-0.45631194192696384 2.2695492132673896
-0.4316257803723122 2.2695492132673896
-0.41928269959498643 2.3232382331259536
-0.38225345726300897 2.3232382331259536
-0.3328811341537057 2.2874455532202442
-0.18476416482579586 2.2874455532202442
0.06209745072072053 2.2874455532202442
0.39536063170851765 2.162171173550261
0.7903392165829438 2.0190004539274233
1.2346901245666733 1.7863480345403118
1.6543548709957512 1.5536956151532002
2.1110488597568065 1.446317575436072
2.5183705254085584 1.3926285555775078
2.7775752217324006 1.5179029352474909
2.876319867951007 1.643177314917474
2.938035271837636 1.7326590146817475
2.826947544841704 1.7147626747288929
2.530713606185884 1.6968663347760382
2.0493334558701775 1.7863480345403118
1.5556102247771446 1.8579333943517307
1.3210916900079541 1.8758297343045853
1.123602397570741 1.8221407144460213
0.9384561859108537 1.8937260742574402
0.580506843368405 2.0190004539274233
0.19787133927130454 2.126378493644552
-0.07367643782986348 2.126378493644552
-0.17242108404847004 2.162171173550261
-0.24647956871242493 2.162171173550261
-0.3575672957083573 2.180067513503116
-0.5303704265909188 2.215860193408825
-0.6291150728095253 2.2874455532202442
-0.7031735574734802 2.305341893173099
-0.7402027998054577 2.3232382331259536
-0.8389474460240642 2.359030913031663
-0.9130059306880192 2.376927252984518
-0.925349011465345 2.4664089527487914
-0.9130059306880192 2.5022016326545007
-0.8636336075787159 2.4485126127959367
-0.8636336075787159 2.5022016326545007
-0.9130059306880192 2.520097972607356
-0.9623782537973224 2.555890652513065
-0.9500351730199966 2.609579672371629
-0.9130059306880192 2.57378699246592
-0.9870644153519741 2.5916833324187745
-1.135181384679884 2.5022016326545007
-1.1845537077891872 2.4664089527487914
-1.135181384679884 2.4485126127959367
-1.0364367384612774 2.5022016326545007
-0.9130059306880192 2.5916833324187745
-0.789575122914761 2.645372352277339
-0.7772320421374351 2.7348540520416122
-0.7525458805827835 2.6811650321830482
-0.8389474460240642 2.7169577120887576
-0.9870644153519741 2.7706467319473216
-1.122838303902558 2.8064394118530314
-1.196896788566513 2.7885430719001767
-1.135181384679884 2.752750391994467
-1.0858090615705807 2.6811650321830482
-1.061122900015929 2.6811650321830482
-0.9747213345746483 2.7169577120887576
-0.9623782537973224 2.7169577120887576
-0.9623782537973224 2.752750391994467
-0.9623782537973224 2.699061372135903
-0.9747213345746483 2.6811650321830482
-0.9994074961292999 2.6632686922301936
-0.9870644153519741 2.699061372135903
-0.9376920922426708 2.752750391994467
-0.9006628499106933 2.7348540520416122
-0.9623782537973224 2.699061372135903
-0.9623782537973224 2.699061372135903
-0.9994074961292999 2.699061372135903
-0.9870644153519741 2.6811650321830482
-0.9994074961292999 2.699061372135903
-0.9747213345746483 2.699061372135903
-0.9623782537973224 2.6632686922301936
-0.9376920922426708 2.609579672371629
-0.9376920922426708 2.520097972607356
-0.925349011465345 2.520097972607356
-0.925349011465345 2.609579672371629
-0.925349011465345 2.57378699246592
-0.925349011465345 2.5916833324187745
-0.8636336075787159 2.609579672371629
-0.8019182036920868 2.645372352277339
-0.8019182036920868 2.6811650321830482
-0.8019182036920868 2.6811650321830482
-0.8759766883560417 2.627476012324484
-0.925349011465345 2.5916833324187745
-0.9500351730199966 2.5379943125602105
-0.8759766883560417 2.5379943125602105
-0.7525458805827835 2.645372352277339
-0.6908304766961544 2.752750391994467
-0.7525458805827835 2.752750391994467
-0.8389474460240642 2.7706467319473216
-0.9130059306880192 2.699061372135903
-0.9006628499106933 2.6811650321830482
-0.8389474460240642 2.7348540520416122
-0.7278597190281318 2.6811650321830482
-0.6538012343641769 2.6811650321830482
-0.5920858304775478 2.6632686922301936
-0.5673996689228963 2.609579672371629
-0.518027345813593 2.5916833324187745
-0.4809981034816155 2.7169577120887576
-0.46865502270428966 2.7348540520416122
-0.443968861149638 2.7169577120887576
-0.41928269959498643 2.645372352277339
-0.4069396188176606 2.645372352277339
-0.3945965380403348 2.6632686922301936
-0.3452242149310315 2.752750391994467
-0.2711657302670766 2.752750391994467
-0.2217934071577733 2.7348540520416122
-0.19710724560312165 2.6811650321830482
-0.19710724560312165 2.6811650321830482
-0.2341364879350991 2.6811650321830482
-0.24647956871242493 2.699061372135903
-0.2341364879350991 2.7348540520416122
-0.20945032638044747 2.6811650321830482
-0.20945032638044747 2.5916833324187745
-0.20945032638044747 2.5379943125602105
-0.30819497259905404 2.5379943125602105
-0.3328811341537057 2.5379943125602105
-0.2958518918217282 2.57378699246592
-0.24647956871242493 2.5916833324187745
-0.19710724560312165 2.5916833324187745
-0.20945032638044747 2.5916833324187745
-0.2341364879350991 2.57378699246592
-0.25882264948975076 2.699061372135903
-0.24647956871242493 2.752750391994467
-0.2958518918217282 2.6811650321830482
-0.4316257803723122 2.699061372135903
-0.5303704265909188 2.645372352277339
-0.6414581535868511 2.645372352277339
-0.7031735574734802 2.6811650321830482
-0.715516638250806 2.699061372135903
-0.6538012343641769 2.6811650321830482
-0.5550565881455705 2.6811650321830482
-0.45631194192696384 2.752750391994467
-0.4316257803723122 2.752750391994467
-0.4316257803723122 2.7706467319473216
-0.45631194192696384 2.7885430719001767
-0.5427135073682446 2.7706467319473216
-0.6044289112548736 2.7348540520416122
-0.6044289112548736 2.7706467319473216
-0.6291150728095253 2.699061372135903
-0.6538012343641769 2.7348540520416122
-0.6784873959188286 2.7706467319473216
-0.6044289112548736 2.7169577120887576
-0.5550565881455705 2.699061372135903
-0.5056842650362672 2.627476012324484
-0.518027345813593 2.627476012324484
-0.5673996689228963 2.6811650321830482
-0.579742749700222 2.7706467319473216
-0.5550565881455705 2.8064394118530314
-0.5427135073682446 2.7885430719001767
-0.5920858304775478 2.7348540520416122
-0.7031735574734802 2.6811650321830482
-0.8142612844694126 2.7348540520416122
-0.7772320421374351 2.752750391994467
-0.6784873959188286 2.752750391994467
-0.5673996689228963 2.752750391994467
-0.5427135073682446 2.6811650321830482
-0.5673996689228963 2.609579672371629
-0.5920858304775478 2.609579672371629
-0.5673996689228963 2.645372352277339
-0.5920858304775478 2.627476012324484
-0.5673996689228963 2.645372352277339
-0.5427135073682446 2.5916833324187745
-0.4933411842589413 2.5916833324187745
-0.41928269959498643 2.6632686922301936
-0.38225345726300897 2.6811650321830482
-0.3945965380403348 2.5916833324187745
-0.5056842650362672 2.555890652513065
-0.5303704265909188 2.5022016326545007
-0.5673996689228963 2.57378699246592
-0.46865502270428966 2.609579672371629
-0.46865502270428966 2.57378699246592
-0.45631194192696384 2.555890652513065
-0.443968861149638 2.520097972607356
-0.4069396188176606 2.5022016326545007
-0.3452242149310315 2.555890652513065
-0.25882264948975076 2.555890652513065
-0.2341364879350991 2.609579672371629
-0.25882264948975076 2.645372352277339
-0.36991037648568315 2.645372352277339
-0.4809981034816155 2.627476012324484
-0.6044289112548736 2.6811650321830482
-0.5550565881455705 2.7348540520416122
-0.518027345813593 2.824335751805886
-0.5303704265909188 2.8601284317115954
-0.5550565881455705 2.9317137915230145
-0.579742749700222 3.003299151334433
-0.5427135073682446 3.003299151334433
-0.4069396188176606 3.0748845111458523
-0.32053805337637986 3.039091831240143
-0.2217934071577733 3.021195491287288
-0.2341364879350991 3.039091831240143
-0.2835088110444024 3.021195491287288
-0.3452242149310315 2.967506471428724
-0.2958518918217282 2.91381745157016
-0.19710724560312165 2.8601284317115954
-0.08601951860718929 2.824335751805886
-0.04899027627521184 2.7706467319473216
0.00038204683409143886 2.7706467319473216
0.00038204683409143886 2.824335751805886
-0.01196103394323438 2.8601284317115954
0.049754369943394716 2.8422320917587407
0.037411289166068895 2.824335751805886
0.025068208388743077 2.8422320917587407
-0.06133335705253765 2.7706467319473216
-0.17242108404847004 2.7348540520416122
-0.20945032638044747 2.7706467319473216
-0.20945032638044747 2.7706467319473216
-0.13539184171649257 2.6811650321830482
-0.11070568016184093 2.645372352277339
-0.17242108404847004 2.645372352277339
-0.4069396188176606 2.645372352277339
-0.6167719920321995 2.627476012324484
-0.7648889613601093 2.627476012324484
-0.7402027998054577 2.5916833324187745
-0.6661443151415027 2.520097972607356
-0.6291150728095253 2.5022016326545007
-0.6538012343641769 2.3948235929373727
-0.6661443151415027 2.430616272843082
-0.6784873959188286 2.4485126127959367
-0.6908304766961544 2.376927252984518
-0.7402027998054577 2.4127199328902273
-0.715516638250806 2.3948235929373727
-0.6044289112548736 2.4127199328902273
-0.5427135073682446 2.4485126127959367
-0.579742749700222 2.484305292701646
-0.7278597190281318 2.4485126127959367
-0.8883197691333675 2.359030913031663
-0.9623782537973224 2.251652873314535
-0.8883197691333675 2.23375653336168
-0.7278597190281318 2.2695492132673896
-0.5056842650362672 2.305341893173099
-0.38225345726300897 2.376927252984518
-0.3945965380403348 2.4485126127959367
-0.5920858304775478 2.3948235929373727
-0.789575122914761 2.3232382331259536
-0.9747213345746483 2.3232382331259536
-1.0858090615705807 2.3232382331259536
-1.0364367384612774 2.251652873314535
-0.8759766883560417 2.2695492132673896
-0.715516638250806 2.215860193408825
-0.7031735574734802 2.251652873314535
-0.7648889613601093 2.3232382331259536
-0.925349011465345 2.3948235929373727
-0.9870644153519741 2.3411345730788082
-0.9376920922426708 2.3232382331259536
-0.7402027998054577 2.180067513503116
-0.36991037648568315 2.0726894737859873
0.18552825849397872 2.036896793880278
0.7286238126963147 1.8042443744931664
1.2717193668986508 1.5357992752003455
1.7407564364370318 1.2852505158603793
2.074019617424829 1.1420797962375415
2.3208812329713453 1.177872476143251
2.493684363853907 1.3389395357189435
2.641801333181817 1.571591955106055
2.7282028986230973 1.6610736548703287
2.6664874947364683 1.643177314917474
2.333224313748671 1.5536956151532002
1.728413355659706 1.5536956151532002
1.3457778515626058 1.643177314917474
1.1606316399027183 1.7147626747288929
1.0001715897974828 1.7147626747288929
0.7162807319189889 1.8579333943517307
0.3089590662672369 1.9474150941160042
-0.11070568016184093 1.9474150941160042
-0.24647956871242493 1.8937260742574402
-0.3575672957083573 1.8937260742574402
-0.4069396188176606 1.9295187541631496
-0.518027345813593 1.965311434068859
-0.6044289112548736 1.965311434068859
-0.6414581535868511 1.8937260742574402
-0.6661443151415027 1.9474150941160042
-0.6291150728095253 2.1084821536916967
-0.5920858304775478 2.23375653336168
-0.5427135073682446 2.3232382331259536
-0.6538012343641769 2.3411345730788082
-0.9006628499106933 2.3232382331259536
-1.122838303902558 2.305341893173099
-1.2339260308984905 2.305341893173099
-1.0734659807932547 2.23375653336168
-0.9006628499106933 2.215860193408825
-0.7648889613601093 2.180067513503116
-0.6044289112548736 2.215860193408825
-0.4069396188176606 2.2695492132673896
-0.38225345726300897 2.2695492132673896
-0.4316257803723122 2.305341893173099
-0.5056842650362672 2.359030913031663
-0.41928269959498643 2.4485126127959367
-0.3452242149310315 2.57378699246592
-0.3328811341537057 2.555890652513065
-0.5550565881455705 2.57378699246592
-0.789575122914761 2.4664089527487914
-0.8883197691333675 2.4485126127959367
-0.8636336075787159 2.430616272843082
-0.7525458805827835 2.430616272843082
-0.6291150728095253 2.4485126127959367
-0.5303704265909188 2.430616272843082
-0.46865502270428966 2.3948235929373727
-0.4933411842589413 2.359030913031663
-0.5427135073682446 2.3411345730788082
-0.6414581535868511 2.305341893173099
-0.6908304766961544 2.2874455532202442
-0.6538012343641769 2.251652873314535
-0.6291150728095253 2.251652873314535
-0.6414581535868511 2.215860193408825
-0.6908304766961544 2.1979638534559705
-0.789575122914761 2.162171173550261
-0.7648889613601093 2.215860193408825
-0.6414581535868511 2.23375653336168
-0.518027345813593 2.2874455532202442
-0.5056842650362672 2.2695492132673896
-0.7525458805827835 2.251652873314535
-1.0981521423479064 2.251652873314535
-1.394386081003726 2.305341893173099
-1.5054738079996584 2.3411345730788082
-1.4561014848903553 2.2874455532202442
-1.4190722425583777 2.251652873314535
-1.406729161781052 2.162171173550261
-1.3573568386717487 2.1084821536916967
-1.2709552732304679 2.1979638534559705
-1.2092398693438389 2.251652873314535
-1.2215829501211646 2.251652873314535
-1.2339260308984905 2.251652873314535
-1.2586121924531422 2.2874455532202442
-1.2709552732304679 2.251652873314535
-1.2215829501211646 2.3411345730788082
-1.1722106270118613 2.3411345730788082
-1.1598675462345356 2.376927252984518
-1.2586121924531422 2.2695492132673896
-1.3696999194490744 2.305341893173099
-1.468444565667681 2.305341893173099
-1.406729161781052 2.305341893173099
-1.3079845155624454 2.3411345730788082
-1.2215829501211646 2.359030913031663
-1.135181384679884 2.359030913031663
-1.0858090615705807 2.2874455532202442
-0.9870644153519741 2.251652873314535
-0.789575122914761 2.2695492132673896
-0.6414581535868511 2.305341893173099
-0.4933411842589413 2.23375653336168
-0.443968861149638 2.126378493644552
-0.41928269959498643 2.0547931338331327
-0.3945965380403348 2.126378493644552
-0.2958518918217282 2.23375653336168
-0.13539184171649257 2.2874455532202442
-0.08601951860718929 2.251652873314535
-0.12304876093916675 2.1979638534559705
-0.20945032638044747 2.1979638534559705
-0.2341364879350991 2.1979638534559705
-0.07367643782986348 2.305341893173099
0.14849901616200126 2.376927252984518
0.28427290471258526 2.376927252984518
0.28427290471258526 2.3948235929373727
0.18552825849397872 2.3232382331259536
0.07444053149804636 2.376927252984518
0.13615593538467544 2.4485126127959367
0.3213021470445627 2.5379943125602105
0.4323898740404951 2.57378699246592
0.3583313893765402 2.609579672371629
0.13615593538467544 2.5022016326545007
-0.04899027627521184 2.4664089527487914
-0.03664719549788602 2.430616272843082
0.11146977383002381 2.4485126127959367
0.234900581603282 2.4127199328902273
0.22255750082595618 2.430616272843082
0.12381285460734963 2.3411345730788082
0.025068208388743077 2.305341893173099
-0.0243041147205602 2.305341893173099
0.037411289166068895 2.305341893173099
0.06209745072072053 2.23375653336168
0.09912669305269799 2.126378493644552
0.11146977383002381 2.0547931338331327
0.06209745072072053 2.0726894737859873
0.00038204683409143886 2.1084821536916967
0.025068208388743077 2.1442748335974064
0.012725127611417258 2.1442748335974064
-0.06133335705253765 2.0547931338331327
-0.1477349224938184 2.0726894737859873
-0.2341364879350991 2.0726894737859873
-0.2217934071577733 2.0726894737859873
-0.20945032638044747 2.036896793880278
-0.24647956871242493 1.965311434068859
-0.2217934071577733 1.9474150941160042
-0.09836259938451511 2.0011041139745687
0.07444053149804636 2.036896793880278
0.21021442004863036 2.126378493644552
0.09912669305269799 2.251652873314535
-0.2711657302670766 2.162171173550261
-0.5920858304775478 2.1084821536916967
-0.789575122914761 2.036896793880278
-0.8389474460240642 1.9832077740217138
-0.9006628499106933 1.9295187541631496
-0.9376920922426708 2.0011041139745687
-0.7772320421374351 2.036896793880278
-0.46865502270428966 2.0547931338331327
-0.20945032638044747 2.036896793880278
-0.17242108404847004 2.0190004539274233
-0.18476416482579586 2.0011041139745687
-0.18476416482579586 2.0011041139745687
-0.2217934071577733 1.9116224142102949
-0.2835088110444024 1.8937260742574402
-0.3328811341537057 1.9116224142102949
-0.4069396188176606 1.965311434068859
-0.45631194192696384 2.0190004539274233
-0.443968861149638 2.036896793880278
-0.3452242149310315 2.0011041139745687
-0.24647956871242493 1.9474150941160042
-0.16007800327114421 1.8758297343045853
-0.1477349224938184 1.8221407144460213
-0.07367643782986348 1.8221407144460213
0.025068208388743077 1.840037054398876
0.12381285460734963 1.7863480345403118
0.234900581603282 1.768451694587457
0.27192982393525944 1.8937260742574402
0.21021442004863036 1.9474150941160042
0.11146977383002381 1.9474150941160042
-0.07367643782986348 1.8579333943517307
-0.2341364879350991 1.6968663347760382
-0.2217934071577733 1.571591955106055
-0.07367643782986348 1.5536956151532002
0.14849901616200126 1.5894882950589098
0.44473295481782094 1.7505553546346022
0.5681637625910791 1.9116224142102949
0.4694191163724726 1.9116224142102949
0.09912669305269799 1.8579333943517307
-0.30819497259905404 1.768451694587457
-0.4069396188176606 1.7505553546346022
-0.19710724560312165 1.8221407144460213
0.11146977383002381 1.965311434068859
0.14849901616200126 1.9474150941160042
0.12381285460734963 1.965311434068859
0.08678361227537217 1.9295187541631496
0.12381285460734963 1.9474150941160042
0.3089590662672369 2.0547931338331327
0.44473295481782094 2.180067513503116
0.4941052779271242 2.3232382331259536
0.45707603559514676 2.3232382331259536
0.2966159854899111 2.305341893173099
0.11146977383002381 2.3232382331259536
-0.01196103394323438 2.3948235929373727
0.012725127611417258 2.359030913031663
0.1731851777166529 2.2695492132673896
0.370674470153866 2.180067513503116
0.4694191163724726 2.180067513503116
0.4077037124858435 2.1979638534559705
0.370674470153866 2.2874455532202442
0.45707603559514676 2.359030913031663
0.5928499241457308 2.3232382331259536
0.5928499241457308 2.3411345730788082
0.4694191163724726 2.3232382331259536
0.21021442004863036 2.3411345730788082
-0.0243041147205602 2.3411345730788082
-0.1477349224938184 2.2695492132673896
-0.12304876093916675 2.251652873314535
-0.07367643782986348 2.3411345730788082
0.037411289166068895 2.2874455532202442
0.21021442004863036 2.215860193408825
0.39536063170851765 2.251652873314535
0.4817621971497984 2.2874455532202442
0.370674470153866 2.2695492132673896
0.11146977383002381 2.215860193408825
-0.13539184171649257 2.180067513503116
-0.2835088110444024 2.126378493644552
-0.2217934071577733 2.126378493644552
-0.1477349224938184 2.162171173550261
0.012725127611417258 2.215860193408825
0.16084209693932708 2.162171173550261
0.24724366238060783 2.126378493644552
0.19787133927130454 2.0726894737859873
0.07444053149804636 2.0190004539274233
0.012725127611417258 2.0190004539274233
0.07444053149804636 2.0726894737859873
0.21021442004863036 2.0547931338331327
0.27192982393525944 1.965311434068859
0.22255750082595618 1.8758297343045853
0.11146977383002381 1.8579333943517307
0.06209745072072053 1.8579333943517307
0.13615593538467544 1.8221407144460213
0.22255750082595618 1.840037054398876
0.3213021470445627 1.9295187541631496
0.3213021470445627 1.9474150941160042
0.2966159854899111 2.0011041139745687
0.21021442004863036 1.965311434068859
0.16084209693932708 1.8579333943517307
0.12381285460734963 1.7147626747288929
0.09912669305269799 1.6252809749646193
0.13615593538467544 1.6610736548703287
0.24724366238060783 1.8221407144460213
0.3583313893765402 1.9832077740217138
0.4077037124858435 2.090585813738842
0.2966159854899111 2.1442748335974064
0.34598830859921437 2.0726894737859873
0.6175360857003824 1.9832077740217138
1.049543912906786 1.8937260742574402
1.3704640131172574 1.6610736548703287
1.6296687094410995 1.3031468558132342
1.9012164865422676 1.0347017565204133
2.2221365867527387 0.9989090766147037
2.468998202299255 1.1957688160961057
2.6294582524044907 1.374732215624653
2.69117365629112 1.4821102553417813
2.357910475303323 1.3389395357189435
1.5802963863317963 1.24945783595467
0.5681637625910791 1.3568358756717982
-0.11070568016184093 1.5000065952946362
-0.24647956871242493 1.5894882950589098
-0.24647956871242493 1.643177314917474
-0.4933411842589413 1.6968663347760382
-0.9006628499106933 1.768451694587457
-1.1845537077891872 1.8579333943517307
-1.1722106270118613 1.840037054398876
-1.0981521423479064 1.8042443744931664
-1.122838303902558 1.840037054398876
-1.135181384679884 1.9116224142102949
-1.1845537077891872 2.0011041139745687
-1.1845537077891872 2.0190004539274233
-1.2092398693438389 2.126378493644552
-1.2586121924531422 2.2695492132673896
-1.3573568386717487 2.4485126127959367
-1.4931307272223326 2.4485126127959367
-1.5918753734409392 2.376927252984518
-1.6659338581048941 2.215860193408825
-1.5795322926636133 1.8937260742574402
-1.3696999194490744 1.8042443744931664
-1.1722106270118613 1.9116224142102949
-0.9500351730199966 2.090585813738842
-0.6167719920321995 2.162171173550261
-0.24647956871242493 2.090585813738842
0.00038204683409143886 1.9474150941160042
0.14849901616200126 1.8221407144460213
0.14849901616200126 1.6789699948231833
0.049754369943394716 1.6073846350117644
-0.04899027627521184 1.5894882950589098
-0.1477349224938184 1.4105248955303624
-0.19710724560312165 1.1957688160961057
-0.20945032638044747 0.9452200567561395
-0.2835088110444024 0.8736346969447206
-0.3452242149310315 0.9094273768504301
-0.36991037648568315 0.855738356991866
-0.443968861149638 0.7125676373690281
-0.6167719920321995 0.5336042378404808
-0.789575122914761 0.4620188780290619
-0.9747213345746483 0.28305547850051466
-0.9747213345746483 0.13988475887767682
-0.9376920922426708 0.08619573901911262
-0.7402027998054577 0.10409207897196736
-0.5550565881455705 0.03250671916054844
-0.36991037648568315 -0.039078640650870466
-0.25882264948975076 -0.09276766050943465
-0.25882264948975076 -0.1285603404151441
-0.3452242149310315 -0.20014570022656303
-0.45631194192696384 -0.28962739999083664
-0.45631194192696384 -0.21804204017941775
-0.41928269959498643 -0.21804204017941775
-0.3452242149310315 -0.2717310600379819
-0.2835088110444024 -0.39700543970796504
-0.19710724560312165 -0.5401761593308029
-0.04899027627521184 -0.6475541990479312
0.19787133927130454 -0.7370358988122049
0.39536063170851765 -0.7370358988122049
0.580506843368405 -0.7012432189064954
0.7409668934736405 -0.665450539000786
0.9384561859108537 -0.7191395588593501
1.0372008321294601 -0.862310278482188
1.0372008321294601 -0.9696883181993163
1.0618869936841118 -1.1307553777750088
1.0372008321294601 -1.1128590378221541
0.9014269435788762 -1.184444397633573
0.7039376511416631 -1.2918224373507015
0.5434776010364275 -1.4349931569735392
0.4941052779271242 -1.5423711966906677
0.5187914394817759 -1.5065785167849581
0.6051930049230566 -1.4349931569735392
0.6175360857003824 -1.5065785167849581
0.5187914394817759 -1.6139565565020866
0.3213021470445627 -1.7213345962192148
0.13615593538467544 -1.649749236407796
0.025068208388743077 -1.3992004770678297
-0.13539184171649257 -1.1665480576807183
-0.41928269959498643 -1.0412736780107352
-0.8142612844694126 -0.987584658152171
-1.1104952231252323 -0.8802066184350427
-1.3079845155624454 -0.5580724992836575
-1.394386081003726 -0.4506944595665292
-1.5548461311089616 -0.5580724992836575
-1.7276492619915231 -0.7370358988122049
-1.814050827432804 -0.8981029583878974
-1.875766231319433 -0.9517919782464616
-1.8634231505421073 -0.8981029583878974
-1.801707746655478 -0.8265175985764784
-1.7770215851008264 -0.7728285787179143
-1.814050827432804 -0.665450539000786
-1.9127954736514106 -0.5759688392365123
-2.023883200647343 -0.593865179189367
-1.9991970390926912 -0.7370358988122049
-1.888109312096759 -0.7728285787179143
-1.7770215851008264 -0.6296578590950765
-1.6535907773275682 -0.593865179189367
-1.5671892118862876 -0.6833468789536407
-1.4561014848903553 -0.7370358988122049
-1.3573568386717487 -0.790724918670769
-1.2092398693438389 -0.7370358988122049
-1.122838303902558 -0.6475541990479312
-1.0858090615705807 -0.5759688392365123
-0.9870644153519741 -0.5401761593308029
-0.789575122914761 -0.5580724992836575
-0.5550565881455705 -0.5222798193779481
-0.2341364879350991 -0.48648713947223865
0.11146977383002381 -0.4506944595665292
0.34598830859921437 -0.3612127598022556
0.4941052779271242 -0.39700543970796504
0.6175360857003824 -0.3612127598022556
0.777996135805618 -0.3254200798965461
1.0125146705748085 -0.21804204017941775
1.2840624476759765 -0.11066400046228939
1.4815517401131897 -0.056974980603725196
1.604982547886448 0.014610379207693714
1.6420117902184252 0.15778109883053154
1.530924063222493 0.2651591385476599
1.4198363362265607 0.3367444983590788
1.3457778515626058 0.4083298581704977
1.395150174671909 0.47991521798191666
1.5062379016678413 0.4978115579347714
1.6420117902184252 0.47991521798191666
1.6790410325504028 0.4978115579347714
1.6296687094410995 0.5515005777933355
1.456865578558538 0.5693969177461903
1.197660882234696 0.5693969177461903
0.8026822973602696 0.5515005777933355
0.3089590662672369 0.5515005777933355
-0.09836259938451511 0.47991521798191666
-0.3452242149310315 0.4978115579347714
-0.5303704265909188 0.5515005777933355
-0.7402027998054577 0.5693969177461903
-0.9870644153519741 0.6051895976518997
-1.2215829501211646 0.6230859376047545
-1.406729161781052 0.7483603172747375
-1.4314153233357036 0.8199456770861565
-1.3820430002264004 0.8378420170390112
-1.3203275963397711 0.7841529971804471
-1.3203275963397711 0.6946712974161734
-1.3079845155624454 0.6767749574633186
-1.3203275963397711 0.7841529971804471
-1.3450137578944228 0.9094273768504301
-1.4190722425583777 0.9094273768504301
-1.5178168887769843 0.8915310368975754
-1.5548461311089616 0.7662566572275923
-1.5918753734409392 0.7125676373690281
-1.6412476965502425 0.6946712974161734
-1.6412476965502425 0.7125676373690281
-1.6289046157729166 0.6946712974161734
-1.5918753734409392 0.6767749574633186
-1.6289046157729166 0.6230859376047545
-1.6782769388822198 0.5693969177461903
-1.6782769388822198 0.5336042378404808
-1.6535907773275682 0.4978115579347714
-1.5671892118862876 0.47991521798191666
-1.4561014848903553 0.4083298581704977
-1.4190722425583777 0.42622619812335244
-1.480787646445007 0.35464083831193355
-1.604218454218265 0.37253717826478827
-1.6659338581048941 0.4083298581704977
-1.604218454218265 0.4978115579347714
-1.394386081003726 0.44412253807620716
-1.196896788566513 0.4978115579347714
-1.1475244654572097 0.44412253807620716
-1.2586121924531422 0.515707897887626
-1.3820430002264004 0.5515005777933355
-1.406729161781052 0.6230859376047545
-1.3696999194490744 0.5693969177461903
-1.2215829501211646 0.515707897887626
-1.048779819238603 0.37253717826478827
-0.9500351730199966 0.3009518184533694
-0.8512905268013901 0.3367444983590788
-0.8019182036920868 0.3367444983590788
-0.7278597190281318 0.3188481584062241
-0.6661443151415027 0.24726279859480518
-0.5550565881455705 0.193573778736241
-0.443968861149638 0.22936645864195046
-0.3328811341537057 0.2114701186890957
-0.2341364879350991 0.2651591385476599
-0.11070568016184093 0.28305547850051466
-0.07367643782986348 0.22936645864195046
0.00038204683409143886 0.17567743878338626
0.012725127611417258 0.0682993990662579
0.06209745072072053 0.014610379207693714
0.049754369943394716 -0.039078640650870466
0.037411289166068895 -0.07487132055657993
-0.01196103394323438 -0.16435302032085355
-0.06133335705253765 -0.23593838013227247
-0.12304876093916675 -0.30752373994369137
-0.16007800327114421 -0.3254200798965461
-0.19710724560312165 -0.4327981196136745
-0.2958518918217282 -0.48648713947223865
-0.45631194192696384 -0.5043834794250934
-0.6538012343641769 -0.48648713947223865
-0.8389474460240642 -0.5222798193779481
-0.8883197691333675 -0.5222798193779481
-0.9130059306880192 -0.48648713947223865
-0.9500351730199966 -0.4327981196136745
-1.0240936576839514 -0.3791090997551103
-1.0858090615705807 -0.39700543970796504
-1.135181384679884 -0.39700543970796504
-1.0734659807932547 -0.41490177966081976
-1.061122900015929 -0.39700543970796504
-1.0734659807932547 -0.41490177966081976
-1.1475244654572097 -0.48648713947223865
-1.2092398693438389 -0.5401761593308029
-1.2586121924531422 -0.5222798193779481
-1.2215829501211646 -0.4685907995193839
-1.135181384679884 -0.4506944595665292
-1.0858090615705807 -0.5580724992836575
-1.0734659807932547 -0.6475541990479312
-1.0981521423479064 -0.7012432189064954
-1.1475244654572097 -0.6833468789536407
-1.1475244654572097 -0.6475541990479312
-1.0981521423479064 -0.6296578590950765
-0.9747213345746483 -0.7012432189064954
-0.8759766883560417 -0.7549322387650595
-0.8636336075787159 -0.9159992983407521
-0.925349011465345 -0.987584658152171
-0.9500351730199966 -0.9338956382936069
-0.9623782537973224 -0.8981029583878974
-0.9747213345746483 -0.8265175985764784
-0.925349011465345 -0.8265175985764784
-0.8883197691333675 -0.8265175985764784
-0.8019182036920868 -0.8802066184350427
-0.5303704265909188 -0.9338956382936069
-0.12304876093916675 -1.05917001796359
0.34598830859921437 -1.2381334174921372
0.8643977012468987 -1.4707858368792488
1.4198363362265607 -1.7034382562663601
1.938245728874245 -1.8108162959834886
2.3702535560806486 -1.7213345962192148
2.6541444139591426 -1.5960602165492317
2.7405459794004234 -1.5244748567378128
2.5924290100725136 -1.5602675366435224
2.0987057789794807 -1.6318528964549412
1.5185809824451673 -1.5602675366435224
1.1606316399027183 -1.4170968170206846
1.0248577513521344 -1.2739260973978468
0.9631423474655053 -1.2381334174921372
0.7656530550282922 -1.2918224373507015
0.39536063170851765 -1.3276151172564108
0.012725127611417258 -1.3097187773035561
-0.17242108404847004 -1.2202370775392826
-0.2217934071577733 -1.0770663579164448
-0.25882264948975076 -1.0412736780107352
-0.4316257803723122 -0.987584658152171
-0.5427135073682446 -0.9338956382936069
-0.6414581535868511 -0.8086212586236238
-0.6414581535868511 -0.6475541990479312
-0.6538012343641769 -0.6475541990479312
-0.6538012343641769 -0.790724918670769
-0.6414581535868511 -0.8981029583878974
-0.6291150728095253 -0.9517919782464616
-0.6291150728095253 -0.8444139385293332
-0.6661443151415027 -0.7191395588593501
-0.6784873959188286 -0.6833468789536407
-0.6661443151415027 -0.6833468789536407
-0.6661443151415027 -0.6833468789536407
-0.6908304766961544 -0.7012432189064954
-0.7525458805827835 -0.6833468789536407
-0.7402027998054577 -0.593865179189367
-0.7402027998054577 -0.5759688392365123
-0.7278597190281318 -0.593865179189367
-0.7278597190281318 -0.6296578590950765
-0.7648889613601093 -0.6296578590950765
-0.8019182036920868 -0.593865179189367
-0.8142612844694126 -0.48648713947223865
-0.8142612844694126 -0.30752373994369137
-0.7648889613601093 -0.3254200798965461
-0.7772320421374351 -0.3254200798965461
-0.789575122914761 -0.39700543970796504
-0.8389474460240642 -0.34331641984940087
-0.8266043652467384 -0.20014570022656303
-0.7402027998054577 -0.09276766050943465
-0.6414581535868511 -0.11066400046228939
-0.579742749700222 -0.1285603404151441
-0.5550565881455705 -0.1285603404151441
-0.5427135073682446 -0.11066400046228939
-0.518027345813593 -0.11066400046228939
-0.518027345813593 -0.039078640650870466
-0.5303704265909188 -0.02118230069801574
-0.5550565881455705 -0.056974980603725196
-0.6167719920321995 -0.09276766050943465
-0.6538012343641769 -0.11066400046228939
-0.6908304766961544 -0.09276766050943465
-0.7402027998054577 -0.02118230069801574
-0.789575122914761 -0.02118230069801574
-0.8019182036920868 -0.039078640650870466
-0.789575122914761 -0.11066400046228939
-0.8636336075787159 -0.14645668036799883
-0.8759766883560417 -0.16435302032085355
-0.8759766883560417 -0.11066400046228939
-0.8636336075787159 -0.14645668036799883
-0.9500351730199966 -0.16435302032085355
-0.9747213345746483 -0.2717310600379819
-1.0117505769066257 -0.2717310600379819
-0.9870644153519741 -0.21804204017941775
-0.925349011465345 -0.23593838013227247
-0.9006628499106933 -0.28962739999083664
-0.8636336075787159 -0.28962739999083664
-0.9130059306880192 -0.34331641984940087
-0.9623782537973224 -0.30752373994369137
-0.9623782537973224 -0.21804204017941775
-0.9006628499106933 -0.1285603404151441
-0.8389474460240642 -0.20014570022656303
-0.789575122914761 -0.2538347200851272
-0.789575122914761 -0.30752373994369137
-0.789575122914761 -0.28962739999083664
-0.7772320421374351 -0.23593838013227247
-0.6908304766961544 -0.20014570022656303
-0.6661443151415027 -0.1285603404151441
-0.5920858304775478 -0.1822493602737083
-0.5427135073682446 -0.20014570022656303
-0.46865502270428966 -0.28962739999083664
-0.41928269959498643 -0.2538347200851272
-0.30819497259905404 -0.2717310600379819
-0.2217934071577733 -0.2717310600379819
-0.19710724560312165 -0.28962739999083664
-0.18476416482579586 -0.3791090997551103
-0.20945032638044747 -0.4685907995193839
-0.17242108404847004 -0.4506944595665292
-0.13539184171649257 -0.4685907995193839
-0.12304876093916675 -0.4506944595665292
-0.08601951860718929 -0.48648713947223865
-0.13539184171649257 -0.593865179189367
-0.16007800327114421 -0.5759688392365123
-0.20945032638044747 -0.5222798193779481
-0.24647956871242493 -0.39700543970796504
-0.2341364879350991 -0.4506944595665292
-0.2835088110444024 -0.5043834794250934
-0.3575672957083573 -0.6117615191422218
-0.4069396188176606 -0.665450539000786
-0.46865502270428966 -0.6117615191422218
-0.518027345813593 -0.5759688392365123
-0.579742749700222 -0.6296578590950765
-0.6291150728095253 -0.6475541990479312
-0.6414581535868511 -0.7370358988122049
-0.6044289112548736 -0.7728285787179143
-0.6044289112548736 -0.7191395588593501
-0.6044289112548736 -0.6296578590950765
-0.5427135073682446 -0.5759688392365123
-0.4809981034816155 -0.6296578590950765
-0.443968861149638 -0.6833468789536407
-0.4316257803723122 -0.6475541990479312
-0.3452242149310315 -0.6117615191422218
-0.25882264948975076 -0.5580724992836575
-0.17242108404847004 -0.5401761593308029
-0.1477349224938184 -0.48648713947223865
-0.13539184171649257 -0.4685907995193839
-0.06133335705253765 -0.4327981196136745
0.00038204683409143886 -0.3612127598022556
0.09912669305269799 -0.3612127598022556
0.19787133927130454 -0.30752373994369137
0.27192982393525944 -0.34331641984940087
0.3583313893765402 -0.3791090997551103
0.39536063170851765 -0.39700543970796504
0.4941052779271242 -0.41490177966081976
0.5681637625910791 -0.3254200798965461
0.5928499241457308 -0.28962739999083664
0.6051930049230566 -0.28962739999083664
0.6175360857003824 -0.39700543970796504
0.6298791664777083 -0.4327981196136745
0.6422222472550341 -0.4506944595665292
0.6669084088096856 -0.48648713947223865
0.6792514895870114 -0.4685907995193839
0.6422222472550341 -0.5222798193779481
0.6175360857003824 -0.5580724992836575
0.5928499241457308 -0.5759688392365123
0.5928499241457308 -0.5580724992836575
0.580506843368405 -0.5222798193779481
0.5311345202591017 -0.5401761593308029
0.4817621971497984 -0.5580724992836575
0.44473295481782094 -0.6296578590950765
0.4200467932631693 -0.665450539000786
0.4941052779271242 -0.6833468789536407
0.4817621971497984 -0.6296578590950765
0.4694191163724726 -0.665450539000786
0.44473295481782094 -0.7549322387650595
0.4077037124858435 -0.7370358988122049
0.34598830859921437 -0.790724918670769
0.33364522782188855 -0.7370358988122049
0.3213021470445627 -0.6833468789536407
0.33364522782188855 -0.6296578590950765
0.2966159854899111 -0.7191395588593501
0.2595867431579336 -0.7012432189064954
0.19787133927130454 -0.6833468789536407
0.1731851777166529 -0.6475541990479312
0.18552825849397872 -0.593865179189367
0.18552825849397872 -0.5759688392365123
0.13615593538467544 -0.6117615191422218
0.07444053149804636 -0.5759688392365123
0.037411289166068895 -0.5401761593308029
0.07444053149804636 -0.39700543970796504
0.11146977383002381 -0.2538347200851272
0.19787133927130454 -0.1822493602737083
0.22255750082595618 -0.1822493602737083
0.21021442004863036 -0.1822493602737083
0.2595867431579336 -0.23593838013227247
0.27192982393525944 -0.23593838013227247
0.3089590662672369 -0.20014570022656303
0.3213021470445627 -0.14645668036799883
0.370674470153866 -0.21804204017941775
0.4200467932631693 -0.23593838013227247
0.44473295481782094 -0.2717310600379819
0.5187914394817759 -0.2717310600379819
0.5558206818137533 -0.1822493602737083
0.5434776010364275 -0.07487132055657993
0.5558206818137533 -0.039078640650870466
0.5187914394817759 -0.09276766050943465
0.5558206818137533 -0.20014570022656303
0.5928499241457308 -0.2717310600379819
0.6175360857003824 -0.2538347200851272
0.580506843368405 -0.1822493602737083
0.50644835870445 -0.21804204017941775
0.4694191163724726 -0.30752373994369137
0.4694191163724726 -0.30752373994369137
0.4941052779271242 -0.3254200798965461
0.4817621971497984 -0.34331641984940087
0.4077037124858435 -0.3612127598022556
0.2966159854899111 -0.41490177966081976
0.16084209693932708 -0.4506944595665292
0.14849901616200126 -0.5222798193779481
0.14849901616200126 -0.5043834794250934
0.18552825849397872 -0.41490177966081976
0.19787133927130454 -0.48648713947223865
0.18552825849397872 -0.5043834794250934
0.1731851777166529 -0.6296578590950765
0.12381285460734963 -0.6296578590950765
0.16084209693932708 -0.5043834794250934
0.22255750082595618 -0.5222798193779481
0.2966159854899111 -0.5580724992836575
0.33364522782188855 -0.6296578590950765
0.33364522782188855 -0.7191395588593501
0.2966159854899111 -0.7012432189064954
0.2966159854899111 -0.6296578590950765
0.3213021470445627 -0.6117615191422218
0.33364522782188855 -0.593865179189367
0.3583313893765402 -0.5759688392365123
0.38301755093119183 -0.6475541990479312
0.4200467932631693 -0.7370358988122049
0.4694191163724726 -0.7191395588593501
0.5434776010364275 -0.6833468789536407
0.5558206818137533 -0.6833468789536407
0.50644835870445 -0.7549322387650595
0.45707603559514676 -0.8265175985764784
0.370674470153866 -0.8444139385293332
0.34598830859921437 -0.7549322387650595
0.3583313893765402 -0.7012432189064954
0.4323898740404951 -0.6475541990479312
0.4941052779271242 -0.6833468789536407
0.6175360857003824 -0.7728285787179143
0.8026822973602696 -0.8086212586236238
1.2100039630120216 -0.8265175985764784
1.6790410325504028 -0.987584658152171
2.185107344420761 -1.3097187773035561
2.7282028986230973 -1.5602675366435224
3.22192612971613 -1.578163876596377
3.579875472258579 -1.4707858368792488
3.8267370878050952 -1.3097187773035561
3.9378248148010275 -1.1486517177278637
3.8761094109143985 -1.1486517177278637
3.505816987594624 -1.184444397633573
2.888662948728333 -1.1665480576807183
2.3949397176353004 -1.0949626978692995
2.1727642636434354 -0.9696883181993163
2.0493334558701775 -0.8802066184350427
1.86418724421029 -0.8265175985764784
1.543267143999819 -0.7370358988122049
1.0989162360160893 -0.7012432189064954
0.7656530550282922 -0.6475541990479312
0.5681637625910791 -0.6117615191422218
0.4694191163724726 -0.5759688392365123
0.3213021470445627 -0.5580724992836575
0.16084209693932708 -0.5580724992836575
0.012725127611417258 -0.5043834794250934
-0.18476416482579586 -0.41490177966081976
-0.3328811341537057 -0.30752373994369137
-0.443968861149638 -0.16435302032085355
-0.518027345813593 -0.16435302032085355
-0.5673996689228963 -0.20014570022656303
-0.6044289112548736 -0.20014570022656303
-0.6661443151415027 -0.14645668036799883
-0.715516638250806 -0.039078640650870466
-0.7278597190281318 -0.0032859607451610137
-0.7031735574734802 -0.039078640650870466
-0.6908304766961544 -0.1285603404151441
-0.6538012343641769 -0.1822493602737083
-0.6044289112548736 -0.16435302032085355
-0.579742749700222 -0.09276766050943465
-0.579742749700222 -0.02118230069801574
-0.5920858304775478 -0.11066400046228939
-0.6044289112548736 -0.1822493602737083
-0.5920858304775478 -0.21804204017941775
-0.6291150728095253 -0.14645668036799883
-0.5920858304775478 -0.09276766050943465
-0.5427135073682446 -0.02118230069801574
-0.4809981034816155 -0.02118230069801574
-0.46865502270428966 -0.02118230069801574
-0.5056842650362672 -0.039078640650870466
-0.5673996689228963 -0.039078640650870466
-0.6044289112548736 0.05040305911340317
-0.6044289112548736 0.08619573901911262
-0.6044289112548736 -0.0032859607451610137
-0.6291150728095253 -0.0032859607451610137
-0.6414581535868511 -0.07487132055657993
-0.6538012343641769 -0.14645668036799883
-0.7278597190281318 -0.1285603404151441
-0.7278597190281318 -0.1285603404151441
-0.6784873959188286 -0.11066400046228939
-0.6167719920321995 -0.11066400046228939
-0.5673996689228963 -0.1822493602737083
-0.5427135073682446 -0.1822493602737083
-0.5920858304775478 -0.21804204017941775
-0.5920858304775478 -0.23593838013227247
-0.5056842650362672 -0.23593838013227247
-0.4316257803723122 -0.21804204017941775
-0.41928269959498643 -0.2538347200851272
-0.4069396188176606 -0.2717310600379819
-0.3452242149310315 -0.16435302032085355
-0.3328811341537057 -0.09276766050943465
-0.36991037648568315 -0.11066400046228939
-0.4316257803723122 -0.14645668036799883
-0.46865502270428966 -0.20014570022656303
-0.45631194192696384 -0.16435302032085355
-0.38225345726300897 -0.02118230069801574
-0.30819497259905404 0.0682993990662579
-0.2958518918217282 0.12198841892482208
-0.2711657302670766 0.12198841892482208
-0.24647956871242493 0.13988475887767682
-0.2217934071577733 0.2114701186890957
-0.2217934071577733 0.28305547850051466
-0.24647956871242493 0.3367444983590788
-0.2217934071577733 0.22936645864195046
-0.20945032638044747 0.17567743878338626
-0.20945032638044747 0.24726279859480518
-0.20945032638044747 0.2651591385476599
-0.20945032638044747 0.3188481584062241
-0.2217934071577733 0.35464083831193355
-0.1477349224938184 0.3367444983590788
-0.08601951860718929 0.35464083831193355
-0.07367643782986348 0.37253717826478827
-0.07367643782986348 0.3009518184533694
-0.07367643782986348 0.28305547850051466
-0.04899027627521184 0.3367444983590788
0.00038204683409143886 0.3009518184533694
0.07444053149804636 0.3009518184533694
0.16084209693932708 0.193573778736241
0.13615593538467544 0.15778109883053154
0.16084209693932708 0.2114701186890957
0.14849901616200126 0.12198841892482208
0.14849901616200126 0.08619573901911262
0.12381285460734963 0.014610379207693714
0.08678361227537217 -0.039078640650870466
0.049754369943394716 -0.1285603404151441
0.049754369943394716 -0.14645668036799883
0.07444053149804636 -0.09276766050943465
0.09912669305269799 -0.09276766050943465
0.025068208388743077 -0.1285603404151441
-0.04899027627521184 -0.16435302032085355
-0.13539184171649257 -0.21804204017941775
-0.18476416482579586 -0.1822493602737083
-0.2341364879350991 -0.1822493602737083
-0.2958518918217282 -0.1822493602737083
-0.3328811341537057 -0.09276766050943465
-0.3575672957083573 -0.039078640650870466
-0.3945965380403348 -0.02118230069801574
-0.443968861149638 -0.0032859607451610137
-0.3945965380403348 0.08619573901911262
-0.38225345726300897 0.10409207897196736
-0.38225345726300897 -0.0032859607451610137
-0.46865502270428966 -0.0032859607451610137
-0.5550565881455705 -0.07487132055657993
-0.579742749700222 0.0682993990662579
-0.6291150728095253 0.12198841892482208
-0.6044289112548736 0.05040305911340317
-0.6044289112548736 0.014610379207693714
-0.6167719920321995 -0.0032859607451610137
-0.6784873959188286 -0.02118230069801574
-0.6661443151415027 -0.0032859607451610137
-0.6661443151415027 0.05040305911340317
-0.6538012343641769 0.03250671916054844
-0.715516638250806 0.05040305911340317
-0.7772320421374351 0.05040305911340317
-0.8266043652467384 0.05040305911340317
-0.8142612844694126 0.0682993990662579
-0.8142612844694126 0.05040305911340317
-0.8019182036920868 0.014610379207693714
-0.8142612844694126 -0.02118230069801574
-0.8636336075787159 -0.02118230069801574
-0.9376920922426708 -0.039078640650870466
-0.9623782537973224 -0.039078640650870466
-0.925349011465345 0.10409207897196736
-0.9006628499106933 0.17567743878338626
-0.9006628499106933 0.24726279859480518
-0.9130059306880192 0.13988475887767682
-0.8883197691333675 0.03250671916054844
-0.8512905268013901 0.05040305911340317
-0.8266043652467384 0.13988475887767682
-0.8266043652467384 0.2114701186890957
-0.8266043652467384 0.15778109883053154
-0.7772320421374351 0.12198841892482208
-0.7772320421374351 0.15778109883053154
-0.7402027998054577 0.17567743878338626
-0.7525458805827835 0.193573778736241
-0.7525458805827835 0.13988475887767682
-0.7278597190281318 0.13988475887767682
-0.715516638250806 0.12198841892482208
-0.6908304766961544 0.03250671916054844
-0.6784873959188286 0.03250671916054844
-0.6414581535868511 0.08619573901911262
-0.6044289112548736 0.15778109883053154
-0.6538012343641769 0.08619573901911262
-0.6661443151415027 -0.056974980603725196
-0.715516638250806 -0.11066400046228939
-0.7031735574734802 -0.1285603404151441
-0.6414581535868511 -0.02118230069801574
-0.6167719920321995 -0.056974980603725196
-0.6167719920321995 -0.1285603404151441
-0.6784873959188286 -0.16435302032085355
-0.7278597190281318 -0.1822493602737083
-0.7031735574734802 -0.1822493602737083
-0.6661443151415027 -0.20014570022656303
-0.6538012343641769 -0.1822493602737083
-0.7031735574734802 -0.11066400046228939
-0.7278597190281318 -0.056974980603725196
-0.7402027998054577 0.05040305911340317
-0.6784873959188286 0.12198841892482208
-0.5303704265909188 0.22936645864195046
-0.3945965380403348 0.2651591385476599
-0.24647956871242493 0.24726279859480518
-0.2341364879350991 0.193573778736241
-0.2835088110444024 0.2114701186890957
-0.25882264948975076 0.22936645864195046
-0.19710724560312165 0.17567743878338626
-0.1477349224938184 0.10409207897196736
-0.09836259938451511 -0.056974980603725196
-0.04899027627521184 -0.1285603404151441
0.00038204683409143886 -0.056974980603725196
0.06209745072072053 0.03250671916054844
0.11146977383002381 0.12198841892482208
0.14849901616200126 0.08619573901911262
0.18552825849397872 0.05040305911340317
0.22255750082595618 -0.056974980603725196
0.1731851777166529 -0.09276766050943465
0.16084209693932708 -0.039078640650870466
0.12381285460734963 -0.0032859607451610137
0.09912669305269799 -0.02118230069801574
0.049754369943394716 -0.039078640650870466
0.012725127611417258 -0.16435302032085355
-0.03664719549788602 -0.21804204017941775
-0.12304876093916675 -0.16435302032085355
-0.2341364879350991 -0.21804204017941775
-0.3452242149310315 -0.20014570022656303
-0.45631194192696384 -0.20014570022656303
-0.5550565881455705 -0.2538347200851272
-0.6414581535868511 -0.1285603404151441
-0.6661443151415027 -0.056974980603725196
-0.6908304766961544 -0.09276766050943465
-0.6784873959188286 -0.1285603404151441
-0.715516638250806 -0.16435302032085355
-0.7648889613601093 -0.23593838013227247
-0.789575122914761 -0.2538347200851272
-0.7648889613601093 -0.28962739999083664
-0.7402027998054577 -0.23593838013227247
-0.6784873959188286 -0.11066400046228939
-0.6538012343641769 -0.11066400046228939
-0.7648889613601093 -0.20014570022656303
-0.8019182036920868 -0.23593838013227247
-0.7402027998054577 -0.1822493602737083
-0.6291150728095253 -0.039078640650870466
-0.5056842650362672 -0.02118230069801574
-0.3945965380403348 -0.0032859607451610137
-0.38225345726300897 -0.039078640650870466
-0.3945965380403348 -0.07487132055657993
-0.38225345726300897 -0.1285603404151441
-0.32053805337637986 -0.16435302032085355
-0.2835088110444024 -0.21804204017941775
-0.30819497259905404 -0.20014570022656303
-0.3328811341537057 -0.23593838013227247
-0.3575672957083573 -0.2538347200851272
-0.2958518918217282 -0.1285603404151441
-0.11070568016184093 -0.09276766050943465
0.08678361227537217 -0.07487132055657993
0.28427290471258526 -0.14645668036799883
0.6175360857003824 -0.21804204017941775
0.987828509020157 -0.3612127598022556
1.4321794170038864 -0.6117615191422218
1.86418724421029 -0.9159992983407521
2.296195071416694 -1.1128590378221541
2.814604464064378 -1.1486517177278637
3.160210725829501 -0.987584658152171
3.3206707759347367 -0.7728285787179143
3.3330138567120624 -0.7728285787179143
3.160210725829501 -0.8265175985764784
2.7775752217324006 -0.8086212586236238
2.1604211828661097 -0.7012432189064954
1.7407564364370318 -0.6296578590950765
1.456865578558538 -0.6296578590950765
1.259376286121325 -0.593865179189367
0.8890838628015504 -0.4685907995193839
0.4694191163724726 -0.3612127598022556
0.21021442004863036 -0.3254200798965461
0.12381285460734963 -0.2717310600379819
0.037411289166068895 -0.2538347200851272
-0.1477349224938184 -0.1822493602737083
-0.3328811341537057 -0.1285603404151441
-0.38225345726300897 -0.09276766050943465
-0.4316257803723122 -0.056974980603725196
-0.518027345813593 -0.07487132055657993
-0.6784873959188286 0.014610379207693714
-0.7402027998054577 0.10409207897196736
-0.7525458805827835 0.2114701186890957
-0.7525458805827835 0.2114701186890957
-0.7402027998054577 0.13988475887767682
-0.789575122914761 0.05040305911340317
-0.8142612844694126 0.10409207897196736
-0.789575122914761 0.193573778736241
-0.8019182036920868 0.3188481584062241
-0.8266043652467384 0.390433518217643
-0.7772320421374351 0.2651591385476599
-0.7278597190281318 0.12198841892482208
-0.8019182036920868 0.03250671916054844
-0.789575122914761 0.08619573901911262
-0.8019182036920868 0.03250671916054844
-0.7402027998054577 -0.0032859607451610137
-0.7402027998054577 -0.039078640650870466
-0.789575122914761 -0.056974980603725196
-0.8759766883560417 -0.056974980603725196
-0.8636336075787159 0.03250671916054844
-0.8019182036920868 0.05040305911340317
-0.7648889613601093 -0.0032859607451610137
-0.7772320421374351 -0.0032859607451610137
-0.715516638250806 -0.07487132055657993
-0.7278597190281318 -0.07487132055657993
-0.715516638250806 -0.039078640650870466
-0.7031735574734802 -0.02118230069801574
-0.6661443151415027 -0.039078640650870466
-0.715516638250806 -0.056974980603725196
-0.7525458805827835 -0.07487132055657993
-0.7772320421374351 -0.039078640650870466
-0.7402027998054577 -0.02118230069801574
-0.6661443151415027 -0.07487132055657993
-0.5920858304775478 -0.11066400046228939
-0.6044289112548736 -0.11066400046228939
-0.6414581535868511 -0.11066400046228939
-0.6538012343641769 -0.16435302032085355
-0.6414581535868511 -0.14645668036799883
-0.579742749700222 -0.039078640650870466
-0.5427135073682446 0.014610379207693714
-0.5673996689228963 0.05040305911340317
-0.6291150728095253 0.014610379207693714
-0.6784873959188286 -0.039078640650870466
-0.6291150728095253 -0.0032859607451610137
-0.5550565881455705 -0.039078640650870466
-0.46865502270428966 0.03250671916054844
-0.46865502270428966 0.0682993990662579
-0.4809981034816155 0.0682993990662579
-0.518027345813593 0.05040305911340317
-0.4809981034816155 0.03250671916054844
-0.4069396188176606 0.12198841892482208
-0.3945965380403348 0.17567743878338626
-0.3945965380403348 0.13988475887767682
-0.38225345726300897 0.08619573901911262
-0.3328811341537057 0.03250671916054844
-0.2711657302670766 0.0682993990662579
-0.19710724560312165 0.13988475887767682
-0.19710724560312165 0.17567743878338626
-0.18476416482579586 0.17567743878338626
-0.2217934071577733 0.08619573901911262
-0.17242108404847004 0.0682993990662579
-0.04899027627521184 -0.0032859607451610137
0.049754369943394716 -0.02118230069801574
0.16084209693932708 0.03250671916054844
0.18552825849397872 0.10409207897196736
0.14849901616200126 0.08619573901911262
0.13615593538467544 0.08619573901911262
0.13615593538467544 0.08619573901911262
0.21021442004863036 0.13988475887767682
0.27192982393525944 0.03250671916054844
0.3213021470445627 0.03250671916054844
0.2966159854899111 0.03250671916054844
0.2595867431579336 0.10409207897196736
0.234900581603282 0.193573778736241
0.27192982393525944 0.2651591385476599
0.34598830859921437 0.24726279859480518
0.33364522782188855 0.2114701186890957
0.33364522782188855 0.10409207897196736
0.28427290471258526 0.05040305911340317
0.24724366238060783 0.05040305911340317
0.21021442004863036 0.15778109883053154
0.1731851777166529 0.17567743878338626
0.16084209693932708 0.193573778736241
0.11146977383002381 0.193573778736241
0.037411289166068895 0.2114701186890957
0.037411289166068895 0.28305547850051466
0.049754369943394716 0.3367444983590788
0.06209745072072053 0.3367444983590788
0.037411289166068895 0.35464083831193355
-0.01196103394323438 0.390433518217643
0.012725127611417258 0.44412253807620716
0.08678361227537217 0.44412253807620716
0.16084209693932708 0.4083298581704977
0.18552825849397872 0.42622619812335244
0.14849901616200126 0.47991521798191666
0.11146977383002381 0.44412253807620716
0.07444053149804636 0.42622619812335244
0.06209745072072053 0.4620188780290619
0.08678361227537217 0.515707897887626
0.09912669305269799 0.5515005777933355
0.025068208388743077 0.47991521798191666
0.00038204683409143886 0.47991521798191666
-0.0243041147205602 0.42622619812335244
0.00038204683409143886 0.42622619812335244
0.00038204683409143886 0.4620188780290619
0.00038204683409143886 0.44412253807620716
-0.01196103394323438 0.42622619812335244
-0.0243041147205602 0.4083298581704977
-0.06133335705253765 0.47991521798191666
-0.06133335705253765 0.4978115579347714
0.00038204683409143886 0.515707897887626
0.037411289166068895 0.4620188780290619
0.049754369943394716 0.4978115579347714
0.00038204683409143886 0.515707897887626
-0.04899027627521184 0.4620188780290619
-0.04899027627521184 0.4978115579347714
0.012725127611417258 0.5336042378404808
0.049754369943394716 0.515707897887626
0.06209745072072053 0.5336042378404808
0.06209745072072053 0.4978115579347714
0.049754369943394716 0.515707897887626
0.037411289166068895 0.5336042378404808
0.037411289166068895 0.6230859376047545
0.049754369943394716 0.6409822775576092
0.12381285460734963 0.5693969177461903
0.16084209693932708 0.5336042378404808
0.13615593538467544 0.5515005777933355
0.13615593538467544 0.6409822775576092
0.12381285460734963 0.7125676373690281
0.13615593538467544 0.6767749574633186
0.14849901616200126 0.5693969177461903
0.14849901616200126 0.5336042378404808
0.1731851777166529 0.4978115579347714
0.13615593538467544 0.5872932576990451
0.07444053149804636 0.658878617510464
0.049754369943394716 0.5872932576990451
-0.0243041147205602 0.5693969177461903
-0.04899027627521184 0.4978115579347714
-0.01196103394323438 0.515707897887626
0.025068208388743077 0.5872932576990451
0.037411289166068895 0.6409822775576092
0.00038204683409143886 0.7662566572275923
-0.04899027627521184 0.7304639773218828
-0.07367643782986348 0.6409822775576092
-0.11070568016184093 0.7125676373690281
-0.09836259938451511 0.7483603172747375
-0.08601951860718929 0.9273237168032848
-0.04899027627521184 0.9989090766147037
-0.06133335705253765 0.9989090766147037
-0.08601951860718929 0.9631163967089943
-0.07367643782986348 0.9452200567561395
-0.06133335705253765 0.9273237168032848
-0.12304876093916675 0.9631163967089943
-0.07367643782986348 0.9631163967089943
-0.07367643782986348 0.9631163967089943
-0.08601951860718929 0.9273237168032848
-0.07367643782986348 0.8915310368975754
-0.0243041147205602 0.8378420170390112
0.049754369943394716 0.8199456770861565
0.07444053149804636 0.8199456770861565
0.08678361227537217 0.855738356991866
0.06209745072072053 0.9273237168032848
0.07444053149804636 0.9094273768504301
0.07444053149804636 0.855738356991866
0.049754369943394716 0.8915310368975754
0.037411289166068895 0.9094273768504301
-0.01196103394323438 0.8915310368975754
-0.03664719549788602 0.8378420170390112
-0.13539184171649257 0.7125676373690281
-0.16007800327114421 0.7304639773218828
-0.16007800327114421 0.8020493371333017
-0.20945032638044747 0.7662566572275923
-0.3328811341537057 0.7483603172747375
-0.443968861149638 0.6946712974161734
-0.5303704265909188 0.7483603172747375
-0.5673996689228963 0.8020493371333017
-0.5427135073682446 0.8378420170390112
-0.5303704265909188 0.8020493371333017
-0.518027345813593 0.8378420170390112
-0.46865502270428966 0.8020493371333017
-0.46865502270428966 0.7483603172747375
-0.443968861149638 0.6946712974161734
-0.443968861149638 0.658878617510464
-0.41928269959498643 0.6767749574633186
-0.36991037648568315 0.7483603172747375
-0.3575672957083573 0.8020493371333017
-0.3328811341537057 0.8199456770861565
-0.24647956871242493 0.8020493371333017
-0.19710724560312165 0.855738356991866
-0.16007800327114421 0.9273237168032848
-0.13539184171649257 0.8915310368975754
-0.18476416482579586 0.9452200567561395
-0.19710724560312165 0.9273237168032848
-0.1477349224938184 0.9452200567561395
-0.11070568016184093 0.9631163967089943
-0.11070568016184093 0.8736346969447206
-0.11070568016184093 0.8736346969447206
-0.12304876093916675 0.9094273768504301
-0.16007800327114421 0.9452200567561395
-0.16007800327114421 0.9989090766147037
-0.12304876093916675 0.9989090766147037
-0.12304876093916675 0.8915310368975754
-0.13539184171649257 0.8736346969447206
-0.09836259938451511 0.8915310368975754
-0.07367643782986348 0.9631163967089943
0.06209745072072053 1.0704944364261226
0.2595867431579336 1.1062871163318322
0.5928499241457308 0.9631163967089943
1.0742300744614377 0.8020493371333017
1.5802963863317963 0.5693969177461903
2.086362698202155 0.3009518184533694
2.617115171627165 0.28305547850051466
3.049122998833569 0.3367444983590788
3.3453569374893886 0.47991521798191666
3.431758502930669 0.5336042378404808
3.3453569374893886 0.5515005777933355
2.901006029505659 0.6230859376047545
2.2344796675300644 0.7304639773218828
1.7160702748823802 0.855738356991866
1.4815517401131897 0.9094273768504301
1.3704640131172574 0.9452200567561395
1.0989162360160893 0.9989090766147037
0.6792514895870114 1.052598096473268
0.234900581603282 1.1241834562846869
0.025068208388743077 1.2136651560489604
0.00038204683409143886 1.177872476143251
-0.04899027627521184 1.1957688160961057
-0.2835088110444024 1.1957688160961057
-0.5427135073682446 1.1957688160961057
-0.7031735574734802 1.3031468558132342
-0.7648889613601093 1.374732215624653
-0.8142612844694126 1.4642139153889266
-0.9130059306880192 1.5179029352474909
-1.0240936576839514 1.4284212354832173
-1.061122900015929 1.3389395357189435
-1.048779819238603 1.3568358756717982
-1.0117505769066257 1.446317575436072
-1.0734659807932547 1.4821102553417813
-1.122838303902558 1.5357992752003455
-1.1845537077891872 1.4821102553417813
-1.196896788566513 1.4642139153889266
-1.1598675462345356 1.4642139153889266
-1.1104952231252323 1.446317575436072
-1.0858090615705807 1.4642139153889266
-1.0858090615705807 1.4284212354832173
-1.135181384679884 1.4105248955303624
-1.1475244654572097 1.3926285555775078
-1.0981521423479064 1.4821102553417813
-1.0364367384612774 1.446317575436072
-0.9994074961292999 1.3389395357189435
-0.9747213345746483 1.3031468558132342
-0.9870644153519741 1.4284212354832173
-1.061122900015929 1.4821102553417813
-1.0981521423479064 1.4821102553417813
-1.0734659807932547 1.4642139153889266
-0.9994074961292999 1.3210431957660889
-0.9623782537973224 1.24945783595467
-0.9006628499106933 1.1957688160961057
-0.9747213345746483 1.2673541759075246
-0.9870644153519741 1.3926285555775078
-1.0364367384612774 1.446317575436072
-0.9870644153519741 1.4284212354832173
-0.9376920922426708 1.4642139153889266
-0.8512905268013901 1.4642139153889266
-0.7648889613601093 1.5179029352474909
-0.6784873959188286 1.5179029352474909
-0.5920858304775478 1.571591955106055
-0.5303704265909188 1.5536956151532002
-0.5056842650362672 1.4821102553417813
-0.5056842650362672 1.4105248955303624
-0.5673996689228963 1.446317575436072
-0.5920858304775478 1.4821102553417813
-0.5550565881455705 1.5894882950589098
-0.4809981034816155 1.5357992752003455
-0.443968861149638 1.4821102553417813
-0.45631194192696384 1.5000065952946362
-0.518027345813593 1.4642139153889266
-0.5550565881455705 1.4821102553417813
-0.5550565881455705 1.571591955106055
-0.5303704265909188 1.6073846350117644
-0.518027345813593 1.6252809749646193
-0.5303704265909188 1.643177314917474
-0.6044289112548736 1.5536956151532002
-0.6044289112548736 1.5179029352474909
-0.5550565881455705 1.5357992752003455
-0.4809981034816155 1.5536956151532002
-0.4316257803723122 1.5536956151532002
-0.4316257803723122 1.5357992752003455
-0.4933411842589413 1.5179029352474909
-0.5056842650362672 1.5894882950589098
