-0.1417379241354122 -0.8773807757977533
-0.15532264140884727 -0.6590360903834102
-0.20966151050258755 -0.5134729667738481
-0.20966151050258755 -0.4770821858714577
-0.19607679322915247 -0.5498637476762387
-0.22324622777602263 -0.5134729667738481
-0.291169814143198 -0.5134729667738481
-0.35909340051037336 -0.3315190622618956
-0.31833924869006813 -0.3315190622618956
-0.291169814143198 -0.2223467195547241
-0.291169814143198 -0.40430062406667666
-0.291169814143198 -0.5498637476762387
-0.31833924869006813 -0.5498637476762387
-0.3455086832369383 -0.5134729667738481
-0.30475453141663306 -0.40430062406667666
-0.2368309450494577 -0.40430062406667666
-0.20966151050258755 -0.44069140496906717
-0.2640003795963278 -0.5862545285786291
-0.291169814143198 -0.6954268712858007
-0.2640003795963278 -0.4770821858714577
-0.291169814143198 -0.44069140496906717
-0.30475453141663306 -0.36790984316428615
-0.3319239659635032 -0.44069140496906717
-0.2640003795963278 -0.6226453094810197
-0.12815320686197712 -0.5134729667738481
0.22504944224733478 -0.4770821858714577
0.7956075677316078 -0.40430062406667666
1.5427670177705368 -0.5134729667738481
2.2355875987157257 -0.8409899948953627
2.724637420559388 -0.9865531185049248
3.091424786942135 -0.9137715567001438
3.2816108287702264 -0.7318176521881912
3.3359496978639664 -0.5498637476762387
3.3495344151374016 -0.5498637476762387
3.186517807856181 -0.5134729667738481
2.874069310567174 -0.5134729667738481
2.3578500541766414 -0.6590360903834102
1.5155975832236668 -0.9137715567001438
0.5782520913566467 -1.35046092752883
-0.04664490322136668 -1.496024051138392
-0.2640003795963278 -1.6051963938455633
-0.15532264140884727 -1.7507595174551256
-0.18249207595571743 -1.859931860162297
-0.2775850968697629 -1.8235410792599065
-0.31833924869006813 -1.5324148320407824
-0.3319239659635032 -1.1685070230168773
-0.3319239659635032 -0.8773807757977533
-0.37267811778380844 -0.6954268712858007
-0.481355855971289 -0.6954268712858007
-0.5764488768853345 -0.4770821858714577
-0.5764488768853345 -0.36790984316428615
-0.5356947250650294 -0.2587375004571146
-0.5356947250650294 -0.44069140496906717
-0.5628641596118995 -0.40430062406667666
-0.6307877459790748 -0.5498637476762387
-0.657957180525945 -0.4770821858714577
-0.6036183114322047 -0.3315190622618956
-0.6172030287056397 -0.14956515774994308
-0.6036183114322047 -0.2223467195547241
-0.6443724632525099 -0.3315190622618956
-0.67154189779938 -0.3315190622618956
-0.67154189779938 -0.2587375004571146
-0.67154189779938 -0.14956515774994308
-0.6987113323462502 -0.11317437684755256
-0.6851266150728151 -0.2223467195547241
-0.6987113323462502 -0.3315190622618956
-0.7258807668931203 -0.5134729667738481
-0.7258807668931203 -0.40430062406667666
-0.7394654841665554 -0.2587375004571146
-0.7394654841665554 -0.2223467195547241
-0.6851266150728151 -0.2223467195547241
-0.7122960496196853 -0.2951282813595051
-0.7530502014399905 -0.36790984316428615
-0.7394654841665554 -0.2587375004571146
-0.7530502014399905 -0.1859559386523336
-0.6987113323462502 -0.14956515774994308
-0.6851266150728151 -0.14956515774994308
-0.6987113323462502 -0.3315190622618956
-0.7530502014399905 -0.44069140496906717
-0.7394654841665554 -0.44069140496906717
-0.7394654841665554 -0.2951282813595051
-0.67154189779938 -0.1859559386523336
-0.6443724632525099 -0.2587375004571146
-0.657957180525945 -0.3315190622618956
-0.7122960496196853 -0.40430062406667666
-0.6851266150728151 -0.44069140496906717
-0.6987113323462502 -0.2587375004571146
-0.657957180525945 -0.2587375004571146
-0.6036183114322047 -0.1859559386523336
-0.6036183114322047 -0.3315190622618956
-0.657957180525945 -0.40430062406667666
-0.6307877459790748 -0.2951282813595051
-0.5900335941587695 -0.2951282813595051
-0.5356947250650294 -0.2587375004571146
-0.5221100077915942 -0.2587375004571146
-0.5221100077915942 -0.36790984316428615
-0.5356947250650294 -0.3315190622618956
-0.49494057324472407 -0.3315190622618956
-0.46777113869785397 -0.2951282813595051
-0.4406017041509838 -0.2951282813595051
-0.3998475523306786 -0.44069140496906717
-0.42701698687754874 -0.4770821858714577
-0.4406017041509838 -0.5862545285786291
-0.41343226960411367 -0.4770821858714577
-0.37267811778380844 -0.2951282813595051
-0.291169814143198 -0.2587375004571146
-0.2640003795963278 -0.2951282813595051
-0.2368309450494577 -0.36790984316428615
-0.25041566232289275 -0.4770821858714577
-0.22324622777602263 -0.40430062406667666
-0.19607679322915247 -0.2951282813595051
-0.12815320686197712 -0.3315190622618956
-0.10098377231510697 -0.40430062406667666
-0.07381433776823683 -0.44069140496906717
-0.10098377231510697 -0.5862545285786291
-0.06022962049480175 -0.4770821858714577
0.08920226951298404 -0.44069140496906717
0.15712585588015943 -0.2951282813595051
0.2114647249738997 -0.36790984316428615
0.22504944224733478 -0.4770821858714577
0.23863415952076986 -0.5134729667738481
0.29297302861451013 -0.5498637476762387
0.4152354840754258 -0.44069140496906717
0.5239132222629064 -0.40430062406667666
0.5510826568097765 -0.40430062406667666
0.5918368086300817 -0.5862545285786291
0.6054215259035168 -0.6954268712858007
0.6869298295441273 -0.6590360903834102
0.7276839813644325 -0.5498637476762387
0.8091922850050429 -0.5134729667738481
0.8635311540987832 -0.5498637476762387
0.8907005886456534 -0.6590360903834102
0.8907005886456534 -0.7682084330905817
0.8907005886456534 -0.6226453094810197
0.9722088922862638 -0.5134729667738481
1.012963044106569 -0.5134729667738481
1.026547761380004 -0.5862545285786291
1.026547761380004 -0.7318176521881912
0.9857936095596989 -0.7682084330905817
0.9450394577393937 -0.8409899948953627
0.9722088922862638 -0.6954268712858007
0.9722088922862638 -0.7318176521881912
0.9178700231925235 -0.6226453094810197
0.9042853059190884 -0.6590360903834102
0.8499464368253481 -0.8045992139929723
0.7684381331847377 -0.6226453094810197
0.7548534159113026 -0.5134729667738481
0.7276839813644325 -0.3315190622618956
0.6597603949972571 -0.4770821858714577
0.5510826568097765 -0.5862545285786291
0.4288202013488609 -0.6226453094810197
0.4152354840754258 -0.6226453094810197
0.3744813322551206 -0.44069140496906717
0.3744813322551206 -0.36790984316428615
0.26580359406764 -0.40430062406667666
0.17071057315359447 -0.4770821858714577
0.07561755223954897 -0.5498637476762387
0.04844811769267883 -0.4770821858714577
0.034863400419243754 -0.2951282813595051
0.034863400419243754 -0.2587375004571146
-0.019475468674496538 -0.2587375004571146
-0.12815320686197712 -0.36790984316428615
-0.22324622777602263 -0.5862545285786291
-0.22324622777602263 -0.5134729667738481
-0.2775850968697629 -0.36790984316428615
-0.291169814143198 -0.2223467195547241
-0.2775850968697629 -0.2587375004571146
-0.3319239659635032 -0.36790984316428615
-0.3998475523306786 -0.44069140496906717
-0.3998475523306786 -0.4770821858714577
-0.4541864214244189 -0.3315190622618956
-0.4406017041509838 -0.14956515774994308
-0.4406017041509838 -0.1859559386523336
-0.49494057324472407 -0.2951282813595051
-0.5764488768853345 -0.5498637476762387
-0.5900335941587695 -0.36790984316428615
-0.5492794423384644 -0.2587375004571146
-0.5356947250650294 -0.2587375004571146
-0.5356947250650294 -0.2223467195547241
-0.6036183114322047 -0.36790984316428615
-0.6307877459790748 -0.4770821858714577
-0.657957180525945 -0.36790984316428615
-0.6307877459790748 -0.3315190622618956
-0.6307877459790748 -0.1859559386523336
-0.6307877459790748 -0.1859559386523336
-0.6443724632525099 -0.2223467195547241
-0.67154189779938 -0.2951282813595051
-0.7258807668931203 -0.2951282813595051
-0.6987113323462502 -0.2223467195547241
-0.6443724632525099 -0.1859559386523336
-0.6987113323462502 -0.2587375004571146
-0.7122960496196853 -0.36790984316428615
-0.7802196359868606 -0.3315190622618956
-0.7530502014399905 -0.3315190622618956
-0.7394654841665554 -0.2223467195547241
-0.6851266150728151 -0.04039281504277154
-0.6851266150728151 -0.04039281504277154
-0.7258807668931203 -0.2587375004571146
-0.7394654841665554 -0.2587375004571146
-0.7666349187134256 -0.2587375004571146
-0.7666349187134256 -0.1859559386523336
-0.6851266150728151 -0.11317437684755256
-0.6851266150728151 -0.14956515774994308
-0.7258807668931203 -0.2223467195547241
-0.7394654841665554 -0.2951282813595051
-0.7394654841665554 -0.2223467195547241
-0.7122960496196853 -0.04039281504277154
-0.67154189779938 0.03238874676200947
-0.6443724632525099 -0.07678359594516206
-0.6851266150728151 -0.2587375004571146
-0.6851266150728151 -0.40430062406667666
-0.67154189779938 -0.2951282813595051
-0.6307877459790748 -0.2951282813595051
-0.6307877459790748 -0.2223467195547241
-0.6307877459790748 -0.2951282813595051
-0.6172030287056397 -0.40430062406667666
-0.657957180525945 -0.40430062406667666
-0.6987113323462502 -0.3315190622618956
-0.657957180525945 -0.1859559386523336
-0.6036183114322047 -0.11317437684755256
-0.5492794423384644 -0.14956515774994308
-0.5628641596118995 -0.14956515774994308
-0.6036183114322047 -0.2587375004571146
-0.6172030287056397 -0.2223467195547241
-0.5900335941587695 -0.1859559386523336
-0.5628641596118995 -0.2223467195547241
-0.5900335941587695 -0.2587375004571146
-0.5900335941587695 -0.3315190622618956
-0.6172030287056397 -0.3315190622618956
-0.6443724632525099 -0.3315190622618956
-0.6443724632525099 -0.2223467195547241
-0.5628641596118995 -0.1859559386523336
-0.6036183114322047 -0.2587375004571146
-0.5628641596118995 -0.2951282813595051
-0.6036183114322047 -0.2951282813595051
-0.6307877459790748 -0.2587375004571146
-0.6172030287056397 -0.11317437684755256
-0.5900335941587695 -0.11317437684755256
-0.6036183114322047 -0.2223467195547241
-0.6307877459790748 -0.2951282813595051
-0.67154189779938 -0.44069140496906717
-0.6851266150728151 -0.4770821858714577
-0.6443724632525099 -0.3315190622618956
-0.6307877459790748 -0.2223467195547241
-0.6036183114322047 -0.2951282813595051
-0.6036183114322047 -0.44069140496906717
-0.67154189779938 -0.5134729667738481
-0.7122960496196853 -0.4770821858714577
-0.6987113323462502 -0.2587375004571146
-0.6172030287056397 -0.2223467195547241
-0.6172030287056397 -0.2587375004571146
-0.6307877459790748 -0.40430062406667666
-0.6851266150728151 -0.4770821858714577
-0.67154189779938 -0.3315190622618956
-0.657957180525945 -0.2951282813595051
-0.6307877459790748 -0.2587375004571146
-0.6307877459790748 -0.3315190622618956
-0.657957180525945 -0.2951282813595051
-0.6987113323462502 -0.44069140496906717
-0.7122960496196853 -0.2587375004571146
-0.7530502014399905 -0.2223467195547241
-0.6851266150728151 -0.11317437684755256
-0.67154189779938 -0.2587375004571146
-0.6987113323462502 -0.4770821858714577
-0.7122960496196853 -0.4770821858714577
-0.7258807668931203 -0.36790984316428615
-0.6851266150728151 -0.2587375004571146
-0.6307877459790748 -0.36790984316428615
-0.657957180525945 -0.5134729667738481
-0.657957180525945 -0.5498637476762387
-0.6987113323462502 -0.5862545285786291
-0.7122960496196853 -0.36790984316428615
-0.6987113323462502 -0.3315190622618956
-0.67154189779938 -0.3315190622618956
-0.6443724632525099 -0.36790984316428615
-0.6987113323462502 -0.44069140496906717
-0.7122960496196853 -0.4770821858714577
-0.7394654841665554 -0.5134729667738481
-0.6987113323462502 -0.2951282813595051
-0.657957180525945 -0.2951282813595051
-0.657957180525945 -0.3315190622618956
-0.67154189779938 -0.44069140496906717
-0.6851266150728151 -0.5134729667738481
-0.7258807668931203 -0.44069140496906717
-0.6987113323462502 -0.3315190622618956
-0.6443724632525099 -0.2223467195547241
-0.6851266150728151 -0.3315190622618956
-0.6851266150728151 -0.40430062406667666
-0.7530502014399905 -0.44069140496906717
-0.7530502014399905 -0.3315190622618956
-0.6987113323462502 -0.2223467195547241
-0.67154189779938 -0.2223467195547241
-0.6443724632525099 -0.2951282813595051
-0.6851266150728151 -0.40430062406667666
-0.7394654841665554 -0.4770821858714577
-0.6987113323462502 -0.36790984316428615
-0.6851266150728151 -0.2951282813595051
-0.657957180525945 -0.2951282813595051
-0.6443724632525099 -0.3315190622618956
-0.6443724632525099 -0.44069140496906717
-0.7122960496196853 -0.5134729667738481
-0.7666349187134256 -0.4770821858714577
-0.6987113323462502 -0.40430062406667666
-0.657957180525945 -0.3315190622618956
-0.6443724632525099 -0.2587375004571146
-0.657957180525945 -0.40430062406667666
-0.7258807668931203 -0.4770821858714577
-0.7394654841665554 -0.36790984316428615
-0.7530502014399905 -0.4770821858714577
-0.6851266150728151 -0.2951282813595051
-0.67154189779938 -0.3315190622618956
-0.6987113323462502 -0.36790984316428615
-0.7394654841665554 -0.5134729667738481
-0.7394654841665554 -0.5134729667738481
-0.7122960496196853 -0.40430062406667666
-0.657957180525945 -0.36790984316428615
-0.657957180525945 -0.2587375004571146
-0.657957180525945 -0.36790984316428615
-0.7122960496196853 -0.4770821858714577
-0.7122960496196853 -0.36790984316428615
-0.67154189779938 -0.36790984316428615
-0.6307877459790748 -0.2223467195547241
-0.6172030287056397 -0.3315190622618956
-0.67154189779938 -0.5498637476762387
-0.6987113323462502 -0.5862545285786291
-0.6851266150728151 -0.5862545285786291
-0.6307877459790748 -0.36790984316428615
-0.5900335941587695 -0.2223467195547241
-0.5764488768853345 -0.2223467195547241
-0.5764488768853345 -0.44069140496906717
-0.5764488768853345 -0.5498637476762387
-0.6036183114322047 -0.4770821858714577
-0.5492794423384644 -0.3315190622618956
-0.5492794423384644 -0.2587375004571146
-0.4541864214244189 -0.36790984316428615
-0.41343226960411367 -0.5134729667738481
-0.4541864214244189 -0.4770821858714577
-0.41343226960411367 -0.3315190622618956
-0.4406017041509838 -0.14956515774994308
-0.3319239659635032 0.06877952766439999
-0.291169814143198 -0.04039281504277154
-0.22324622777602263 -0.2223467195547241
-0.18249207595571743 -0.2587375004571146
-0.18249207595571743 -0.2587375004571146
-0.10098377231510697 -0.3315190622618956
-0.10098377231510697 -0.2951282813595051
-0.12815320686197712 -0.5134729667738481
-0.16890735868228235 -0.7318176521881912
-0.25041566232289275 -0.6590360903834102
-0.25041566232289275 -0.7318176521881912
-0.22324622777602263 -0.5498637476762387
-0.22324622777602263 -0.5134729667738481
-0.2640003795963278 -0.5134729667738481
-0.2640003795963278 -0.5862545285786291
-0.35909340051037336 -0.6954268712858007
-0.35909340051037336 -0.6954268712858007
-0.3862628350572435 -0.44069140496906717
-0.42701698687754874 -0.3315190622618956
-0.3998475523306786 -0.40430062406667666
-0.4541864214244189 -0.5134729667738481
-0.5085252905181592 -0.5498637476762387
-0.5356947250650294 -0.5498637476762387
-0.5221100077915942 -0.36790984316428615
-0.49494057324472407 -0.3315190622618956
-0.4541864214244189 -0.44069140496906717
-0.46777113869785397 -0.5134729667738481
-0.5221100077915942 -0.6590360903834102
-0.5221100077915942 -0.5862545285786291
-0.46777113869785397 -0.40430062406667666
-0.4541864214244189 -0.2951282813595051
-0.42701698687754874 -0.40430062406667666
-0.42701698687754874 -0.40430062406667666
-0.49494057324472407 -0.6226453094810197
-0.49494057324472407 -0.5862545285786291
-0.49494057324472407 -0.4770821858714577
-0.5356947250650294 -0.3315190622618956
-0.5356947250650294 -0.44069140496906717
-0.42701698687754874 -0.5498637476762387
-0.22324622777602263 -0.5862545285786291
0.19788000770046463 -0.5498637476762387
0.8091922850050429 -0.40430062406667666
1.583521169590842 -0.5862545285786291
2.2899264678094657 -0.9137715567001438
2.833315158746869 -1.0229438994073152
3.1729330905827458 -1.0229438994073152
3.3495344151374016 -0.8409899948953627
3.376703849684272 -0.6226453094810197
3.376703849684272 -0.5134729667738481
3.227271959676486 -0.4770821858714577
2.901238745114044 -0.4770821858714577
2.262757033262596 -0.7682084330905817
1.3389962586690107 -0.8773807757977533
0.33372718043481536 -1.0229438994073152
-0.2775850968697629 -1.1685070230168773
-0.35909340051037336 -1.4596332702360013
-0.30475453141663306 -1.787150298357516
-0.35909340051037336 -2.0418857646742494
-0.4406017041509838 -1.932713421967078
-0.5221100077915942 -1.714368736552735
-0.5085252905181592 -1.2776793657240488
-0.5492794423384644 -1.0229438994073152
-0.5764488768853345 -0.9137715567001438
-0.6307877459790748 -0.8045992139929723
-0.7394654841665554 -0.5498637476762387
-0.7394654841665554 -0.4770821858714577
-0.7394654841665554 -0.2951282813595051
-0.7258807668931203 -0.36790984316428615
-0.7666349187134256 -0.36790984316428615
-0.8209737878071658 -0.4770821858714577
-0.8481432223540359 -0.2951282813595051
-0.8481432223540359 -0.2587375004571146
-0.8073890705337308 -0.2587375004571146
-0.8209737878071658 -0.2223467195547241
-0.8345585050806009 -0.3315190622618956
-0.8753126569009061 -0.36790984316428615
-0.8617279396274711 -0.2951282813595051
-0.8345585050806009 -0.2587375004571146
-0.8345585050806009 -0.14956515774994308
-0.8345585050806009 -0.11317437684755256
-0.8481432223540359 -0.2587375004571146
-0.8753126569009061 -0.2951282813595051
-0.9024820914477762 -0.2587375004571146
-0.9296515259946464 -0.07678359594516206
-0.8617279396274711 -0.04039281504277154
-0.8481432223540359 -0.14956515774994308
-0.8345585050806009 -0.2951282813595051
-0.8617279396274711 -0.44069140496906717
-0.8888973741743412 -0.1859559386523336
-0.9024820914477762 -0.07678359594516206
-0.8345585050806009 -0.11317437684755256
-0.8209737878071658 -0.11317437684755256
-0.8345585050806009 -0.1859559386523336
-0.8481432223540359 -0.3315190622618956
-0.8345585050806009 -0.2223467195547241
-0.8345585050806009 -0.2587375004571146
-0.7938043532602957 -0.11317437684755256
-0.7530502014399905 -0.11317437684755256
-0.7802196359868606 -0.2223467195547241
-0.8073890705337308 -0.2951282813595051
-0.8209737878071658 -0.2951282813595051
-0.7666349187134256 -0.11317437684755256
-0.6987113323462502 -0.11317437684755256
-0.7394654841665554 -0.11317437684755256
-0.7394654841665554 -0.1859559386523336
-0.7530502014399905 -0.2951282813595051
-0.7394654841665554 -0.2587375004571146
-0.7394654841665554 -0.1859559386523336
-0.67154189779938 -0.07678359594516206
-0.6443724632525099 -0.1859559386523336
-0.6172030287056397 -0.36790984316428615
-0.6987113323462502 -0.3315190622618956
-0.657957180525945 -0.3315190622618956
-0.6307877459790748 -0.14956515774994308
-0.5628641596118995 -0.07678359594516206
-0.5492794423384644 -0.14956515774994308
-0.5628641596118995 -0.2223467195547241
-0.5900335941587695 -0.3315190622618956
-0.5492794423384644 -0.3315190622618956
-0.5492794423384644 -0.2223467195547241
-0.46777113869785397 -0.07678359594516206
-0.4406017041509838 -0.14956515774994308
-0.4406017041509838 -0.36790984316428615
-0.46777113869785397 -0.40430062406667666
-0.46777113869785397 -0.2951282813595051
-0.41343226960411367 -0.36790984316428615
-0.2775850968697629 -0.2951282813595051
-0.2640003795963278 -0.2951282813595051
-0.2368309450494577 -0.4770821858714577
-0.25041566232289275 -0.3315190622618956
-0.22324622777602263 -0.2951282813595051
-0.18249207595571743 -0.3315190622618956
-0.07381433776823683 -0.2587375004571146
-0.03306018594793161 -0.2951282813595051
-0.019475468674496538 -0.36790984316428615
0.00769396587237361 -0.4770821858714577
0.04844811769267883 -0.44069140496906717
0.1163717040598542 -0.40430062406667666
0.22504944224733478 -0.36790984316428615
0.27938831134107506 -0.44069140496906717
0.3065577458879452 -0.5498637476762387
0.33372718043481536 -0.6590360903834102
0.3608966149816855 -0.6954268712858007
0.455989635895731 -0.6226453094810197
0.5374979395363415 -0.4770821858714577
0.5918368086300817 -0.5134729667738481
0.632590960450387 -0.6226453094810197
0.646175677723822 -0.6590360903834102
0.7005145468175623 -0.6226453094810197
0.7684381331847377 -0.44069140496906717
0.7956075677316078 -0.40430062406667666
0.8907005886456534 -0.5862545285786291
0.8907005886456534 -0.6954268712858007
0.8499464368253481 -0.8773807757977533
0.8635311540987832 -0.8773807757977533
0.8907005886456534 -0.8045992139929723
0.9722088922862638 -0.6226453094810197
0.9586241750128287 -0.6226453094810197
0.9450394577393937 -0.6590360903834102
0.8907005886456534 -0.7682084330905817
0.8499464368253481 -0.7682084330905817
0.8771158713722182 -0.6954268712858007
0.8771158713722182 -0.5134729667738481
0.8363617195519131 -0.5862545285786291
0.7956075677316078 -0.6226453094810197
0.7140992640909974 -0.6954268712858007
0.6597603949972571 -0.7318176521881912
0.6190062431769519 -0.6226453094810197
0.6190062431769519 -0.5134729667738481
0.6054215259035168 -0.5498637476762387
0.5374979395363415 -0.5134729667738481
0.4288202013488609 -0.6590360903834102
0.33372718043481536 -0.6590360903834102
0.29297302861451013 -0.5134729667738481
0.27938831134107506 -0.4770821858714577
0.2114647249738997 -0.40430062406667666
0.15712585588015943 -0.5498637476762387
0.08920226951298404 -0.4770821858714577
0.00769396587237361 -0.5134729667738481
-0.005890751401061463 -0.36790984316428615
-0.005890751401061463 -0.3315190622618956
-0.0873990550416719 -0.3315190622618956
-0.1417379241354122 -0.40430062406667666
-0.20966151050258755 -0.40430062406667666
-0.2640003795963278 -0.40430062406667666
-0.2640003795963278 -0.2587375004571146
-0.291169814143198 -0.2223467195547241
-0.31833924869006813 -0.2951282813595051
-0.37267811778380844 -0.40430062406667666
-0.42701698687754874 -0.36790984316428615
-0.4541864214244189 -0.2951282813595051
-0.4541864214244189 -0.2223467195547241
-0.46777113869785397 -0.14956515774994308
-0.4406017041509838 -0.2587375004571146
-0.49494057324472407 -0.36790984316428615
-0.5356947250650294 -0.40430062406667666
-0.5764488768853345 -0.36790984316428615
-0.6036183114322047 -0.2587375004571146
-0.5900335941587695 -0.2223467195547241
-0.6307877459790748 -0.1859559386523336
-0.6307877459790748 -0.3315190622618956
-0.67154189779938 -0.2587375004571146
-0.7122960496196853 -0.36790984316428615
-0.6851266150728151 -0.2223467195547241
-0.67154189779938 -0.14956515774994308
-0.6987113323462502 -0.2223467195547241
-0.7530502014399905 -0.2587375004571146
-0.7802196359868606 -0.36790984316428615
-0.8481432223540359 -0.2951282813595051
-0.7666349187134256 -0.1859559386523336
-0.7394654841665554 -0.04039281504277154
-0.7394654841665554 -0.04039281504277154
-0.7802196359868606 -0.2223467195547241
-0.8209737878071658 -0.2951282813595051
-0.8617279396274711 -0.2587375004571146
-0.8209737878071658 -0.1859559386523336
-0.7802196359868606 -0.2587375004571146
-0.7666349187134256 -0.14956515774994308
-0.7938043532602957 -0.2587375004571146
-0.8345585050806009 -0.40430062406667666
-0.8345585050806009 -0.3315190622618956
-0.8073890705337308 -0.14956515774994308
-0.8073890705337308 -0.11317437684755256
-0.7530502014399905 -0.2223467195547241
-0.7938043532602957 -0.2951282813595051
-0.9024820914477762 -0.40430062406667666
-0.8753126569009061 -0.36790984316428615
-0.8345585050806009 -0.2223467195547241
-0.7802196359868606 -0.07678359594516206
-0.7802196359868606 -0.14956515774994308
-0.8073890705337308 -0.2587375004571146
-0.8073890705337308 -0.3315190622618956
-0.8209737878071658 -0.36790984316428615
-0.7666349187134256 -0.2951282813595051
-0.7802196359868606 -0.14956515774994308
-0.7394654841665554 -0.2587375004571146
-0.7394654841665554 -0.3315190622618956
-0.7666349187134256 -0.40430062406667666
-0.7666349187134256 -0.40430062406667666
-0.7394654841665554 -0.3315190622618956
-0.6851266150728151 -0.2223467195547241
-0.67154189779938 -0.3315190622618956
-0.6987113323462502 -0.40430062406667666
-0.7394654841665554 -0.5134729667738481
-0.7258807668931203 -0.3315190622618956
-0.6987113323462502 -0.1859559386523336
-0.6987113323462502 -0.1859559386523336
-0.67154189779938 -0.2587375004571146
-0.6443724632525099 -0.40430062406667666
-0.7122960496196853 -0.36790984316428615
-0.7122960496196853 -0.36790984316428615
-0.7394654841665554 -0.2951282813595051
-0.6443724632525099 -0.1859559386523336
-0.6443724632525099 -0.2587375004571146
-0.67154189779938 -0.2951282813595051
-0.6987113323462502 -0.4770821858714577
-0.7530502014399905 -0.44069140496906717
-0.7122960496196853 -0.3315190622618956
-0.67154189779938 -0.2587375004571146
-0.6443724632525099 -0.2951282813595051
-0.7122960496196853 -0.4770821858714577
-0.7258807668931203 -0.5498637476762387
-0.7394654841665554 -0.4770821858714577
-0.6987113323462502 -0.44069140496906717
-0.67154189779938 -0.36790984316428615
-0.67154189779938 -0.40430062406667666
-0.6851266150728151 -0.44069140496906717
-0.7258807668931203 -0.5862545285786291
-0.7394654841665554 -0.5498637476762387
-0.7122960496196853 -0.36790984316428615
-0.6987113323462502 -0.3315190622618956
-0.6851266150728151 -0.2951282813595051
-0.6987113323462502 -0.3315190622618956
-0.7394654841665554 -0.36790984316428615
-0.7530502014399905 -0.44069140496906717
-0.7394654841665554 -0.40430062406667666
-0.7122960496196853 -0.2587375004571146
-0.6851266150728151 -0.2951282813595051
-0.7666349187134256 -0.36790984316428615
-0.7802196359868606 -0.4770821858714577
-0.7802196359868606 -0.5134729667738481
-0.7666349187134256 -0.40430062406667666
-0.7258807668931203 -0.40430062406667666
-0.7258807668931203 -0.3315190622618956
-0.7394654841665554 -0.3315190622618956
-0.8073890705337308 -0.40430062406667666
-0.7938043532602957 -0.3315190622618956
-0.7666349187134256 -0.4770821858714577
-0.6987113323462502 -0.4770821858714577
-0.7394654841665554 -0.5134729667738481
-0.7530502014399905 -0.5498637476762387
-0.7938043532602957 -0.5862545285786291
-0.8073890705337308 -0.44069140496906717
-0.7802196359868606 -0.3315190622618956
-0.7938043532602957 -0.2951282813595051
-0.7666349187134256 -0.36790984316428615
-0.7666349187134256 -0.44069140496906717
-0.7938043532602957 -0.5134729667738481
-0.8209737878071658 -0.2951282813595051
-0.7666349187134256 -0.2587375004571146
-0.7666349187134256 -0.2587375004571146
-0.8073890705337308 -0.40430062406667666
-0.7938043532602957 -0.5134729667738481
-0.8345585050806009 -0.5498637476762387
-0.8073890705337308 -0.5134729667738481
-0.7938043532602957 -0.3315190622618956
-0.7394654841665554 -0.36790984316428615
-0.7802196359868606 -0.40430062406667666
-0.7258807668931203 -0.5134729667738481
-0.8073890705337308 -0.4770821858714577
-0.8481432223540359 -0.44069140496906717
-0.8073890705337308 -0.2951282813595051
-0.7802196359868606 -0.2951282813595051
-0.7666349187134256 -0.36790984316428615
-0.7666349187134256 -0.4770821858714577
-0.8481432223540359 -0.5862545285786291
-0.8073890705337308 -0.5498637476762387
-0.7938043532602957 -0.4770821858714577
-0.8073890705337308 -0.36790984316428615
-0.7802196359868606 -0.40430062406667666
-0.7802196359868606 -0.5862545285786291
-0.8617279396274711 -0.5498637476762387
-0.8888973741743412 -0.4770821858714577
-0.8888973741743412 -0.3315190622618956
-0.8073890705337308 -0.2587375004571146
-0.7802196359868606 -0.2951282813595051
-0.7938043532602957 -0.44069140496906717
-0.8481432223540359 -0.5862545285786291
-0.8345585050806009 -0.5862545285786291
-0.8481432223540359 -0.4770821858714577
-0.7938043532602957 -0.2951282813595051
-0.7938043532602957 -0.36790984316428615
-0.8073890705337308 -0.44069140496906717
-0.8345585050806009 -0.5498637476762387
-0.8345585050806009 -0.6590360903834102
-0.8345585050806009 -0.44069140496906717
-0.7938043532602957 -0.2223467195547241
-0.8073890705337308 -0.2587375004571146
-0.8481432223540359 -0.40430062406667666
-0.9024820914477762 -0.5134729667738481
-0.8617279396274711 -0.5134729667738481
-0.8209737878071658 -0.40430062406667666
-0.8209737878071658 -0.36790984316428615
-0.7802196359868606 -0.36790984316428615
-0.7802196359868606 -0.4770821858714577
-0.8345585050806009 -0.5862545285786291
-0.8481432223540359 -0.5134729667738481
-0.8345585050806009 -0.44069140496906717
-0.7666349187134256 -0.40430062406667666
-0.7530502014399905 -0.3315190622618956
-0.7666349187134256 -0.4770821858714577
-0.8073890705337308 -0.5498637476762387
-0.8073890705337308 -0.5498637476762387
-0.8209737878071658 -0.44069140496906717
-0.7666349187134256 -0.2951282813595051
-0.7394654841665554 -0.44069140496906717
-0.7666349187134256 -0.5498637476762387
-0.8209737878071658 -0.5134729667738481
-0.8481432223540359 -0.5498637476762387
-0.7666349187134256 -0.2951282813595051
-0.7258807668931203 -0.2951282813595051
-0.7122960496196853 -0.3315190622618956
-0.7258807668931203 -0.44069140496906717
-0.7258807668931203 -0.5498637476762387
-0.7802196359868606 -0.44069140496906717
-0.7666349187134256 -0.4770821858714577
-0.7258807668931203 -0.44069140496906717
-0.7394654841665554 -0.40430062406667666
-0.7530502014399905 -0.5498637476762387
-0.7530502014399905 -0.6226453094810197
-0.8209737878071658 -0.5498637476762387
-0.7258807668931203 -0.3315190622618956
-0.7122960496196853 -0.2951282813595051
-0.6987113323462502 -0.36790984316428615
-0.7122960496196853 -0.44069140496906717
-0.7530502014399905 -0.5862545285786291
-0.7802196359868606 -0.44069140496906717
-0.7394654841665554 -0.3315190622618956
-0.7122960496196853 -0.2951282813595051
-0.67154189779938 -0.3315190622618956
-0.7394654841665554 -0.5498637476762387
-0.7802196359868606 -0.5862545285786291
-0.7258807668931203 -0.6226453094810197
-0.6851266150728151 -0.4770821858714577
-0.6307877459790748 -0.40430062406667666
-0.6172030287056397 -0.44069140496906717
-0.6036183114322047 -0.5134729667738481
-0.6443724632525099 -0.5498637476762387
-0.5900335941587695 -0.6226453094810197
-0.5628641596118995 -0.40430062406667666
-0.46777113869785397 -0.3315190622618956
-0.42701698687754874 -0.40430062406667666
-0.42701698687754874 -0.44069140496906717
-0.4541864214244189 -0.44069140496906717
-0.41343226960411367 -0.2951282813595051
-0.3455086832369383 -0.14956515774994308
-0.25041566232289275 -0.2223467195547241
-0.1417379241354122 -0.40430062406667666
-0.1417379241354122 -0.5862545285786291
-0.16890735868228235 -0.7682084330905817
-0.22324622777602263 -0.8409899948953627
-0.22324622777602263 -0.6954268712858007
-0.22324622777602263 -0.6954268712858007
-0.2368309450494577 -0.7318176521881912
-0.2640003795963278 -0.7318176521881912
-0.2775850968697629 -0.8409899948953627
-0.3319239659635032 -0.7682084330905817
-0.3455086832369383 -0.7318176521881912
-0.3455086832369383 -0.6954268712858007
-0.35909340051037336 -0.7318176521881912
-0.42701698687754874 -0.6590360903834102
-0.49494057324472407 -0.6954268712858007
-0.5221100077915942 -0.6226453094810197
-0.49494057324472407 -0.5134729667738481
-0.5356947250650294 -0.44069140496906717
-0.5764488768853345 -0.40430062406667666
-0.6036183114322047 -0.5134729667738481
-0.6172030287056397 -0.6226453094810197
-0.6172030287056397 -0.5134729667738481
-0.5628641596118995 -0.44069140496906717
-0.5492794423384644 -0.36790984316428615
-0.5085252905181592 -0.5498637476762387
-0.5356947250650294 -0.5498637476762387
-0.5628641596118995 -0.7682084330905817
-0.5492794423384644 -0.6590360903834102
-0.5492794423384644 -0.5134729667738481
-0.5085252905181592 -0.44069140496906717
-0.49494057324472407 -0.4770821858714577
-0.5085252905181592 -0.6590360903834102
-0.5764488768853345 -0.6954268712858007
-0.6036183114322047 -0.7318176521881912
-0.6443724632525099 -0.6590360903834102
-0.6036183114322047 -0.5134729667738481
-0.3455086832369383 -0.5862545285786291
-0.07381433776823683 -0.6590360903834102
0.48315907044260115 -0.6590360903834102
1.2303185204815301 -0.8409899948953627
2.0046474050673293 -1.0229438994073152
2.6295443996453427 -1.0957254612120964
3.064255352395265 -1.1321162421144868
3.2680261114967912 -0.9865531185049248
3.3495344151374016 -0.8773807757977533
3.2680261114967912 -0.7318176521881912
3.1321789387624404 -0.6226453094810197
2.860484593293739 -0.5498637476762387
2.317095902356336 -0.5862545285786291
1.379750410489316 -0.9865531185049248
0.3065577458879452 -1.2776793657240488
-0.3862628350572435 -1.5324148320407824
-0.49494057324472407 -1.714368736552735
-0.3862628350572435 -1.787150298357516
-0.31833924869006813 -1.8963226410646876
-0.4406017041509838 -2.0418857646742494
-0.5492794423384644 -1.8963226410646876
-0.6172030287056397 -1.6779779556503445
-0.6307877459790748 -1.35046092752883
-0.6172030287056397 -1.0229438994073152
-0.6443724632525099 -0.8773807757977533
-0.67154189779938 -0.8409899948953627
-0.8073890705337308 -0.7318176521881912
-0.8345585050806009 -0.5862545285786291
-0.8073890705337308 -0.4770821858714577
-0.8209737878071658 -0.40430062406667666
-0.8209737878071658 -0.5134729667738481
-0.8753126569009061 -0.4770821858714577
-0.9024820914477762 -0.6590360903834102
-0.9160668087212114 -0.44069140496906717
-0.9432362432680815 -0.44069140496906717
-0.9160668087212114 -0.40430062406667666
-0.9160668087212114 -0.2951282813595051
-0.9432362432680815 -0.40430062406667666
-0.9975751123618218 -0.5134729667738481
-1.024744546908692 -0.40430062406667666
-0.9704056778149517 -0.2587375004571146
-0.9432362432680815 -0.2587375004571146
-0.9296515259946464 -0.3315190622618956
-0.9704056778149517 -0.36790984316428615
-0.9839903950883867 -0.4770821858714577
-1.0111598296352569 -0.44069140496906717
-0.9839903950883867 -0.2951282813595051
-0.9160668087212114 -0.2223467195547241
-0.9296515259946464 -0.2951282813595051
-0.9704056778149517 -0.40430062406667666
-0.9839903950883867 -0.5134729667738481
-0.9975751123618218 -0.40430062406667666
-1.0111598296352569 -0.3315190622618956
-0.9160668087212114 -0.2951282813595051
-0.9160668087212114 -0.3315190622618956
-0.9296515259946464 -0.4770821858714577
-0.9296515259946464 -0.4770821858714577
-0.9704056778149517 -0.40430062406667666
-0.9296515259946464 -0.2223467195547241
-0.8617279396274711 -0.1859559386523336
-0.8617279396274711 -0.2951282813595051
-0.8888973741743412 -0.44069140496906717
-0.9024820914477762 -0.5862545285786291
-0.9160668087212114 -0.5134729667738481
-0.8753126569009061 -0.44069140496906717
-0.8481432223540359 -0.2951282813595051
-0.8345585050806009 -0.36790984316428615
-0.8073890705337308 -0.5134729667738481
-0.8617279396274711 -0.5862545285786291
-0.8753126569009061 -0.5134729667738481
-0.8481432223540359 -0.40430062406667666
-0.7530502014399905 -0.2951282813595051
-0.7258807668931203 -0.2951282813595051
-0.7530502014399905 -0.44069140496906717
-0.7802196359868606 -0.6226453094810197
-0.7530502014399905 -0.5134729667738481
-0.7122960496196853 -0.5134729667738481
-0.6443724632525099 -0.36790984316428615
-0.657957180525945 -0.44069140496906717
-0.6851266150728151 -0.5498637476762387
-0.657957180525945 -0.5862545285786291
-0.6443724632525099 -0.44069140496906717
-0.6307877459790748 -0.44069140496906717
-0.5628641596118995 -0.2223467195547241
-0.5085252905181592 -0.2951282813595051
-0.49494057324472407 -0.5134729667738481
-0.5085252905181592 -0.6954268712858007
-0.5356947250650294 -0.6226453094810197
-0.4406017041509838 -0.5862545285786291
-0.35909340051037336 -0.5134729667738481
-0.291169814143198 -0.5134729667738481
-0.291169814143198 -0.7318176521881912
-0.30475453141663306 -0.7682084330905817
-0.2775850968697629 -0.8409899948953627
-0.15532264140884727 -0.6226453094810197
-0.0873990550416719 -0.44069140496906717
-0.019475468674496538 -0.5862545285786291
-0.005890751401061463 -0.7318176521881912
0.021278683145808684 -0.8773807757977533
0.021278683145808684 -0.8409899948953627
0.10278698678641912 -0.7318176521881912
0.2522188767942049 -0.7318176521881912
0.3201424631613803 -0.8409899948953627
0.34731189770825044 -1.0229438994073152
0.3744813322551206 -1.0229438994073152
0.4288202013488609 -0.9865531185049248
0.4967437877160362 -0.8409899948953627
0.5782520913566467 -0.8773807757977533
0.6597603949972571 -0.9501623376025343
0.6869298295441273 -0.9501623376025343
0.7140992640909974 -0.9865531185049248
0.7276839813644325 -0.9865531185049248
0.7684381331847377 -0.9501623376025343
0.8227770022784779 -0.8773807757977533
0.8771158713722182 -0.9137715567001438
0.8771158713722182 -1.059334680309706
0.7956075677316078 -1.1321162421144868
0.8091922850050429 -1.0957254612120964
0.8635311540987832 -0.9501623376025343
0.8907005886456534 -0.8409899948953627
0.8499464368253481 -0.8409899948953627
0.8363617195519131 -1.0229438994073152
0.7412686986378676 -0.9865531185049248
0.6733451122706922 -0.9137715567001438
0.6869298295441273 -0.9137715567001438
0.6733451122706922 -0.7682084330905817
0.632590960450387 -0.8409899948953627
0.5646673740832115 -0.9865531185049248
0.46957435316916607 -0.9501623376025343
0.40165076680199074 -0.8409899948953627
0.3744813322551206 -0.6954268712858007
0.34731189770825044 -0.5862545285786291
0.27938831134107506 -0.6590360903834102
0.19788000770046463 -0.7318176521881912
0.1163717040598542 -0.8409899948953627
0.07561755223954897 -0.8045992139929723
0.034863400419243754 -0.5498637476762387
0.00769396587237361 -0.5498637476762387
-0.005890751401061463 -0.4770821858714577
-0.0873990550416719 -0.5862545285786291
-0.1417379241354122 -0.6590360903834102
-0.22324622777602263 -0.6590360903834102
-0.20966151050258755 -0.5134729667738481
-0.2368309450494577 -0.40430062406667666
-0.2640003795963278 -0.5134729667738481
-0.291169814143198 -0.6226453094810197
-0.3862628350572435 -0.6954268712858007
-0.42701698687754874 -0.6590360903834102
-0.42701698687754874 -0.40430062406667666
-0.42701698687754874 -0.3315190622618956
-0.46777113869785397 -0.44069140496906717
-0.46777113869785397 -0.4770821858714577
-0.5221100077915942 -0.6226453094810197
-0.5764488768853345 -0.5498637476762387
-0.5900335941587695 -0.5498637476762387
-0.5764488768853345 -0.40430062406667666
-0.5492794423384644 -0.44069140496906717
-0.6307877459790748 -0.5498637476762387
-0.67154189779938 -0.6226453094810197
-0.6987113323462502 -0.4770821858714577
-0.6851266150728151 -0.40430062406667666
-0.67154189779938 -0.2951282813595051
-0.6307877459790748 -0.36790984316428615
-0.67154189779938 -0.4770821858714577
-0.7394654841665554 -0.5498637476762387
-0.7394654841665554 -0.5134729667738481
-0.7530502014399905 -0.5498637476762387
-0.7122960496196853 -0.36790984316428615
-0.7258807668931203 -0.36790984316428615
-0.6987113323462502 -0.5134729667738481
-0.7666349187134256 -0.6226453094810197
-0.7938043532602957 -0.5862545285786291
-0.7802196359868606 -0.4770821858714577
-0.7666349187134256 -0.2587375004571146
-0.7258807668931203 -0.3315190622618956
-0.7530502014399905 -0.3315190622618956
-0.8073890705337308 -0.40430062406667666
-0.7802196359868606 -0.40430062406667666
-0.7666349187134256 -0.36790984316428615
-0.7258807668931203 -0.2951282813595051
-0.6851266150728151 -0.40430062406667666
-0.7258807668931203 -0.5134729667738481
-0.7802196359868606 -0.5498637476762387
-0.7802196359868606 -0.5862545285786291
-0.7938043532602957 -0.5134729667738481
-0.7666349187134256 -0.44069140496906717
-0.7394654841665554 -0.5134729667738481
-0.7394654841665554 -0.4770821858714577
-0.7530502014399905 -0.5862545285786291
-0.7938043532602957 -0.44069140496906717
-0.7394654841665554 -0.2951282813595051
-0.6987113323462502 -0.2587375004571146
-0.7122960496196853 -0.2951282813595051
-0.6987113323462502 -0.4770821858714577
-0.7258807668931203 -0.5862545285786291
-0.7530502014399905 -0.6226453094810197
-0.7802196359868606 -0.6226453094810197
-0.67154189779938 -0.5498637476762387
-0.657957180525945 -0.5134729667738481
-0.67154189779938 -0.5862545285786291
-0.7122960496196853 -0.5498637476762387
-0.7258807668931203 -0.5498637476762387
-0.7394654841665554 -0.40430062406667666
-0.7122960496196853 -0.3315190622618956
-0.657957180525945 -0.40430062406667666
-0.6851266150728151 -0.5862545285786291
-0.6987113323462502 -0.6590360903834102
-0.7530502014399905 -0.6226453094810197
-0.7258807668931203 -0.5134729667738481
-0.67154189779938 -0.5862545285786291
-0.6307877459790748 -0.5134729667738481
-0.6851266150728151 -0.5498637476762387
-0.7122960496196853 -0.5862545285786291
-0.7394654841665554 -0.6226453094810197
-0.7394654841665554 -0.5862545285786291
-0.6987113323462502 -0.4770821858714577
-0.6443724632525099 -0.4770821858714577
-0.6987113323462502 -0.40430062406667666
-0.7394654841665554 -0.5134729667738481
-0.7802196359868606 -0.5862545285786291
-0.7530502014399905 -0.5498637476762387
-0.7122960496196853 -0.40430062406667666
-0.7122960496196853 -0.5498637476762387
-0.7258807668931203 -0.6590360903834102
-0.7666349187134256 -0.6954268712858007
-0.8073890705337308 -0.6590360903834102
-0.7530502014399905 -0.5498637476762387
-0.7666349187134256 -0.4770821858714577
-0.7394654841665554 -0.40430062406667666
-0.7530502014399905 -0.6226453094810197
-0.7802196359868606 -0.6954268712858007
-0.8073890705337308 -0.6590360903834102
-0.8073890705337308 -0.6226453094810197
-0.7666349187134256 -0.4770821858714577
-0.7394654841665554 -0.4770821858714577
-0.8073890705337308 -0.4770821858714577
-0.8345585050806009 -0.5862545285786291
-0.8617279396274711 -0.5862545285786291
-0.8481432223540359 -0.4770821858714577
-0.8209737878071658 -0.4770821858714577
-0.7938043532602957 -0.44069140496906717
-0.7666349187134256 -0.5498637476762387
-0.8209737878071658 -0.5862545285786291
-0.8481432223540359 -0.44069140496906717
-0.8345585050806009 -0.44069140496906717
-0.8073890705337308 -0.44069140496906717
-0.8481432223540359 -0.5134729667738481
-0.8209737878071658 -0.6226453094810197
-0.8481432223540359 -0.6954268712858007
-0.8481432223540359 -0.5862545285786291
-0.8617279396274711 -0.5134729667738481
-0.7938043532602957 -0.40430062406667666
-0.7938043532602957 -0.36790984316428615
-0.8209737878071658 -0.4770821858714577
-0.8481432223540359 -0.40430062406667666
-0.8888973741743412 -0.5134729667738481
-0.8345585050806009 -0.44069140496906717
-0.8073890705337308 -0.5134729667738481
-0.8345585050806009 -0.5498637476762387
-0.8209737878071658 -0.6226453094810197
-0.9024820914477762 -0.6590360903834102
-0.8888973741743412 -0.5498637476762387
-0.8888973741743412 -0.44069140496906717
-0.8345585050806009 -0.36790984316428615
-0.8073890705337308 -0.40430062406667666
-0.8209737878071658 -0.44069140496906717
-0.8617279396274711 -0.36790984316428615
-0.8753126569009061 -0.40430062406667666
-0.8481432223540359 -0.36790984316428615
-0.8345585050806009 -0.36790984316428615
-0.8073890705337308 -0.44069140496906717
-0.8345585050806009 -0.5862545285786291
-0.8753126569009061 -0.6954268712858007
-0.9160668087212114 -0.5862545285786291
-0.8888973741743412 -0.5498637476762387
-0.8481432223540359 -0.4770821858714577
-0.8345585050806009 -0.5134729667738481
-0.8617279396274711 -0.5498637476762387
-0.9160668087212114 -0.5498637476762387
-0.9024820914477762 -0.4770821858714577
-0.8753126569009061 -0.40430062406667666
-0.8345585050806009 -0.36790984316428615
-0.8345585050806009 -0.3315190622618956
-0.8209737878071658 -0.44069140496906717
-0.8753126569009061 -0.5134729667738481
-0.9024820914477762 -0.6590360903834102
-0.9024820914477762 -0.6226453094810197
-0.8481432223540359 -0.5134729667738481
-0.8073890705337308 -0.5134729667738481
-0.8753126569009061 -0.5862545285786291
-0.8888973741743412 -0.6226453094810197
-0.8888973741743412 -0.44069140496906717
-0.8753126569009061 -0.40430062406667666
-0.8617279396274711 -0.2951282813595051
-0.8345585050806009 -0.44069140496906717
-0.8888973741743412 -0.4770821858714577
-0.8617279396274711 -0.5862545285786291
-0.9024820914477762 -0.5862545285786291
-0.8481432223540359 -0.5134729667738481
-0.8481432223540359 -0.36790984316428615
-0.8073890705337308 -0.3315190622618956
-0.8345585050806009 -0.4770821858714577
-0.8753126569009061 -0.5498637476762387
-0.9160668087212114 -0.4770821858714577
-0.8753126569009061 -0.3315190622618956
-0.8753126569009061 -0.3315190622618956
-0.8481432223540359 -0.2223467195547241
-0.8753126569009061 -0.3315190622618956
-0.8753126569009061 -0.5498637476762387
-0.9024820914477762 -0.5498637476762387
-0.8753126569009061 -0.4770821858714577
-0.8209737878071658 -0.2951282813595051
-0.8481432223540359 -0.3315190622618956
-0.8345585050806009 -0.5498637476762387
-0.8888973741743412 -0.5498637476762387
-0.9024820914477762 -0.4770821858714577
-0.8617279396274711 -0.36790984316428615
-0.8481432223540359 -0.2587375004571146
-0.8073890705337308 -0.36790984316428615
-0.8481432223540359 -0.5134729667738481
-0.8888973741743412 -0.5134729667738481
-0.8888973741743412 -0.5498637476762387
-0.8617279396274711 -0.36790984316428615
-0.8209737878071658 -0.36790984316428615
-0.7938043532602957 -0.40430062406667666
-0.8209737878071658 -0.5134729667738481
-0.8481432223540359 -0.6226453094810197
-0.8481432223540359 -0.5498637476762387
-0.8617279396274711 -0.4770821858714577
-0.8209737878071658 -0.4770821858714577
-0.8209737878071658 -0.44069140496906717
-0.8073890705337308 -0.36790984316428615
-0.8073890705337308 -0.5134729667738481
-0.8209737878071658 -0.4770821858714577
-0.7802196359868606 -0.4770821858714577
-0.7666349187134256 -0.44069140496906717
-0.7394654841665554 -0.36790984316428615
-0.7666349187134256 -0.44069140496906717
-0.8073890705337308 -0.4770821858714577
-0.7938043532602957 -0.44069140496906717
-0.7938043532602957 -0.36790984316428615
-0.7666349187134256 -0.3315190622618956
-0.6987113323462502 -0.44069140496906717
-0.7122960496196853 -0.44069140496906717
-0.7802196359868606 -0.4770821858714577
-0.7530502014399905 -0.4770821858714577
-0.7122960496196853 -0.2951282813595051
-0.7122960496196853 -0.36790984316428615
-0.6443724632525099 -0.40430062406667666
-0.6172030287056397 -0.4770821858714577
-0.6443724632525099 -0.4770821858714577
-0.6443724632525099 -0.40430062406667666
-0.6307877459790748 -0.3315190622618956
-0.5628641596118995 -0.1859559386523336
-0.46777113869785397 -0.2587375004571146
-0.4541864214244189 -0.36790984316428615
-0.42701698687754874 -0.2951282813595051
-0.42701698687754874 -0.2223467195547241
-0.3862628350572435 -0.14956515774994308
-0.31833924869006813 -0.07678359594516206
-0.2775850968697629 -0.1859559386523336
-0.19607679322915247 -0.2587375004571146
-0.16890735868228235 -0.4770821858714577
-0.18249207595571743 -0.6590360903834102
-0.15532264140884727 -0.7318176521881912
-0.18249207595571743 -0.7682084330905817
-0.16890735868228235 -0.6954268712858007
-0.20966151050258755 -0.6954268712858007
-0.30475453141663306 -0.5862545285786291
-0.31833924869006813 -0.5498637476762387
-0.2775850968697629 -0.44069140496906717
-0.31833924869006813 -0.40430062406667666
-0.291169814143198 -0.4770821858714577
-0.3319239659635032 -0.6954268712858007
-0.41343226960411367 -0.6954268712858007
-0.49494057324472407 -0.6226453094810197
-0.5085252905181592 -0.5134729667738481
-0.46777113869785397 -0.40430062406667666
-0.49494057324472407 -0.40430062406667666
-0.5085252905181592 -0.40430062406667666
-0.5900335941587695 -0.36790984316428615
-0.6036183114322047 -0.2223467195547241
-0.6172030287056397 -0.14956515774994308
-0.5492794423384644 -0.11317437684755256
-0.5356947250650294 -0.2223467195547241
-0.5764488768853345 -0.3315190622618956
-0.5900335941587695 -0.2587375004571146
-0.5900335941587695 -0.36790984316428615
-0.6172030287056397 -0.2951282813595051
-0.5628641596118995 -0.2951282813595051
-0.5221100077915942 -0.36790984316428615
-0.5492794423384644 -0.4770821858714577
-0.6036183114322047 -0.44069140496906717
-0.5764488768853345 -0.36790984316428615
-0.5628641596118995 -0.2587375004571146
-0.5900335941587695 -0.14956515774994308
-0.5900335941587695 -0.2951282813595051
-0.6307877459790748 -0.40430062406667666
-0.5492794423384644 -0.5862545285786291
-0.25041566232289275 -0.6954268712858007
0.23863415952076986 -0.5498637476762387
0.9314547404659586 -0.6590360903834102
1.7057836250517577 -1.0229438994073152
2.3578500541766414 -1.3868517084312204
2.860484593293739 -1.496024051138392
3.2001025251296156 -1.0229438994073152
3.376703849684272 -0.5862545285786291
3.444627436051447 -0.2951282813595051
3.3359496978639664 -0.14956515774994308
3.1729330905827458 -0.004002034140381034
2.846899876020304 -0.004002034140381034
2.262757033262596 -0.004002034140381034
1.393335127762751 -0.04039281504277154
0.40165076680199074 -0.2587375004571146
-0.31833924869006813 -0.6954268712858007
-0.5221100077915942 -1.1321162421144868
-0.46777113869785397 -1.6779779556503445
-0.4406017041509838 -1.9691042028694685
-0.46777113869785397 -2.005494983771859
-0.5085252905181592 -1.8235410792599065
-0.5492794423384644 -1.6779779556503445
-0.5764488768853345 -1.4596332702360013
-0.67154189779938 -1.1685070230168773
-0.7258807668931203 -0.8409899948953627
-0.7258807668931203 -0.40430062406667666
-0.7394654841665554 -0.2223467195547241
-0.7394654841665554 -0.3315190622618956
-0.8073890705337308 -0.40430062406667666
-0.8888973741743412 -0.5134729667738481
-0.9296515259946464 -0.36790984316428615
-0.9024820914477762 -0.1859559386523336
-0.8481432223540359 -0.11317437684755256
-0.8481432223540359 -0.1859559386523336
-0.9160668087212114 -0.2587375004571146
-0.9704056778149517 -0.2587375004571146
-1.0383292641821271 -0.1859559386523336
-0.9432362432680815 0.03238874676200947
-0.9432362432680815 -0.04039281504277154
-0.9432362432680815 -0.11317437684755256
-0.9568209605415166 -0.2587375004571146
-0.9975751123618218 -0.2587375004571146
-1.0111598296352569 -0.2223467195547241
-0.9704056778149517 -0.07678359594516206
-0.9432362432680815 -0.04039281504277154
-0.9160668087212114 -0.07678359594516206
-0.9432362432680815 -0.14956515774994308
-0.9975751123618218 -0.2223467195547241
-1.024744546908692 -0.2223467195547241
-0.9839903950883867 -0.04039281504277154
-0.9704056778149517 0.03238874676200947
-0.9432362432680815 0.03238874676200947
-0.9704056778149517 -0.07678359594516206
-0.9704056778149517 -0.1859559386523336
-0.9704056778149517 -0.1859559386523336
-0.9568209605415166 -0.11317437684755256
-0.9704056778149517 -0.11317437684755256
-0.9024820914477762 -0.07678359594516206
-0.8753126569009061 -0.1859559386523336
-0.9568209605415166 -0.2223467195547241
-0.9839903950883867 -0.3315190622618956
-0.9296515259946464 -0.14956515774994308
-0.9160668087212114 -0.004002034140381034
-0.8888973741743412 -0.04039281504277154
-0.8888973741743412 -0.14956515774994308
-0.9160668087212114 -0.2587375004571146
-0.9024820914477762 -0.2951282813595051
-0.8617279396274711 -0.2223467195547241
-0.8617279396274711 -0.14956515774994308
-0.8345585050806009 -0.14956515774994308
-0.8481432223540359 -0.1859559386523336
-0.8481432223540359 -0.2587375004571146
-0.8753126569009061 -0.3315190622618956
-0.8209737878071658 -0.2587375004571146
-0.7394654841665554 -0.1859559386523336
-0.7530502014399905 -0.14956515774994308
-0.7530502014399905 -0.1859559386523336
-0.7394654841665554 -0.2951282813595051
-0.7802196359868606 -0.3315190622618956
-0.7394654841665554 -0.3315190622618956
-0.657957180525945 -0.3315190622618956
-0.657957180525945 -0.3315190622618956
-0.6307877459790748 -0.36790984316428615
-0.6443724632525099 -0.4770821858714577
-0.6307877459790748 -0.36790984316428615
-0.5900335941587695 -0.2951282813595051
-0.5085252905181592 -0.2951282813595051
-0.46777113869785397 -0.2223467195547241
-0.4406017041509838 -0.3315190622618956
-0.4541864214244189 -0.36790984316428615
-0.4406017041509838 -0.40430062406667666
-0.3862628350572435 -0.3315190622618956
-0.30475453141663306 -0.2951282813595051
-0.2640003795963278 -0.2587375004571146
-0.20966151050258755 -0.40430062406667666
-0.2368309450494577 -0.44069140496906717
-0.20966151050258755 -0.5134729667738481
-0.15532264140884727 -0.5862545285786291
-0.005890751401061463 -0.4770821858714577
0.04844811769267883 -0.5862545285786291
0.07561755223954897 -0.6590360903834102
0.08920226951298404 -0.6954268712858007
0.10278698678641912 -0.6590360903834102
0.22504944224733478 -0.5862545285786291
0.33372718043481536 -0.4770821858714577
0.38806604952855567 -0.6590360903834102
0.4424049186222959 -0.6226453094810197
0.455989635895731 -0.7682084330905817
0.5103285049894714 -0.8045992139929723
0.5239132222629064 -0.8045992139929723
0.632590960450387 -0.7318176521881912
0.6733451122706922 -0.8045992139929723
0.7548534159113026 -0.8045992139929723
0.7548534159113026 -0.9137715567001438
0.7820228504581728 -0.8773807757977533
0.7956075677316078 -0.8409899948953627
0.8635311540987832 -0.8045992139929723
0.9314547404659586 -0.8773807757977533
0.9042853059190884 -0.8773807757977533
0.8907005886456534 -1.0229438994073152
0.8771158713722182 -0.9501623376025343
0.8363617195519131 -0.8409899948953627
0.9042853059190884 -0.8045992139929723
0.9042853059190884 -0.8409899948953627
0.8771158713722182 -0.8773807757977533
0.7684381331847377 -0.7682084330905817
0.7140992640909974 -0.7682084330905817
0.6869298295441273 -0.6590360903834102
0.7005145468175623 -0.5862545285786291
0.646175677723822 -0.6590360903834102
0.5918368086300817 -0.6226453094810197
0.48315907044260115 -0.6590360903834102
0.4288202013488609 -0.6226453094810197
0.3744813322551206 -0.4770821858714577
0.3744813322551206 -0.40430062406667666
0.3201424631613803 -0.5498637476762387
0.26580359406764 -0.5134729667738481
0.1163717040598542 -0.5498637476762387
0.04844811769267883 -0.5862545285786291
0.034863400419243754 -0.44069140496906717
0.00769396587237361 -0.3315190622618956
-0.019475468674496538 -0.44069140496906717
-0.07381433776823683 -0.4770821858714577
-0.15532264140884727 -0.44069140496906717
-0.22324622777602263 -0.40430062406667666
-0.25041566232289275 -0.40430062406667666
-0.2640003795963278 -0.3315190622618956
-0.291169814143198 -0.40430062406667666
-0.3319239659635032 -0.4770821858714577
-0.4541864214244189 -0.5134729667738481
-0.4541864214244189 -0.4770821858714577
-0.46777113869785397 -0.40430062406667666
-0.46777113869785397 -0.2223467195547241
-0.481355855971289 -0.3315190622618956
-0.49494057324472407 -0.3315190622618956
-0.5764488768853345 -0.2951282813595051
-0.6036183114322047 -0.2951282813595051
-0.6172030287056397 -0.2587375004571146
-0.6172030287056397 -0.1859559386523336
-0.6172030287056397 -0.2951282813595051
-0.67154189779938 -0.2951282813595051
-0.6987113323462502 -0.3315190622618956
-0.7394654841665554 -0.2587375004571146
-0.7394654841665554 -0.2587375004571146
-0.7122960496196853 -0.14956515774994308
-0.7258807668931203 -0.14956515774994308
-0.7394654841665554 -0.2587375004571146
-0.7666349187134256 -0.3315190622618956
-0.7938043532602957 -0.2951282813595051
-0.7938043532602957 -0.11317437684755256
-0.7938043532602957 -0.14956515774994308
-0.7394654841665554 -0.1859559386523336
-0.7802196359868606 -0.2587375004571146
-0.8073890705337308 -0.36790984316428615
-0.8345585050806009 -0.3315190622618956
-0.8209737878071658 -0.1859559386523336
-0.7938043532602957 -0.1859559386523336
-0.7938043532602957 -0.11317437684755256
-0.7938043532602957 -0.2223467195547241
-0.8345585050806009 -0.2587375004571146
-0.8345585050806009 -0.2223467195547241
-0.8209737878071658 -0.14956515774994308
-0.7938043532602957 -0.11317437684755256
-0.7802196359868606 -0.07678359594516206
-0.7802196359868606 -0.1859559386523336
-0.8209737878071658 -0.3315190622618956
-0.8073890705337308 -0.3315190622618956
-0.8209737878071658 -0.3315190622618956
-0.7802196359868606 -0.2587375004571146
-0.7394654841665554 -0.3315190622618956
-0.7530502014399905 -0.3315190622618956
-0.7802196359868606 -0.40430062406667666
-0.7802196359868606 -0.36790984316428615
-0.7530502014399905 -0.2223467195547241
-0.7122960496196853 -0.14956515774994308
-0.6987113323462502 -0.2223467195547241
-0.6851266150728151 -0.2587375004571146
-0.7530502014399905 -0.3315190622618956
-0.6987113323462502 -0.3315190622618956
-0.6851266150728151 -0.2587375004571146
-0.67154189779938 -0.14956515774994308
-0.6172030287056397 -0.2223467195547241
-0.6443724632525099 -0.36790984316428615
-0.657957180525945 -0.3315190622618956
-0.6987113323462502 -0.2951282813595051
-0.6851266150728151 -0.2587375004571146
-0.67154189779938 -0.07678359594516206
-0.6443724632525099 -0.2223467195547241
-0.6307877459790748 -0.2587375004571146
-0.6987113323462502 -0.40430062406667666
-0.7394654841665554 -0.2951282813595051
-0.7394654841665554 -0.1859559386523336
-0.657957180525945 -0.14956515774994308
-0.6851266150728151 -0.2587375004571146
-0.67154189779938 -0.3315190622618956
-0.7122960496196853 -0.4770821858714577
-0.7530502014399905 -0.3315190622618956
-0.7258807668931203 -0.14956515774994308
-0.7122960496196853 -0.14956515774994308
-0.6987113323462502 -0.3315190622618956
-0.657957180525945 -0.44069140496906717
-0.7122960496196853 -0.5134729667738481
-0.7666349187134256 -0.44069140496906717
-0.7394654841665554 -0.2223467195547241
-0.67154189779938 -0.2223467195547241
-0.657957180525945 -0.2587375004571146
-0.6987113323462502 -0.4770821858714577
-0.7530502014399905 -0.40430062406667666
-0.7530502014399905 -0.44069140496906717
-0.7530502014399905 -0.36790984316428615
-0.7122960496196853 -0.2587375004571146
-0.7258807668931203 -0.2587375004571146
-0.6851266150728151 -0.40430062406667666
-0.7802196359868606 -0.40430062406667666
-0.7802196359868606 -0.40430062406667666
-0.7530502014399905 -0.2587375004571146
-0.7258807668931203 -0.1859559386523336
-0.7122960496196853 -0.3315190622618956
-0.7394654841665554 -0.40430062406667666
-0.8073890705337308 -0.4770821858714577
-0.7938043532602957 -0.40430062406667666
-0.7530502014399905 -0.3315190622618956
-0.7530502014399905 -0.2223467195547241
-0.7122960496196853 -0.2951282813595051
-0.7394654841665554 -0.40430062406667666
-0.7938043532602957 -0.44069140496906717
-0.8073890705337308 -0.2223467195547241
-0.7938043532602957 -0.14956515774994308
-0.7394654841665554 -0.11317437684755256
-0.6987113323462502 -0.2223467195547241
-0.7802196359868606 -0.2587375004571146
-0.8345585050806009 -0.40430062406667666
-0.8209737878071658 -0.40430062406667666
-0.7938043532602957 -0.2951282813595051
-0.7666349187134256 -0.1859559386523336
-0.7530502014399905 -0.2587375004571146
-0.7938043532602957 -0.40430062406667666
-0.8345585050806009 -0.5134729667738481
-0.8617279396274711 -0.36790984316428615
-0.8073890705337308 -0.3315190622618956
-0.7666349187134256 -0.2223467195547241
-0.7802196359868606 -0.2223467195547241
-0.7938043532602957 -0.40430062406667666
-0.7938043532602957 -0.44069140496906717
-0.7938043532602957 -0.36790984316428615
-0.7938043532602957 -0.2587375004571146
-0.7802196359868606 -0.14956515774994308
-0.7666349187134256 -0.2587375004571146
-0.7666349187134256 -0.36790984316428615
-0.8073890705337308 -0.36790984316428615
-0.8209737878071658 -0.3315190622618956
-0.8209737878071658 -0.2587375004571146
-0.7938043532602957 -0.14956515774994308
-0.7394654841665554 -0.2587375004571146
-0.7394654841665554 -0.2223467195547241
-0.7938043532602957 -0.2951282813595051
-0.7802196359868606 -0.2951282813595051
-0.7802196359868606 -0.3315190622618956
-0.7258807668931203 -0.3315190622618956
-0.7122960496196853 -0.36790984316428615
-0.7666349187134256 -0.44069140496906717
-0.8209737878071658 -0.40430062406667666
-0.8345585050806009 -0.2951282813595051
-0.7938043532602957 -0.3315190622618956
-0.7122960496196853 -0.1859559386523336
-0.67154189779938 -0.2223467195547241
-0.7258807668931203 -0.2587375004571146
-0.7666349187134256 -0.36790984316428615
-0.7802196359868606 -0.2587375004571146
-0.7530502014399905 -0.3315190622618956
-0.67154189779938 -0.2223467195547241
-0.6987113323462502 -0.40430062406667666
-0.67154189779938 -0.2951282813595051
-0.7530502014399905 -0.2587375004571146
-0.7394654841665554 -0.3315190622618956
-0.7394654841665554 -0.36790984316428615
-0.6851266150728151 -0.1859559386523336
-0.6307877459790748 -0.14956515774994308
-0.6987113323462502 -0.2223467195547241
-0.7258807668931203 -0.3315190622618956
-0.7666349187134256 -0.40430062406667666
-0.7394654841665554 -0.4770821858714577
-0.7122960496196853 -0.2951282813595051
-0.6987113323462502 -0.3315190622618956
-0.6987113323462502 -0.36790984316428615
-0.7394654841665554 -0.44069140496906717
-0.7666349187134256 -0.40430062406667666
-0.7530502014399905 -0.3315190622618956
-0.7122960496196853 -0.2951282813595051
-0.6443724632525099 -0.2951282813595051
-0.657957180525945 -0.2951282813595051
-0.7122960496196853 -0.2951282813595051
-0.7258807668931203 -0.36790984316428615
-0.6851266150728151 -0.3315190622618956
-0.657957180525945 -0.2951282813595051
-0.6307877459790748 -0.40430062406667666
-0.6443724632525099 -0.40430062406667666
-0.67154189779938 -0.44069140496906717
-0.6987113323462502 -0.44069140496906717
-0.6851266150728151 -0.2951282813595051
-0.6307877459790748 -0.1859559386523336
-0.6172030287056397 -0.2951282813595051
-0.6172030287056397 -0.2587375004571146
-0.657957180525945 -0.36790984316428615
-0.6851266150728151 -0.2951282813595051
-0.6851266150728151 -0.3315190622618956
-0.657957180525945 -0.2951282813595051
-0.5900335941587695 -0.36790984316428615
-0.6307877459790748 -0.40430062406667666
-0.657957180525945 -0.40430062406667666
-0.7122960496196853 -0.40430062406667666
-0.657957180525945 -0.3315190622618956
-0.657957180525945 -0.2223467195547241
-0.67154189779938 -0.2223467195547241
-0.657957180525945 -0.2951282813595051
-0.7122960496196853 -0.2951282813595051
-0.6851266150728151 -0.2951282813595051
-0.6443724632525099 -0.2223467195547241
-0.5764488768853345 -0.2587375004571146
-0.5492794423384644 -0.44069140496906717
-0.6036183114322047 -0.44069140496906717
-0.5900335941587695 -0.40430062406667666
-0.6172030287056397 -0.36790984316428615
-0.5628641596118995 -0.2587375004571146
-0.49494057324472407 -0.1859559386523336
-0.481355855971289 -0.2587375004571146
-0.481355855971289 -0.2587375004571146
-0.49494057324472407 -0.3315190622618956
-0.5221100077915942 -0.3315190622618956
-0.46777113869785397 -0.2587375004571146
-0.3998475523306786 -0.3315190622618956
-0.31833924869006813 -0.2951282813595051
-0.30475453141663306 -0.3315190622618956
-0.3319239659635032 -0.3315190622618956
-0.30475453141663306 -0.14956515774994308
-0.25041566232289275 -0.11317437684755256
-0.22324622777602263 0.03238874676200947
-0.12815320686197712 -0.07678359594516206
-0.07381433776823683 -0.14956515774994308
-0.005890751401061463 -0.36790984316428615
-0.005890751401061463 -0.5862545285786291
-0.005890751401061463 -0.6226453094810197
0.00769396587237361 -0.5498637476762387
-0.005890751401061463 -0.6226453094810197
-0.03306018594793161 -0.6954268712858007
-0.12815320686197712 -0.6590360903834102
-0.1417379241354122 -0.5862545285786291
-0.1417379241354122 -0.5134729667738481
-0.0873990550416719 -0.5134729667738481
-0.1417379241354122 -0.5498637476762387
-0.19607679322915247 -0.6226453094810197
-0.2640003795963278 -0.6954268712858007
-0.31833924869006813 -0.4770821858714577
-0.3319239659635032 -0.3315190622618956
-0.3319239659635032 -0.2223467195547241
-0.31833924869006813 -0.2951282813595051
-0.35909340051037336 -0.40430062406667666
-0.42701698687754874 -0.4770821858714577
-0.46777113869785397 -0.4770821858714577
-0.46777113869785397 -0.2951282813595051
-0.3862628350572435 -0.2587375004571146
-0.3319239659635032 -0.2587375004571146
-0.3455086832369383 -0.36790984316428615
-0.3998475523306786 -0.4770821858714577
-0.3998475523306786 -0.5134729667738481
-0.41343226960411367 -0.44069140496906717
-0.3319239659635032 -0.2587375004571146
-0.31833924869006813 -0.36790984316428615
-0.291169814143198 -0.36790984316428615
-0.3319239659635032 -0.40430062406667666
-0.35909340051037336 -0.44069140496906717
-0.42701698687754874 -0.40430062406667666
-0.3998475523306786 -0.40430062406667666
-0.3862628350572435 -0.44069140496906717
-0.19607679322915247 -0.4770821858714577
0.10278698678641912 -0.5862545285786291
0.5782520913566467 -0.5134729667738481
1.2710726723018353 -0.5498637476762387
2.0861557087079396 -0.7318176521881912
2.833315158746869 -0.9137715567001438
3.3223649805905313 -1.059334680309706
3.594059326059233 -0.9865531185049248
3.6755676296998434 -0.8773807757977533
3.6891523469732785 -0.5134729667738481
3.6076440433326677 -0.2587375004571146
3.3631191324108367 -0.11317437684755256
2.874069310567174 -0.11317437684755256
2.0454015568876347 -0.3315190622618956
0.999378326833134 -0.44069140496906717
0.0620328349661139 -0.40430062406667666
-0.3455086832369383 -0.4770821858714577
-0.3319239659635032 -0.8409899948953627
-0.291169814143198 -1.35046092752883
-0.37267811778380844 -1.714368736552735
-0.46777113869785397 -1.8235410792599065
-0.5085252905181592 -1.6779779556503445
-0.4541864214244189 -1.4596332702360013
-0.4541864214244189 -1.2776793657240488
-0.49494057324472407 -1.0957254612120964
-0.5356947250650294 -0.9865531185049248
-0.6036183114322047 -0.5862545285786291
-0.6172030287056397 -0.4770821858714577
-0.6307877459790748 -0.2587375004571146
-0.6036183114322047 -0.40430062406667666
-0.6172030287056397 -0.36790984316428615
-0.67154189779938 -0.40430062406667666
-0.6987113323462502 -0.2951282813595051
-0.6987113323462502 -0.14956515774994308
-0.67154189779938 -0.04039281504277154
-0.67154189779938 -0.11317437684755256
-0.6851266150728151 -0.1859559386523336
-0.7394654841665554 -0.36790984316428615
-0.7666349187134256 -0.36790984316428615
-0.7530502014399905 -0.2223467195547241
-0.6851266150728151 -0.14956515774994308
-0.67154189779938 -0.2223467195547241
-0.6987113323462502 -0.40430062406667666
-0.7394654841665554 -0.40430062406667666
-0.7258807668931203 -0.1859559386523336
-0.7258807668931203 -0.14956515774994308
-0.6851266150728151 -0.004002034140381034
-0.6443724632525099 -0.11317437684755256
-0.6987113323462502 -0.2587375004571146
-0.67154189779938 -0.1859559386523336
-0.7394654841665554 -0.2587375004571146
-0.7122960496196853 -0.1859559386523336
-0.657957180525945 -0.07678359594516206
-0.657957180525945 -0.11317437684755256
-0.6987113323462502 -0.2587375004571146
-0.6987113323462502 -0.2587375004571146
-0.67154189779938 -0.2587375004571146
-0.67154189779938 -0.1859559386523336
-0.6307877459790748 -0.11317437684755256
-0.5764488768853345 -0.2223467195547241
-0.5628641596118995 -0.36790984316428615
-0.6036183114322047 -0.40430062406667666
-0.657957180525945 -0.36790984316428615
-0.6443724632525099 -0.2223467195547241
-0.5900335941587695 -0.2223467195547241
-0.5900335941587695 -0.2587375004571146
-0.5492794423384644 -0.36790984316428615
-0.5764488768853345 -0.4770821858714577
-0.6036183114322047 -0.3315190622618956
-0.5221100077915942 -0.2587375004571146
-0.46777113869785397 -0.14956515774994308
-0.4541864214244189 -0.2951282813595051
-0.4541864214244189 -0.36790984316428615
-0.481355855971289 -0.5498637476762387
-0.5221100077915942 -0.40430062406667666
-0.46777113869785397 -0.40430062406667666
-0.41343226960411367 -0.2587375004571146
-0.3455086832369383 -0.40430062406667666
-0.3455086832369383 -0.6226453094810197
-0.35909340051037336 -0.6226453094810197
-0.35909340051037336 -0.4770821858714577
-0.291169814143198 -0.2951282813595051
-0.2368309450494577 -0.2223467195547241
-0.18249207595571743 -0.3315190622618956
-0.16890735868228235 -0.36790984316428615
-0.18249207595571743 -0.5134729667738481
-0.1417379241354122 -0.36790984316428615
-0.0873990550416719 -0.40430062406667666
-0.019475468674496538 -0.3315190622618956
0.034863400419243754 -0.5134729667738481
0.04844811769267883 -0.6226453094810197
0.0620328349661139 -0.6590360903834102
0.07561755223954897 -0.6954268712858007
0.14354113860672435 -0.5862545285786291
0.22504944224733478 -0.5134729667738481
0.27938831134107506 -0.5862545285786291
0.3201424631613803 -0.6226453094810197
0.3608966149816855 -0.7318176521881912
0.38806604952855567 -0.6226453094810197
0.5103285049894714 -0.5862545285786291
0.6054215259035168 -0.6226453094810197
0.7005145468175623 -0.6226453094810197
0.7140992640909974 -0.8409899948953627
0.7548534159113026 -0.9137715567001438
0.8091922850050429 -0.9137715567001438
0.8907005886456534 -0.8773807757977533
0.9722088922862638 -0.8045992139929723
1.012963044106569 -0.8409899948953627
1.0537171959268743 -1.0229438994073152
1.0673019132003092 -1.059334680309706
1.0537171959268743 -1.0229438994073152
1.1080560650206146 -0.9137715567001438
1.1759796513877898 -0.9137715567001438
1.20314908593466 -0.9137715567001438
1.2303185204815301 -1.0229438994073152
1.2167338032080952 -0.9865531185049248
1.162394934114355 -1.059334680309706
1.1759796513877898 -0.8045992139929723
1.20314908593466 -0.8045992139929723
1.189564368661225 -0.8773807757977533
1.1352254995674846 -0.9501623376025343
1.0944713477471795 -0.9501623376025343
1.026547761380004 -0.9137715567001438
0.999378326833134 -0.8409899948953627
0.9450394577393937 -0.7682084330905817
0.9314547404659586 -0.8045992139929723
0.8635311540987832 -0.9137715567001438
0.7412686986378676 -0.9501623376025343
0.6733451122706922 -0.8773807757977533
0.6054215259035168 -0.8045992139929723
0.5918368086300817 -0.6226453094810197
0.5103285049894714 -0.6590360903834102
0.4424049186222959 -0.6954268712858007
0.34731189770825044 -0.7682084330905817
0.23863415952076986 -0.6590360903834102
0.19788000770046463 -0.5134729667738481
0.19788000770046463 -0.5134729667738481
0.18429529042702955 -0.44069140496906717
0.10278698678641912 -0.6226453094810197
0.00769396587237361 -0.6226453094810197
-0.06022962049480175 -0.5498637476762387
-0.10098377231510697 -0.44069140496906717
-0.10098377231510697 -0.36790984316428615
-0.12815320686197712 -0.44069140496906717
-0.19607679322915247 -0.5134729667738481
-0.2640003795963278 -0.5498637476762387
-0.3319239659635032 -0.40430062406667666
-0.30475453141663306 -0.2951282813595051
-0.291169814143198 -0.2223467195547241
-0.291169814143198 -0.3315190622618956
-0.3319239659635032 -0.44069140496906717
-0.41343226960411367 -0.5862545285786291
-0.46777113869785397 -0.44069140496906717
-0.46777113869785397 -0.2587375004571146
-0.46777113869785397 -0.2223467195547241
-0.4541864214244189 -0.2587375004571146
-0.481355855971289 -0.3315190622618956
-0.5221100077915942 -0.40430062406667666
-0.5492794423384644 -0.3315190622618956
-0.5356947250650294 -0.2223467195547241
-0.5085252905181592 -0.1859559386523336
-0.481355855971289 -0.2951282813595051
-0.5221100077915942 -0.2951282813595051
-0.5628641596118995 -0.44069140496906717
-0.6036183114322047 -0.40430062406667666
-0.5900335941587695 -0.2587375004571146
-0.5628641596118995 -0.2951282813595051
-0.5221100077915942 -0.3315190622618956
-0.5492794423384644 -0.40430062406667666
-0.5628641596118995 -0.5134729667738481
-0.5764488768853345 -0.4770821858714577
-0.5356947250650294 -0.2223467195547241
-0.5221100077915942 -0.07678359594516206
-0.46777113869785397 -0.11317437684755256
-0.49494057324472407 -0.36790984316428615
-0.5221100077915942 -0.36790984316428615
-0.5085252905181592 -0.40430062406667666
-0.481355855971289 -0.36790984316428615
-0.46777113869785397 -0.36790984316428615
-0.42701698687754874 -0.5498637476762387
-0.42701698687754874 -0.40430062406667666
-0.46777113869785397 -0.5134729667738481
-0.481355855971289 -0.5134729667738481
-0.4541864214244189 -0.3315190622618956
-0.41343226960411367 -0.2587375004571146
-0.3862628350572435 -0.36790984316428615
-0.37267811778380844 -0.5134729667738481
-0.4406017041509838 -0.6226453094810197
-0.41343226960411367 -0.6590360903834102
-0.3998475523306786 -0.6226453094810197
-0.3455086832369383 -0.5498637476762387
-0.35909340051037336 -0.4770821858714577
-0.37267811778380844 -0.4770821858714577
-0.3862628350572435 -0.5134729667738481
-0.41343226960411367 -0.5134729667738481
-0.37267811778380844 -0.44069140496906717
-0.3455086832369383 -0.36790984316428615
-0.31833924869006813 -0.4770821858714577
-0.3319239659635032 -0.4770821858714577
-0.3998475523306786 -0.6226453094810197
-0.41343226960411367 -0.5498637476762387
-0.37267811778380844 -0.5134729667738481
-0.3455086832369383 -0.40430062406667666
-0.37267811778380844 -0.40430062406667666
-0.37267811778380844 -0.5862545285786291
-0.41343226960411367 -0.6226453094810197
-0.4406017041509838 -0.5134729667738481
-0.4541864214244189 -0.4770821858714577
-0.41343226960411367 -0.3315190622618956
-0.3862628350572435 -0.2951282813595051
-0.46777113869785397 -0.5134729667738481
-0.5085252905181592 -0.5862545285786291
-0.5085252905181592 -0.6226453094810197
-0.481355855971289 -0.5134729667738481
-0.4541864214244189 -0.5498637476762387
-0.4541864214244189 -0.5862545285786291
-0.49494057324472407 -0.5862545285786291
-0.5356947250650294 -0.5862545285786291
-0.5356947250650294 -0.5498637476762387
-0.5221100077915942 -0.5134729667738481
-0.5085252905181592 -0.3315190622618956
-0.5085252905181592 -0.2951282813595051
-0.5221100077915942 -0.44069140496906717
-0.5628641596118995 -0.4770821858714577
-0.6172030287056397 -0.5134729667738481
-0.5900335941587695 -0.44069140496906717
-0.5628641596118995 -0.36790984316428615
-0.5492794423384644 -0.44069140496906717
-0.5356947250650294 -0.5498637476762387
-0.5764488768853345 -0.5498637476762387
-0.6172030287056397 -0.5134729667738481
-0.6036183114322047 -0.44069140496906717
-0.5628641596118995 -0.3315190622618956
-0.5492794423384644 -0.36790984316428615
-0.5900335941587695 -0.40430062406667666
-0.6443724632525099 -0.5134729667738481
-0.67154189779938 -0.44069140496906717
-0.6443724632525099 -0.4770821858714577
-0.5764488768853345 -0.2223467195547241
-0.5356947250650294 -0.40430062406667666
-0.6172030287056397 -0.44069140496906717
-0.6172030287056397 -0.5134729667738481
-0.7122960496196853 -0.5134729667738481
-0.6307877459790748 -0.44069140496906717
-0.6172030287056397 -0.2587375004571146
-0.6036183114322047 -0.2951282813595051
-0.6443724632525099 -0.40430062406667666
-0.67154189779938 -0.6226453094810197
-0.6987113323462502 -0.5134729667738481
-0.657957180525945 -0.40430062406667666
-0.6443724632525099 -0.3315190622618956
-0.5900335941587695 -0.44069140496906717
-0.6172030287056397 -0.44069140496906717
-0.657957180525945 -0.4770821858714577
-0.6851266150728151 -0.36790984316428615
-0.657957180525945 -0.3315190622618956
-0.6307877459790748 -0.14956515774994308
-0.5900335941587695 -0.2223467195547241
-0.6172030287056397 -0.3315190622618956
-0.6987113323462502 -0.40430062406667666
-0.6987113323462502 -0.44069140496906717
-0.657957180525945 -0.3315190622618956
-0.657957180525945 -0.3315190622618956
-0.6443724632525099 -0.3315190622618956
-0.6443724632525099 -0.40430062406667666
-0.67154189779938 -0.4770821858714577
-0.6851266150728151 -0.5134729667738481
-0.6987113323462502 -0.3315190622618956
-0.6307877459790748 -0.2587375004571146
-0.6307877459790748 -0.2587375004571146
-0.6443724632525099 -0.36790984316428615
-0.6851266150728151 -0.5498637476762387
-0.6987113323462502 -0.40430062406667666
-0.7258807668931203 -0.2951282813595051
-0.67154189779938 -0.2587375004571146
-0.6443724632525099 -0.2951282813595051
-0.6036183114322047 -0.40430062406667666
-0.6443724632525099 -0.4770821858714577
-0.657957180525945 -0.5498637476762387
-0.6307877459790748 -0.40430062406667666
-0.6172030287056397 -0.3315190622618956
-0.5900335941587695 -0.2587375004571146
-0.6307877459790748 -0.2951282813595051
-0.67154189779938 -0.44069140496906717
-0.67154189779938 -0.40430062406667666
-0.6851266150728151 -0.2951282813595051
-0.6172030287056397 -0.2587375004571146
-0.5900335941587695 -0.2951282813595051
-0.5900335941587695 -0.44069140496906717
-0.657957180525945 -0.40430062406667666
-0.657957180525945 -0.44069140496906717
-0.657957180525945 -0.36790984316428615
-0.5900335941587695 -0.2951282813595051
-0.5492794423384644 -0.3315190622618956
-0.5764488768853345 -0.44069140496906717
-0.6036183114322047 -0.4770821858714577
-0.6443724632525099 -0.4770821858714577
-0.6307877459790748 -0.4770821858714577
-0.6036183114322047 -0.4770821858714577
-0.5764488768853345 -0.36790984316428615
-0.5628641596118995 -0.44069140496906717
-0.5764488768853345 -0.44069140496906717
-0.6036183114322047 -0.4770821858714577
-0.5900335941587695 -0.40430062406667666
-0.5628641596118995 -0.36790984316428615
-0.5221100077915942 -0.2951282813595051
-0.5221100077915942 -0.36790984316428615
-0.5628641596118995 -0.4770821858714577
-0.5900335941587695 -0.5134729667738481
-0.5356947250650294 -0.4770821858714577
-0.5221100077915942 -0.44069140496906717
-0.46777113869785397 -0.4770821858714577
-0.481355855971289 -0.5134729667738481
-0.481355855971289 -0.5498637476762387
-0.5085252905181592 -0.5134729667738481
-0.46777113869785397 -0.36790984316428615
-0.3319239659635032 -0.2587375004571146
-0.30475453141663306 -0.2587375004571146
-0.2640003795963278 -0.2587375004571146
-0.30475453141663306 -0.2951282813595051
-0.30475453141663306 -0.2587375004571146
-0.2368309450494577 -0.11317437684755256
-0.11456848958854204 -0.07678359594516206
-0.07381433776823683 -0.14956515774994308
-0.019475468674496538 -0.40430062406667666
-0.03306018594793161 -0.6590360903834102
-0.019475468674496538 -0.8773807757977533
-0.019475468674496538 -0.9137715567001438
-0.03306018594793161 -0.6590360903834102
-0.03306018594793161 -0.6590360903834102
-0.0873990550416719 -0.6226453094810197
-0.15532264140884727 -0.6590360903834102
-0.16890735868228235 -0.6590360903834102
-0.1417379241354122 -0.6954268712858007
-0.16890735868228235 -0.5862545285786291
-0.15532264140884727 -0.5498637476762387
-0.2368309450494577 -0.6590360903834102
-0.31833924869006813 -0.6590360903834102
-0.3455086832369383 -0.6226453094810197
-0.3998475523306786 -0.5498637476762387
-0.3998475523306786 -0.5134729667738481
-0.3862628350572435 -0.4770821858714577
-0.42701698687754874 -0.4770821858714577
-0.481355855971289 -0.44069140496906717
-0.5356947250650294 -0.44069140496906717
-0.49494057324472407 -0.40430062406667666
-0.4406017041509838 -0.2587375004571146
-0.4541864214244189 -0.2951282813595051
-0.4541864214244189 -0.44069140496906717
-0.481355855971289 -0.5498637476762387
-0.5221100077915942 -0.5134729667738481
-0.4541864214244189 -0.36790984316428615
-0.4406017041509838 -0.3315190622618956
-0.3998475523306786 -0.2223467195547241
-0.4541864214244189 -0.2587375004571146
-0.49494057324472407 -0.36790984316428615
-0.5900335941587695 -0.44069140496906717
-0.6443724632525099 -0.5134729667738481
-0.6443724632525099 -0.44069140496906717
-0.4541864214244189 -0.4770821858714577
-0.07381433776823683 -0.44069140496906717
0.48315907044260115 -0.5862545285786291
1.3254115413955756 -0.9137715567001438
2.2763417505360306 -1.204897803919268
3.0778400696687003 -1.2776793657240488
3.634813477879538 -1.1321162421144868
3.9200925406216744 -0.7682084330905817
3.9200925406216744 -0.6590360903834102
3.838584236981064 -0.4770821858714577
3.770660650613889 -0.2223467195547241
3.5397204569654925 0.06877952766439999
3.0235012005749597 -0.07678359594516206
2.11332514325481 -0.36790984316428615
0.9178700231925235 -0.9137715567001438
-0.0873990550416719 -1.204897803919268
-0.4406017041509838 -1.496024051138392
-0.31833924869006813 -1.7507595174551256
-0.2368309450494577 -2.0418857646742494
-0.30475453141663306 -2.151058107381421
-0.4406017041509838 -2.1146673264790308
-0.5085252905181592 -1.7507595174551256
-0.5492794423384644 -1.2776793657240488
-0.5085252905181592 -0.8045992139929723
-0.5085252905181592 -0.5498637476762387
-0.5764488768853345 -0.5498637476762387
-0.7122960496196853 -0.5134729667738481
-0.7394654841665554 -0.5862545285786291
-0.7530502014399905 -0.36790984316428615
-0.7258807668931203 -0.2223467195547241
-0.7258807668931203 -0.1859559386523336
-0.7530502014399905 -0.2951282813595051
-0.8073890705337308 -0.40430062406667666
-0.8617279396274711 -0.2587375004571146
-0.8617279396274711 -0.2223467195547241
-0.8073890705337308 -0.07678359594516206
-0.8073890705337308 -0.1859559386523336
-0.8345585050806009 -0.14956515774994308
-0.8481432223540359 -0.2223467195547241
-0.8617279396274711 -0.14956515774994308
-0.8617279396274711 -0.11317437684755256
-0.8345585050806009 -0.04039281504277154
-0.8345585050806009 -0.04039281504277154
-0.8345585050806009 -0.2223467195547241
-0.8617279396274711 -0.3315190622618956
-0.8888973741743412 -0.2587375004571146
-0.8617279396274711 -0.14956515774994308
-0.8209737878071658 0.03238874676200947
-0.8073890705337308 0.03238874676200947
-0.8209737878071658 -0.07678359594516206
-0.8209737878071658 -0.2223467195547241
-0.8481432223540359 -0.14956515774994308
-0.8345585050806009 -0.11317437684755256
-0.8345585050806009 0.06877952766439999
-0.7666349187134256 0.03238874676200947
-0.7802196359868606 -0.1859559386523336
-0.8073890705337308 -0.2951282813595051
-0.8345585050806009 -0.2951282813595051
-0.7666349187134256 -0.07678359594516206
-0.7258807668931203 0.06877952766439999
-0.7122960496196853 -0.004002034140381034
-0.7258807668931203 -0.11317437684755256
-0.7394654841665554 -0.36790984316428615
-0.7802196359868606 -0.3315190622618956
-0.7802196359868606 -0.2223467195547241
-0.6987113323462502 -0.07678359594516206
-0.67154189779938 -0.1859559386523336
-0.6851266150728151 -0.1859559386523336
-0.657957180525945 -0.2587375004571146
-0.6851266150728151 -0.1859559386523336
-0.6307877459790748 -0.07678359594516206
-0.5764488768853345 -0.004002034140381034
-0.5356947250650294 -0.07678359594516206
-0.5492794423384644 -0.2223467195547241
-0.5221100077915942 -0.3315190622618956
-0.5492794423384644 -0.2587375004571146
-0.49494057324472407 -0.14956515774994308
-0.4406017041509838 -0.11317437684755256
-0.3998475523306786 -0.14956515774994308
-0.3998475523306786 -0.2587375004571146
-0.3998475523306786 -0.36790984316428615
-0.3862628350572435 -0.2223467195547241
-0.3319239659635032 -0.14956515774994308
-0.2368309450494577 -0.11317437684755256
-0.20966151050258755 -0.1859559386523336
-0.19607679322915247 -0.36790984316428615
-0.18249207595571743 -0.5862545285786291
-0.15532264140884727 -0.5862545285786291
-0.06022962049480175 -0.44069140496906717
-0.005890751401061463 -0.36790984316428615
0.0620328349661139 -0.40430062406667666
0.1163717040598542 -0.5498637476762387
0.14354113860672435 -0.5862545285786291
0.18429529042702955 -0.5498637476762387
0.26580359406764 -0.44069140496906717
0.3608966149816855 -0.40430062406667666
0.455989635895731 -0.4770821858714577
0.5374979395363415 -0.5498637476762387
0.5239132222629064 -0.6954268712858007
0.5918368086300817 -0.7318176521881912
0.6733451122706922 -0.6954268712858007
0.7684381331847377 -0.6226453094810197
0.8635311540987832 -0.6590360903834102
0.9042853059190884 -0.7318176521881912
0.9586241750128287 -0.8409899948953627
0.9586241750128287 -0.8409899948953627
1.012963044106569 -0.8409899948953627
1.0944713477471795 -0.7318176521881912
1.162394934114355 -0.8045992139929723
1.1759796513877898 -0.8409899948953627
1.162394934114355 -0.9137715567001438
1.1488102168409198 -0.8773807757977533
1.1216407822940495 -0.7682084330905817
1.162394934114355 -0.7318176521881912
1.1759796513877898 -0.7318176521881912
1.1216407822940495 -0.8045992139929723
1.0401324786534392 -0.8045992139929723
0.999378326833134 -0.8045992139929723
0.9722088922862638 -0.6590360903834102
0.9586241750128287 -0.5862545285786291
0.9178700231925235 -0.6954268712858007
0.8091922850050429 -0.6226453094810197
0.7412686986378676 -0.7318176521881912
0.632590960450387 -0.6954268712858007
0.5374979395363415 -0.5862545285786291
0.4967437877160362 -0.4770821858714577
0.48315907044260115 -0.5134729667738481
0.3608966149816855 -0.5134729667738481
0.26580359406764 -0.6226453094810197
0.15712585588015943 -0.5134729667738481
0.14354113860672435 -0.4770821858714577
0.12995642133328927 -0.36790984316428615
0.10278698678641912 -0.36790984316428615
-0.005890751401061463 -0.4770821858714577
-0.0873990550416719 -0.5498637476762387
-0.16890735868228235 -0.5498637476762387
-0.19607679322915247 -0.40430062406667666
-0.22324622777602263 -0.2951282813595051
-0.22324622777602263 -0.2951282813595051
-0.2775850968697629 -0.3315190622618956
-0.3319239659635032 -0.4770821858714577
-0.3862628350572435 -0.40430062406667666
-0.3998475523306786 -0.2951282813595051
-0.37267811778380844 -0.2223467195547241
-0.3998475523306786 -0.14956515774994308
-0.42701698687754874 -0.36790984316428615
-0.46777113869785397 -0.36790984316428615
-0.5628641596118995 -0.40430062406667666
-0.5492794423384644 -0.2223467195547241
-0.5356947250650294 -0.1859559386523336
-0.5492794423384644 -0.14956515774994308
-0.5628641596118995 -0.2951282813595051
-0.6172030287056397 -0.40430062406667666
-0.6443724632525099 -0.44069140496906717
-0.6307877459790748 -0.3315190622618956
-0.6307877459790748 -0.1859559386523336
-0.6172030287056397 -0.2223467195547241
-0.657957180525945 -0.2587375004571146
-0.7122960496196853 -0.3315190622618956
-0.7394654841665554 -0.36790984316428615
-0.7394654841665554 -0.2587375004571146
-0.6987113323462502 -0.2587375004571146
-0.657957180525945 -0.14956515774994308
-0.6987113323462502 -0.2223467195547241
-0.6987113323462502 -0.3315190622618956
-0.7802196359868606 -0.2223467195547241
-0.7530502014399905 -0.2951282813595051
-0.7258807668931203 -0.14956515774994308
-0.6987113323462502 -0.14956515774994308
-0.6987113323462502 -0.2951282813595051
-0.7394654841665554 -0.36790984316428615
-0.7802196359868606 -0.3315190622618956
-0.7666349187134256 -0.2951282813595051
-0.7394654841665554 -0.1859559386523336
-0.6851266150728151 -0.1859559386523336
-0.7258807668931203 -0.1859559386523336
-0.7394654841665554 -0.2951282813595051
-0.7394654841665554 -0.2951282813595051
-0.7258807668931203 -0.1859559386523336
-0.67154189779938 -0.1859559386523336
-0.6307877459790748 -0.14956515774994308
-0.6443724632525099 -0.14956515774994308
-0.67154189779938 -0.3315190622618956
-0.7122960496196853 -0.2951282813595051
-0.6851266150728151 -0.2951282813595051
-0.6036183114322047 -0.11317437684755256
-0.5492794423384644 -0.14956515774994308
-0.5764488768853345 -0.3315190622618956
-0.6036183114322047 -0.3315190622618956
-0.6443724632525099 -0.40430062406667666
-0.6036183114322047 -0.2951282813595051
-0.5492794423384644 -0.2223467195547241
-0.5221100077915942 -0.1859559386523336
-0.5356947250650294 -0.2587375004571146
-0.5764488768853345 -0.36790984316428615
-0.6036183114322047 -0.40430062406667666
-0.6172030287056397 -0.2951282813595051
-0.5628641596118995 -0.1859559386523336
-0.5085252905181592 -0.36790984316428615
-0.5221100077915942 -0.4770821858714577
-0.5628641596118995 -0.4770821858714577
-0.6172030287056397 -0.4770821858714577
-0.6036183114322047 -0.2951282813595051
-0.5492794423384644 -0.1859559386523336
-0.5492794423384644 -0.3315190622618956
-0.5492794423384644 -0.4770821858714577
-0.5900335941587695 -0.36790984316428615
-0.5900335941587695 -0.36790984316428615
-0.6172030287056397 -0.3315190622618956
-0.5764488768853345 -0.2587375004571146
-0.5356947250650294 -0.2951282813595051
-0.5492794423384644 -0.40430062406667666
-0.5900335941587695 -0.4770821858714577
-0.6172030287056397 -0.40430062406667666
-0.6307877459790748 -0.40430062406667666
-0.5900335941587695 -0.2951282813595051
-0.5356947250650294 -0.2587375004571146
-0.6036183114322047 -0.40430062406667666
-0.6307877459790748 -0.40430062406667666
-0.6036183114322047 -0.40430062406667666
-0.6036183114322047 -0.2223467195547241
-0.5764488768853345 -0.2223467195547241
-0.5628641596118995 -0.2951282813595051
-0.5900335941587695 -0.40430062406667666
-0.6036183114322047 -0.5134729667738481
-0.6307877459790748 -0.40430062406667666
-0.6172030287056397 -0.3315190622618956
-0.5900335941587695 -0.2587375004571146
-0.5764488768853345 -0.2951282813595051
-0.5900335941587695 -0.2951282813595051
-0.6443724632525099 -0.3315190622618956
-0.6443724632525099 -0.2951282813595051
-0.6443724632525099 -0.3315190622618956
-0.6036183114322047 -0.2587375004571146
-0.5900335941587695 -0.2951282813595051
-0.5900335941587695 -0.40430062406667666
-0.6172030287056397 -0.5134729667738481
-0.6307877459790748 -0.5498637476762387
-0.6172030287056397 -0.36790984316428615
-0.5900335941587695 -0.2223467195547241
-0.5764488768853345 -0.1859559386523336
-0.5900335941587695 -0.2587375004571146
-0.6307877459790748 -0.40430062406667666
-0.6307877459790748 -0.2951282813595051
-0.6443724632525099 -0.2951282813595051
-0.6172030287056397 -0.2951282813595051
-0.5900335941587695 -0.2951282813595051
-0.5900335941587695 -0.2587375004571146
-0.6172030287056397 -0.40430062406667666
-0.6443724632525099 -0.44069140496906717
-0.6307877459790748 -0.36790984316428615
-0.5764488768853345 -0.2223467195547241
-0.5356947250650294 -0.07678359594516206
-0.5764488768853345 -0.1859559386523336
-0.5900335941587695 -0.3315190622618956
-0.657957180525945 -0.3315190622618956
-0.6307877459790748 -0.36790984316428615
-0.6036183114322047 -0.14956515774994308
-0.5764488768853345 -0.1859559386523336
-0.5764488768853345 -0.1859559386523336
-0.6307877459790748 -0.36790984316428615
-0.6307877459790748 -0.44069140496906717
-0.6307877459790748 -0.40430062406667666
-0.5900335941587695 -0.14956515774994308
-0.5628641596118995 -0.1859559386523336
-0.5900335941587695 -0.2587375004571146
-0.6036183114322047 -0.36790984316428615
-0.6307877459790748 -0.36790984316428615
-0.6172030287056397 -0.2223467195547241
-0.5764488768853345 -0.1859559386523336
-0.5764488768853345 -0.2587375004571146
-0.5764488768853345 -0.2951282813595051
-0.5900335941587695 -0.44069140496906717
-0.6307877459790748 -0.44069140496906717
-0.6172030287056397 -0.2951282813595051
-0.5900335941587695 -0.14956515774994308
-0.5628641596118995 -0.2587375004571146
-0.5628641596118995 -0.3315190622618956
-0.5900335941587695 -0.4770821858714577
-0.6172030287056397 -0.3315190622618956
-0.5900335941587695 -0.2223467195547241
-0.5900335941587695 -0.2223467195547241
-0.5628641596118995 -0.2587375004571146
-0.5356947250650294 -0.40430062406667666
-0.5900335941587695 -0.4770821858714577
-0.5900335941587695 -0.40430062406667666
-0.5492794423384644 -0.2951282813595051
-0.5492794423384644 -0.1859559386523336
-0.5221100077915942 -0.2223467195547241
-0.5085252905181592 -0.2587375004571146
-0.5764488768853345 -0.36790984316428615
-0.5900335941587695 -0.2951282813595051
-0.5900335941587695 -0.14956515774994308
-0.5221100077915942 -0.2587375004571146
-0.49494057324472407 -0.2223467195547241
-0.5492794423384644 -0.40430062406667666
-0.5221100077915942 -0.4770821858714577
-0.5628641596118995 -0.40430062406667666
-0.5085252905181592 -0.2587375004571146
-0.5085252905181592 -0.1859559386523336
-0.5085252905181592 -0.2223467195547241
-0.49494057324472407 -0.2951282813595051
-0.5221100077915942 -0.44069140496906717
-0.5085252905181592 -0.36790984316428615
-0.49494057324472407 -0.3315190622618956
-0.4406017041509838 -0.2951282813595051
-0.41343226960411367 -0.2587375004571146
-0.3998475523306786 -0.36790984316428615
-0.41343226960411367 -0.40430062406667666
-0.41343226960411367 -0.40430062406667666
-0.35909340051037336 -0.3315190622618956
-0.31833924869006813 -0.2223467195547241
-0.291169814143198 -0.2587375004571146
-0.2775850968697629 -0.3315190622618956
-0.2640003795963278 -0.40430062406667666
-0.22324622777602263 -0.44069140496906717
-0.16890735868228235 -0.2951282813595051
-0.0873990550416719 -0.07678359594516206
-0.019475468674496538 -0.14956515774994308
-0.005890751401061463 -0.2223467195547241
0.034863400419243754 -0.36790984316428615
0.07561755223954897 -0.4770821858714577
0.17071057315359447 -0.5862545285786291
0.19788000770046463 -0.6226453094810197
0.2114647249738997 -0.7682084330905817
0.18429529042702955 -0.7682084330905817
0.10278698678641912 -0.7318176521881912
0.04844811769267883 -0.5862545285786291
0.00769396587237361 -0.5862545285786291
0.034863400419243754 -0.44069140496906717
0.0620328349661139 -0.6226453094810197
0.00769396587237361 -0.7682084330905817
-0.06022962049480175 -0.8045992139929723
-0.1417379241354122 -0.6590360903834102
-0.1417379241354122 -0.5498637476762387
-0.18249207595571743 -0.4770821858714577
-0.20966151050258755 -0.4770821858714577
-0.25041566232289275 -0.4770821858714577
-0.291169814143198 -0.5134729667738481
-0.31833924869006813 -0.3315190622618956
-0.3455086832369383 -0.40430062406667666
-0.3319239659635032 -0.14956515774994308
-0.3319239659635032 -0.2223467195547241
-0.3319239659635032 -0.2951282813595051
-0.37267811778380844 -0.44069140496906717
-0.41343226960411367 -0.44069140496906717
-0.3862628350572435 -0.36790984316428615
-0.291169814143198 -0.3315190622618956
-0.291169814143198 -0.2587375004571146
-0.2775850968697629 -0.36790984316428615
-0.3319239659635032 -0.44069140496906717
-0.37267811778380844 -0.40430062406667666
-0.37267811778380844 -0.3315190622618956
-0.4406017041509838 -0.2951282813595051
-0.481355855971289 -0.40430062406667666
-0.481355855971289 -0.4770821858714577
-0.3862628350572435 -0.6590360903834102
-0.10098377231510697 -0.6590360903834102
0.6190062431769519 -0.5862545285786291
1.5427670177705368 -0.8409899948953627
2.534451378731297 -1.204897803919268
3.3631191324108367 -1.3868517084312204
3.8657536715279344 -1.3140701466264393
4.137448016996636 -0.8409899948953627
4.205371603363811 -0.5498637476762387
4.178202168816941 -0.1859559386523336
3.98801612698885 -0.004002034140381034
3.6076440433326677 0.03238874676200947
2.8197304414734337 -0.07678359594516206
1.569936452317407 -0.36790984316428615
0.33372718043481536 -0.6954268712858007
-0.2640003795963278 -1.0229438994073152
-0.20966151050258755 -1.3868517084312204
-0.0873990550416719 -1.8235410792599065
-0.16890735868228235 -2.07827654557664
-0.30475453141663306 -1.9691042028694685
-0.35909340051037336 -1.6051963938455633
-0.35909340051037336 -1.1321162421144868
-0.3319239659635032 -0.8773807757977533
-0.3998475523306786 -0.7318176521881912
-0.481355855971289 -0.5862545285786291
-0.5900335941587695 -0.40430062406667666
-0.5900335941587695 -0.44069140496906717
-0.5492794423384644 -0.2951282813595051
-0.5356947250650294 -0.2951282813595051
-0.6036183114322047 -0.2951282813595051
-0.6307877459790748 -0.44069140496906717
-0.6851266150728151 -0.4770821858714577
-0.67154189779938 -0.3315190622618956
-0.6443724632525099 -0.11317437684755256
-0.6172030287056397 -0.14956515774994308
-0.67154189779938 -0.2223467195547241
-0.67154189779938 -0.36790984316428615
-0.7258807668931203 -0.36790984316428615
-0.7258807668931203 -0.2587375004571146
-0.6987113323462502 -0.14956515774994308
-0.67154189779938 -0.07678359594516206
-0.6851266150728151 -0.11317437684755256
-0.7394654841665554 -0.2587375004571146
-0.7258807668931203 -0.2951282813595051
-0.7122960496196853 -0.1859559386523336
-0.6851266150728151 -0.07678359594516206
-0.6307877459790748 -0.11317437684755256
-0.6443724632525099 -0.2223467195547241
-0.657957180525945 -0.36790984316428615
-0.7122960496196853 -0.2951282813595051
-0.6851266150728151 -0.2587375004571146
-0.6443724632525099 -0.1859559386523336
-0.5900335941587695 -0.1859559386523336
-0.6172030287056397 -0.2587375004571146
-0.67154189779938 -0.3315190622618956
-0.6443724632525099 -0.3315190622618956
-0.6036183114322047 -0.2587375004571146
-0.5764488768853345 -0.04039281504277154
-0.5221100077915942 -0.11317437684755256
-0.5356947250650294 -0.2587375004571146
-0.5764488768853345 -0.3315190622618956
-0.5764488768853345 -0.40430062406667666
-0.5492794423384644 -0.36790984316428615
-0.49494057324472407 -0.1859559386523336
-0.4541864214244189 -0.36790984316428615
-0.4541864214244189 -0.40430062406667666
-0.46777113869785397 -0.44069140496906717
-0.5085252905181592 -0.3315190622618956
-0.4541864214244189 -0.2587375004571146
-0.3998475523306786 -0.1859559386523336
-0.41343226960411367 -0.2951282813595051
-0.3455086832369383 -0.36790984316428615
-0.3862628350572435 -0.4770821858714577
-0.3862628350572435 -0.4770821858714577
-0.35909340051037336 -0.36790984316428615
-0.30475453141663306 -0.2587375004571146
-0.2640003795963278 -0.3315190622618956
-0.20966151050258755 -0.40430062406667666
-0.22324622777602263 -0.5498637476762387
-0.20966151050258755 -0.4770821858714577
-0.18249207595571743 -0.40430062406667666
-0.11456848958854204 -0.40430062406667666
-0.0873990550416719 -0.2951282813595051
-0.03306018594793161 -0.5134729667738481
-0.03306018594793161 -0.5134729667738481
0.021278683145808684 -0.44069140496906717
0.10278698678641912 -0.4770821858714577
0.15712585588015943 -0.40430062406667666
0.2522188767942049 -0.4770821858714577
0.29297302861451013 -0.5862545285786291
0.3065577458879452 -0.6954268712858007
0.3065577458879452 -0.6590360903834102
0.38806604952855567 -0.5862545285786291
0.46957435316916607 -0.4770821858714577
0.5374979395363415 -0.5862545285786291
0.6190062431769519 -0.6226453094810197
0.6597603949972571 -0.8045992139929723
0.7005145468175623 -0.8045992139929723
0.8091922850050429 -0.8409899948953627
0.8907005886456534 -0.7318176521881912
0.9857936095596989 -0.8409899948953627
1.0537171959268743 -1.059334680309706
1.0944713477471795 -1.0229438994073152
1.0944713477471795 -0.8773807757977533
1.2574879550284004 -0.8045992139929723
1.2982421068487056 -0.6954268712858007
1.366165693215881 -0.7682084330905817
1.4205045623096213 -0.8409899948953627
1.4205045623096213 -0.9865531185049248
1.4340892795830562 -1.059334680309706
1.4884281486767965 -0.9865531185049248
1.556351735043972 -0.9137715567001438
1.556351735043972 -0.8773807757977533
1.556351735043972 -0.9865531185049248
1.4884281486767965 -1.204897803919268
1.4612587141299265 -1.0957254612120964
1.4476739968564913 -0.8773807757977533
1.4748434314033614 -0.8409899948953627
1.4748434314033614 -0.8409899948953627
1.366165693215881 -0.9137715567001438
1.2982421068487056 -0.9501623376025343
1.2167338032080952 -0.9501623376025343
1.1759796513877898 -0.7318176521881912
1.1759796513877898 -0.6226453094810197
1.1216407822940495 -0.6590360903834102
1.0537171959268743 -0.8409899948953627
0.9450394577393937 -0.8773807757977533
0.8771158713722182 -0.8773807757977533
0.8227770022784779 -0.6954268712858007
0.7956075677316078 -0.5862545285786291
0.7684381331847377 -0.6590360903834102
0.6869298295441273 -0.6954268712858007
0.5918368086300817 -0.6954268712858007
0.5103285049894714 -0.7318176521881912
0.48315907044260115 -0.5134729667738481
0.4967437877160362 -0.44069140496906717
0.48315907044260115 -0.5498637476762387
0.4152354840754258 -0.6590360903834102
0.3201424631613803 -0.6954268712858007
0.2114647249738997 -0.6590360903834102
0.22504944224733478 -0.5862545285786291
0.23863415952076986 -0.4770821858714577
0.22504944224733478 -0.4770821858714577
0.19788000770046463 -0.5498637476762387
0.12995642133328927 -0.5862545285786291
0.0620328349661139 -0.5498637476762387
0.04844811769267883 -0.40430062406667666
0.0620328349661139 -0.36790984316428615
0.04844811769267883 -0.40430062406667666
-0.005890751401061463 -0.5862545285786291
-0.04664490322136668 -0.5862545285786291
-0.11456848958854204 -0.5134729667738481
-0.11456848958854204 -0.36790984316428615
-0.0873990550416719 -0.2223467195547241
-0.04664490322136668 -0.36790984316428615
-0.10098377231510697 -0.44069140496906717
-0.12815320686197712 -0.40430062406667666
-0.20966151050258755 -0.4770821858714577
-0.22324622777602263 -0.3315190622618956
-0.18249207595571743 -0.3315190622618956
-0.18249207595571743 -0.36790984316428615
-0.19607679322915247 -0.44069140496906717
-0.22324622777602263 -0.5134729667738481
-0.25041566232289275 -0.4770821858714577
-0.2775850968697629 -0.44069140496906717
-0.2368309450494577 -0.2587375004571146
-0.18249207595571743 -0.3315190622618956
-0.20966151050258755 -0.40430062406667666
-0.2775850968697629 -0.44069140496906717
-0.31833924869006813 -0.40430062406667666
-0.291169814143198 -0.2951282813595051
-0.25041566232289275 -0.2223467195547241
-0.2368309450494577 -0.2951282813595051
-0.2775850968697629 -0.3315190622618956
-0.30475453141663306 -0.40430062406667666
-0.2775850968697629 -0.4770821858714577
-0.2640003795963278 -0.5134729667738481
-0.20966151050258755 -0.36790984316428615
-0.18249207595571743 -0.2587375004571146
-0.20966151050258755 -0.3315190622618956
-0.25041566232289275 -0.2587375004571146
-0.25041566232289275 -0.2951282813595051
-0.22324622777602263 -0.2587375004571146
-0.16890735868228235 -0.2587375004571146
-0.19607679322915247 -0.2223467195547241
-0.1417379241354122 -0.36790984316428615
-0.16890735868228235 -0.40430062406667666
-0.20966151050258755 -0.5134729667738481
-0.18249207595571743 -0.44069140496906717
-0.16890735868228235 -0.3315190622618956
-0.11456848958854204 -0.3315190622618956
-0.16890735868228235 -0.4770821858714577
-0.16890735868228235 -0.4770821858714577
-0.22324622777602263 -0.44069140496906717
-0.18249207595571743 -0.36790984316428615
-0.15532264140884727 -0.2587375004571146
-0.11456848958854204 -0.2951282813595051
-0.1417379241354122 -0.40430062406667666
-0.16890735868228235 -0.44069140496906717
-0.18249207595571743 -0.40430062406667666
-0.19607679322915247 -0.40430062406667666
-0.16890735868228235 -0.36790984316428615
-0.16890735868228235 -0.40430062406667666
-0.16890735868228235 -0.5134729667738481
-0.19607679322915247 -0.4770821858714577
-0.22324622777602263 -0.5134729667738481
-0.20966151050258755 -0.3315190622618956
-0.1417379241354122 -0.4770821858714577
-0.12815320686197712 -0.44069140496906717
-0.1417379241354122 -0.44069140496906717
-0.19607679322915247 -0.44069140496906717
-0.25041566232289275 -0.4770821858714577
-0.25041566232289275 -0.40430062406667666
-0.19607679322915247 -0.44069140496906717
-0.19607679322915247 -0.5134729667738481
-0.22324622777602263 -0.5498637476762387
-0.2640003795963278 -0.6226453094810197
-0.30475453141663306 -0.5134729667738481
-0.30475453141663306 -0.44069140496906717
-0.2368309450494577 -0.36790984316428615
-0.20966151050258755 -0.3315190622618956
-0.2368309450494577 -0.3315190622618956
-0.291169814143198 -0.44069140496906717
-0.31833924869006813 -0.5134729667738481
-0.3319239659635032 -0.5498637476762387
-0.25041566232289275 -0.5134729667738481
-0.2640003795963278 -0.44069140496906717
-0.2640003795963278 -0.4770821858714577
-0.3455086832369383 -0.5134729667738481
-0.31833924869006813 -0.5134729667738481
-0.30475453141663306 -0.40430062406667666
-0.2640003795963278 -0.2951282813595051
-0.25041566232289275 -0.36790984316428615
-0.30475453141663306 -0.4770821858714577
-0.3319239659635032 -0.5862545285786291
-0.3455086832369383 -0.6226453094810197
-0.31833924869006813 -0.6226453094810197
-0.31833924869006813 -0.5498637476762387
-0.2775850968697629 -0.5498637476762387
-0.291169814143198 -0.5862545285786291
-0.31833924869006813 -0.6226453094810197
-0.37267811778380844 -0.5862545285786291
-0.3455086832369383 -0.4770821858714577
-0.291169814143198 -0.2951282813595051
-0.2640003795963278 -0.3315190622618956
-0.291169814143198 -0.4770821858714577
-0.31833924869006813 -0.5498637476762387
-0.35909340051037336 -0.5862545285786291
-0.31833924869006813 -0.44069140496906717
-0.31833924869006813 -0.44069140496906717
-0.291169814143198 -0.4770821858714577
-0.291169814143198 -0.5498637476762387
-0.3319239659635032 -0.5862545285786291
-0.3455086832369383 -0.5862545285786291
-0.3319239659635032 -0.5134729667738481
-0.2775850968697629 -0.36790984316428615
-0.291169814143198 -0.3315190622618956
-0.30475453141663306 -0.3315190622618956
-0.31833924869006813 -0.5498637476762387
-0.35909340051037336 -0.5134729667738481
-0.3319239659635032 -0.5862545285786291
-0.30475453141663306 -0.40430062406667666
-0.2775850968697629 -0.40430062406667666
-0.291169814143198 -0.5134729667738481
-0.35909340051037336 -0.5498637476762387
-0.3862628350572435 -0.5134729667738481
-0.3319239659635032 -0.3315190622618956
-0.30475453141663306 -0.1859559386523336
-0.2640003795963278 -0.3315190622618956
-0.291169814143198 -0.36790984316428615
-0.3455086832369383 -0.4770821858714577
-0.41343226960411367 -0.5498637476762387
-0.35909340051037336 -0.36790984316428615
-0.31833924869006813 -0.3315190622618956
-0.30475453141663306 -0.3315190622618956
-0.291169814143198 -0.44069140496906717
-0.3862628350572435 -0.5134729667738481
-0.42701698687754874 -0.44069140496906717
-0.3998475523306786 -0.44069140496906717
-0.3319239659635032 -0.2587375004571146
-0.3319239659635032 -0.2587375004571146
-0.35909340051037336 -0.36790984316428615
-0.41343226960411367 -0.44069140496906717
-0.37267811778380844 -0.4770821858714577
-0.3998475523306786 -0.2951282813595051
-0.3455086832369383 -0.1859559386523336
-0.31833924869006813 -0.36790984316428615
-0.37267811778380844 -0.40430062406667666
-0.3862628350572435 -0.5134729667738481
-0.41343226960411367 -0.5134729667738481
-0.3998475523306786 -0.36790984316428615
-0.3862628350572435 -0.2223467195547241
-0.3319239659635032 -0.2587375004571146
-0.3455086832369383 -0.1859559386523336
-0.41343226960411367 -0.44069140496906717
-0.42701698687754874 -0.36790984316428615
-0.3998475523306786 -0.3315190622618956
-0.3455086832369383 -0.2587375004571146
-0.3455086832369383 -0.3315190622618956
-0.3862628350572435 -0.36790984316428615
-0.41343226960411367 -0.40430062406667666
-0.4406017041509838 -0.36790984316428615
-0.41343226960411367 -0.3315190622618956
-0.3862628350572435 -0.2223467195547241
-0.35909340051037336 -0.2587375004571146
-0.35909340051037336 -0.2587375004571146
-0.3862628350572435 -0.3315190622618956
-0.42701698687754874 -0.36790984316428615
-0.42701698687754874 -0.2951282813595051
-0.37267811778380844 -0.2223467195547241
-0.37267811778380844 -0.3315190622618956
-0.3862628350572435 -0.36790984316428615
-0.42701698687754874 -0.4770821858714577
-0.42701698687754874 -0.3315190622618956
-0.3862628350572435 -0.2951282813595051
-0.37267811778380844 -0.2587375004571146
-0.3319239659635032 -0.2951282813595051
-0.3455086832369383 -0.2951282813595051
-0.3862628350572435 -0.40430062406667666
-0.3998475523306786 -0.3315190622618956
-0.3862628350572435 -0.2223467195547241
-0.3455086832369383 -0.2587375004571146
-0.3319239659635032 -0.3315190622618956
-0.3862628350572435 -0.40430062406667666
-0.3319239659635032 -0.44069140496906717
-0.4406017041509838 -0.44069140496906717
-0.3998475523306786 -0.36790984316428615
-0.291169814143198 -0.2587375004571146
-0.291169814143198 -0.2951282813595051
-0.25041566232289275 -0.2951282813595051
-0.2775850968697629 -0.44069140496906717
-0.2775850968697629 -0.36790984316428615
-0.22324622777602263 -0.2951282813595051
-0.18249207595571743 -0.2587375004571146
-0.07381433776823683 -0.2587375004571146
-0.07381433776823683 -0.2587375004571146
-0.06022962049480175 -0.2951282813595051
-0.04664490322136668 -0.14956515774994308
0.021278683145808684 -0.004002034140381034
0.08920226951298404 0.03238874676200947
0.17071057315359447 -0.07678359594516206
0.26580359406764 -0.2951282813595051
0.23863415952076986 -0.5498637476762387
0.23863415952076986 -0.6590360903834102
0.26580359406764 -0.6226453094810197
0.2522188767942049 -0.5862545285786291
0.19788000770046463 -0.5862545285786291
0.17071057315359447 -0.5862545285786291
0.12995642133328927 -0.7318176521881912
0.04844811769267883 -0.6226453094810197
0.07561755223954897 -0.5498637476762387
0.04844811769267883 -0.5134729667738481
0.034863400419243754 -0.5134729667738481
-0.019475468674496538 -0.5862545285786291
-0.12815320686197712 -0.5498637476762387
-0.1417379241354122 -0.44069140496906717
-0.19607679322915247 -0.2587375004571146
-0.18249207595571743 -0.14956515774994308
-0.20966151050258755 -0.2223467195547241
-0.2368309450494577 -0.2951282813595051
-0.2775850968697629 -0.36790984316428615
-0.30475453141663306 -0.40430062406667666
-0.3455086832369383 -0.2587375004571146
-0.31833924869006813 -0.1859559386523336
-0.291169814143198 -0.1859559386523336
-0.25041566232289275 -0.2223467195547241
-0.2640003795963278 -0.3315190622618956
-0.30475453141663306 -0.2951282813595051
-0.2775850968697629 -0.2223467195547241
-0.291169814143198 -0.07678359594516206
-0.2368309450494577 -0.1859559386523336
-0.2775850968697629 -0.1859559386523336
-0.31833924869006813 -0.3315190622618956
-0.41343226960411367 -0.36790984316428615
-0.4541864214244189 -0.2951282813595051
-0.481355855971289 -0.2951282813595051
-0.4541864214244189 -0.36790984316428615
-0.2368309450494577 -0.5134729667738481
0.15712585588015943 -0.5134729667738481
0.8907005886456534 -0.4770821858714577
1.8552155150595435 -0.7318176521881912
2.8061457241999985 -1.0229438994073152
3.566889891512363 -1.1685070230168773
3.98801612698885 -0.8409899948953627
4.205371603363811 -0.6590360903834102
4.218956320637246 -0.36790984316428615
4.151032734270071 -0.11317437684755256
4.01518556153572 0.1779518703715715
3.6755676296998434 0.35990577488352404
3.0778400696687003 0.2507334321763525
1.950308535973589 -0.004002034140381034
0.6869298295441273 -0.3315190622618956
-0.15532264140884727 -0.6590360903834102
-0.30475453141663306 -0.9865531185049248
-0.19607679322915247 -1.4232424893336109
-0.15532264140884727 -1.8235410792599065
-0.2775850968697629 -2.005494983771859
-0.3862628350572435 -1.787150298357516
-0.3862628350572435 -1.35046092752883
-0.3998475523306786 -0.8773807757977533
-0.35909340051037336 -0.6590360903834102
-0.42701698687754874 -0.4770821858714577
-0.5356947250650294 -0.44069140496906717
-0.5764488768853345 -0.3315190622618956
-0.5900335941587695 -0.2587375004571146
-0.6036183114322047 -0.14956515774994308
-0.6036183114322047 -0.2951282813595051
-0.657957180525945 -0.1859559386523336
-0.657957180525945 -0.2223467195547241
-0.6987113323462502 -0.11317437684755256
-0.7122960496196853 -0.14956515774994308
-0.7258807668931203 -0.04039281504277154
-0.6851266150728151 -0.07678359594516206
-0.67154189779938 -0.14956515774994308
-0.7394654841665554 -0.1859559386523336
-0.7666349187134256 -0.11317437684755256
-0.7394654841665554 -0.004002034140381034
-0.7122960496196853 0.06877952766439999
-0.6987113323462502 -0.004002034140381034
-0.6987113323462502 -0.07678359594516206
-0.7258807668931203 -0.04039281504277154
-0.7938043532602957 0.03238874676200947
-0.7530502014399905 0.06877952766439999
-0.6987113323462502 -0.004002034140381034
-0.657957180525945 -0.004002034140381034
-0.67154189779938 -0.11317437684755256
-0.7122960496196853 -0.1859559386523336
-0.7258807668931203 -0.1859559386523336
-0.7122960496196853 -0.11317437684755256
-0.6851266150728151 -0.004002034140381034
-0.6443724632525099 -0.004002034140381034
-0.657957180525945 -0.04039281504277154
-0.7258807668931203 -0.07678359594516206
-0.6987113323462502 -0.04039281504277154
-0.67154189779938 0.03238874676200947
-0.6172030287056397 0.03238874676200947
-0.5764488768853345 -0.07678359594516206
-0.5764488768853345 -0.11317437684755256
-0.67154189779938 -0.14956515774994308
-0.6172030287056397 -0.1859559386523336
-0.5900335941587695 -0.07678359594516206
-0.5764488768853345 0.06877952766439999
-0.5356947250650294 -0.07678359594516206
-0.5221100077915942 -0.14956515774994308
-0.5628641596118995 -0.14956515774994308
-0.5356947250650294 -0.14956515774994308
-0.5085252905181592 -0.07678359594516206
-0.481355855971289 -0.07678359594516206
-0.42701698687754874 -0.07678359594516206
-0.4406017041509838 -0.1859559386523336
-0.4406017041509838 -0.40430062406667666
-0.46777113869785397 -0.2951282813595051
-0.42701698687754874 -0.1859559386523336
-0.35909340051037336 -0.14956515774994308
-0.291169814143198 -0.14956515774994308
-0.291169814143198 -0.2223467195547241
-0.3319239659635032 -0.2951282813595051
-0.31833924869006813 -0.2587375004571146
-0.2640003795963278 -0.1859559386523336
-0.20966151050258755 -0.1859559386523336
-0.16890735868228235 -0.2587375004571146
-0.18249207595571743 -0.3315190622618956
-0.15532264140884727 -0.36790984316428615
-0.15532264140884727 -0.36790984316428615
-0.10098377231510697 -0.2587375004571146
-0.019475468674496538 -0.1859559386523336
0.0620328349661139 -0.2587375004571146
0.07561755223954897 -0.36790984316428615
0.14354113860672435 -0.36790984316428615
0.14354113860672435 -0.40430062406667666
0.2114647249738997 -0.36790984316428615
0.29297302861451013 -0.2587375004571146
0.4152354840754258 -0.2223467195547241
0.4288202013488609 -0.3315190622618956
0.455989635895731 -0.5498637476762387
0.46957435316916607 -0.5498637476762387
0.5782520913566467 -0.5134729667738481
0.7005145468175623 -0.44069140496906717
0.7548534159113026 -0.44069140496906717
0.8091922850050429 -0.6590360903834102
0.8227770022784779 -0.6590360903834102
0.9178700231925235 -0.6226453094810197
0.9586241750128287 -0.5498637476762387
1.0673019132003092 -0.5498637476762387
1.1488102168409198 -0.6226453094810197
1.1352254995674846 -0.6226453094810197
1.20314908593466 -0.7682084330905817
1.2167338032080952 -0.7682084330905817
1.2439032377549653 -0.8409899948953627
1.2982421068487056 -0.7682084330905817
1.3389962586690107 -0.8045992139929723
1.3525809759424459 -0.8409899948953627
1.3118268241221407 -0.8409899948953627
1.2846573895752704 -0.8773807757977533
1.2846573895752704 -0.7318176521881912
1.2846573895752704 -0.6590360903834102
1.2982421068487056 -0.5862545285786291
1.2846573895752704 -0.7682084330905817
1.2303185204815301 -0.6954268712858007
1.1759796513877898 -0.7318176521881912
1.1216407822940495 -0.6226453094810197
1.1080560650206146 -0.6226453094810197
1.0673019132003092 -0.6226453094810197
0.9450394577393937 -0.5862545285786291
0.8499464368253481 -0.6590360903834102
0.7820228504581728 -0.6590360903834102
0.7548534159113026 -0.5498637476762387
0.7005145468175623 -0.3315190622618956
0.6869298295441273 -0.36790984316428615
0.5782520913566467 -0.5134729667738481
0.48315907044260115 -0.5498637476762387
0.4152354840754258 -0.5134729667738481
0.3744813322551206 -0.36790984316428615
0.34731189770825044 -0.2951282813595051
0.3201424631613803 -0.40430062406667666
0.26580359406764 -0.4770821858714577
0.15712585588015943 -0.5862545285786291
0.07561755223954897 -0.5134729667738481
0.04844811769267883 -0.3315190622618956
0.034863400419243754 -0.2587375004571146
0.034863400419243754 -0.1859559386523336
0.00769396587237361 -0.2223467195547241
-0.12815320686197712 -0.40430062406667666
-0.18249207595571743 -0.36790984316428615
-0.16890735868228235 -0.2587375004571146
-0.16890735868228235 -0.2223467195547241
-0.16890735868228235 -0.2223467195547241
-0.19607679322915247 -0.3315190622618956
-0.30475453141663306 -0.40430062406667666
-0.3319239659635032 -0.40430062406667666
-0.31833924869006813 -0.2587375004571146
-0.291169814143198 -0.11317437684755256
-0.31833924869006813 -0.2223467195547241
-0.3455086832369383 -0.2587375004571146
-0.4406017041509838 -0.40430062406667666
-0.49494057324472407 -0.3315190622618956
-0.481355855971289 -0.14956515774994308
-0.4541864214244189 -0.04039281504277154
-0.3862628350572435 -0.07678359594516206
-0.42701698687754874 -0.2223467195547241
-0.481355855971289 -0.3315190622618956
-0.49494057324472407 -0.40430062406667666
-0.5221100077915942 -0.2587375004571146
-0.5356947250650294 -0.07678359594516206
-0.481355855971289 -0.07678359594516206
-0.49494057324472407 -0.1859559386523336
-0.5492794423384644 -0.2223467195547241
-0.6307877459790748 -0.2951282813595051
-0.6036183114322047 -0.14956515774994308
-0.5628641596118995 -0.11317437684755256
-0.5356947250650294 -0.07678359594516206
-0.5628641596118995 -0.2223467195547241
-0.5764488768853345 -0.3315190622618956
-0.6307877459790748 -0.2951282813595051
-0.6307877459790748 -0.2951282813595051
-0.5764488768853345 -0.11317437684755256
-0.5492794423384644 -0.14956515774994308
-0.5492794423384644 -0.2223467195547241
-0.5764488768853345 -0.2951282813595051
-0.6307877459790748 -0.1859559386523336
-0.5900335941587695 -0.1859559386523336
-0.5628641596118995 -0.11317437684755256
-0.5492794423384644 -0.11317437684755256
-0.5492794423384644 -0.11317437684755256
-0.5628641596118995 -0.2223467195547241
-0.5764488768853345 -0.1859559386523336
-0.5492794423384644 -0.1859559386523336
-0.5221100077915942 -0.11317437684755256
-0.49494057324472407 -0.14956515774994308
-0.481355855971289 -0.1859559386523336
-0.5085252905181592 -0.2951282813595051
-0.5356947250650294 -0.2223467195547241
-0.5356947250650294 -0.2223467195547241
-0.481355855971289 -0.07678359594516206
-0.46777113869785397 -0.07678359594516206
-0.49494057324472407 -0.1859559386523336
-0.49494057324472407 -0.36790984316428615
-0.5085252905181592 -0.2951282813595051
-0.481355855971289 -0.2587375004571146
-0.46777113869785397 -0.1859559386523336
-0.42701698687754874 -0.11317437684755256
-0.4541864214244189 -0.1859559386523336
-0.49494057324472407 -0.36790984316428615
-0.5221100077915942 -0.44069140496906717
-0.49494057324472407 -0.2587375004571146
-0.4406017041509838 -0.11317437684755256
-0.41343226960411367 -0.14956515774994308
-0.42701698687754874 -0.2587375004571146
-0.5085252905181592 -0.2951282813595051
-0.5221100077915942 -0.36790984316428615
-0.5221100077915942 -0.3315190622618956
-0.49494057324472407 -0.11317437684755256
-0.4541864214244189 -0.2587375004571146
-0.481355855971289 -0.3315190622618956
-0.5356947250650294 -0.4770821858714577
-0.5221100077915942 -0.4770821858714577
-0.5221100077915942 -0.2951282813595051
-0.481355855971289 -0.14956515774994308
-0.4406017041509838 -0.11317437684755256
-0.481355855971289 -0.11317437684755256
-0.49494057324472407 -0.2951282813595051
-0.5356947250650294 -0.2951282813595051
-0.5356947250650294 -0.2587375004571146
-0.5085252905181592 -0.2223467195547241
-0.5221100077915942 -0.2587375004571146
-0.5221100077915942 -0.2587375004571146
-0.5492794423384644 -0.2951282813595051
-0.5900335941587695 -0.3315190622618956
-0.5628641596118995 -0.2223467195547241
-0.5764488768853345 -0.11317437684755256
-0.5628641596118995 -0.1859559386523336
-0.5628641596118995 -0.1859559386523336
-0.657957180525945 -0.2587375004571146
-0.6172030287056397 -0.2223467195547241
-0.6172030287056397 -0.11317437684755256
-0.5764488768853345 -0.04039281504277154
-0.5628641596118995 0.06877952766439999
-0.5628641596118995 -0.07678359594516206
-0.5900335941587695 -0.14956515774994308
-0.6443724632525099 -0.1859559386523336
-0.6307877459790748 -0.14956515774994308
-0.6036183114322047 -0.07678359594516206
-0.5356947250650294 -0.11317437684755256
-0.5628641596118995 -0.14956515774994308
-0.6036183114322047 -0.2223467195547241
-0.657957180525945 -0.1859559386523336
-0.6443724632525099 -0.14956515774994308
-0.5900335941587695 -0.11317437684755256
-0.5628641596118995 -0.14956515774994308
-0.5628641596118995 -0.2223467195547241
-0.6443724632525099 -0.2223467195547241
-0.6443724632525099 -0.1859559386523336
-0.5900335941587695 -0.07678359594516206
-0.5492794423384644 -0.07678359594516206
-0.5492794423384644 -0.14956515774994308
-0.5492794423384644 -0.2223467195547241
-0.6036183114322047 -0.2587375004571146
-0.6036183114322047 -0.2223467195547241
-0.5900335941587695 -0.2223467195547241
-0.5356947250650294 -0.1859559386523336
-0.49494057324472407 -0.04039281504277154
-0.5085252905181592 -0.1859559386523336
-0.5492794423384644 -0.1859559386523336
-0.5492794423384644 -0.1859559386523336
-0.5764488768853345 -0.07678359594516206
-0.5221100077915942 -0.07678359594516206
-0.5085252905181592 -0.14956515774994308
-0.5356947250650294 -0.2223467195547241
-0.5085252905181592 -0.2587375004571146
-0.5492794423384644 -0.2587375004571146
-0.5764488768853345 -0.14956515774994308
-0.49494057324472407 -0.11317437684755256
-0.4541864214244189 -0.1859559386523336
-0.46777113869785397 -0.1859559386523336
-0.481355855971289 -0.2223467195547241
-0.5356947250650294 -0.2587375004571146
-0.5221100077915942 -0.11317437684755256
-0.4541864214244189 -0.04039281504277154
-0.4406017041509838 -0.2223467195547241
-0.4541864214244189 -0.2587375004571146
-0.5085252905181592 -0.2587375004571146
-0.5221100077915942 -0.2223467195547241
-0.49494057324472407 -0.11317437684755256
-0.46777113869785397 -0.14956515774994308
-0.3862628350572435 -0.14956515774994308
-0.42701698687754874 -0.2587375004571146
-0.4541864214244189 -0.36790984316428615
-0.46777113869785397 -0.3315190622618956
-0.4541864214244189 -0.1859559386523336
-0.4406017041509838 -0.2223467195547241
-0.37267811778380844 -0.2223467195547241
-0.42701698687754874 -0.2951282813595051
-0.41343226960411367 -0.2951282813595051
-0.42701698687754874 -0.1859559386523336
-0.42701698687754874 -0.2951282813595051
-0.4406017041509838 -0.1859559386523336
-0.3998475523306786 -0.2587375004571146
-0.41343226960411367 -0.2951282813595051
-0.41343226960411367 -0.44069140496906717
-0.4541864214244189 -0.36790984316428615
-0.42701698687754874 -0.2587375004571146
-0.37267811778380844 -0.1859559386523336
-0.3862628350572435 -0.2223467195547241
-0.3862628350572435 -0.2587375004571146
-0.3998475523306786 -0.3315190622618956
-0.42701698687754874 -0.3315190622618956
-0.3998475523306786 -0.2951282813595051
-0.35909340051037336 -0.2223467195547241
-0.3319239659635032 -0.2223467195547241
-0.31833924869006813 -0.2587375004571146
-0.3862628350572435 -0.40430062406667666
-0.3998475523306786 -0.36790984316428615
-0.3998475523306786 -0.2587375004571146
-0.35909340051037336 -0.14956515774994308
-0.3319239659635032 -0.1859559386523336
-0.30475453141663306 -0.2951282813595051
-0.31833924869006813 -0.36790984316428615
-0.37267811778380844 -0.44069140496906717
-0.35909340051037336 -0.2951282813595051
-0.30475453141663306 -0.2223467195547241
-0.30475453141663306 -0.2587375004571146
-0.31833924869006813 -0.40430062406667666
-0.3319239659635032 -0.5862545285786291
-0.37267811778380844 -0.4770821858714577
