-0.4514457482235038 0.13158239426080764
-0.4572730231503734 0.08252438665513456
-0.4689275730041126 0.13158239426080764
-0.4572730231503734 0.13975872886175317
-0.4397911983697646 0.1642877326645897
-0.4456184732966342 0.13158239426080764
-0.4514457482235038 0.13158239426080764
-0.463100298077243 0.1070533904579711
-0.463100298077243 0.12340605965986214
-0.4572730231503734 0.13975872886175317
-0.4514457482235038 0.1479350634626987
-0.42813664851602534 0.13158239426080764
-0.4397911983697646 0.1070533904579711
-0.4572730231503734 0.11522972505891661
-0.4689275730041126 0.11522972505891661
-0.4572730231503734 0.15611139806364419
-0.4397911983697646 0.18064040186648073
-0.4397911983697646 0.17246406726553523
-0.4397911983697646 0.13975872886175317
-0.4514457482235038 0.13158239426080764
-0.463100298077243 0.13975872886175317
-0.43396392344289497 0.15611139806364419
-0.42230937358915577 0.17246406726553523
-0.42813664851602534 0.15611139806364419
-0.43396392344289497 0.15611139806364419
-0.42813664851602534 0.1642877326645897
-0.43396392344289497 0.17246406726553523
-0.41065482373541656 0.17246406726553523
-0.42813664851602534 0.2133457402702628
-0.41065482373541656 0.18881673646742625
-0.42813664851602534 0.17246406726553523
-0.41648209866228614 0.13975872886175317
-0.41648209866228614 0.18064040186648073
-0.41065482373541656 0.18881673646742625
-0.39900027388167736 0.2133457402702628
-0.39900027388167736 0.2051694056693173
-0.39317299895480773 0.18064040186648073
-0.38734572402793815 0.1642877326645897
-0.38734572402793815 0.2133457402702628
-0.3756911741741989 0.2051694056693173
-0.3698638992473293 0.2133457402702628
-0.3523820744667205 0.2133457402702628
-0.3582093493935901 0.18064040186648073
-0.3698638992473293 0.1642877326645897
-0.3698638992473293 0.18881673646742625
-0.3640366243204597 0.2215220748712083
-0.3290729747592421 0.2133457402702628
-0.3232456998323725 0.2215220748712083
-0.3290729747592421 0.2051694056693173
-0.31741842490550287 0.18064040186648073
-0.31159114997863324 0.18881673646742625
-0.29993660012489404 0.19699307106837177
-0.29410932519802446 0.2051694056693173
-0.28828205027115483 0.2051694056693173
-0.28245477534428526 0.18881673646742625
-0.28245477534428526 0.18064040186648073
-0.27080022549054605 0.18881673646742625
-0.2591456756368068 0.2051694056693173
-0.2358365759293284 0.2215220748712083
-0.23000930100245878 0.2133457402702628
-0.20670020129498037 0.2133457402702628
-0.18921837651437157 0.23787474407309936
-0.16590927680689313 0.3768724322891731
-0.09598197768445788 0.46681211289957375
-0.02605467856202262 0.33599075928444555
0.13128174446345672 0.15611139806364419
0.4750909651487634 0.1070533904579711
1.0927821073969415 0.13975872886175317
1.8328460231093813 0.2051694056693173
2.5729099388218213 0.2215220748712083
2.992473733556433 0.22969840947215384
2.9575100839952153 0.2051694056693173
2.840964585457823 0.1642877326645897
2.7710372863353876 0.09070072125608007
2.6952827122860827 0.05799538285229801
2.6311826880905174 0.04164271365040698
2.5379462892606037 -0.015591628556211625
2.4214007907232116 -0.0564733015609392
2.2932007423320804 -0.13823664757039436
2.1591734190140794 -0.21182365897890398
2.0368006455498175 -0.25270533198363154
1.9086005971586864 -0.3017633395893047
1.7629187239869462 -0.3262923433921412
1.5997550260345972 -0.3753503509978143
1.3724913038866826 -0.4325846932044329
1.1510548566656376 -0.5225243738148335
0.9121365846639838 -0.5797587160214521
0.67321831266233 -0.6369930582280707
0.39933639109945857 -0.718756404237526
0.1137999196828479 -0.8086960848479267
-0.16590927680689313 -0.8986357654583272
-0.42813664851602534 -0.9967517806696734
-0.6379185458833312 -1.0621624574772375
-0.8360458933968977 -1.1357494688857472
-0.9992095913492467 -1.2338654840970933
-1.156546014374726 -1.4219211799188403
-1.3138824374002054 -1.609976875740587
-1.4420824857913366 -1.798032571562334
-1.5644552592555983 -1.9288539251774621
-1.657691658085512 -2.002440936585972
-1.774237156622904 -2.116909620999209
-1.849991730672209 -2.264083643816228
-1.9257463047215138 -2.4112576666332477
-2.007328153697688 -2.5666080240512126
-2.1238736522350803 -2.721958381469177
-2.252073700626212 -2.8691324042861965
-2.351137374382995 -3.0163064271032156
-2.4502010481397782 -3.147127780718344
-2.5609192717503007 -3.1716567845211805
-2.6832920452145625 -3.040835430906052
-2.7415647944832586 -2.8118980620795777
-2.729910244629519 -2.591137027854049
-2.6366738457996055 -2.3294943206237924
-2.4735101478472568 -2.0923806171963726
-2.263728250479951 -1.879795917571789
-2.065600902966384 -1.6835638871490968
-1.849991730672209 -1.5200371951301865
-1.6343825583780336 -1.3401578339093851
-1.4479097607182063 -1.1929838110923658
-1.3138824374002054 -1.037633453674401
-1.2206460385702917 -0.9231647692611639
-1.1682005642284652 -0.8005197502469811
-1.1157550898866389 -0.7024037350356349
-1.040000515837334 -0.5715823814205067
-0.9700732167148987 -0.45711369700726945
-0.9409368420805506 -0.35082134719497776
-0.905973192519333 -0.2772343357864681
-0.8768368178849849 -0.21182365897890398
-0.8360458933968977 -0.09735497456566677
-0.7486367694938536 0.00893737524662492
-0.65540037066394 0.09887705585702558
-0.5621639718340263 0.1642877326645897
-0.463100298077243 0.2133457402702628
-0.3756911741741989 0.2542274132749904
-0.31159114997863324 0.311461755481609
-0.2533184007099372 0.4014014360920096
-0.17173655173376273 0.46681211289957375
-0.1076365275381971 0.5240464551061924
-0.043536503342631434 0.581280797312811
0.03221807070667343 0.5976334665147021
0.1196271946097175 0.630338804918484
0.2245181432933704 0.6875731471251026
0.3060999922695449 0.7284548201298302
0.3760272913919801 0.7284548201298302
0.42847276573380655 0.7121021509279393
0.4867455150025026 0.6957494817260482
0.5275364394905898 0.7448074893317213
0.5683273639786771 0.7529838239326668
0.5974637386130252 0.7856891623364488
0.6091182884667643 0.7938654969373944
0.6266001132473732 0.8020418315383399
0.6382546631011123 0.7938654969373944
0.6499092129548516 0.8183945007402309
0.6673910377354604 0.867452508345904
0.702354687296678 0.8592761737449585
0.7081819622235476 0.8838051775477951
0.7198365120772868 0.8756288429468495
0.7431456117847652 0.867452508345904
0.7548001616385045 0.8919815121487406
0.7839365362728524 0.9492158543553592
0.8247274607609397 0.9655685235572502
0.8538638353952878 0.9737448581581957
0.8655183852490269 0.9819211927591412
0.8771729351027662 0.9819211927591412
0.894654759883375 1.0146265311629232
0.9354456843714622 1.055508204167651
0.9762366088595494 1.088213542571433
1.011200258420767 1.088213542571433
1.0345093581282454 1.0963898771723783
1.0403366330551151 1.104566211773324
1.0636457327625934 1.153624219378997
1.0986093823238112 1.1945058923837246
1.1510548566656376 1.2108585615856156
1.1801912312999856 1.2353875653884523
1.1976730560805944 1.2108585615856156
1.220982155788073 1.2435638999893976
1.2384639805686817 1.3007982421960163
1.2850821799836385 1.390737922806417
1.320045829544856 1.4643249342149267
1.3550094791060738 1.5133829418205997
1.4016276785210307 1.5379119456234362
1.424936778228509 1.5624409494262728
1.4773822525703355 1.611498957031946
1.5006913522778138 1.660556964637619
1.5473095516927708 1.6932623030414011
1.5997550260345972 1.709614972243292
1.6347186755958147 1.7259676414451832
1.6522005003764235 1.7423203106470742
1.6871641499376413 1.7832019836518018
1.7396096242794676 1.8159073220555837
1.7687459989138157 1.7832019836518018
1.809536923401903 1.7423203106470742
1.8328460231093813 1.6850859684404556
1.8503278478899903 1.627851626233837
1.8619823977437293 1.5869699532291093
1.867809672670599 1.5297356110224907
1.8911187723780774 1.4643249342149267
1.8911187723780774 1.3662089190035804
1.838673298036251 1.2517402345903432
1.780400548767555 1.1454478847780516
1.7163005245719893 1.0636845387685965
1.6638550502301628 1.0309792003648144
1.646373225449554 0.9982738619610323
1.617236850815206 0.9492158543553592
1.5764459263271187 0.9001578467496861
1.5473095516927708 0.851099839144013
1.5181731770584228 0.8265708353411765
1.4715549776434658 0.7775128277355033
1.4191095033016394 0.7121021509279393
1.3608367540329434 0.6712204779232116
1.279254905056769 0.5894571319137565
1.220982155788073 0.5158701205052468
1.1510548566656376 0.4749884475005193
1.0811275575432024 0.4586357782986283
1.0228548082745064 0.44228310909673724
0.9587547840789407 0.4259304398948462
0.8830002100296358 0.4014014360920096
0.8130729109072005 0.36051976308728206
0.7314910619310261 0.3278144246835
0.6790455875891996 0.29510908627971794
0.6032910135398947 0.2624037478759359
0.5391909893443291 0.23787474407309936
0.4750909651487634 0.19699307106837177
0.41681821588006734 0.1479350634626987
0.3643727415382409 0.11522972505891661
0.3235818170501537 0.09887705585702558
0.29444544241580567 0.07434805205418904
0.26530906778145763 0.06617171745324353
0.20120904358589198 0.04164271365040698
0.13710901939032633 0.017113709847570435
0.1079726447559783 0.02529004444851595
0.07883627012163028 0.05799538285229801
0.061354445341021455 0.0498190482513525
0.04387262056041264 0.0498190482513525
0.00890897099919501 0.00893737524662492
-0.008572853781413805 0.00893737524662492
-0.03188195348889222 0.02529004444851595
-0.043536503342631434 0.03346637904946147
-0.03770922841576183 0.02529004444851595
-0.055191053196370646 0.02529004444851595
-0.08432742783071867 0.017113709847570435
-0.1134638024650667 0.017113709847570435
-0.10180925261132749 0.017113709847570435
-0.10180925261132749 0.03346637904946147
-0.10180925261132749 0.04164271365040698
-0.1134638024650667 0.02529004444851595
-0.12511835231880591 0.017113709847570435
-0.13094562724567552 0.0007610406456794045
-0.13094562724567552 0.00893737524662492
-0.1192910773919363 0.0498190482513525
-0.12511835231880591 0.0498190482513525
-0.12511835231880591 0.03346637904946147
-0.13094562724567552 0.02529004444851595
-0.15425472695315393 0.02529004444851595
-0.16008200188002353 0.04164271365040698
-0.14842745202628432 0.03346637904946147
-0.13677290217254512 0.05799538285229801
-0.14842745202628432 0.04164271365040698
-0.16590927680689313 0.017113709847570435
-0.17173655173376273 0.02529004444851595
-0.17173655173376273 0.04164271365040698
-0.16590927680689313 0.07434805205418904
-0.16008200188002353 0.05799538285229801
-0.17173655173376273 0.06617171745324353
-0.17173655173376273 0.04164271365040698
-0.18339110158750196 0.04164271365040698
-0.19504565144124117 0.06617171745324353
-0.17756382666063236 0.05799538285229801
-0.17756382666063236 0.08252438665513456
-0.15425472695315393 0.05799538285229801
-0.17756382666063236 0.06617171745324353
-0.17756382666063236 0.03346637904946147
-0.16590927680689313 0.05799538285229801
-0.16008200188002353 0.08252438665513456
-0.15425472695315393 0.09070072125608007
-0.14842745202628432 0.09070072125608007
-0.15425472695315393 0.07434805205418904
-0.16008200188002353 0.04164271365040698
-0.17173655173376273 0.05799538285229801
-0.17173655173376273 0.09070072125608007
-0.14842745202628432 0.09070072125608007
-0.14260017709941472 0.07434805205418904
-0.14842745202628432 0.07434805205418904
-0.15425472695315393 0.05799538285229801
-0.14842745202628432 0.07434805205418904
-0.13094562724567552 0.08252438665513456
-0.13094562724567552 0.09887705585702558
-0.13677290217254512 0.07434805205418904
-0.14260017709941472 0.03346637904946147
-0.14842745202628432 0.04164271365040698
-0.14260017709941472 0.0498190482513525
-0.15425472695315393 0.05799538285229801
-0.13677290217254512 0.05799538285229801
-0.13094562724567552 0.05799538285229801
-0.14842745202628432 0.02529004444851595
-0.14260017709941472 0.0498190482513525
-0.14842745202628432 0.05799538285229801
-0.14260017709941472 0.06617171745324353
-0.14842745202628432 0.05799538285229801
-0.13677290217254512 0.06617171745324353
-0.14260017709941472 0.04164271365040698
-0.14260017709941472 0.00893737524662492
-0.14260017709941472 0.04164271365040698
-0.13677290217254512 0.05799538285229801
-0.13094562724567552 0.05799538285229801
-0.1192910773919363 0.07434805205418904
-0.12511835231880591 0.04164271365040698
-0.14842745202628432 0.017113709847570435
-0.15425472695315393 0.03346637904946147
-0.14260017709941472 0.06617171745324353
-0.13677290217254512 0.06617171745324353
-0.1192910773919363 0.08252438665513456
-0.1134638024650667 0.03346637904946147
-0.15425472695315393 0.02529004444851595
-0.14260017709941472 0.03346637904946147
-0.14842745202628432 0.05799538285229801
-0.14260017709941472 0.07434805205418904
-0.13677290217254512 0.09070072125608007
-0.15425472695315393 0.04164271365040698
-0.15425472695315393 0.0498190482513525
-0.15425472695315393 0.04164271365040698
-0.14260017709941472 0.0498190482513525
-0.12511835231880591 0.04164271365040698
-0.13094562724567552 0.05799538285229801
-0.13094562724567552 0.0498190482513525
-0.13094562724567552 0.02529004444851595
-0.13677290217254512 0.0498190482513525
-0.13677290217254512 0.05799538285229801
-0.1192910773919363 0.06617171745324353
-0.13094562724567552 0.05799538285229801
-0.13677290217254512 0.0498190482513525
-0.14260017709941472 0.02529004444851595
-0.14842745202628432 0.03346637904946147
-0.13094562724567552 0.03346637904946147
-0.1134638024650667 0.04164271365040698
-0.13094562724567552 0.02529004444851595
-0.1134638024650667 0.03346637904946147
-0.13094562724567552 0.00893737524662492
-0.13677290217254512 0.017113709847570435
-0.12511835231880591 0.0498190482513525
-0.1134638024650667 0.03346637904946147
-0.10180925261132749 0.0498190482513525
-0.12511835231880591 0.02529004444851595
-0.13094562724567552 0.00893737524662492
-0.13094562724567552 0.03346637904946147
-0.1192910773919363 0.04164271365040698
-0.10180925261132749 0.04164271365040698
-0.1076365275381971 0.04164271365040698
-0.1076365275381971 0.017113709847570435
-0.1076365275381971 0.00893737524662492
-0.1192910773919363 0.017113709847570435
-0.1134638024650667 0.03346637904946147
-0.09598197768445788 0.03346637904946147
-0.09015470275758827 0.0498190482513525
-0.09598197768445788 0.00893737524662492
-0.10180925261132749 0.00893737524662492
-0.10180925261132749 0.02529004444851595
-0.08432742783071867 0.04164271365040698
-0.07267287797697947 0.04164271365040698
-0.06684560305010985 0.017113709847570435
-0.07850015290384907 0.02529004444851595
-0.07267287797697947 0.00893737524662492
-0.07850015290384907 0.04164271365040698
-0.043536503342631434 0.09070072125608007
-0.008572853781413805 0.2051694056693173
0.00890897099919501 0.3278144246835
0.04969989548728224 0.39322510149106416
0.1079726447559783 0.2624037478759359
0.24782724300084882 0.0498190482513525
0.5275364394905898 -0.02376796315715714
1.0228548082745064 0.03346637904946147
1.6988186997913806 0.07434805205418904
2.339818941747037 0.06617171745324353
2.73607363677417 0.03346637904946147
2.840964585457823 0.02529004444851595
2.8234827606772144 0.0007610406456794045
2.7768645612622573 0.0007610406456794045
2.74190091170104 -0.04012063235904817
2.6894554373592134 -0.1055313091666123
2.6137008633099086 -0.14641298217133986
2.520464464479995 -0.17911832057512192
2.415573515796342 -0.19547098977701297
2.3456462166739067 -0.24452899738268605
2.2349279930633843 -0.28541067038741363
2.130037044379731 -0.3753503509978143
2.030973370622948 -0.4162320240025419
1.9027733222318166 -0.4407610278053784
1.7745732738406854 -0.4489373624063239
1.6230641257420757 -0.4898190354110515
1.454073152862857 -0.5470533776176701
1.2384639805686817 -0.6206403890261798
1.0286820832013759 -0.6942274004346893
0.8305547356878094 -0.7432854080403625
0.6091182884667643 -0.8332250886507632
0.3643727415382409 -0.8822830962564362
0.1196271946097175 -0.9558701076649458
-0.10180925261132749 -1.037633453674401
-0.31159114997863324 -1.0948677958810196
-0.4980639476384606 -1.1602784726885838
-0.6437458208102007 -1.2338654840970933
-0.80108224383568 -1.3319814993084396
-0.9467641170074202 -1.4873318567264044
-1.0866187152522908 -1.6835638871490968
-1.2089914887165525 -1.8225615753651705
-1.3138824374002054 -1.9206775905765168
-1.4187733860838583 -1.9942646019850263
-1.5003552350600327 -2.067851613393536
-1.5935916338899463 -2.165967628604882
-1.6868280327198601 -2.354023324426629
-1.7800644315497738 -2.476668343440812
-1.896609930087166 -2.6156660316568856
-2.013155428624558 -2.7628400544739047
-2.141355477015689 -2.893661408089033
-2.2695555254068207 -3.08171710391078
-2.391928298871082 -3.2370674613287447
-2.4968192475547353 -3.2370674613287447
-2.6191920210189967 -3.114422442314562
-2.7124284198489104 -2.926366746492815
-2.72408296970265 -2.7464873852720135
-2.6658102204339538 -2.5502553548493214
-2.57257382160404 -2.337670655224738
-2.4210646735054304 -2.149614959402991
-2.252073700626212 -1.9370302597784077
-2.042291803258906 -1.7162692255528789
-1.8266826309647306 -1.5772715373368051
-1.6460371082317728 -1.4464501837216768
-1.4828734102794239 -1.3319814993084396
-1.377982461595771 -1.1929838110923658
-1.2964006126195966 -1.0785151266791286
-1.2206460385702917 -0.9558701076649458
-1.1623732893015957 -0.8414014232517086
-1.1157550898866389 -0.7432854080403625
-1.0633096155448123 -0.6533457274299618
-1.040000515837334 -0.5634060468195612
-1.0166914161298555 -0.46529003160821497
-0.9817277665686378 -0.34264501259403224
-0.9467641170074202 -0.22817632818079503
-0.8768368178849849 -0.13823664757039436
-0.8243913435431585 -0.07282597076283023
-0.7369822196401145 -0.015591628556211625
-0.6320912709564616 0.08252438665513456
-0.521373047345939 0.17246406726553523
-0.42230937358915577 0.24605107867404485
-0.3582093493935901 0.35234342848633654
-0.30576387505176367 0.4259304398948462
-0.2533184007099372 0.5240464551061924
-0.19504565144124117 0.6466914741203751
-0.12511835231880591 0.7448074893317213
-0.03188195348889222 0.8020418315383399
0.07300899519476066 0.867452508345904
0.16624539402467434 0.9165105159515771
0.24782724300084882 0.9328631851534681
0.3294090919770233 0.9900975273600867
0.40516366602632814 1.0473318695667053
0.4867455150025026 1.0718608733695418
0.5625000890518075 1.104566211773324
0.6149455633936339 1.120918880975215
0.6382546631011123 1.104566211773324
0.6848728625160692 1.0718608733695418
0.7140092371504172 1.0228028657638688
0.7548001616385045 0.9982738619610323
0.7839365362728524 0.9655685235572502
0.8189001858340701 0.8756288429468495
0.8422092855415485 0.8429235045430675
0.8771729351027662 0.8183945007402309
0.9179638595908534 0.8020418315383399
0.923791134517723 0.7693364931345579
0.923791134517723 0.7366311547307758
0.9004820348102446 0.7202784855288847
0.8830002100296358 0.7039258163269937
0.8830002100296358 0.7202784855288847
0.8888274849565053 0.7529838239326668
0.9121365846639838 0.7856891623364488
0.9296184094445926 0.7938654969373944
0.9471002342252014 0.7938654969373944
0.9412729592983318 0.7938654969373944
0.952927509152071 0.834747169942122
0.9762366088595494 0.851099839144013
0.9995457085670278 0.8838051775477951
0.9995457085670278 0.8838051775477951
1.0053729834938974 0.8919815121487406
0.9937184336401582 0.9328631851534681
1.0053729834938974 0.9819211927591412
1.0461639079819847 1.0228028657638688
1.0461639079819847 1.0718608733695418
1.057818457835724 1.1127425463742695
1.0636457327625934 1.0963898771723783
1.057818457835724 1.1290952155761604
1.057818457835724 1.1290952155761604
1.0694730076894632 1.169976888580888
1.0694730076894632 1.1781532231818337
1.0811275575432024 1.2026822269846702
1.086954832470072 1.186329557782779
1.086954832470072 1.186329557782779
1.0986093823238112 1.2108585615856156
1.1335730318850288 1.2272112307875067
1.1510548566656376 1.2517402345903432
1.1568821315925073 1.2599165691912888
1.1685366814462463 1.2517402345903432
1.1685366814462463 1.2435638999893976
1.174363956373116 1.2517402345903432
1.1860185062268551 1.2844455729941253
1.2035003310074641 1.292621907595071
1.2151548808612032 1.292621907595071
1.1976730560805944 1.2599165691912888
1.1976730560805944 1.2435638999893976
1.1918457811537249 1.2517402345903432
1.2035003310074641 1.2680929037922342
1.2035003310074641 1.2272112307875067
1.1918457811537249 1.2190348961865611
1.1801912312999856 1.186329557782779
1.1277457569581593 1.153624219378997
1.1219184820312895 1.137271550177106
1.1102639321775503 1.120918880975215
1.1044366572506807 1.0963898771723783
1.0694730076894632 1.0473318695667053
1.0403366330551151 1.0064501965619779
1.011200258420767 0.9410395197544137
0.9704093339326798 0.9083341813506316
0.9587547840789407 0.8756288429468495
0.9354456843714622 0.8592761737449585
0.9063093097371142 0.7856891623364488
0.8655183852490269 0.7366311547307758
0.8130729109072005 0.6630441433222661
0.760627436565374 0.630338804918484
0.7314910619310261 0.5894571319137565
0.7081819622235476 0.5485754589090289
0.6673910377354604 0.4913411167024103
0.6149455633936339 0.41775410529390067
0.5508455391980682 0.344167093885391
0.510054614709981 0.344167093885391
0.4692636902218938 0.3278144246835
0.42847276573380655 0.29510908627971794
0.39350911617258894 0.24605107867404485
0.3410636418307625 0.2051694056693173
0.29444544241580567 0.1642877326645897
0.24199996807397922 0.15611139806364419
0.20703631851276158 0.13975872886175317
0.17789994387841357 0.13975872886175317
0.13710901939032633 0.11522972505891661
0.09631809490223908 0.09070072125608007
0.04387262056041264 0.04164271365040698
0.026390795779803824 0.0498190482513525
-0.0027455788545442004 0.0498190482513525
-0.03188195348889222 0.03346637904946147
-0.055191053196370646 0.04164271365040698
-0.1076365275381971 0.017113709847570435
-0.1192910773919363 -0.007415293955266111
-0.13677290217254512 0.0007610406456794045
-0.17173655173376273 0.017113709847570435
-0.16590927680689313 0.017113709847570435
-0.18921837651437157 0.04164271365040698
-0.21835475114871958 0.02529004444851595
-0.2358365759293284 0.0007610406456794045
-0.24749112578306762 0.04164271365040698
-0.24749112578306762 0.05799538285229801
-0.24749112578306762 0.05799538285229801
-0.27662750041741563 0.0498190482513525
-0.27662750041741563 0.02529004444851595
-0.28245477534428526 0.02529004444851595
-0.29410932519802446 0.0498190482513525
-0.28245477534428526 0.06617171745324353
-0.28828205027115483 0.05799538285229801
-0.29993660012489404 0.06617171745324353
-0.3232456998323725 0.05799538285229801
-0.31741842490550287 0.05799538285229801
-0.31741842490550287 0.06617171745324353
-0.3290729747592421 0.09887705585702558
-0.31159114997863324 0.1070533904579711
-0.31741842490550287 0.09070072125608007
-0.3290729747592421 0.09887705585702558
-0.3290729747592421 0.06617171745324353
-0.3290729747592421 0.09887705585702558
-0.3232456998323725 0.13158239426080764
-0.3232456998323725 0.12340605965986214
-0.3232456998323725 0.1479350634626987
-0.3290729747592421 0.12340605965986214
-0.3407275246129813 0.11522972505891661
-0.3465547995398509 0.12340605965986214
-0.3232456998323725 0.15611139806364419
-0.31741842490550287 0.1479350634626987
-0.3290729747592421 0.15611139806364419
-0.3290729747592421 0.1479350634626987
-0.3407275246129813 0.13158239426080764
-0.3407275246129813 0.1479350634626987
-0.31741842490550287 0.1642877326645897
-0.31159114997863324 0.18064040186648073
-0.31741842490550287 0.18064040186648073
-0.31159114997863324 0.15611139806364419
-0.3290729747592421 0.17246406726553523
-0.3290729747592421 0.15611139806364419
-0.29993660012489404 0.17246406726553523
-0.29993660012489404 0.17246406726553523
-0.28245477534428526 0.18881673646742625
-0.28245477534428526 0.15611139806364419
-0.29410932519802446 0.13975872886175317
-0.29993660012489404 0.1479350634626987
-0.28828205027115483 0.18064040186648073
-0.28828205027115483 0.18064040186648073
-0.2649729505636764 0.1642877326645897
-0.27080022549054605 0.1479350634626987
-0.27662750041741563 0.13158239426080764
-0.28245477534428526 0.15611139806364419
-0.2649729505636764 0.1479350634626987
-0.2591456756368068 0.1642877326645897
-0.2533184007099372 0.17246406726553523
-0.27662750041741563 0.13158239426080764
-0.27080022549054605 0.1070533904579711
-0.2591456756368068 0.13975872886175317
-0.2591456756368068 0.13158239426080764
-0.2533184007099372 0.13158239426080764
-0.2533184007099372 0.13158239426080764
-0.2533184007099372 0.09887705585702558
-0.2649729505636764 0.09887705585702558
-0.27080022549054605 0.11522972505891661
-0.27080022549054605 0.1070533904579711
-0.2533184007099372 0.12340605965986214
-0.27662750041741563 0.11522972505891661
-0.27080022549054605 0.08252438665513456
-0.27662750041741563 0.07434805205418904
-0.2591456756368068 0.07434805205418904
-0.27662750041741563 0.1070533904579711
-0.2649729505636764 0.09887705585702558
-0.27080022549054605 0.09887705585702558
-0.28245477534428526 0.06617171745324353
-0.27662750041741563 0.06617171745324353
-0.28828205027115483 0.06617171745324353
-0.2649729505636764 0.09070072125608007
-0.27662750041741563 0.1070533904579711
-0.27662750041741563 0.09070072125608007
-0.28245477534428526 0.0498190482513525
-0.27662750041741563 0.04164271365040698
-0.27662750041741563 0.06617171745324353
-0.27080022549054605 0.07434805205418904
-0.2533184007099372 0.07434805205418904
-0.2591456756368068 0.06617171745324353
-0.2649729505636764 0.04164271365040698
-0.27080022549054605 0.04164271365040698
-0.27662750041741563 0.03346637904946147
-0.2649729505636764 0.07434805205418904
-0.2649729505636764 0.06617171745324353
-0.2591456756368068 0.05799538285229801
-0.2649729505636764 0.0498190482513525
-0.27662750041741563 0.02529004444851595
-0.27080022549054605 0.0498190482513525
-0.2533184007099372 0.06617171745324353
-0.2533184007099372 0.06617171745324353
-0.2649729505636764 0.05799538285229801
-0.2591456756368068 0.05799538285229801
-0.2649729505636764 0.02529004444851595
-0.27080022549054605 0.0498190482513525
-0.2591456756368068 0.05799538285229801
-0.24749112578306762 0.07434805205418904
-0.24749112578306762 0.06617171745324353
-0.2533184007099372 0.0498190482513525
-0.2649729505636764 0.04164271365040698
-0.2649729505636764 0.03346637904946147
-0.24749112578306762 0.0498190482513525
-0.24166385085619801 0.07434805205418904
-0.2358365759293284 0.05799538285229801
-0.24749112578306762 0.05799538285229801
-0.2533184007099372 0.03346637904946147
-0.2533184007099372 0.04164271365040698
-0.2533184007099372 0.06617171745324353
-0.23000930100245878 0.06617171745324353
-0.23000930100245878 0.05799538285229801
-0.23000930100245878 0.0498190482513525
-0.2358365759293284 0.03346637904946147
-0.24749112578306762 0.03346637904946147
-0.22418202607558918 0.0498190482513525
-0.21252747622184998 0.06617171745324353
-0.21252747622184998 0.07434805205418904
-0.22418202607558918 0.04164271365040698
-0.21835475114871958 0.02529004444851595
-0.21835475114871958 0.04164271365040698
-0.20670020129498037 0.0498190482513525
-0.19504565144124117 0.05799538285229801
-0.18921837651437157 0.05799538285229801
-0.17756382666063236 0.04164271365040698
-0.20087292636811077 0.02529004444851595
-0.18921837651437157 0.03346637904946147
-0.18339110158750196 0.0498190482513525
-0.14842745202628432 0.06617171745324353
-0.14260017709941472 0.09070072125608007
-0.13677290217254512 0.1070533904579711
-0.1076365275381971 0.2051694056693173
-0.09015470275758827 0.3278144246835
0.003081696072325405 0.27875641707782695
0.1196271946097175 0.09070072125608007
0.3352363669038929 -0.015591628556211625
0.8130729109072005 -0.007415293955266111
1.454073152862857 0.04164271365040698
2.130037044379731 0.07434805205418904
2.59039176360243 0.07434805205418904
2.74190091170104 0.06617171745324353
2.7011099872129525 0.0498190482513525
2.6370099630173867 0.017113709847570435
2.602046313456169 -0.02376796315715714
2.5554281140412125 -0.031944297758102654
2.514637189553125 -0.06464963616188471
2.4214007907232116 -0.08917863996472127
2.310682567112689 -0.13823664757039436
2.205791618429036 -0.19547098977701297
2.0950733948185136 -0.23635266278174052
1.9901824461348607 -0.3017633395893047
1.867809672670599 -0.30993967419025015
1.7687459989138157 -0.35082134719497776
1.6288914006689452 -0.40805568940159637
1.454073152862857 -0.4489373624063239
1.2617730802761602 -0.5225243738148335
1.057818457835724 -0.5470533776176701
0.8713456601758965 -0.5961113852233432
0.6907001374429388 -0.6615220620309074
0.4750909651487634 -0.751461742641308
0.2536545179277184 -0.8414014232517086
0.003081696072325405 -0.9476937730640004
-0.22418202607558918 -0.9885754460687279
-0.42813664851602534 -0.9885754460687279
-0.6146094461758528 -0.9885754460687279
-0.7777731441282016 -1.0131044498715644
-0.9409368420805506 -1.0948677958810196
-1.109927814959769 -1.1848074764914203
-1.2497824132046398 -1.2992761609046575
-1.3546733618882925 -1.4464501837216768
-1.4420824857913366 -1.6018005411396417
-1.5469734344749895 -1.7244455601538242
-1.6751734828661209 -1.8062089061632796
-1.733446232134817 -1.89614858677368
-1.803373531257252 -2.0269699403888084
-1.867473555452818 -2.116909620999209
-1.9432281295021228 -2.2804363130181193
-2.065600902966384 -2.5011973472436484
-2.176319126576907 -2.738311050671068
-2.3161737248217773 -2.942719415694706
-2.438546498286039 -3.1225987769155075
-2.531782897115953 -3.2207147921268535
-2.630846570872736 -3.196185788324017
-2.706601144922041 -3.098069773112671
-2.7590466192638674 -2.975424754098488
-2.72408296970265 -2.8364270658824142
-2.57257382160404 -2.6483713700606675
-2.3569646493098646 -2.435786670436084
-2.1063918274544715 -2.20684930160961
-1.8849553802334267 -2.0433226095906996
-1.6751734828661209 -1.8879722521727347
-1.5003552350600327 -1.7735035677594975
-1.3313642621808142 -1.6018005411396417
-1.1740278391553347 -1.4300975145197858
-1.0866187152522908 -1.274747157101821
-1.040000515837334 -1.1684548072895293
-0.9992095913492467 -1.0621624574772375
-0.9759004916417683 -0.9885754460687279
-0.9292822922268114 -0.8495777578526542
-0.8826640928118545 -0.6942274004346893
-0.8418731683237674 -0.5879350506223977
-0.8127367936894193 -0.481642700810106
-0.7894276939819409 -0.3671740163968688
-0.7486367694938536 -0.28541067038741363
-0.6903640202251576 -0.1627656513732309
-0.6087821712489832 -0.048296966959993685
-0.5155457724190694 0.04164271365040698
-0.43396392344289497 0.09887705585702558
-0.3582093493935901 0.12340605965986214
-0.30576387505176367 0.18064040186648073
-0.2591456756368068 0.24605107867404485
-0.20087292636811077 0.30328542088066346
-0.15425472695315393 0.36051976308728206
-0.1134638024650667 0.3768724322891731
-0.03770922841576183 0.39322510149106416
0.02056352085293422 0.4014014360920096
0.10214536982910868 0.44228310909673724
0.16624539402467434 0.4913411167024103
0.23034541822024 0.49951745130335584
0.28279089256206646 0.49951745130335584
0.29444544241580567 0.5076937859043014
0.3352363669038929 0.5158701205052468
0.3585454666113713 0.5567517935099744
0.39350911617258894 0.5731044627118654
0.41099094095319777 0.6058098011156475
0.41099094095319777 0.6058098011156475
0.41099094095319777 0.6058098011156475
0.42847276573380655 0.6221624703175386
0.42847276573380655 0.6466914741203751
0.4634364152950242 0.6875731471251026
0.4867455150025026 0.7039258163269937
0.480918240075633 0.7121021509279393
0.5042273397831114 0.6957494817260482
0.5042273397831114 0.7039258163269937
0.5042273397831114 0.7202784855288847
0.5450182642711987 0.7938654969373944
0.5625000890518075 0.8020418315383399
0.5858091887592859 0.8183945007402309
0.5974637386130252 0.8183945007402309
0.6091182884667643 0.8265708353411765
0.6149455633936339 0.8429235045430675
0.6557364878817211 0.9001578467496861
0.6848728625160692 0.9165105159515771
0.702354687296678 0.9328631851534681
0.7140092371504172 0.9410395197544137
0.7314910619310261 0.9328631851534681
0.760627436565374 0.9900975273600867
0.7955910861265917 1.0391555349657597
0.8363820106146789 1.0636845387685965
0.8655183852490269 1.0718608733695418
0.8830002100296358 1.0963898771723783
0.9063093097371142 1.104566211773324
0.9354456843714622 1.137271550177106
0.9704093339326798 1.169976888580888
1.0170275333476366 1.2026822269846702
1.0461639079819847 1.2435638999893976
1.057818457835724 1.2353875653884523
1.0811275575432024 1.2353875653884523
1.1044366572506807 1.2680929037922342
1.1394003068118983 1.3007982421960163
1.1685366814462463 1.3007982421960163
1.1976730560805944 1.3253272459988528
1.2151548808612032 1.3335035805997983
1.2093276059343336 1.3253272459988528
1.2268094307149424 1.3498562498016895
1.250118530422421 1.3662089190035804
1.279254905056769 1.374385253604526
1.2850821799836385 1.374385253604526
1.2850821799836385 1.3580325844026349
1.279254905056769 1.3171509113979074
1.2734276301298992 1.3335035805997983
1.290909454910508 1.3335035805997983
1.2850821799836385 1.3171509113979074
1.2850821799836385 1.3171509113979074
1.2734276301298992 1.2762692383931797
1.2676003552030297 1.2190348961865611
1.2442912554955512 1.2026822269846702
1.2326367056418122 1.2026822269846702
1.2268094307149424 1.169976888580888
1.1976730560805944 1.137271550177106
1.1801912312999856 1.0800372079704874
1.1335730318850288 1.0391555349657597
1.1102639321775503 0.9737448581581957
1.086954832470072 0.9573921889563047
1.0636457327625934 0.9246868505525226
1.0345093581282454 0.851099839144013
0.9995457085670278 0.7856891623364488
0.9471002342252014 0.7202784855288847
0.9121365846639838 0.6957494817260482
0.8888274849565053 0.6957494817260482
0.8655183852490269 0.6058098011156475
0.8130729109072005 0.5567517935099744
0.7548001616385045 0.5076937859043014
0.6907001374429388 0.45045944369768276
0.6324273881742427 0.4259304398948462
0.5916364636861555 0.4014014360920096
0.5741546389055467 0.3686960976882276
0.5275364394905898 0.3278144246835
0.4692636902218938 0.2705800824768814
0.42847276573380655 0.2624037478759359
0.3702000164651105 0.2624037478759359
0.3468909167576321 0.24605107867404485
0.3294090919770233 0.23787474407309936
0.27696361763519683 0.19699307106837177
0.2245181432933704 0.17246406726553523
0.18955449373215277 0.13158239426080764
0.14876356924406553 0.13158239426080764
0.1196271946097175 0.13975872886175317
0.1079726447559783 0.15611139806364419
0.061354445341021455 0.12340605965986214
0.04969989548728224 0.1070533904579711
0.014736245926064614 0.07434805205418904
-0.014400128708283411 0.08252438665513456
-0.014400128708283411 0.1070533904579711
-0.020227403635153015 0.09887705585702558
-0.055191053196370646 0.07434805205418904
-0.049363778269501044 0.05799538285229801
-0.07267287797697947 0.04164271365040698
-0.09598197768445788 0.05799538285229801
-0.10180925261132749 0.08252438665513456
-0.08432742783071867 0.07434805205418904
-0.10180925261132749 0.07434805205418904
-0.12511835231880591 0.06617171745324353
-0.13094562724567552 0.04164271365040698
-0.16008200188002353 0.07434805205418904
-0.14842745202628432 0.08252438665513456
-0.13677290217254512 0.06617171745324353
-0.14260017709941472 0.0498190482513525
-0.15425472695315393 0.0498190482513525
-0.16008200188002353 0.03346637904946147
-0.17173655173376273 0.05799538285229801
-0.17756382666063236 0.07434805205418904
-0.16590927680689313 0.09887705585702558
-0.16008200188002353 0.09070072125608007
-0.16590927680689313 0.07434805205418904
-0.18921837651437157 0.05799538285229801
-0.20087292636811077 0.0498190482513525
-0.20670020129498037 0.08252438665513456
-0.18339110158750196 0.08252438665513456
-0.19504565144124117 0.09887705585702558
-0.20670020129498037 0.07434805205418904
-0.21252747622184998 0.04164271365040698
-0.22418202607558918 0.06617171745324353
-0.21252747622184998 0.08252438665513456
-0.18921837651437157 0.09070072125608007
-0.19504565144124117 0.09887705585702558
-0.19504565144124117 0.07434805205418904
-0.20087292636811077 0.03346637904946147
-0.20670020129498037 0.07434805205418904
-0.19504565144124117 0.09887705585702558
-0.20087292636811077 0.1070533904579711
-0.18921837651437157 0.09887705585702558
-0.19504565144124117 0.08252438665513456
-0.20670020129498037 0.08252438665513456
-0.21252747622184998 0.09887705585702558
-0.19504565144124117 0.09887705585702558
-0.18339110158750196 0.09887705585702558
-0.17173655173376273 0.09070072125608007
-0.17756382666063236 0.09887705585702558
-0.18921837651437157 0.08252438665513456
-0.18921837651437157 0.09070072125608007
-0.17173655173376273 0.09887705585702558
-0.17173655173376273 0.09887705585702558
-0.14842745202628432 0.09887705585702558
-0.16590927680689313 0.09070072125608007
-0.17173655173376273 0.0498190482513525
-0.16590927680689313 0.07434805205418904
-0.17173655173376273 0.09070072125608007
-0.14260017709941472 0.07434805205418904
-0.13677290217254512 0.06617171745324353
-0.15425472695315393 0.05799538285229801
-0.15425472695315393 0.03346637904946147
-0.15425472695315393 0.04164271365040698
-0.14842745202628432 0.0498190482513525
-0.13094562724567552 0.07434805205418904
-0.13677290217254512 0.0498190482513525
-0.13094562724567552 0.04164271365040698
-0.14260017709941472 0.04164271365040698
-0.16008200188002353 0.02529004444851595
-0.14260017709941472 0.04164271365040698
-0.13677290217254512 0.02529004444851595
-0.13677290217254512 0.02529004444851595
-0.14842745202628432 0.017113709847570435
-0.14842745202628432 0.00893737524662492
-0.15425472695315393 0.02529004444851595
-0.14842745202628432 0.03346637904946147
-0.13677290217254512 0.02529004444851595
-0.13094562724567552 0.02529004444851595
-0.14842745202628432 0.00893737524662492
-0.16008200188002353 -0.02376796315715714
-0.17756382666063236 0.0007610406456794045
-0.16590927680689313 0.00893737524662492
-0.14842745202628432 0.017113709847570435
-0.15425472695315393 0.00893737524662492
-0.15425472695315393 0.0007610406456794045
-0.15425472695315393 -0.031944297758102654
-0.17173655173376273 -0.015591628556211625
-0.16008200188002353 0.00893737524662492
-0.16008200188002353 0.00893737524662492
-0.14842745202628432 0.0007610406456794045
-0.17173655173376273 -0.015591628556211625
-0.16590927680689313 -0.02376796315715714
-0.17173655173376273 -0.015591628556211625
-0.15425472695315393 0.00893737524662492
-0.15425472695315393 -0.015591628556211625
-0.15425472695315393 0.0007610406456794045
-0.15425472695315393 -0.02376796315715714
-0.16590927680689313 -0.015591628556211625
-0.17756382666063236 -0.015591628556211625
-0.16008200188002353 0.00893737524662492
-0.15425472695315393 0.00893737524662492
-0.16008200188002353 -0.007415293955266111
-0.17173655173376273 -0.031944297758102654
-0.16590927680689313 -0.048296966959993685
-0.16590927680689313 -0.015591628556211625
-0.16590927680689313 0.0007610406456794045
-0.15425472695315393 0.017113709847570435
-0.14842745202628432 0.00893737524662492
-0.15425472695315393 0.00893737524662492
-0.16008200188002353 -0.02376796315715714
-0.16590927680689313 -0.015591628556211625
-0.15425472695315393 0.0007610406456794045
-0.13677290217254512 0.02529004444851595
-0.13094562724567552 0.0007610406456794045
-0.13677290217254512 -0.031944297758102654
-0.14842745202628432 -0.031944297758102654
-0.16008200188002353 0.0007610406456794045
-0.14260017709941472 0.0007610406456794045
-0.13094562724567552 0.017113709847570435
-0.13677290217254512 0.0007610406456794045
-0.13094562724567552 0.00893737524662492
-0.13677290217254512 -0.015591628556211625
-0.13094562724567552 -0.015591628556211625
-0.12511835231880591 0.017113709847570435
-0.1192910773919363 0.04164271365040698
-0.12511835231880591 0.04164271365040698
-0.1192910773919363 0.06617171745324353
-0.13094562724567552 0.09887705585702558
-0.12511835231880591 0.1479350634626987
-0.09015470275758827 0.2051694056693173
-0.07267287797697947 0.2542274132749904
-0.049363778269501044 0.311461755481609
-0.03188195348889222 0.29510908627971794
-0.03770922841576183 0.30328542088066346
-0.02605467856202262 0.3278144246835
-0.008572853781413805 0.3686960976882276
0.014736245926064614 0.41775410529390067
0.05552717041415185 0.46681211289957375
0.07883627012163028 0.4586357782986283
0.09631809490223908 0.4586357782986283
0.13128174446345672 0.5076937859043014
0.17789994387841357 0.6058098011156475
0.24199996807397922 0.6548678087213207
0.3235818170501537 0.4586357782986283
0.41099094095319777 0.18064040186648073
0.6207728383205036 -0.007415293955266111
1.0286820832013759 0.04164271365040698
1.6696823251570325 0.04164271365040698
2.281546192478341 0.017113709847570435
2.6719736125786047 -0.048296966959993685
2.794346386042866 -0.08917863996472127
2.7652100114085183 -0.13006031296944884
2.706937262139822 -0.17094198597417642
2.7011099872129525 -0.2199999935798495
2.666146337651735 -0.24452899738268605
2.6253554131636476 -0.2690580011855226
2.532119014333734 -0.3671740163968688
2.4388826155038204 -0.4244083586034874
2.339818941747037 -0.481642700810106
2.2407552679902536 -0.4898190354110515
2.135864319306601 -0.5470533776176701
2.0018369959886 -0.6042877198242887
1.8561551228168598 -0.6860510658337439
1.70464597471825 -0.718756404237526
1.5065186272046835 -0.7432854080403625
1.3258731044717258 -0.767814411843199
1.1277457569581593 -0.78416708104509
0.923791134517723 -0.8414014232517086
0.702354687296678 -0.9313411038621093
0.4401273155875458 -1.02128078447251
0.16041811909780473 -1.0866914612800742
-0.07850015290384907 -1.1521021380876382
-0.31741842490550287 -1.1848074764914203
-0.5505094219802871 -1.2829234917027665
-0.7894276939819409 -1.3810395069141126
-0.9875550414955074 -1.511860860529241
-1.1798551140822044 -1.6590348833462603
-1.3430188120345534 -1.847090579168007
-1.4479097607182063 -2.018793605787863
-1.5761098091093375 -2.198672967008664
-1.745100781988556 -2.386728662830411
-1.896609930087166 -2.5011973472436484
-1.9840190539902098 -2.5993133624549944
-2.0364645283320364 -2.7056057122672863
-2.0772554528201237 -2.828250731281469
-2.1704918516500373 -2.9836010886994337
-2.2870373501874295 -3.1553041153192893
-2.4210646735054304 -3.3188308073381996
-2.5492647218965616 -3.4251231571504914
-2.6425011207264752 -3.4823574993571103
-2.764873894190737 -3.4251231571504914
-2.86393756794752 -3.302478138136309
-2.928037592143086 -3.0653644347088886
-2.916383042289347 -2.8691324042861965
-2.7707011691176064 -2.623842366257831
-2.531782897115953 -2.3785523282294654
-2.27538280033369 -2.116909620999209
-2.0772554528201237 -1.9206775905765168
-1.8616462805259482 -1.7407982293557154
-1.657691658085512 -1.609976875740587
-1.4887006852062934 -1.4709791875245133
-1.3430188120345534 -1.307452495505603
-1.2556096881315093 -1.1848074764914203
-1.1973369388628132 -1.0785151266791286
-1.144891464520987 -0.9722227768668369
-1.109927814959769 -0.8659304270545453
-1.0691368904716818 -0.751461742641308
-1.040000515837334 -0.6369930582280707
-1.0050368662761162 -0.5552297122186156
-0.9759004916417683 -0.481642700810106
-0.935109567153681 -0.39987935480065084
-0.8768368178849849 -0.3262923433921412
-0.7952549689088105 -0.22817632818079503
-0.6961912951520272 -0.13823664757039436
-0.6029548963221135 -0.048296966959993685
-0.5155457724190694 -0.007415293955266111
-0.4514457482235038 0.03346637904946147
-0.40482754880854693 0.07434805205418904
-0.3523820744667205 0.13975872886175317
-0.30576387505176367 0.23787474407309936
-0.22418202607558918 0.2624037478759359
-0.13677290217254512 0.30328542088066346
-0.06101832812324025 0.344167093885391
0.02056352085293422 0.39322510149106416
0.08466354504849988 0.40957777069295515
0.15459084417093513 0.4586357782986283
0.2245181432933704 0.4749884475005193
0.27696361763519683 0.4831647821014648
0.3235818170501537 0.49951745130335584
0.3527181916845017 0.5158701205052468
0.3760272913919801 0.5076937859043014
0.38185456631884973 0.5322227897071379
0.41681821588006734 0.5485754589090289
0.422645490806937 0.5567517935099744
0.4401273155875458 0.5403991243080835
0.4401273155875458 0.56492812811092
0.4576091403681546 0.5976334665147021
0.480918240075633 0.630338804918484
0.5217091645637203 0.6466914741203751
0.5450182642711987 0.6548678087213207
0.5391909893443291 0.6466914741203751
0.5566728141249379 0.6630441433222661
0.5683273639786771 0.6875731471251026
0.5974637386130252 0.7121021509279393
0.6324273881742427 0.7529838239326668
0.6557364878817211 0.7938654969373944
0.67321831266233 0.7938654969373944
0.6907001374429388 0.7938654969373944
0.702354687296678 0.8265708353411765
0.7431456117847652 0.867452508345904
0.789763811199722 0.8919815121487406
0.8305547356878094 0.9001578467496861
0.8247274607609397 0.9083341813506316
0.8480365604684181 0.9083341813506316
0.894654759883375 0.9410395197544137
0.9179638595908534 0.9900975273600867
0.9471002342252014 1.0064501965619779
0.9937184336401582 1.0391555349657597
1.0228548082745064 1.0309792003648144
1.0345093581282454 1.055508204167651
1.0694730076894632 1.0718608733695418
1.1044366572506807 1.0963898771723783
1.1394003068118983 1.137271550177106
1.1627094065193768 1.1290952155761604
1.1801912312999856 1.1290952155761604
1.1918457811537249 1.137271550177106
1.2151548808612032 1.169976888580888
1.2442912554955512 1.169976888580888
1.2676003552030297 1.1945058923837246
1.2734276301298992 1.2026822269846702
1.279254905056769 1.1781532231818337
1.290909454910508 1.153624219378997
1.2967367298373778 1.169976888580888
1.3025640047642473 1.186329557782779
1.3142185546179865 1.186329557782779
1.320045829544856 1.169976888580888
1.308391279691117 1.137271550177106
1.2967367298373778 1.120918880975215
1.2850821799836385 1.1127425463742695
1.290909454910508 1.1127425463742695
1.290909454910508 1.0800372079704874
1.2676003552030297 1.0309792003648144
1.2384639805686817 0.9900975273600867
1.2151548808612032 0.9492158543553592
1.1918457811537249 0.9246868505525226
1.1918457811537249 0.9083341813506316
1.174363956373116 0.867452508345904
1.11609120710442 0.8102181661392854
1.0927821073969415 0.7611601585336123
1.0461639079819847 0.7039258163269937
0.9995457085670278 0.6630441433222661
0.9820638837864191 0.630338804918484
0.9587547840789407 0.5894571319137565
0.9121365846639838 0.5485754589090289
0.8596911103221574 0.4831647821014648
0.8247274607609397 0.45045944369768276
0.7839365362728524 0.4014014360920096
0.7489728867116349 0.3768724322891731
0.702354687296678 0.3278144246835
0.6557364878817211 0.2869327516787724
0.5799819138324163 0.23787474407309936
0.5333637144174594 0.18881673646742625
0.4867455150025026 0.18881673646742625
0.4576091403681546 0.17246406726553523
0.4343000406606762 0.1642877326645897
0.38768184124571936 0.11522972505891661
0.3410636418307625 0.09887705585702558
0.30027271734267524 0.05799538285229801
0.259481792854588 0.05799538285229801
0.23034541822024 0.05799538285229801
0.20703631851276158 0.07434805205418904
0.18955449373215277 0.0498190482513525
0.14293629431719593 0.017113709847570435
0.12545446953658712 0.02529004444851595
0.09631809490223908 0.017113709847570435
0.07883627012163028 0.02529004444851595
0.07883627012163028 0.05799538285229801
0.04969989548728224 0.0007610406456794045
0.026390795779803824 -0.015591628556211625
0.003081696072325405 -0.007415293955266111
-0.020227403635153015 -0.007415293955266111
-0.014400128708283411 0.0007610406456794045
-0.008572853781413805 0.00893737524662492
-0.03188195348889222 0.0007610406456794045
-0.03188195348889222 -0.007415293955266111
-0.049363778269501044 -0.04012063235904817
-0.06101832812324025 -0.007415293955266111
-0.055191053196370646 0.0007610406456794045
-0.02605467856202262 0.02529004444851595
-0.043536503342631434 0.00893737524662492
-0.055191053196370646 0.0007610406456794045
-0.06684560305010985 0.0007610406456794045
-0.08432742783071867 -0.015591628556211625
-0.06684560305010985 0.00893737524662492
-0.06101832812324025 0.00893737524662492
-0.06684560305010985 0.02529004444851595
-0.06101832812324025 0.017113709847570435
-0.07850015290384907 0.0007610406456794045
-0.09015470275758827 0.017113709847570435
-0.07850015290384907 0.04164271365040698
-0.07267287797697947 0.04164271365040698
-0.07267287797697947 0.02529004444851595
-0.08432742783071867 0.017113709847570435
-0.09015470275758827 0.0007610406456794045
-0.09598197768445788 0.00893737524662492
-0.08432742783071867 0.0498190482513525
-0.07850015290384907 0.04164271365040698
-0.06684560305010985 0.04164271365040698
-0.06684560305010985 0.04164271365040698
-0.09015470275758827 0.02529004444851595
-0.09015470275758827 0.00893737524662492
-0.06101832812324025 0.06617171745324353
-0.06101832812324025 0.06617171745324353
-0.07850015290384907 0.06617171745324353
-0.06684560305010985 0.04164271365040698
-0.08432742783071867 0.04164271365040698
-0.08432742783071867 0.04164271365040698
-0.07850015290384907 0.06617171745324353
-0.06101832812324025 0.08252438665513456
-0.06684560305010985 0.0498190482513525
-0.08432742783071867 0.0498190482513525
-0.07267287797697947 0.04164271365040698
-0.08432742783071867 0.04164271365040698
-0.06101832812324025 0.06617171745324353
-0.07267287797697947 0.05799538285229801
-0.06684560305010985 0.0498190482513525
-0.08432742783071867 0.03346637904946147
-0.08432742783071867 0.05799538285229801
-0.08432742783071867 0.02529004444851595
-0.06684560305010985 0.0498190482513525
-0.049363778269501044 0.0498190482513525
-0.055191053196370646 0.04164271365040698
-0.06684560305010985 0.02529004444851595
-0.06684560305010985 0.017113709847570435
-0.06684560305010985 0.0498190482513525
-0.07267287797697947 0.05799538285229801
-0.055191053196370646 0.05799538285229801
-0.06684560305010985 0.04164271365040698
-0.07267287797697947 0.03346637904946147
-0.07267287797697947 0.00893737524662492
-0.07850015290384907 0.03346637904946147
-0.08432742783071867 0.04164271365040698
-0.049363778269501044 0.05799538285229801
-0.055191053196370646 0.06617171745324353
-0.06101832812324025 0.04164271365040698
-0.07850015290384907 0.05799538285229801
-0.07850015290384907 0.09070072125608007
-0.06101832812324025 0.1479350634626987
-0.055191053196370646 0.2051694056693173
-0.043536503342631434 0.2215220748712083
-0.043536503342631434 0.2542274132749904
-0.049363778269501044 0.27875641707782695
-0.049363778269501044 0.3278144246835
-0.020227403635153015 0.344167093885391
-0.0027455788545442004 0.38504876689011863
0.003081696072325405 0.4014014360920096
0.02056352085293422 0.4014014360920096
0.026390795779803824 0.45045944369768276
0.04387262056041264 0.4831647821014648
0.07883627012163028 0.5240464551061924
0.1079726447559783 0.4913411167024103
0.12545446953658712 0.46681211289957375
0.13710901939032633 0.39322510149106416
0.13128174446345672 0.33599075928444555
0.14876356924406553 0.2869327516787724
0.17789994387841357 0.2624037478759359
0.2245181432933704 0.2051694056693173
0.259481792854588 0.17246406726553523
0.27113634270832726 0.1070533904579711
0.2536545179277184 0.0498190482513525
0.2245181432933704 0.03346637904946147
0.21869086836650078 0.017113709847570435
0.20120904358589198 -0.015591628556211625
0.18372721880528317 -0.031944297758102654
0.16624539402467434 -0.08100230536377574
0.16624539402467434 -0.09735497456566677
0.17789994387841357 -0.08100230536377574
0.18372721880528317 -0.0564733015609392
0.17207266895154394 -0.048296966959993685
0.16624539402467434 -0.0564733015609392
0.13710901939032633 -0.08917863996472127
0.1196271946097175 -0.08917863996472127
0.10214536982910868 -0.08100230536377574
0.09049081997536948 -0.08917863996472127
0.07300899519476066 -0.06464963616188471
0.06718172026789106 -0.06464963616188471
0.03221807070667343 -0.08100230536377574
0.003081696072325405 -0.06464963616188471
-0.014400128708283411 -0.048296966959993685
-0.03188195348889222 -0.02376796315715714
-0.049363778269501044 -0.02376796315715714
-0.06101832812324025 -0.0564733015609392
-0.08432742783071867 -0.0564733015609392
-0.09015470275758827 -0.08917863996472127
-0.1076365275381971 -0.06464963616188471
-0.12511835231880591 -0.0564733015609392
-0.12511835231880591 -0.06464963616188471
-0.12511835231880591 -0.08100230536377574
-0.13677290217254512 -0.13006031296944884
-0.15425472695315393 -0.13006031296944884
-0.17173655173376273 -0.1137076437675578
-0.17173655173376273 -0.09735497456566677
-0.16008200188002353 -0.08917863996472127
-0.17173655173376273 -0.1055313091666123
-0.18339110158750196 -0.1137076437675578
-0.18921837651437157 -0.12188397836850333
-0.17756382666063236 -0.08917863996472127
-0.16590927680689313 -0.06464963616188471
-0.14260017709941472 -0.031944297758102654
-0.12511835231880591 0.0498190482513525
-0.1076365275381971 0.18881673646742625
-0.07267287797697947 0.18881673646742625
0.02056352085293422 0.017113709847570435
0.19538176865902238 -0.12188397836850333
0.5916364636861555 -0.12188397836850333
1.2151548808612032 -0.07282597076283023
1.8794642225243383 -0.07282597076283023
2.386437141161994 -0.09735497456566677
2.578737213748691 -0.09735497456566677
2.59039176360243 -0.08100230536377574
2.5554281140412125 -0.08100230536377574
2.520464464479995 -0.09735497456566677
2.473846265065038 -0.15458931677228538
2.4330553405769506 -0.2036473243779585
2.328164391893298 -0.26088166658457707
2.2407552679902536 -0.2772343357864681
2.1533461440872097 -0.29358700498835916
2.0368006455498175 -0.35082134719497776
1.9377369717930342 -0.4244083586034874
1.8153641983287725 -0.481642700810106
1.7104732496451196 -0.4898190354110515
1.588100476180858 -0.5307007084157791
1.454073152862857 -0.5634060468195612
1.2850821799836385 -0.6369930582280707
1.0986093823238112 -0.7269327388384714
0.9063093097371142 -0.7923434156460356
0.702354687296678 -0.8741067616554907
0.510054614709981 -0.9558701076649458
0.28861816748893604 -1.0294571190734556
0.04969989548728224 -1.1439258034866928
-0.17173655173376273 -1.2011601456933114
-0.3582093493935901 -1.2992761609046575
-0.5038912225653303 -1.356510503111276
-0.6379185458833312 -1.4709791875245133
-0.7486367694938536 -1.593624206538696
-0.8884913677387242 -1.7898562369613884
-1.0050368662761162 -1.9860882673840807
-1.1041005400328996 -2.149614959402991
-1.214818763643422 -2.2313783054124463
-1.2672642379852486 -2.321317986022847
-1.348846086961423 -2.4439630050370296
-1.4012915613032495 -2.5993133624549944
-1.4945279601331631 -2.779192723675796
-1.6227280085242943 -2.9181904118918696
-1.774237156622904 -3.049011765506998
-1.9024372050140355 -3.1716567845211805
-2.0306372534051667 -3.302478138136309
-2.176319126576907 -3.400594153347655
-2.327828274675517 -3.3924178187467096
-2.4735101478472568 -3.196185788324017
-2.5784010965309094 -2.9672484194975426
-2.5609192717503007 -2.738311050671068
-2.4735101478472568 -2.5011973472436484
-2.327828274675517 -2.2804363130181193
-2.199628226284385 -2.0760279479944814
-2.042291803258906 -1.9288539251774621
-1.849991730672209 -1.7162692255528789
-1.6635189330123816 -1.544566198933023
-1.4945279601331631 -1.405568510716949
-1.3721551866689015 -1.2420418186980389
-1.3138824374002054 -1.1275731342848017
-1.2847460627658573 -1.02128078447251
-1.2381278633509005 -0.8904594308573818
-1.1798551140822044 -0.7759907464441446
-1.1332369146672476 -0.6451693928290163
-1.109927814959769 -0.5388770430167246
-1.0866187152522908 -0.4407610278053784
-1.0749641653985516 -0.34264501259403224
-1.0341732409104643 -0.23635266278174052
-0.9584186668611594 -0.13006031296944884
-0.8768368178849849 -0.0564733015609392
-0.7836004190550713 0.0498190482513525
-0.6961912951520272 0.09887705585702558
-0.6029548963221135 0.1479350634626987
-0.5155457724190694 0.23787474407309936
-0.41648209866228614 0.3196380900825545
-0.3523820744667205 0.38504876689011863
-0.29410932519802446 0.4259304398948462
-0.2358365759293284 0.44228310909673724
-0.16590927680689313 0.45045944369768276
-0.08432742783071867 0.5076937859043014
-0.008572853781413805 0.5567517935099744
0.07883627012163028 0.581280797312811
0.13128174446345672 0.5894571319137565
0.17207266895154394 0.5976334665147021
0.20703631851276158 0.5894571319137565
0.259481792854588 0.6221624703175386
0.30027271734267524 0.6630441433222661
0.3410636418307625 0.6875731471251026
0.3585454666113713 0.6875731471251026
0.3527181916845017 0.6712204779232116
0.3702000164651105 0.6875731471251026
0.3760272913919801 0.6875731471251026
0.41099094095319777 0.7448074893317213
0.4343000406606762 0.7529838239326668
0.4459545905144154 0.7611601585336123
0.4750909651487634 0.7693364931345579
0.4750909651487634 0.7775128277355033
0.4750909651487634 0.8020418315383399
0.4925727899293722 0.8265708353411765
0.5391909893443291 0.8592761737449585
0.5566728141249379 0.867452508345904
0.5683273639786771 0.8592761737449585
0.5741546389055467 0.867452508345904
0.5858091887592859 0.9165105159515771
0.6091182884667643 0.9492158543553592
0.644081938027982 0.9737448581581957
0.6615637628085907 0.9819211927591412
0.67321831266233 0.9737448581581957
0.6848728625160692 0.9982738619610323
0.7256637870041565 1.0473318695667053
0.7489728867116349 1.055508204167651
0.789763811199722 1.0963898771723783
0.8189001858340701 1.120918880975215
0.8422092855415485 1.1290952155761604
0.8596911103221574 1.1290952155761604
0.8830002100296358 1.169976888580888
0.923791134517723 1.2108585615856156
0.9471002342252014 1.2272112307875067
0.9762366088595494 1.2517402345903432
0.9878911587132887 1.2517402345903432
1.0228548082745064 1.2599165691912888
1.0286820832013759 1.2844455729941253
1.057818457835724 1.3089745767969618
1.0986093823238112 1.3335035805997983
1.1044366572506807 1.341679915200744
1.1277457569581593 1.3335035805997983
1.1219184820312895 1.3335035805997983
1.145227581738768 1.3580325844026349
1.1685366814462463 1.3989142574073625
1.1918457811537249 1.3825615882054714
1.1976730560805944 1.374385253604526
1.1918457811537249 1.3498562498016895
1.1801912312999856 1.3335035805997983
1.1860185062268551 1.341679915200744
1.1976730560805944 1.3335035805997983
1.1918457811537249 1.341679915200744
1.1918457811537249 1.3171509113979074
1.174363956373116 1.2762692383931797
1.1394003068118983 1.2435638999893976
1.1335730318850288 1.2108585615856156
1.11609120710442 1.186329557782779
1.11609120710442 1.169976888580888
1.0927821073969415 1.120918880975215
1.0519911829088544 1.055508204167651
1.0228548082745064 0.9982738619610323
0.9820638837864191 0.9573921889563047
0.9820638837864191 0.9246868505525226
0.9471002342252014 0.8838051775477951
0.9063093097371142 0.8102181661392854
0.8596911103221574 0.7611601585336123
0.8189001858340701 0.7121021509279393
0.7839365362728524 0.6630441433222661
0.7489728867116349 0.630338804918484
0.7140092371504172 0.5894571319137565
0.67321831266233 0.5403991243080835
0.6266001132473732 0.49951745130335584
0.5741546389055467 0.44228310909673724
0.510054614709981 0.4014014360920096
0.480918240075633 0.39322510149106416
0.4459545905144154 0.35234342848633654
0.38768184124571936 0.311461755481609
0.3294090919770233 0.2624037478759359
0.27696361763519683 0.23787474407309936
0.23617269314710962 0.22969840947215384
0.20703631851276158 0.23787474407309936
0.17789994387841357 0.2051694056693173
0.14293629431719593 0.17246406726553523
0.09631809490223908 0.13975872886175317
0.061354445341021455 0.11522972505891661
0.02056352085293422 0.12340605965986214
0.00890897099919501 0.13975872886175317
-0.0027455788545442004 0.1479350634626987
-0.02605467856202262 0.13158239426080764
-0.055191053196370646 0.13158239426080764
-0.08432742783071867 0.09070072125608007
-0.1076365275381971 0.1070533904579711
-0.1076365275381971 0.09070072125608007
-0.1192910773919363 0.09070072125608007
-0.1192910773919363 0.09887705585702558
-0.14842745202628432 0.08252438665513456
-0.16590927680689313 0.0498190482513525
-0.18921837651437157 0.08252438665513456
-0.18339110158750196 0.1070533904579711
-0.17756382666063236 0.09887705585702558
-0.18921837651437157 0.09070072125608007
-0.20087292636811077 0.08252438665513456
-0.20670020129498037 0.05799538285229801
-0.21252747622184998 0.09070072125608007
-0.20670020129498037 0.09887705585702558
-0.19504565144124117 0.09887705585702558
-0.20087292636811077 0.1070533904579711
-0.20670020129498037 0.09887705585702558
-0.22418202607558918 0.08252438665513456
-0.24166385085619801 0.09887705585702558
-0.23000930100245878 0.12340605965986214
-0.21252747622184998 0.1479350634626987
-0.23000930100245878 0.15611139806364419
-0.23000930100245878 0.1642877326645897
-0.2358365759293284 0.19699307106837177
-0.2358365759293284 0.23787474407309936
-0.23000930100245878 0.344167093885391
-0.20670020129498037 0.4014014360920096
-0.20670020129498037 0.41775410529390067
-0.19504565144124117 0.45045944369768276
-0.18339110158750196 0.44228310909673724
-0.16590927680689313 0.4749884475005193
-0.14842745202628432 0.5158701205052468
-0.10180925261132749 0.5567517935099744
-0.07850015290384907 0.581280797312811
-0.06101832812324025 0.5894571319137565
-0.02605467856202262 0.581280797312811
-0.008572853781413805 0.56492812811092
0.03221807070667343 0.5158701205052468
0.061354445341021455 0.4913411167024103
0.08466354504849988 0.41775410529390067
0.09631809490223908 0.33599075928444555
0.1079726447559783 0.29510908627971794
0.13128174446345672 0.22969840947215384
0.14876356924406553 0.18881673646742625
0.15459084417093513 0.1479350634626987
0.09631809490223908 0.09070072125608007
0.04969989548728224 0.02529004444851595
0.02056352085293422 0.017113709847570435
0.003081696072325405 0.017113709847570435
0.00890897099919501 0.02529004444851595
0.02056352085293422 0.017113709847570435
0.014736245926064614 0.00893737524662492
0.003081696072325405 -0.02376796315715714
-0.014400128708283411 -0.031944297758102654
-0.0027455788545442004 -0.02376796315715714
-0.014400128708283411 0.0007610406456794045
-0.014400128708283411 0.0007610406456794045
-0.03770922841576183 -0.02376796315715714
-0.07267287797697947 -0.031944297758102654
-0.1134638024650667 -0.02376796315715714
-0.15425472695315393 -0.015591628556211625
-0.14842745202628432 0.02529004444851595
-0.17756382666063236 0.03346637904946147
-0.19504565144124117 0.05799538285229801
-0.23000930100245878 0.03346637904946147
-0.2533184007099372 0.00893737524662492
-0.29993660012489404 0.0007610406456794045
-0.27662750041741563 0.0007610406456794045
-0.29410932519802446 -0.007415293955266111
-0.3232456998323725 -0.015591628556211625
-0.3407275246129813 -0.02376796315715714
-0.3640366243204597 -0.048296966959993685
-0.3698638992473293 -0.04012063235904817
-0.3698638992473293 -0.04012063235904817
-0.3756911741741989 -0.04012063235904817
-0.3815184491010685 -0.06464963616188471
-0.39900027388167736 -0.08100230536377574
-0.40482754880854693 -0.08100230536377574
-0.43396392344289497 -0.07282597076283023
-0.41648209866228614 -0.048296966959993685
-0.41648209866228614 -0.048296966959993685
-0.41648209866228614 -0.0564733015609392
-0.42813664851602534 -0.07282597076283023
-0.4397911983697646 -0.08100230536377574
-0.4514457482235038 -0.07282597076283023
-0.43396392344289497 -0.04012063235904817
-0.42813664851602534 -0.031944297758102654
-0.42813664851602534 -0.0564733015609392
-0.4514457482235038 -0.0564733015609392
-0.463100298077243 -0.08100230536377574
-0.4514457482235038 -0.06464963616188471
-0.4456184732966342 -0.04012063235904817
-0.43396392344289497 -0.031944297758102654
-0.4456184732966342 -0.048296966959993685
-0.4514457482235038 -0.06464963616188471
-0.463100298077243 -0.09735497456566677
-0.4689275730041126 -0.0564733015609392
-0.463100298077243 -0.048296966959993685
-0.4456184732966342 -0.031944297758102654
-0.4456184732966342 -0.04012063235904817
-0.463100298077243 -0.048296966959993685
-0.463100298077243 -0.07282597076283023
-0.4689275730041126 -0.048296966959993685
-0.4689275730041126 -0.04012063235904817
-0.4514457482235038 -0.0564733015609392
-0.4689275730041126 -0.048296966959993685
-0.463100298077243 -0.08100230536377574
-0.4747548479309822 -0.06464963616188471
-0.4805821228578518 -0.06464963616188471
-0.4689275730041126 -0.04012063235904817
-0.4572730231503734 -0.031944297758102654
-0.463100298077243 -0.048296966959993685
-0.4747548479309822 -0.07282597076283023
-0.463100298077243 -0.07282597076283023
-0.4805821228578518 -0.06464963616188471
-0.4572730231503734 -0.02376796315715714
-0.4456184732966342 -0.04012063235904817
-0.4572730231503734 -0.031944297758102654
-0.4572730231503734 -0.031944297758102654
-0.463100298077243 -0.048296966959993685
-0.463100298077243 -0.04012063235904817
-0.4456184732966342 -0.031944297758102654
-0.42230937358915577 -0.015591628556211625
-0.43396392344289497 -0.007415293955266111
-0.43396392344289497 -0.02376796315715714
-0.43396392344289497 -0.031944297758102654
-0.4456184732966342 -0.015591628556211625
-0.42230937358915577 0.00893737524662492
-0.39317299895480773 0.017113709847570435
-0.38734572402793815 0.03346637904946147
-0.3640366243204597 0.06617171745324353
-0.3290729747592421 0.18881673646742625
-0.29993660012489404 0.311461755481609
-0.22418202607558918 0.24605107867404485
-0.07267287797697947 0.06617171745324353
0.24199996807397922 -0.04012063235904817
0.8014183610534613 0.0007610406456794045
1.5298277269121618 0.02529004444851595
2.1650006939409487 0.0498190482513525
2.514637189553125 0.0498190482513525
2.5554281140412125 0.03346637904946147
2.473846265065038 0.03346637904946147
2.398091691015733 -0.031944297758102654
2.3456462166739067 -0.0564733015609392
2.2873734674052106 -0.09735497456566677
2.1999643435021663 -0.13006031296944884
2.1067279446722527 -0.15458931677228538
1.972700621354252 -0.21182365897890398
1.8736369475974686 -0.2772343357864681
1.7570914490600764 -0.35082134719497776
1.6347186755958147 -0.3753503509978143
1.5065186272046835 -0.4244083586034874
1.3724913038866826 -0.46529003160821497
1.1918457811537249 -0.5307007084157791
0.9878911587132887 -0.6124640544252342
0.7664547114922436 -0.6942274004346893
0.5508455391980682 -0.8086960848479267
0.3235818170501537 -0.9068121000592728
0.1079726447559783 -1.02128078447251
-0.17173655173376273 -1.1275731342848017
-0.40482754880854693 -1.2011601456933114
-0.6204367211027223 -1.291099826303712
-0.7602913193475929 -1.405568510716949
-0.905973192519333 -1.5200371951301865
-1.0458277907642035 -1.6835638871490968
-1.2089914887165525 -1.9125012559755712
-1.3255369872539446 -2.084204282595427
-1.4479097607182063 -2.20684930160961
-1.5819370840362073 -2.321317986022847
-1.7159644073542082 -2.419434001234193
-1.803373531257252 -2.5584316894502668
-1.8849553802334267 -2.721958381469177
-1.9898463289170796 -2.8609560696852507
-2.141355477015689 -2.975424754098488
-2.3161737248217773 -3.147127780718344
-2.4618555979935177 -3.261596465131581
-2.57257382160404 -3.3924178187467096
-2.706601144922041 -3.4087704879486003
-2.8464557431669113 -3.294301803535363
-2.939692141996825 -3.0735407693098344
-2.922210317216216 -2.8037217274786324
-2.794010268825085 -2.5420790202483756
-2.584228371457779 -2.272259978417174
-2.3744464740904734 -2.0760279479944814
-2.1530100268694286 -1.8634432483698982
-1.9257463047215138 -1.6672112179472056
-1.7392735070616865 -1.4709791875245133
-1.5761098091093375 -1.274747157101821
-1.4828734102794239 -1.1439258034866928
-1.4246006610107278 -1.0049281152706189
-1.3721551866689015 -0.8904594308573818
-1.3080551624733356 -0.78416708104509
-1.2614369630583788 -0.6206403890261798
-1.1915096639359437 -0.4898190354110515
-1.127409639740378 -0.3671740163968688
-1.0924459901791603 -0.2690580011855226
-1.022518691056725 -0.19547098977701297
-0.9700732167148987 -0.1055313091666123
-0.8768368178849849 0.0007610406456794045
-0.7661185942744625 0.09070072125608007
-0.65540037066394 0.18064040186648073
-0.5738185216877655 0.24605107867404485
-0.49223667271159105 0.2869327516787724
-0.43396392344289497 0.36051976308728206
-0.3640366243204597 0.40957777069295515
-0.28828205027115483 0.4831647821014648
-0.21252747622184998 0.5240464551061924
-0.1192910773919363 0.56492812811092
-0.049363778269501044 0.56492812811092
0.014736245926064614 0.5894571319137565
0.07300899519476066 0.6221624703175386
0.16041811909780473 0.6548678087213207
0.2245181432933704 0.6875731471251026
0.259481792854588 0.6875731471251026
0.27696361763519683 0.6793968125241572
0.27696361763519683 0.6875731471251026
0.29444544241580567 0.7202784855288847
0.3177545421232841 0.7448074893317213
0.3527181916845017 0.7529838239326668
0.3702000164651105 0.7611601585336123
0.3702000164651105 0.7693364931345579
0.38185456631884973 0.7529838239326668
0.39350911617258894 0.8183945007402309
0.422645490806937 0.851099839144013
0.451781865441285 0.867452508345904
0.4692636902218938 0.8592761737449585
0.4750909651487634 0.851099839144013
0.4925727899293722 0.8756288429468495
0.5042273397831114 0.9001578467496861
0.5391909893443291 0.9492158543553592
0.5683273639786771 0.9737448581581957
0.5974637386130252 0.9737448581581957
0.6091182884667643 0.9900975273600867
0.6207728383205036 0.9982738619610323
0.644081938027982 1.0391555349657597
0.6790455875891996 1.104566211773324
0.7314910619310261 1.120918880975215
0.7489728867116349 1.1454478847780516
0.7781092613459829 1.1618005539799425
0.789763811199722 1.186329557782779
0.8130729109072005 1.2026822269846702
0.8596911103221574 1.2353875653884523
0.894654759883375 1.2680929037922342
0.9179638595908534 1.2844455729941253
0.9471002342252014 1.2844455729941253
0.9762366088595494 1.3089745767969618
1.0053729834938974 1.3580325844026349
1.0403366330551151 1.374385253604526
1.0753002826163327 1.3825615882054714
1.0927821073969415 1.4152669266092535
1.0927821073969415 1.374385253604526
1.1219184820312895 1.3825615882054714
1.1394003068118983 1.390737922806417
1.1568821315925073 1.407090592008308
1.1801912312999856 1.4152669266092535
1.1860185062268551 1.407090592008308
1.1860185062268551 1.374385253604526
1.1860185062268551 1.3335035805997983
1.174363956373116 1.341679915200744
1.1801912312999856 1.3498562498016895
1.1976730560805944 1.3253272459988528
1.1860185062268551 1.3089745767969618
1.1568821315925073 1.2599165691912888
1.1277457569581593 1.1945058923837246
1.1102639321775503 1.2026822269846702
1.0927821073969415 1.153624219378997
1.0694730076894632 1.104566211773324
1.0461639079819847 1.0636845387685965
1.0053729834938974 0.9982738619610323
0.9587547840789407 0.9573921889563047
0.9354456843714622 0.9083341813506316
0.9121365846639838 0.8919815121487406
0.8888274849565053 0.851099839144013
0.8305547356878094 0.8020418315383399
0.7781092613459829 0.7775128277355033
0.7431456117847652 0.7611601585336123
0.6848728625160692 0.7856891623364488
0.6790455875891996 0.7856891623364488
0.6382546631011123 0.7856891623364488
0.5858091887592859 0.7856891623364488
0.5566728141249379 0.7448074893317213
0.49840006485624183 0.7039258163269937
0.4634364152950242 0.6957494817260482
0.4692636902218938 0.7121021509279393
0.451781865441285 0.7202784855288847
0.4343000406606762 0.7284548201298302
0.4343000406606762 0.7039258163269937
0.39933639109945857 0.613986135716593
0.39350911617258894 0.5485754589090289
0.39933639109945857 0.4749884475005193
0.40516366602632814 0.4014014360920096
0.3760272913919801 0.35234342848633654
0.3585454666113713 0.2869327516787724
0.3410636418307625 0.2051694056693173
0.3060999922695449 0.1479350634626987
0.259481792854588 0.08252438665513456
0.21869086836650078 0.0498190482513525
0.14293629431719593 0.0007610406456794045
0.1079726447559783 -0.02376796315715714
0.08466354504849988 -0.031944297758102654
0.09049081997536948 -0.031944297758102654
0.09631809490223908 0.04164271365040698
0.1137999196828479 0.02529004444851595
0.09631809490223908 0.00893737524662492
0.061354445341021455 -0.02376796315715714
0.026390795779803824 -0.048296966959993685
0.003081696072325405 -0.04012063235904817
-0.014400128708283411 0.0007610406456794045
-0.03770922841576183 0.017113709847570435
-0.07267287797697947 0.03346637904946147
-0.08432742783071867 0.0007610406456794045
-0.12511835231880591 0.00893737524662492
-0.16008200188002353 0.04164271365040698
-0.15425472695315393 0.08252438665513456
-0.17173655173376273 0.07434805205418904
-0.21835475114871958 0.0498190482513525
-0.2533184007099372 0.0498190482513525
-0.27662750041741563 0.04164271365040698
-0.3232456998323725 0.04164271365040698
-0.3290729747592421 0.04164271365040698
-0.3290729747592421 0.06617171745324353
-0.3465547995398509 0.04164271365040698
-0.3640366243204597 -0.007415293955266111
-0.3756911741741989 -0.007415293955266111
-0.39900027388167736 0.04164271365040698
-0.39317299895480773 0.0498190482513525
-0.38734572402793815 0.0498190482513525
-0.42230937358915577 0.0498190482513525
-0.42813664851602534 0.02529004444851595
-0.4397911983697646 0.0007610406456794045
-0.4514457482235038 0.03346637904946147
-0.42813664851602534 0.04164271365040698
-0.41648209866228614 0.03346637904946147
-0.42230937358915577 0.03346637904946147
-0.43396392344289497 0.017113709847570435
-0.4397911983697646 0.02529004444851595
-0.4397911983697646 0.04164271365040698
-0.42813664851602534 0.03346637904946147
-0.41648209866228614 0.0498190482513525
-0.42230937358915577 0.04164271365040698
-0.42230937358915577 0.017113709847570435
-0.42230937358915577 -0.007415293955266111
-0.43396392344289497 0.02529004444851595
-0.42230937358915577 0.03346637904946147
-0.42230937358915577 0.04164271365040698
-0.41648209866228614 0.0498190482513525
-0.42813664851602534 0.02529004444851595
-0.43396392344289497 0.00893737524662492
-0.4397911983697646 0.00893737524662492
-0.42813664851602534 0.02529004444851595
-0.41065482373541656 0.00893737524662492
-0.42230937358915577 -0.015591628556211625
-0.4397911983697646 -0.015591628556211625
-0.4456184732966342 -0.015591628556211625
-0.4514457482235038 0.0007610406456794045
-0.43396392344289497 0.00893737524662492
-0.42813664851602534 0.0007610406456794045
-0.4456184732966342 -0.007415293955266111
-0.4514457482235038 -0.04012063235904817
-0.4514457482235038 -0.048296966959993685
-0.463100298077243 -0.015591628556211625
-0.43396392344289497 -0.007415293955266111
-0.43396392344289497 -0.007415293955266111
-0.4514457482235038 -0.015591628556211625
-0.4397911983697646 -0.015591628556211625
-0.43396392344289497 -0.04012063235904817
-0.4572730231503734 -0.02376796315715714
-0.4456184732966342 0.0007610406456794045
-0.4456184732966342 -0.007415293955266111
-0.4456184732966342 -0.015591628556211625
-0.4514457482235038 -0.015591628556211625
-0.4572730231503734 -0.04012063235904817
-0.4572730231503734 -0.007415293955266111
-0.4514457482235038 -0.007415293955266111
-0.42813664851602534 -0.015591628556211625
-0.43396392344289497 -0.015591628556211625
-0.4397911983697646 -0.02376796315715714
-0.4514457482235038 -0.015591628556211625
-0.4572730231503734 -0.007415293955266111
-0.43396392344289497 0.0007610406456794045
-0.42230937358915577 0.03346637904946147
-0.42230937358915577 0.02529004444851595
-0.43396392344289497 -0.007415293955266111
-0.4397911983697646 0.0007610406456794045
-0.4514457482235038 0.00893737524662492
-0.42230937358915577 0.017113709847570435
-0.41065482373541656 0.04164271365040698
-0.41648209866228614 0.03346637904946147
-0.42813664851602534 0.03346637904946147
-0.4397911983697646 0.0007610406456794045
-0.4397911983697646 0.02529004444851595
-0.42230937358915577 0.04164271365040698
-0.40482754880854693 0.0498190482513525
-0.41065482373541656 0.06617171745324353
-0.42230937358915577 0.02529004444851595
-0.42230937358915577 0.00893737524662492
-0.42813664851602534 0.02529004444851595
-0.40482754880854693 0.06617171745324353
-0.39317299895480773 0.0498190482513525
-0.39317299895480773 0.0498190482513525
-0.38734572402793815 0.04164271365040698
-0.39900027388167736 0.0007610406456794045
-0.39900027388167736 0.03346637904946147
-0.39317299895480773 0.04164271365040698
-0.3698638992473293 0.07434805205418904
-0.3756911741741989 0.04164271365040698
-0.3815184491010685 0.017113709847570435
-0.39317299895480773 0.0007610406456794045
-0.38734572402793815 0.00893737524662492
-0.3698638992473293 0.04164271365040698
-0.3523820744667205 0.05799538285229801
-0.3640366243204597 0.0498190482513525
-0.3698638992473293 0.04164271365040698
-0.38734572402793815 0.02529004444851595
-0.3756911741741989 0.00893737524662492
-0.3698638992473293 0.03346637904946147
-0.3407275246129813 0.0498190482513525
-0.3407275246129813 0.0498190482513525
-0.3465547995398509 0.00893737524662492
-0.3465547995398509 0.017113709847570435
-0.3349002496861117 0.04164271365040698
-0.3232456998323725 0.0498190482513525
-0.30576387505176367 0.06617171745324353
-0.31159114997863324 0.07434805205418904
-0.30576387505176367 0.05799538285229801
-0.30576387505176367 0.09887705585702558
-0.27080022549054605 0.2624037478759359
-0.21835475114871958 0.4259304398948462
-0.15425472695315393 0.3768724322891731
-0.06101832812324025 0.13158239426080764
0.16041811909780473 -0.0564733015609392
0.6149455633936339 -0.04012063235904817
1.320045829544856 0.0498190482513525
2.030973370622948 0.05799538285229801
2.4971553647725164 0.04164271365040698
2.602046313456169 0.017113709847570435
2.532119014333734 -0.048296966959993685
2.462191715211299 -0.031944297758102654
2.4272280656500813 -0.07282597076283023
2.3922644160888633 -0.1055313091666123
2.3339916668201672 -0.14641298217133986
2.2349279930633843 -0.18729465517606744
2.1242097694528614 -0.24452899738268605
2.0193188207692088 -0.29358700498835916
1.9027733222318166 -0.3344686779930867
1.8037096484750335 -0.3589976817959233
1.70464597471825 -0.40805568940159637
1.5473095516927708 -0.4734663662091605
1.395800403594161 -0.5225243738148335
1.2035003310074641 -0.5961113852233432
0.9820638837864191 -0.6533457274299618
0.7548001616385045 -0.6860510658337439
0.5158818896368507 -0.7759907464441446
0.28861816748893604 -0.8659304270545453
0.00890897099919501 -0.9395174384630548
-0.27662750041741563 -1.0294571190734556
-0.5388548721265478 -1.0866914612800742
-0.7544640444207232 -1.1275731342848017
-0.9467641170074202 -1.1848074764914203
-1.1390641895941171 -1.307452495505603
-1.3255369872539446 -1.4873318567264044
-1.4887006852062934 -1.6508585487453147
-1.6343825583780336 -1.8062089061632796
-1.7276189572079472 -1.9043249213746256
-1.8266826309647306 -2.018793605787863
-1.966537229209601 -2.1250859556001545
-2.065600902966384 -2.255907309215283
-2.1355282020888198 -2.386728662830411
-2.205455501211255 -2.4848446780417572
-2.3161737248217773 -2.6320187008587763
-2.4327192233591695 -2.77101638907485
-2.5784010965309094 -2.9672484194975426
-2.7007738699951713 -3.1553041153192893
-2.8173193685325635 -3.2370674613287447
-2.9338648670699556 -3.163480449920235
-3.0271012658998693 -2.9590720848965972
-3.056237640534217 -2.738311050671068
-2.9921376163386517 -2.4930210126427026
-2.852283018093781 -2.2804363130181193
-2.648328395653345 -2.084204282595427
-2.4268919484322997 -1.8389142445670614
-2.1821464015037764 -1.642682214144369
-1.9315735796483835 -1.4709791875245133
-1.733446232134817 -1.307452495505603
-1.5819370840362073 -1.1848074764914203
-1.5061825099869024 -1.037633453674401
-1.4479097607182063 -0.8986357654583272
-1.3721551866689015 -0.78416708104509
-1.3022278875464661 -0.6615220620309074
-1.2556096881315093 -0.5715823814205067
-1.2089914887165525 -0.4898190354110515
-1.1915096639359437 -0.3917030201997053
-1.1740278391553347 -0.29358700498835916
-1.1215823648135084 -0.17911832057512192
-1.0341732409104643 -0.09735497456566677
-0.9409368420805506 -0.007415293955266111
-0.8418731683237674 0.0498190482513525
-0.7369822196401145 0.12340605965986214
-0.6437458208102007 0.18881673646742625
-0.5621639718340263 0.2624037478759359
-0.49223667271159105 0.3196380900825545
-0.4397911983697646 0.40957777069295515
-0.3815184491010685 0.45045944369768276
-0.3232456998323725 0.46681211289957375
-0.22418202607558918 0.5403991243080835
-0.12511835231880591 0.5567517935099744
-0.02605467856202262 0.5894571319137565
0.014736245926064614 0.581280797312811
0.061354445341021455 0.581280797312811
0.1137999196828479 0.5976334665147021
0.17789994387841357 0.6548678087213207
0.21286359343963118 0.6630441433222661
0.24199996807397922 0.6793968125241572
0.23617269314710962 0.7039258163269937
0.24199996807397922 0.6875731471251026
0.24782724300084882 0.7121021509279393
0.2536545179277184 0.7366311547307758
0.28861816748893604 0.7938654969373944
0.30027271734267524 0.7856891623364488
0.3177545421232841 0.7938654969373944
0.3352363669038929 0.7693364931345579
0.3527181916845017 0.7938654969373944
0.3585454666113713 0.8265708353411765
0.38768184124571936 0.851099839144013
0.41681821588006734 0.8756288429468495
0.4343000406606762 0.8838051775477951
0.4459545905144154 0.8919815121487406
0.4692636902218938 0.9165105159515771
0.5042273397831114 0.9737448581581957
0.5333637144174594 1.0636845387685965
0.5566728141249379 1.1290952155761604
0.5916364636861555 1.2108585615856156
0.6207728383205036 1.2517402345903432
0.6499092129548516 1.292621907595071
0.6907001374429388 1.3498562498016895
0.7373183368578956 1.3989142574073625
0.7839365362728524 1.43979593041209
0.8363820106146789 1.43979593041209
0.8713456601758965 1.4888539380177632
0.9179638595908534 1.5215592764215453
0.9587547840789407 1.627851626233837
1.0170275333476366 1.660556964637619
1.086954832470072 1.660556964637619
1.1394003068118983 1.6196752916328914
1.1860185062268551 1.6033226224310004
1.2326367056418122 1.5706172840272183
1.279254905056769 1.5460882802243818
1.3433549292523346 1.5052066072196542
1.3841458537404219 1.4970302726187086
1.4016276785210307 1.4152669266092535
1.3783185788135521 1.3253272459988528
1.3550094791060738 1.2517402345903432
1.3142185546179865 1.2435638999893976
1.320045829544856 1.2599165691912888
1.308391279691117 1.2435638999893976
1.3025640047642473 1.2190348961865611
1.308391279691117 1.1945058923837246
1.290909454910508 1.169976888580888
1.2850821799836385 1.137271550177106
1.279254905056769 1.120918880975215
1.2559458053492905 1.088213542571433
1.2151548808612032 1.0800372079704874
1.1627094065193768 1.0309792003648144
1.11609120710442 1.0064501965619779
1.0636457327625934 0.9900975273600867
1.0345093581282454 0.9655685235572502
0.9878911587132887 0.9328631851534681
0.9471002342252014 0.8919815121487406
0.894654759883375 0.8592761737449585
0.8305547356878094 0.8183945007402309
0.760627436565374 0.7775128277355033
0.6965274123698084 0.7284548201298302
0.6324273881742427 0.6712204779232116
0.5450182642711987 0.6058098011156475
0.4867455150025026 0.5322227897071379
0.39933639109945857 0.46681211289957375
0.3527181916845017 0.4341067744957917
0.28861816748893604 0.38504876689011863
0.24199996807397922 0.36051976308728206
0.16041811909780473 0.27875641707782695
0.08466354504849988 0.2542274132749904
0.026390795779803824 0.2133457402702628
-0.03770922841576183 0.2215220748712083
-0.09015470275758827 0.22969840947215384
-0.12511835231880591 0.18881673646742625
-0.18921837651437157 0.1479350634626987
-0.2358365759293284 0.11522972505891661
-0.29410932519802446 0.09070072125608007
-0.3232456998323725 0.09070072125608007
-0.3349002496861117 0.09887705585702558
-0.3698638992473293 0.09070072125608007
-0.41065482373541656 0.09070072125608007
-0.4514457482235038 0.05799538285229801
-0.4864093977847214 0.0498190482513525
-0.5038912225653303 0.05799538285229801
-0.521373047345939 0.07434805205418904
-0.5330275971996783 0.08252438665513456
-0.5446821470534174 0.06617171745324353
-0.5679912467608959 0.05799538285229801
-0.5854730715415047 0.04164271365040698
-0.6029548963221135 0.03346637904946147
-0.5913003464683743 0.06617171745324353
-0.5971276213952439 0.05799538285229801
-0.6029548963221135 0.06617171745324353
-0.6262639960295919 0.03346637904946147
-0.6320912709564616 0.03346637904946147
-0.6379185458833312 0.0498190482513525
-0.6379185458833312 0.07434805205418904
-0.6204367211027223 0.09070072125608007
-0.6320912709564616 0.06617171745324353
-0.6437458208102007 0.07434805205418904
-0.65540037066394 0.06617171745324353
-0.6670549205176792 0.09070072125608007
-0.6495730957370703 0.1070533904579711
-0.6320912709564616 0.09887705585702558
-0.6437458208102007 0.09070072125608007
-0.65540037066394 0.09887705585702558
-0.6612276455908096 0.08252438665513456
-0.6728821954445487 0.09887705585702558
-0.6670549205176792 0.11522972505891661
-0.6495730957370703 0.12340605965986214
-0.6612276455908096 0.12340605965986214
-0.6670549205176792 0.1070533904579711
-0.6728821954445487 0.09887705585702558
-0.6787094703714184 0.09887705585702558
-0.6787094703714184 0.13158239426080764
-0.6612276455908096 0.1479350634626987
-0.6728821954445487 0.13158239426080764
-0.6787094703714184 0.11522972505891661
-0.6903640202251576 0.1070533904579711
-0.684536745298288 0.11522972505891661
-0.6787094703714184 0.15611139806364419
-0.6612276455908096 0.1642877326645897
-0.6670549205176792 0.13975872886175317
-0.6728821954445487 0.13158239426080764
-0.684536745298288 0.12340605965986214
-0.6728821954445487 0.13158239426080764
-0.6787094703714184 0.15611139806364419
-0.6612276455908096 0.1479350634626987
-0.6787094703714184 0.1642877326645897
-0.6787094703714184 0.13975872886175317
-0.684536745298288 0.12340605965986214
-0.6787094703714184 0.13975872886175317
-0.6612276455908096 0.17246406726553523
-0.65540037066394 0.1642877326645897
-0.6670549205176792 0.15611139806364419
-0.65540037066394 0.11522972505891661
-0.6670549205176792 0.12340605965986214
-0.6728821954445487 0.1642877326645897
-0.6612276455908096 0.1642877326645897
-0.6495730957370703 0.1642877326645897
-0.65540037066394 0.1642877326645897
-0.65540037066394 0.13975872886175317
-0.6787094703714184 0.12340605965986214
-0.6670549205176792 0.13158239426080764
-0.6670549205176792 0.15611139806364419
-0.65540037066394 0.1479350634626987
-0.65540037066394 0.15611139806364419
-0.6728821954445487 0.11522972505891661
-0.684536745298288 0.12340605965986214
-0.6728821954445487 0.13158239426080764
-0.6728821954445487 0.1642877326645897
-0.6437458208102007 0.1479350634626987
-0.6612276455908096 0.1479350634626987
-0.6612276455908096 0.13158239426080764
-0.6728821954445487 0.12340605965986214
-0.6612276455908096 0.12340605965986214
-0.6612276455908096 0.13975872886175317
-0.6437458208102007 0.1479350634626987
-0.65540037066394 0.1479350634626987
-0.6612276455908096 0.11522972505891661
-0.6670549205176792 0.12340605965986214
-0.6728821954445487 0.1479350634626987
-0.6612276455908096 0.13975872886175317
-0.65540037066394 0.15611139806364419
-0.6437458208102007 0.13975872886175317
-0.6728821954445487 0.12340605965986214
-0.6670549205176792 0.09887705585702558
-0.6612276455908096 0.13158239426080764
-0.6495730957370703 0.13975872886175317
-0.6379185458833312 0.1479350634626987
-0.6437458208102007 0.12340605965986214
-0.6495730957370703 0.1070533904579711
-0.65540037066394 0.09070072125608007
-0.6437458208102007 0.11522972505891661
-0.6495730957370703 0.13975872886175317
-0.6320912709564616 0.13158239426080764
-0.6379185458833312 0.12340605965986214
-0.65540037066394 0.11522972505891661
-0.6670549205176792 0.09887705585702558
-0.6612276455908096 0.1070533904579711
-0.6379185458833312 0.12340605965986214
-0.6262639960295919 0.11522972505891661
-0.6204367211027223 0.11522972505891661
-0.6262639960295919 0.09887705585702558
-0.6495730957370703 0.09887705585702558
-0.6379185458833312 0.1070533904579711
-0.6262639960295919 0.13158239426080764
-0.6087821712489832 0.11522972505891661
-0.6029548963221135 0.1070533904579711
-0.6146094461758528 0.07434805205418904
-0.6320912709564616 0.08252438665513456
-0.6087821712489832 0.09070072125608007
-0.6087821712489832 0.1070533904579711
-0.5971276213952439 0.09887705585702558
-0.5854730715415047 0.1070533904579711
-0.5913003464683743 0.1070533904579711
-0.6029548963221135 0.09070072125608007
-0.6087821712489832 0.09887705585702558
-0.5971276213952439 0.1070533904579711
-0.5738185216877655 0.11522972505891661
-0.5796457966146351 0.09887705585702558
-0.5679912467608959 0.1070533904579711
-0.5796457966146351 0.09070072125608007
-0.5738185216877655 0.09887705585702558
-0.5563366969071567 0.11522972505891661
-0.5505094219802871 0.09887705585702558
-0.5388548721265478 0.11522972505891661
-0.5388548721265478 0.09887705585702558
-0.5446821470534174 0.08252438665513456
-0.5446821470534174 0.09887705585702558
-0.5155457724190694 0.1070533904579711
-0.49223667271159105 0.13158239426080764
-0.4689275730041126 0.12340605965986214
-0.463100298077243 0.1479350634626987
-0.4397911983697646 0.2051694056693173
-0.41648209866228614 0.35234342848633654
-0.3465547995398509 0.40957777069295515
-0.22418202607558918 0.2624037478759359
-0.020227403635153015 0.1070533904579711
0.39350911617258894 0.0498190482513525
1.057818457835724 0.09887705585702558
1.7978823735481637 0.12340605965986214
2.415573515796342 0.1479350634626987
2.6370099630173867 0.13158239426080764
2.607873588383039 0.11522972505891661
2.5088099146262555 0.08252438665513456
2.4388826155038204 0.0498190482513525
2.398091691015733 0.03346637904946147
2.339818941747037 -0.02376796315715714
2.2465825429171233 -0.031944297758102654
2.1242097694528614 -0.08100230536377574
1.9901824461348607 -0.13823664757039436
1.8619823977437293 -0.19547098977701297
1.7454368992063374 -0.24452899738268605
1.6405459505226845 -0.25270533198363154
1.5065186272046835 -0.30993967419025015
1.337527654325465 -0.3589976817959233
1.1510548566656376 -0.4162320240025419
0.9471002342252014 -0.4898190354110515
0.7198365120772868 -0.5307007084157791
0.510054614709981 -0.5715823814205067
0.30027271734267524 -0.6451693928290163
0.04969989548728224 -0.7432854080403625
-0.21252747622184998 -0.8250487540498176
-0.4747548479309822 -0.9313411038621093
-0.7020185700788968 -0.9640464422658914
-0.8826640928118545 -0.9967517806696734
-1.040000515837334 -1.0621624574772375
-1.2089914887165525 -1.1684548072895293
-1.3663279117420317 -1.3401578339093851
-1.5061825099869024 -1.4955081913273498
-1.628555283451164 -1.6508585487453147
-1.7392735070616865 -1.7898562369613884
-1.8383371808184699 -1.9288539251774621
-1.9490554044289923 -2.0596752787925903
-2.0189827035514276 -2.1823202978067733
-2.0947372776007325 -2.313141651421901
-2.1704918516500373 -2.419434001234193
-2.252073700626212 -2.5666080240512126
-2.3627919242367343 -2.689253043065395
-2.5026465224816046 -2.8854850734880872
-2.6191920210189967 -3.0326590963051068
-2.7415647944832586 -3.196185788324017
-2.840628468240042 -3.212538457525908
-2.928037592143086 -3.0735407693098344
-2.986310341411782 -2.910014077290924
-2.9804830664849122 -2.689253043065395
-2.86976484287439 -2.476668343440812
-2.6832920452145625 -2.2313783054124463
-2.438546498286039 -1.9860882673840807
-2.2229373259918637 -1.7735035677594975
-2.0248099784782974 -1.6018005411396417
-1.867473555452818 -1.4464501837216768
-1.7217916822810777 -1.3156288301065486
-1.628555283451164 -1.2011601456933114
-1.5644552592555983 -1.0458097882753465
-1.512009784913772 -0.9068121000592728
-1.4537370356450758 -0.8168724194488721
-1.4129461111569885 -0.6942274004346893
-1.3838097365226405 -0.5634060468195612
-1.3546733618882925 -0.40805568940159637
-1.3022278875464661 -0.24452899738268605
-1.2264733134971613 -0.0564733015609392
-1.185682389009074 0.09887705585702558
-1.1157550898866389 0.24605107867404485
-1.0050368662761162 0.33599075928444555
-0.9001459175924634 0.4586357782986283
-0.7777731441282016 0.56492812811092
-0.6437458208102007 0.6793968125241572
-0.5388548721265478 0.7529838239326668
-0.4514457482235038 0.8429235045430675
-0.3698638992473293 0.9083341813506316
-0.29993660012489404 0.9328631851534681
-0.20087292636811077 0.9492158543553592
-0.07267287797697947 0.9655685235572502
0.04387262056041264 0.9083341813506316
0.14293629431719593 0.8756288429468495
0.21869086836650078 0.8265708353411765
0.28279089256206646 0.7775128277355033
0.3702000164651105 0.7693364931345579
0.451781865441285 0.7529838239326668
0.510054614709981 0.7121021509279393
0.5217091645637203 0.6875731471251026
0.480918240075633 0.630338804918484
0.451781865441285 0.6385151395194296
0.4576091403681546 0.630338804918484
0.4925727899293722 0.6385151395194296
0.5158818896368507 0.6712204779232116
0.5450182642711987 0.6957494817260482
0.5391909893443291 0.6793968125241572
0.5333637144174594 0.6875731471251026
0.5450182642711987 0.7202784855288847
0.5625000890518075 0.7284548201298302
0.5683273639786771 0.7775128277355033
0.5858091887592859 0.7693364931345579
0.5799819138324163 0.7938654969373944
0.5625000890518075 0.8102181661392854
0.5566728141249379 0.867452508345904
0.5683273639786771 0.9083341813506316
0.5858091887592859 0.9328631851534681
0.5916364636861555 0.9655685235572502
0.5858091887592859 0.9737448581581957
0.5858091887592859 0.9655685235572502
0.5916364636861555 1.0064501965619779
0.6091182884667643 1.0309792003648144
0.6382546631011123 1.055508204167651
0.6499092129548516 1.055508204167651
0.6557364878817211 1.0473318695667053
0.6848728625160692 1.0718608733695418
0.7081819622235476 1.104566211773324
0.760627436565374 1.137271550177106
0.7955910861265917 1.169976888580888
0.8189001858340701 1.169976888580888
0.8305547356878094 1.1781532231818337
0.8422092855415485 1.2108585615856156
0.8655183852490269 1.2272112307875067
0.9121365846639838 1.3007982421960163
0.952927509152071 1.3007982421960163
0.9878911587132887 1.3007982421960163
1.0053729834938974 1.3007982421960163
1.0170275333476366 1.3171509113979074
1.0286820832013759 1.341679915200744
1.0461639079819847 1.3498562498016895
1.057818457835724 1.3580325844026349
1.0694730076894632 1.3498562498016895
1.0519911829088544 1.3253272459988528
1.0519911829088544 1.3089745767969618
1.0461639079819847 1.3335035805997983
1.0519911829088544 1.3171509113979074
1.0519911829088544 1.2844455729941253
1.0286820832013759 1.2599165691912888
1.011200258420767 1.2190348961865611
0.9762366088595494 1.1945058923837246
0.9471002342252014 1.1618005539799425
0.9121365846639838 1.1290952155761604
0.9004820348102446 1.104566211773324
0.8655183852490269 1.0391555349657597
0.8247274607609397 0.9655685235572502
0.7839365362728524 0.9165105159515771
0.7489728867116349 0.8919815121487406
0.702354687296678 0.834747169942122
0.6673910377354604 0.7938654969373944
0.6091182884667643 0.7366311547307758
0.5566728141249379 0.6466914741203751
0.49840006485624183 0.5976334665147021
0.4459545905144154 0.56492812811092
0.40516366602632814 0.5403991243080835
0.3585454666113713 0.4831647821014648
0.29444544241580567 0.4259304398948462
0.23617269314710962 0.3686960976882276
0.16624539402467434 0.3278144246835
0.1137999196828479 0.29510908627971794
0.08466354504849988 0.27875641707782695
0.04387262056041264 0.2542274132749904
0.003081696072325405 0.2051694056693173
-0.06101832812324025 0.18064040186648073
-0.1076365275381971 0.1479350634626987
-0.15425472695315393 0.1479350634626987
-0.18921837651437157 0.15611139806364419
-0.21835475114871958 0.13975872886175317
-0.24749112578306762 0.13158239426080764
-0.28828205027115483 0.09070072125608007
-0.31159114997863324 0.07434805205418904
-0.3523820744667205 0.12340605965986214
-0.3582093493935901 0.13158239426080764
-0.3756911741741989 0.11522972505891661
-0.38734572402793815 0.09887705585702558
-0.40482754880854693 0.07434805205418904
-0.42813664851602534 0.09070072125608007
-0.43396392344289497 0.11522972505891661
-0.4397911983697646 0.12340605965986214
-0.42230937358915577 0.12340605965986214
-0.42813664851602534 0.12340605965986214
-0.4397911983697646 0.11522972505891661
-0.4572730231503734 0.11522972505891661
-0.463100298077243 0.12340605965986214
-0.463100298077243 0.13975872886175317
-0.463100298077243 0.1479350634626987
-0.4572730231503734 0.15611139806364419
-0.4572730231503734 0.13158239426080764
-0.4805821228578518 0.13975872886175317
-0.4805821228578518 0.1642877326645897
-0.4747548479309822 0.1642877326645897
-0.463100298077243 0.15611139806364419
-0.4689275730041126 0.18064040186648073
-0.4805821228578518 0.1479350634626987
-0.49223667271159105 0.15611139806364419
-0.49223667271159105 0.18064040186648073
-0.4864093977847214 0.18064040186648073
-0.4747548479309822 0.2051694056693173
-0.4747548479309822 0.18064040186648073
-0.4747548479309822 0.1642877326645897
-0.4980639476384606 0.18064040186648073
-0.4864093977847214 0.18064040186648073
-0.4747548479309822 0.2133457402702628
-0.4572730231503734 0.2051694056693173
-0.4689275730041126 0.18064040186648073
-0.4689275730041126 0.18881673646742625
-0.4805821228578518 0.18881673646742625
-0.4747548479309822 0.18064040186648073
-0.4572730231503734 0.2215220748712083
-0.4456184732966342 0.2133457402702628
-0.4397911983697646 0.2133457402702628
-0.4572730231503734 0.18064040186648073
-0.463100298077243 0.18064040186648073
-0.4514457482235038 0.18881673646742625
-0.43396392344289497 0.2215220748712083
-0.41648209866228614 0.19699307106837177
-0.41065482373541656 0.19699307106837177
-0.41648209866228614 0.1642877326645897
-0.43396392344289497 0.1642877326645897
-0.41648209866228614 0.19699307106837177
-0.41065482373541656 0.19699307106837177
-0.38734572402793815 0.2051694056693173
-0.39900027388167736 0.18881673646742625
-0.40482754880854693 0.17246406726553523
-0.39317299895480773 0.15611139806364419
-0.39317299895480773 0.18064040186648073
-0.3756911741741989 0.1642877326645897
-0.3640366243204597 0.17246406726553523
-0.3640366243204597 0.1479350634626987
-0.3756911741741989 0.13158239426080764
-0.3815184491010685 0.12340605965986214
-0.3698638992473293 0.13158239426080764
-0.3756911741741989 0.1479350634626987
-0.3582093493935901 0.13975872886175317
-0.3640366243204597 0.11522972505891661
-0.3640366243204597 0.1070533904579711
-0.3756911741741989 0.11522972505891661
-0.3815184491010685 0.09887705585702558
-0.38734572402793815 0.13158239426080764
-0.3523820744667205 0.13975872886175317
-0.3465547995398509 0.11522972505891661
-0.3523820744667205 0.09070072125608007
-0.3698638992473293 0.08252438665513456
-0.3756911741741989 0.07434805205418904
-0.3523820744667205 0.09887705585702558
-0.3523820744667205 0.1070533904579711
-0.3640366243204597 0.09887705585702558
-0.3640366243204597 0.09070072125608007
-0.3698638992473293 0.08252438665513456
-0.3698638992473293 0.11522972505891661
-0.3465547995398509 0.1070533904579711
-0.3407275246129813 0.11522972505891661
-0.3465547995398509 0.1070533904579711
-0.3349002496861117 0.06617171745324353
-0.3640366243204597 0.0498190482513525
-0.3582093493935901 0.06617171745324353
-0.3232456998323725 0.06617171745324353
-0.3290729747592421 0.07434805205418904
-0.31741842490550287 0.07434805205418904
-0.3290729747592421 0.05799538285229801
-0.3523820744667205 0.04164271365040698
-0.3349002496861117 0.0498190482513525
-0.3290729747592421 0.08252438665513456
-0.31159114997863324 0.08252438665513456
-0.30576387505176367 0.07434805205418904
-0.31741842490550287 0.0498190482513525
-0.3232456998323725 0.0498190482513525
-0.31741842490550287 0.08252438665513456
-0.31159114997863324 0.06617171745324353
-0.29410932519802446 0.08252438665513456
-0.28828205027115483 0.05799538285229801
-0.31741842490550287 0.04164271365040698
-0.30576387505176367 0.03346637904946147
-0.30576387505176367 0.05799538285229801
-0.29993660012489404 0.07434805205418904
-0.2591456756368068 0.09070072125608007
-0.2649729505636764 0.07434805205418904
-0.27662750041741563 0.0498190482513525
-0.28245477534428526 0.0498190482513525
-0.27080022549054605 0.04164271365040698
-0.2533184007099372 0.07434805205418904
-0.24749112578306762 0.07434805205418904
-0.2533184007099372 0.0498190482513525
-0.24749112578306762 0.02529004444851595
-0.27080022549054605 0.0498190482513525
-0.27080022549054605 0.03346637904946147
-0.24749112578306762 0.0498190482513525
-0.22418202607558918 0.07434805205418904
-0.24166385085619801 0.0498190482513525
-0.23000930100245878 0.017113709847570435
-0.24166385085619801 0.017113709847570435
-0.22418202607558918 0.02529004444851595
-0.21252747622184998 0.06617171745324353
-0.20087292636811077 0.0498190482513525
-0.18339110158750196 0.03346637904946147
-0.18339110158750196 0.02529004444851595
-0.17173655173376273 0.00893737524662492
-0.16590927680689313 0.04164271365040698
-0.14260017709941472 0.02529004444851595
-0.1192910773919363 0.0498190482513525
-0.09015470275758827 0.11522972505891661
-0.03770922841576183 0.2215220748712083
0.00890897099919501 0.22969840947215384
0.13710901939032633 0.09070072125608007
0.3585454666113713 -0.0564733015609392
0.8014183610534613 -0.06464963616188471
1.512345902131553 0.02529004444851595
2.252409817843993 0.04164271365040698
2.7768645612622573 0.07434805205418904
2.9691646338489543 0.12340605965986214
2.9400282592146065 0.1642877326645897
2.852619135311562 0.19699307106837177
2.782691836189127 0.2133457402702628
2.706937262139822 0.22969840947215384
2.619528138236778 0.27875641707782695
2.514637189553125 0.3768724322891731
2.398091691015733 0.45045944369768276
2.269891642624602 0.4586357782986283
2.14751886916034 0.45045944369768276
2.0368006455498175 0.3196380900825545
1.9260824219392951 0.2133457402702628
1.8211914732556422 0.11522972505891661
1.70464597471825 0.04164271365040698
1.5531368266196404 -0.0564733015609392
1.3783185788135521 -0.19547098977701297
1.1801912312999856 -0.35082134719497776
0.9704093339326798 -0.497995370011997
0.7489728867116349 -0.6206403890261798
0.510054614709981 -0.7596380772422535
0.26530906778145763 -0.8904594308573818
0.014736245926064614 -1.0131044498715644
-0.24749112578306762 -1.119396799683856
-0.4980639476384606 -1.1929838110923658
-0.6903640202251576 -1.2420418186980389
-0.8710095429581154 -1.323805164707494
-1.040000515837334 -1.5036845259282954
-1.2031642137896827 -1.6917402217500424
-1.348846086961423 -1.9452065943793533
-1.4887006852062934 -2.1414386248020456
-1.6052461837436856 -2.264083643816228
-1.6984825825735992 -2.3785523282294654
-1.7684098816960345 -2.5093736818445938
-1.8266826309647306 -2.6647240392625586
-1.896609930087166 -2.8118980620795777
-2.013155428624558 -2.9508957502956514
-2.1355282020888198 -3.098069773112671
-2.2579009755530812 -3.2207147921268535
-2.3453100994561256 -3.3597124803429272
-2.4502010481397782 -3.4823574993571103
-2.5492647218965616 -3.5395918415637286
-2.6658102204339538 -3.449652160953328
-2.706601144922041 -3.24524379592969
-2.6832920452145625 -2.9999537579013245
-2.5550919968234314 -2.8037217274786324
-2.351137374382995 -2.574784358652158
-2.12970092716195 -2.3621996590275747
-1.9199190297946442 -2.1332622902011003
-1.7159644073542082 -1.9370302597784077
-1.5528007094018592 -1.7571508985576063
-1.3954642863763798 -1.593624206538696
-1.2672642379852486 -1.4464501837216768
-1.214818763643422 -1.3156288301065486
-1.1682005642284652 -1.1929838110923658
-1.1215823648135084 -1.0539861228762921
-1.0691368904716818 -0.9395174384630548
-1.022518691056725 -0.8332250886507632
-0.9759004916417683 -0.718756404237526
-0.9409368420805506 -0.6369930582280707
-0.9176277423730722 -0.5470533776176701
-0.8651822680312458 -0.4162320240025419
-0.8127367936894193 -0.28541067038741363
-0.7195003948595056 -0.2036473243779585
-0.6437458208102007 -0.15458931677228538
-0.5330275971996783 -0.07282597076283023
-0.4572730231503734 0.00893737524662492
-0.3640366243204597 0.06617171745324353
-0.27662750041741563 0.1479350634626987
-0.22418202607558918 0.18064040186648073
-0.17173655173376273 0.2215220748712083
-0.14260017709941472 0.2705800824768814
-0.06101832812324025 0.33599075928444555
0.014736245926064614 0.3686960976882276
0.1196271946097175 0.4341067744957917
0.20120904358589198 0.44228310909673724
0.27113634270832726 0.45045944369768276
0.3177545421232841 0.45045944369768276
0.3702000164651105 0.4586357782986283
0.4459545905144154 0.4749884475005193
0.4925727899293722 0.5076937859043014
0.510054614709981 0.5240464551061924
0.5275364394905898 0.5403991243080835
0.5275364394905898 0.5403991243080835
0.5333637144174594 0.5403991243080835
0.5683273639786771 0.581280797312811
0.6032910135398947 0.6221624703175386
0.6266001132473732 0.6385151395194296
0.644081938027982 0.6385151395194296
0.6615637628085907 0.630338804918484
0.6499092129548516 0.6385151395194296
0.6673910377354604 0.6793968125241572
0.7081819622235476 0.7202784855288847
0.7314910619310261 0.7284548201298302
0.7548001616385045 0.7284548201298302
0.7664547114922436 0.7529838239326668
0.7781092613459829 0.7529838239326668
0.7955910861265917 0.7693364931345579
0.8422092855415485 0.8265708353411765
0.894654759883375 0.8592761737449585
0.9179638595908534 0.8919815121487406
0.9354456843714622 0.9001578467496861
0.952927509152071 0.9165105159515771
0.9995457085670278 0.9573921889563047
1.0403366330551151 0.9900975273600867
1.0753002826163327 1.0228028657638688
1.1044366572506807 1.0228028657638688
1.1335730318850288 1.0064501965619779
1.1568821315925073 1.0391555349657597
1.1918457811537249 1.088213542571433
1.2442912554955512 1.137271550177106
1.290909454910508 1.1618005539799425
1.3258731044717258 1.1781532231818337
1.3666640289598129 1.1618005539799425
1.3666640289598129 1.1945058923837246
1.395800403594161 1.2108585615856156
1.424936778228509 1.2517402345903432
1.4890368024240748 1.2599165691912888
1.512345902131553 1.2517402345903432
1.5298277269121618 1.2680929037922342
1.5356550018390316 1.2599165691912888
1.5647913764733796 1.2680929037922342
1.5764459263271187 1.292621907595071
1.5939277511077277 1.2762692383931797
1.5997550260345972 1.292621907595071
1.5997550260345972 1.2844455729941253
1.5822732012539884 1.2680929037922342
1.5997550260345972 1.2599165691912888
1.6055823009614667 1.2762692383931797
1.617236850815206 1.2599165691912888
1.5997550260345972 1.2353875653884523
1.5706186514002491 1.2108585615856156
1.5531368266196404 1.169976888580888
1.5356550018390316 1.1781532231818337
1.5240004519852923 1.153624219378997
1.5006913522778138 1.1127425463742695
1.4773822525703355 1.0391555349657597
1.4365913280822482 0.9900975273600867
1.3899731286672914 0.9492158543553592
1.3550094791060738 0.9001578467496861
1.320045829544856 0.8838051775477951
1.2967367298373778 0.8102181661392854
1.250118530422421 0.7775128277355033
1.2035003310074641 0.7202784855288847
1.145227581738768 0.6712204779232116
1.0986093823238112 0.630338804918484
1.057818457835724 0.5976334665147021
1.0170275333476366 0.5403991243080835
0.9587547840789407 0.4913411167024103
0.894654759883375 0.4341067744957917
0.8247274607609397 0.4014014360920096
0.7548001616385045 0.3768724322891731
0.7256637870041565 0.35234342848633654
0.67321831266233 0.29510908627971794
0.6207728383205036 0.23787474407309936
0.5625000890518075 0.18064040186648073
0.49840006485624183 0.1642877326645897
0.451781865441285 0.17246406726553523
0.42847276573380655 0.17246406726553523
0.40516366602632814 0.1642877326645897
0.3585454666113713 0.13158239426080764
0.3294090919770233 0.09070072125608007
0.28279089256206646 0.07434805205418904
0.2536545179277184 0.08252438665513456
0.23034541822024 0.08252438665513456
0.21286359343963118 0.07434805205418904
0.18955449373215277 0.05799538285229801
0.16624539402467434 0.04164271365040698
0.13710901939032633 0.04164271365040698
0.12545446953658712 0.02529004444851595
0.1079726447559783 0.04164271365040698
0.10214536982910868 0.02529004444851595
0.08466354504849988 0.02529004444851595
0.06718172026789106 0.00893737524662492
0.05552717041415185 0.00893737524662492
0.05552717041415185 0.03346637904946147
0.061354445341021455 0.04164271365040698
0.07300899519476066 0.0498190482513525
0.04969989548728224 0.03346637904946147
0.04387262056041264 0.02529004444851595
0.02056352085293422 0.00893737524662492
0.026390795779803824 0.03346637904946147
0.026390795779803824 0.0498190482513525
0.04387262056041264 0.04164271365040698
0.026390795779803824 0.03346637904946147
0.026390795779803824 0.03346637904946147
0.00890897099919501 0.02529004444851595
-0.0027455788545442004 0.04164271365040698
0.00890897099919501 0.08252438665513456
0.00890897099919501 0.08252438665513456
0.02056352085293422 0.06617171745324353
0.02056352085293422 0.0498190482513525
-0.0027455788545442004 0.05799538285229801
-0.020227403635153015 0.08252438665513456
0.014736245926064614 0.09887705585702558
0.00890897099919501 0.09887705585702558
0.00890897099919501 0.06617171745324353
0.00890897099919501 0.05799538285229801
0.003081696072325405 0.0498190482513525
-0.0027455788545442004 0.05799538285229801
0.00890897099919501 0.09070072125608007
0.014736245926064614 0.08252438665513456
0.003081696072325405 0.06617171745324353
0.00890897099919501 0.06617171745324353
0.003081696072325405 0.05799538285229801
-0.0027455788545442004 0.08252438665513456
0.014736245926064614 0.09887705585702558
0.014736245926064614 0.08252438665513456
0.03221807070667343 0.07434805205418904
0.03221807070667343 0.05799538285229801
0.026390795779803824 0.07434805205418904
0.026390795779803824 0.08252438665513456
0.03221807070667343 0.11522972505891661
0.04387262056041264 0.09887705585702558
0.04387262056041264 0.09887705585702558
0.04969989548728224 0.06617171745324353
0.02056352085293422 0.03346637904946147
0.026390795779803824 0.09070072125608007
0.05552717041415185 0.08252438665513456
0.061354445341021455 0.08252438665513456
0.07300899519476066 0.05799538285229801
0.05552717041415185 0.03346637904946147
0.04969989548728224 0.017113709847570435
0.04969989548728224 0.07434805205418904
0.07300899519476066 0.06617171745324353
0.06718172026789106 0.06617171745324353
0.07300899519476066 0.03346637904946147
0.061354445341021455 0.00893737524662492
0.05552717041415185 -0.015591628556211625
0.05552717041415185 0.0007610406456794045
0.061354445341021455 0.00893737524662492
0.07883627012163028 0.0007610406456794045
0.05552717041415185 0.0007610406456794045
0.04969989548728224 -0.02376796315715714
0.04387262056041264 -0.02376796315715714
0.04387262056041264 0.02529004444851595
0.05552717041415185 0.02529004444851595
0.05552717041415185 0.017113709847570435
0.04969989548728224 0.0007610406456794045
0.03804534563354303 -0.015591628556211625
0.014736245926064614 -0.02376796315715714
0.03804534563354303 -0.015591628556211625
0.04387262056041264 -0.007415293955266111
0.05552717041415185 -0.007415293955266111
0.07300899519476066 -0.031944297758102654
0.05552717041415185 -0.031944297758102654
0.03804534563354303 -0.04012063235904817
0.04387262056041264 -0.02376796315715714
0.03804534563354303 -0.015591628556211625
0.05552717041415185 -0.031944297758102654
0.061354445341021455 -0.02376796315715714
0.03804534563354303 -0.048296966959993685
0.03804534563354303 -0.04012063235904817
0.04387262056041264 -0.015591628556211625
0.04969989548728224 0.00893737524662492
0.061354445341021455 -0.031944297758102654
0.04969989548728224 -0.04012063235904817
0.04969989548728224 -0.0564733015609392
0.03221807070667343 -0.06464963616188471
0.03221807070667343 -0.04012063235904817
0.03804534563354303 -0.02376796315715714
0.05552717041415185 -0.048296966959993685
0.06718172026789106 -0.048296966959993685
0.061354445341021455 -0.07282597076283023
0.05552717041415185 -0.0564733015609392
0.06718172026789106 -0.02376796315715714
0.06718172026789106 -0.015591628556211625
0.06718172026789106 -0.031944297758102654
0.06718172026789106 -0.031944297758102654
0.06718172026789106 -0.07282597076283023
0.04969989548728224 -0.04012063235904817
0.061354445341021455 0.00893737524662492
0.06718172026789106 0.05799538285229801
0.09631809490223908 0.1070533904579711
0.09631809490223908 0.1642877326645897
0.10214536982910868 0.19699307106837177
0.1079726447559783 0.2215220748712083
0.12545446953658712 0.2705800824768814
0.14293629431719593 0.311461755481609
0.17207266895154394 0.30328542088066346
0.17207266895154394 0.33599075928444555
0.18372721880528317 0.33599075928444555
0.19538176865902238 0.35234342848633654
0.23034541822024 0.4014014360920096
0.2536545179277184 0.44228310909673724
0.30027271734267524 0.4259304398948462
0.3235818170501537 0.36051976308728206
0.3294090919770233 0.311461755481609
0.3352363669038929 0.23787474407309936
0.3585454666113713 0.18064040186648073
0.40516366602632814 0.15611139806364419
0.4634364152950242 0.1070533904579711
0.4750909651487634 0.07434805205418904
0.4750909651487634 0.017113709847570435
0.4692636902218938 -0.007415293955266111
0.4459545905144154 -0.048296966959993685
0.4343000406606762 -0.06464963616188471
0.4401273155875458 -0.08100230536377574
0.4576091403681546 -0.031944297758102654
0.4692636902218938 0.08252438665513456
0.510054614709981 0.22969840947215384
0.5916364636861555 0.1642877326645897
0.7256637870041565 -0.0564733015609392
1.0228548082745064 -0.21182365897890398
1.5240004519852923 -0.18729465517606744
2.1591734190140794 -0.17911832057512192
2.706937262139822 -0.2199999935798495
3.004128283410172 -0.21182365897890398
3.050746482825129 -0.2036473243779585
3.0099555583370416 -0.2036473243779585
2.9575100839952153 -0.2199999935798495
2.9225464344339973 -0.26088166658457707
2.852619135311562 -0.29358700498835916
2.788519111115997 -0.31811600879119567
2.6952827122860827 -0.35082134719497776
2.5962190385293 -0.40805568940159637
2.485500814918777 -0.481642700810106
2.3747825913082545 -0.5388770430167246
2.2349279930633843 -0.6042877198242887
2.1416915942334707 -0.6369930582280707
2.013491545842339 -0.6860510658337439
1.867809672670599 -0.7105800696365804
1.6988186997913806 -0.78416708104509
1.4715549776434658 -0.8495777578526542
1.2559458053492905 -0.9068121000592728
1.0519911829088544 -0.9558701076649458
0.8363820106146789 -1.02128078447251
0.5916364636861555 -1.1112204650829107
0.3177545421232841 -1.2175128148952024
0.04969989548728224 -1.291099826303712
-0.17756382666063236 -1.3646868377122217
-0.3640366243204597 -1.3892158415150582
-0.5446821470534174 -1.4219211799188403
-0.6903640202251576 -1.511860860529241
-0.8418731683237674 -1.6181532103415326
-0.9700732167148987 -1.7898562369613884
-1.0866187152522908 -1.9533829289802986
-1.1682005642284652 -2.1087332863982637
-1.2672642379852486 -2.2477309746143375
-1.377982461595771 -2.354023324426629
-1.4770461353525544 -2.468492008839866
-1.5644552592555983 -2.6156660316568856
-1.628555283451164 -2.7464873852720135
-1.704309857500469 -2.84460340048336
-1.8150280811109913 -2.975424754098488
-1.9315735796483835 -3.1225987769155075
-2.059773628039515 -3.302478138136309
-2.176319126576907 -3.449652160953328
-2.3045191749680383 -3.5314155069627833
-2.4035828487248216 -3.515062837760892
-2.5026465224816046 -3.351536145741982
-2.57257382160404 -3.1225987769155075
-2.525955622189083 -2.9181904118918696
-2.4035828487248216 -2.721958381469177
-2.2345918758456027 -2.4848446780417572
-2.013155428624558 -2.2477309746143375
-1.7975462563303826 -2.002440936585972
-1.5877643589630768 -1.8552669137689526
-1.3954642863763798 -1.7162692255528789
-1.2264733134971613 -1.593624206538696
-1.109927814959769 -1.4628028529235677
-1.022518691056725 -1.323805164707494
-0.9525913919342898 -1.2093364802942568
-0.9176277423730722 -1.0948677958810196
-0.8826640928118545 -0.9967517806696734
-0.8535277181775065 -0.8659304270545453
-0.847700443250637 -0.7759907464441446
-0.8360458933968977 -0.6615220620309074
-0.80108224383568 -0.5470533776176701
-0.7544640444207232 -0.46529003160821497
-0.6961912951520272 -0.3753503509978143
-0.6320912709564616 -0.34264501259403224
-0.5679912467608959 -0.25270533198363154
-0.4514457482235038 -0.17094198597417642
-0.3582093493935901 -0.1137076437675578
-0.27662750041741563 -0.02376796315715714
-0.22418202607558918 0.00893737524662492
-0.18921837651437157 0.05799538285229801
-0.16008200188002353 0.13975872886175317
-0.09015470275758827 0.2051694056693173
-0.014400128708283411 0.27875641707782695
0.07300899519476066 0.2869327516787724
0.16041811909780473 0.311461755481609
0.23617269314710962 0.344167093885391
0.28279089256206646 0.35234342848633654
0.3468909167576321 0.4014014360920096
0.422645490806937 0.41775410529390067
0.4750909651487634 0.4341067744957917
0.5217091645637203 0.4341067744957917
0.5333637144174594 0.4259304398948462
0.5333637144174594 0.4831647821014648
0.5625000890518075 0.4913411167024103
0.5916364636861555 0.5158701205052468
0.6032910135398947 0.5240464551061924
0.6324273881742427 0.5485754589090289
0.644081938027982 0.5240464551061924
0.6382546631011123 0.5567517935099744
0.6673910377354604 0.5976334665147021
0.6965274123698084 0.6221624703175386
0.7140092371504172 0.6385151395194296
0.7373183368578956 0.6385151395194296
0.7314910619310261 0.630338804918484
0.7431456117847652 0.6466914741203751
0.760627436565374 0.6630441433222661
0.7839365362728524 0.7121021509279393
0.8247274607609397 0.7448074893317213
0.8363820106146789 0.7448074893317213
0.8596911103221574 0.7448074893317213
0.8713456601758965 0.7611601585336123
0.9004820348102446 0.8020418315383399
0.9296184094445926 0.8429235045430675
0.9645820590058103 0.834747169942122
0.9820638837864191 0.867452508345904
0.9937184336401582 0.867452508345904
1.0170275333476366 0.8838051775477951
1.0228548082745064 0.9246868505525226
1.0811275575432024 0.9492158543553592
1.1219184820312895 0.9737448581581957
1.145227581738768 0.9900975273600867
1.1685366814462463 0.9982738619610323
1.1685366814462463 0.9900975273600867
1.2035003310074641 1.0309792003648144
1.250118530422421 1.0636845387685965
1.2850821799836385 1.0800372079704874
1.290909454910508 1.088213542571433
1.320045829544856 1.0963898771723783
1.3258731044717258 1.104566211773324
1.3550094791060738 1.1127425463742695
1.3841458537404219 1.1618005539799425
1.41328222837477 1.169976888580888
1.4307640531553787 1.153624219378997
1.4307640531553787 1.1618005539799425
1.4365913280822482 1.1618005539799425
1.4482458779359875 1.169976888580888
1.4657277027165962 1.1781532231818337
1.4773822525703355 1.1781532231818337
1.4890368024240748 1.153624219378997
1.4773822525703355 1.137271550177106
1.442418603009118 1.1127425463742695
1.4657277027165962 1.1290952155761604
1.4599004277897267 1.1454478847780516
1.4599004277897267 1.104566211773324
1.454073152862857 1.0800372079704874
1.424936778228509 1.0473318695667053
1.4074549534479002 1.0146265311629232
1.3899731286672914 1.0064501965619779
1.3783185788135521 0.9900975273600867
1.3724913038866826 0.9573921889563047
1.337527654325465 0.9001578467496861
1.2967367298373778 0.8592761737449585
1.250118530422421 0.8020418315383399
1.2268094307149424 0.7775128277355033
1.2035003310074641 0.7448074893317213
1.1860185062268551 0.6957494817260482
1.1568821315925073 0.6466914741203751
1.11609120710442 0.6058098011156475
1.057818457835724 0.5567517935099744
1.0053729834938974 0.5322227897071379
0.9762366088595494 0.49951745130335584
0.952927509152071 0.4259304398948462
0.9121365846639838 0.39322510149106416
0.8480365604684181 0.344167093885391
0.7781092613459829 0.311461755481609
0.7431456117847652 0.2869327516787724
0.702354687296678 0.2542274132749904
0.67321831266233 0.23787474407309936
0.6324273881742427 0.19699307106837177
0.5799819138324163 0.15611139806364419
0.5275364394905898 0.13158239426080764
0.5042273397831114 0.11522972505891661
0.4634364152950242 0.13158239426080764
0.4343000406606762 0.1070533904579711
0.39350911617258894 0.06617171745324353
0.3410636418307625 0.0498190482513525
0.30027271734267524 0.03346637904946147
0.27696361763519683 0.0498190482513525
0.259481792854588 0.06617171745324353
0.2536545179277184 0.03346637904946147
0.21869086836650078 0.00893737524662492
0.18955449373215277 0.0007610406456794045
0.16624539402467434 -0.007415293955266111
0.16041811909780473 0.017113709847570435
0.14876356924406553 0.04164271365040698
0.13710901939032633 0.017113709847570435
0.12545446953658712 0.0007610406456794045
0.10214536982910868 -0.031944297758102654
0.07300899519476066 -0.015591628556211625
0.07300899519476066 0.017113709847570435
0.06718172026789106 0.04164271365040698
0.07300899519476066 0.02529004444851595
0.04969989548728224 0.04164271365040698
0.026390795779803824 0.00893737524662492
-0.020227403635153015 0.017113709847570435
-0.055191053196370646 0.02529004444851595
-0.07267287797697947 0.0498190482513525
-0.10180925261132749 0.017113709847570435
-0.16590927680689313 -0.007415293955266111
-0.23000930100245878 -0.06464963616188471
-0.28245477534428526 -0.1055313091666123
-0.31159114997863324 -0.13006031296944884
-0.3349002496861117 -0.13823664757039436
-0.3640366243204597 -0.17094198597417642
-0.3756911741741989 -0.21182365897890398
-0.41648209866228614 -0.2690580011855226
-0.463100298077243 -0.3262923433921412
-0.4689275730041126 -0.3835266855987598
-0.41065482373541656 -0.46529003160821497
-0.3407275246129813 -0.5388770430167246
-0.27080022549054605 -0.6533457274299618
-0.21252747622184998 -0.751461742641308
-0.20670020129498037 -0.8414014232517086
-0.21835475114871958 -0.8986357654583272
-0.27080022549054605 -0.9476937730640004
-0.3756911741741989 -0.9885754460687279
-0.5796457966146351 -1.037633453674401
