-0.3946157139950693 -0.06385823386862781
-0.4349793966243991 -0.06385823386862781
-0.4652521585963964 -0.02069577039810879
-0.455161237939064 -0.08543946560388732
-0.455161237939064 -0.15018316080966584
-0.4652521585963964 -0.2796705512212229
-0.5056158412257262 -0.452320405103299
-0.5157067618830586 -0.452320405103299
-0.48543399991106134 -0.38757670989752047
-0.4349793966243991 -0.36599547816226097
-0.4450703172817315 -0.38757670989752047
-0.5056158412257262 -0.43073917336803946
-0.5358886031977236 -0.5170641003090776
-0.49552492056839376 -0.5602265637795966
-0.48543399991106134 -0.452320405103299
-0.48543399991106134 -0.43073917336803946
-0.4450703172817315 -0.495482868573818
-0.40470663465240175 -0.495482868573818
-0.4753430792537289 -0.5818077955148561
-0.5157067618830586 -0.495482868573818
-0.4753430792537289 -0.495482868573818
-0.4349793966243991 -0.38757670989752047
-0.4147975553097342 -0.3444142464270014
-0.4753430792537289 -0.38757670989752047
-0.5257976825403912 -0.38757670989752047
-0.545979523855056 -0.3012517829564824
-0.5157067618830586 -0.2580893194859634
-0.49552492056839376 -0.10702069733914683
-0.455161237939064 -0.06385823386862781
-0.4349793966243991 -0.17176439254492537
-0.4349793966243991 -0.15018316080966584
-0.4450703172817315 -0.21492685601544437
-0.38452479333773687 -0.2580893194859634
-0.3744338726804044 -0.21492685601544437
-0.34416111070840705 -0.2796705512212229
-0.32397926939374216 -0.3444142464270014
-0.32397926939374216 -0.43073917336803946
-0.3542520313657395 -0.40915794163277996
-0.3744338726804044 -0.36599547816226097
-0.34416111070840705 -0.2796705512212229
-0.2937065074217448 -0.2796705512212229
-0.31388834873640975 -0.2796705512212229
-0.3542520313657395 -0.3012517829564824
-0.3542520313657395 -0.2796705512212229
-0.34416111070840705 -0.19334562428018487
-0.32397926939374216 -0.08543946560388732
-0.32397926939374216 -0.10702069733914683
-0.33407019005107463 -0.10702069733914683
-0.34416111070840705 -0.15018316080966584
-0.3542520313657395 -0.15018316080966584
-0.364342952023072 -0.02069577039810879
-0.34416111070840705 0.022466693072410227
-0.32397926939374216 0.10879162001344826
-0.33407019005107463 0.06562915654292925
-0.364342952023072 0.04404792480766974
-0.42488847596706664 0.06562915654292925
-0.364342952023072 0.13037285174870777
-0.33407019005107463 0.21669777868974582
-0.32397926939374216 0.1519540834839673
-0.3542520313657395 0.10879162001344826
-0.34416111070840705 0.0008854613371507181
-0.364342952023072 -0.042277002133368304
-0.3744338726804044 -0.08543946560388732
-0.34416111070840705 -0.08543946560388732
-0.31388834873640975 -0.10702069733914683
-0.31388834873640975 -0.19334562428018487
-0.34416111070840705 -0.15018316080966584
-0.3542520313657395 -0.19334562428018487
-0.33407019005107463 -0.17176439254492537
-0.31388834873640975 -0.06385823386862781
-0.3037974280790773 -0.06385823386862781
-0.31388834873640975 -0.15018316080966584
-0.3542520313657395 -0.19334562428018487
-0.38452479333773687 -0.19334562428018487
-0.3744338726804044 -0.042277002133368304
-0.364342952023072 0.04404792480766974
-0.32397926939374216 0.1519540834839673
-0.3542520313657395 0.06562915654292925
-0.3744338726804044 0.06562915654292925
-0.2634337454497475 0.06562915654292925
-0.07170625296043101 0.21669777868974582
0.13011216018621793 0.2598602421602648
0.2713850493888722 0.3030227056307839
0.4530216212208562 0.34618516910130287
0.6548400343675052 0.4756725595128599
0.765840161598162 0.6699036451301955
0.8667493681714865 0.8209722672770121
1.0080222573741409 0.7993910355417526
1.2502043531501195 0.5188350229833789
1.6336593381287525 0.21669777868974582
2.097841688366045 -0.15018316080966584
2.551933117946005 -0.5818077955148561
2.895024420295308 -0.9271075032790083
3.0665700714699597 -1.1213385888963439
3.1977520400152817 -1.3371509062489388
3.379388611847266 -1.682450614013091
3.4399341357912605 -2.135656480453541
3.3289340085606036 -2.696768505570288
3.086751912784625 -3.1068119085402186
2.7133878484633245 -3.1931368354812566
2.3400237841420237 -3.1715556037459973
1.8657505132473988 -3.0204869815991806
1.3712954010381089 -2.7183497373055476
0.8263856855421567 -2.286725102600357
0.3622033353048642 -1.7903567726893885
0.029202953612893462 -1.3371509062489388
-0.2634337454497475 -0.9055262715437487
-0.5157067618830586 -0.7112951859264132
-0.6468887304283805 -0.5602265637795966
-0.6872524130577102 -0.40915794163277996
-0.6872524130577102 -0.2365080877507039
-0.7477979370017049 -0.17176439254492537
-0.7982525402883672 -0.10702069733914683
-0.8688889848896943 -0.06385823386862781
-0.9092526675190241 -0.06385823386862781
-0.9496163501483539 0.022466693072410227
-0.9597072708056863 0.10879162001344826
-1.000070953435016 0.21669777868974582
-0.9496163501483539 0.2598602421602648
-0.9798891121203512 0.23827901042500532
-1.0303437154070134 0.2814414738955244
-1.111071080665673 0.2598602421602648
-1.1413438426376703 0.36776640083656237
-1.1211620013230055 0.49725379124811947
-1.0707073980363433 0.5835787181891575
-1.0908892393510081 0.6267411816596765
-1.1817075252670002 0.5188350229833789
-1.1716166046096677 0.561997486453898
-1.201889366581665 0.6267411816596765
-1.1716166046096677 0.691484876865455
-1.1716166046096677 0.691484876865455
-1.1716166046096677 0.5404162547186384
-1.1917984459243327 0.4109288643070814
-1.1817075252670002 0.3030227056307839
-1.201889366581665 0.2814414738955244
-1.1514347632950028 0.23827901042500532
-1.111071080665673 0.1951165469544863
-1.131252921980338 0.06562915654292925
-1.131252921980338 -0.042277002133368304
-1.1413438426376703 -0.08543946560388732
-1.131252921980338 -0.10702069733914683
-1.0707073980363433 -0.10702069733914683
-1.0606164773790108 -0.15018316080966584
-1.0505255567216782 -0.2365080877507039
-1.0807983186936756 -0.3228330146917419
-1.0606164773790108 -0.3012517829564824
-1.0606164773790108 -0.2365080877507039
-1.000070953435016 -0.06385823386862781
-0.9798891121203512 -0.042277002133368304
-0.9496163501483539 -0.042277002133368304
-0.9697981914630188 -0.08543946560388732
-0.9395254294910215 -0.042277002133368304
-0.9294345088336889 0.022466693072410227
-0.8688889848896943 0.10879162001344826
-0.8487071435750294 0.04404792480766974
-0.838616222917697 0.06562915654292925
-0.8890708262043592 -0.02069577039810879
-0.8991617468616916 0.08721038827818876
-0.8285253022603645 0.1735353152192268
-0.7982525402883672 0.3030227056307839
-0.7679797783163699 0.34618516910130287
-0.7679797783163699 0.3030227056307839
-0.7780706989737023 0.32460393736604337
-0.8083434609456996 0.4325100960423409
-0.7679797783163699 0.5188350229833789
-0.6973433337150428 0.605159949924417
-0.636797809771048 0.691484876865455
-0.6166159684563831 0.6267411816596765
-0.5964341271417183 0.648322413394936
-0.6166159684563831 0.6699036451301955
-0.5358886031977236 0.7778098038064931
-0.4652521585963964 0.7993910355417526
-0.40470663465240175 0.8425534990122716
-0.38452479333773687 0.7993910355417526
-0.32397926939374216 0.8425534990122716
-0.31388834873640975 0.8425534990122716
-0.2937065074217448 0.9504596576885691
-0.27352466610707993 1.0799470481001263
-0.21297914216308525 1.0583658163648666
-0.19279730084842037 1.0152033528943476
-0.18270638019108792 0.9504596576885691
-0.18270638019108792 0.8857159624827906
-0.15243361821909057 0.9288784259533096
-0.10197901493242835 0.8641347307475311
-0.11206993558976079 0.7562285720712336
-0.1322517769044257 0.605159949924417
-0.18270638019108792 0.36776640083656237
-0.15243361821909057 0.1519540834839673
-0.1322517769044257 0.022466693072410227
-0.11206993558976079 -0.06385823386862781
-0.12216085624709325 -0.21492685601544437
-0.1322517769044257 -0.3444142464270014
-0.18270638019108792 -0.40915794163277996
-0.17261545953375548 -0.36599547816226097
-0.15243361821909057 -0.3012517829564824
-0.15243361821909057 -0.19334562428018487
-0.18270638019108792 -0.17176439254492537
-0.23316098347775016 -0.2796705512212229
-0.17261545953375548 -0.38757670989752047
-0.15243361821909057 -0.43073917336803946
-0.0918880942750959 -0.452320405103299
-0.11206993558976079 -0.2365080877507039
-0.07170625296043101 -0.17176439254492537
-0.041433490988433665 -0.15018316080966584
-0.05152441164576611 -0.08543946560388732
-0.11206993558976079 0.0008854613371507181
-0.10197901493242835 0.13037285174870777
-0.0918880942750959 0.23827901042500532
-0.03134257033110122 0.34618516910130287
-0.021251649673768774 0.21669777868974582
-0.06161533230309856 -0.10702069733914683
-0.12216085624709325 -0.43073917336803946
-0.16252453887642304 -0.5386453320443371
-0.10197901493242835 -0.40915794163277996
0.03929387427022591 -0.3228330146917419
0.09983939821422058 -0.19334562428018487
0.029202953612893462 -0.08543946560388732
-0.021251649673768774 0.0008854613371507181
-0.07170625296043101 0.06562915654292925
-0.06161533230309856 0.1735353152192268
-0.07170625296043101 0.23827901042500532
-0.08179717361776345 0.3893476325718219
-0.03134257033110122 0.561997486453898
-0.05152441164576611 0.605159949924417
-0.08179717361776345 0.734647340335974
-0.0918880942750959 0.691484876865455
-0.05152441164576611 0.6267411816596765
-0.03134257033110122 0.6267411816596765
-0.0010698083591038797 0.605159949924417
-0.03134257033110122 0.734647340335974
-0.041433490988433665 0.734647340335974
-0.07170625296043101 0.734647340335974
-0.10197901493242835 0.49725379124811947
-0.16252453887642304 0.2598602421602648
-0.1322517769044257 -0.06385823386862781
-0.11206993558976079 -0.17176439254492537
-0.08179717361776345 -0.3012517829564824
-0.10197901493242835 -0.495482868573818
-0.11206993558976079 -0.6681327224558941
-0.15243361821909057 -0.7976201128674512
-0.18270638019108792 -0.9271075032790083
-0.19279730084842037 -0.9055262715437487
-0.1322517769044257 -0.6465514907206346
-0.16252453887642304 -0.452320405103299
-0.17261545953375548 -0.3012517829564824
-0.25334282479241504 -0.2796705512212229
-0.2836155867644124 -0.3444142464270014
-0.2432519041350826 -0.43073917336803946
-0.15243361821909057 -0.452320405103299
-0.12216085624709325 -0.5386453320443371
-0.0918880942750959 -0.6249702589853751
-0.14234269756175813 -0.7976201128674512
-0.18270638019108792 -0.8192013446027107
-0.16252453887642304 -0.8839450398084892
-0.12216085624709325 -0.8623638080732297
-0.08179717361776345 -0.6897139541911536
-0.05152441164576611 -0.6033890272501156
-0.12216085624709325 -0.6033890272501156
-0.14234269756175813 -0.5602265637795966
-0.16252453887642304 -0.4739016368385585
-0.14234269756175813 -0.3444142464270014
-0.1322517769044257 -0.2796705512212229
-0.0918880942750959 -0.12860192907440635
-0.10197901493242835 -0.12860192907440635
-0.0918880942750959 -0.10702069733914683
-0.15243361821909057 0.022466693072410227
-0.2432519041350826 0.1951165469544863
-0.2432519041350826 0.4109288643070814
-0.2028882215057528 0.691484876865455
-0.0918880942750959 0.7778098038064931
-0.07170625296043101 0.691484876865455
-0.15243361821909057 0.36776640083656237
-0.27352466610707993 0.06562915654292925
-0.31388834873640975 -0.12860192907440635
-0.23316098347775016 -0.2365080877507039
-0.16252453887642304 -0.2580893194859634
-0.11206993558976079 -0.08543946560388732
-0.16252453887642304 0.2598602421602648
-0.2028882215057528 0.6699036451301955
-0.22307006282041772 0.9504596576885691
-0.2028882215057528 0.8209722672770121
-0.22307006282041772 0.5404162547186384
-0.16252453887642304 0.2598602421602648
-0.11206993558976079 0.06562915654292925
0.019112032955561013 0.04404792480766974
0.18056676347288017 0.06562915654292925
0.40256701793419397 0.0008854613371507181
0.6144763517381754 -0.02069577039810879
0.8667493681714865 0.022466693072410227
1.0181131780314732 0.23827901042500532
1.1089314639474652 0.561997486453898
1.3107498770941142 0.6267411816596765
1.552931972870093 0.3893476325718219
1.8152959099607366 0.1735353152192268
2.188659974282037 0.0008854613371507181
2.622569562547332 -0.2796705512212229
3.137206516071287 -0.5602265637795966
3.540843342364585 -0.9702699667495273
3.7325708348539015 -1.3803133697194578
3.7628435968258986 -1.7903567726893885
3.752752676168566 -2.1572377121888002
3.813298200112561 -2.308306334335617
3.8435709620845584 -2.696768505570288
3.722479914196569 -3.1068119085402186
3.591297945651247 -3.6463427019217063
3.379388611847266 -3.9916424096858587
3.086751912784625 -4.099548568362156
2.7436606104353216 -4.034804873156378
2.3702965461140213 -3.797411324068523
1.9969324817927205 -3.49527407977489
1.62356841747142 -3.1068119085402186
1.1593860672341274 -2.567281115158731
0.7153855583114999 -2.135656480453541
0.33193057333286685 -1.6608693822778315
-0.0010698083591038797 -1.2508259793079008
-0.2634337454497475 -0.9486887350142678
-0.40470663465240175 -0.8407825763379702
-0.4753430792537289 -0.6897139541911536
-0.48543399991106134 -0.6033890272501156
-0.545979523855056 -0.43073917336803946
-0.5762522858270533 -0.17176439254492537
-0.6065250477990507 0.13037285174870777
-0.636797809771048 0.4109288643070814
-0.6771614924003778 0.691484876865455
-0.7074342543723752 0.8209722672770121
-0.7477979370017049 0.7993910355417526
-0.7881616196310347 0.7993910355417526
-0.8285253022603645 0.7993910355417526
-0.8285253022603645 0.7130661086007145
-0.8184343816030321 0.605159949924417
-0.8487071435750294 0.6267411816596765
-0.8890708262043592 0.7778098038064931
-0.8890708262043592 0.7562285720712336
-0.8487071435750294 0.6267411816596765
-0.8487071435750294 0.3893476325718219
-0.9092526675190241 0.34618516910130287
-0.9597072708056863 0.605159949924417
-1.0202527947496811 0.7562285720712336
-0.9899800327776836 0.8209722672770121
-0.8991617468616916 0.7130661086007145
-0.8487071435750294 0.4756725595128599
-0.8587980642323618 0.1951165469544863
-0.8587980642323618 0.13037285174870777
-0.8890708262043592 0.1519540834839673
-0.9193435881763565 0.2814414738955244
-0.9496163501483539 0.34618516910130287
-1.0606164773790108 0.32460393736604337
-1.0908892393510081 0.04404792480766974
-1.040434636064346 0.022466693072410227
-0.9294345088336889 -0.042277002133368304
-0.8587980642323618 -0.12860192907440635
-0.8789799055470268 -0.43073917336803946
-0.9395254294910215 -0.9918511984847868
-0.9496163501483539 -1.3371509062489388
-0.9294345088336889 -1.5745444553367935
-0.7881616196310347 -1.552963223601534
-0.7074342543723752 -1.3371509062489388
-0.72761609568704 -1.0781761254258249
-0.7175251750297076 -0.9271075032790083
-0.72761609568704 -0.8192013446027107
-0.7175251750297076 -0.7112951859264132
-0.6973433337150428 -0.5818077955148561
-0.6670705717430454 -0.3228330146917419
-0.6065250477990507 0.04404792480766974
-0.5560704445123884 0.1519540834839673
-0.636797809771048 0.10879162001344826
-0.6771614924003778 -0.06385823386862781
-0.6468887304283805 -0.2796705512212229
-0.5056158412257262 -0.38757670989752047
-0.40470663465240175 -0.3012517829564824
-0.33407019005107463 -0.21492685601544437
-0.32397926939374216 -0.042277002133368304
-0.3037974280790773 0.13037285174870777
-0.2836155867644124 0.648322413394936
-0.2634337454497475 0.9720408894238287
-0.25334282479241504 1.2741781337174618
-0.2028882215057528 1.1878532067764238
-0.16252453887642304 0.8425534990122716
-0.16252453887642304 0.2598602421602648
-0.06161533230309856 -0.15018316080966584
0.019112032955561013 -0.3012517829564824
0.0796575568995557 -0.2580893194859634
0.14020308084355038 -0.17176439254492537
0.12002123952888548 -0.08543946560388732
0.09983939821422058 0.06562915654292925
0.0796575568995557 0.49725379124811947
0.0796575568995557 0.8209722672770121
0.13011216018621793 1.0152033528943476
0.13011216018621793 0.9072971942180501
0.08974847755688814 0.8209722672770121
0.009021112298228566 0.7993910355417526
-0.05152441164576611 0.7993910355417526
-0.011160729016436326 0.7562285720712336
0.019112032955561013 0.561997486453898
-0.041433490988433665 0.1519540834839673
-0.10197901493242835 -0.17176439254492537
-0.06161533230309856 -0.43073917336803946
0.019112032955561013 -0.495482868573818
-0.03134257033110122 -0.5602265637795966
-0.0918880942750959 -0.452320405103299
-0.0918880942750959 -0.43073917336803946
-0.12216085624709325 -0.5818077955148561
-0.21297914216308525 -0.9055262715437487
-0.33407019005107463 -1.2292447475726413
-0.33407019005107463 -1.2508259793079008
-0.21297914216308525 -1.1213385888963439
-0.1322517769044257 -1.2724072110431603
-0.18270638019108792 -1.4018946014547173
-0.2432519041350826 -1.3155696745136793
-0.27352466610707993 -0.9702699667495273
-0.2634337454497475 -0.43073917336803946
-0.2634337454497475 -0.08543946560388732
-0.22307006282041772 0.04404792480766974
-0.25334282479241504 -0.02069577039810879
-0.2937065074217448 -0.2365080877507039
-0.2836155867644124 -0.2580893194859634
-0.25334282479241504 -0.10702069733914683
-0.23316098347775016 0.06562915654292925
-0.2634337454497475 0.13037285174870777
-0.33407019005107463 0.1735353152192268
-0.34416111070840705 0.1735353152192268
-0.2432519041350826 0.13037285174870777
-0.14234269756175813 0.13037285174870777
-0.16252453887642304 0.21669777868974582
-0.18270638019108792 0.5188350229833789
-0.19279730084842037 0.9288784259533096
-0.2432519041350826 1.3605030606584998
-0.23316098347775016 1.6410590732168735
-0.21297914216308525 1.5547341462758355
-0.19279730084842037 1.1662719750411643
-0.2432519041350826 0.4325100960423409
-0.2634337454497475 0.0008854613371507181
-0.21297914216308525 0.1735353152192268
-0.06161533230309856 0.691484876865455
0.009021112298228566 1.036784584629607
-0.05152441164576611 1.1662719750411643
-0.12216085624709325 0.9720408894238287
-0.0918880942750959 0.8857159624827906
-0.041433490988433665 0.8209722672770121
-0.05152441164576611 0.8641347307475311
-0.08179717361776345 0.7993910355417526
-0.06161533230309856 0.691484876865455
-0.021251649673768774 0.49725379124811947
0.029202953612893462 0.648322413394936
0.04938479492755835 0.7993910355417526
0.08974847755688814 0.8857159624827906
0.0594757155848908 0.691484876865455
-0.021251649673768774 0.6699036451301955
0.019112032955561013 0.7993910355417526
0.10993031887155304 0.8425534990122716
0.22093044610220994 0.5404162547186384
0.33193057333286685 -0.06385823386862781
0.4530216212208562 -0.6681327224558941
0.6649309550248376 -1.0781761254258249
0.9172039714581488 -1.3371509062489388
1.0685677813181356 -1.4234758331899768
1.0685677813181356 -1.1645010523668629
1.0080222573741409 -0.6033890272501156
1.0181131780314732 -0.042277002133368304
1.1089314639474652 0.2598602421602648
1.421750004324771 0.2814414738955244
1.8758414339047311 0.10879162001344826
2.208841815596702 -0.43073917336803946
2.551933117946005 -1.0565948936905654
2.8042061343793163 -1.4234758331899768
3.0564791508126277 -1.6177069188073125
3.2381157226446113 -1.6177069188073125
3.3491158498752682 -1.7040318457483505
3.3087521672459386 -1.8982629313656862
3.207842960672614 -2.1572377121888002
3.1775701987006166 -2.567281115158731
3.0665700714699597 -2.9125808229228833
2.8042061343793163 -3.1931368354812566
2.5620240386033375 -3.3442054576280733
2.390478387428686 -3.322624225892814
2.208841815596702 -3.3442054576280733
1.9666597198207232 -3.2147180672165163
1.6336593381287525 -2.8478371277171046
1.2401134324927872 -2.567281115158731
0.9272948921154812 -2.373050029541395
0.7254764789688323 -2.092494016983022
0.4227488592488589 -1.682450614013091
0.09983939821422058 -1.2076635158373819
-0.12216085624709325 -0.9702699667495273
-0.14234269756175813 -0.9486887350142678
-0.12216085624709325 -0.9702699667495273
-0.17261545953375548 -0.8839450398084892
-0.21297914216308525 -0.6033890272501156
-0.23316098347775016 -0.19334562428018487
-0.19279730084842037 0.21669777868974582
-0.2028882215057528 0.3030227056307839
-0.2937065074217448 0.21669777868974582
-0.364342952023072 -0.042277002133368304
-0.40470663465240175 -0.19334562428018487
-0.3542520313657395 -0.2365080877507039
-0.33407019005107463 -0.2580893194859634
-0.33407019005107463 -0.3228330146917419
-0.38452479333773687 -0.3012517829564824
-0.3946157139950693 -0.38757670989752047
-0.38452479333773687 -0.3228330146917419
-0.3744338726804044 -0.15018316080966584
-0.455161237939064 -0.12860192907440635
-0.4450703172817315 -0.10702069733914683
-0.455161237939064 -0.12860192907440635
-0.4349793966243991 -0.2365080877507039
-0.4349793966243991 -0.19334562428018487
-0.48543399991106134 -0.15018316080966584
-0.4349793966243991 -0.15018316080966584
-0.4450703172817315 -0.2580893194859634
-0.48543399991106134 -0.452320405103299
-0.5358886031977236 -0.6681327224558941
-0.5157067618830586 -0.5818077955148561
-0.4652521585963964 -0.38757670989752047
-0.455161237939064 -0.2580893194859634
-0.49552492056839376 -0.2365080877507039
-0.5358886031977236 -0.2580893194859634
-0.5157067618830586 -0.21492685601544437
-0.4652521585963964 -0.19334562428018487
-0.4450703172817315 -0.40915794163277996
-0.4450703172817315 -0.6681327224558941
-0.4349793966243991 -1.0781761254258249
-0.3542520313657395 -1.4018946014547173
-0.31388834873640975 -1.7040318457483505
-0.31388834873640975 -1.6608693822778315
-0.2836155867644124 -1.466638296660496
-0.31388834873640975 -1.1860822841021224
-0.3037974280790773 -0.9271075032790083
-0.2634337454497475 -0.7544576493969322
-0.2836155867644124 -0.6249702589853751
-0.31388834873640975 -0.3444142464270014
-0.25334282479241504 -0.08543946560388732
-0.2028882215057528 0.022466693072410227
-0.10197901493242835 0.10879162001344826
-0.07170625296043101 0.0008854613371507181
-0.11206993558976079 -0.06385823386862781
-0.18270638019108792 -0.042277002133368304
-0.10197901493242835 0.1519540834839673
-0.021251649673768774 0.21669777868974582
0.06956663624222324 0.36776640083656237
0.06956663624222324 0.3030227056307839
0.04938479492755835 0.34618516910130287
0.04938479492755835 0.4540913277776004
0.10993031887155304 0.5188350229833789
0.18056676347288017 0.6699036451301955
0.24111228741687485 0.648322413394936
0.26129412873153973 0.648322413394936
0.3016578113608695 0.6267411816596765
0.2915668907035371 0.6699036451301955
0.3016578113608695 0.734647340335974
0.3722942559621967 0.734647340335974
0.4328397799061913 0.5404162547186384
0.4530216212208562 0.2598602421602648
0.4227488592488589 0.04404792480766974
0.4429307005635238 -0.12860192907440635
0.4732034625355211 -0.08543946560388732
0.48329438319285356 -0.06385823386862781
0.4429307005635238 -0.02069577039810879
0.3823851766195291 0.0008854613371507181
0.32183965267553444 -0.06385823386862781
0.2814759700462046 -0.02069577039810879
0.26129412873153973 0.022466693072410227
0.26129412873153973 0.10879162001344826
0.24111228741687485 -0.042277002133368304
0.26129412873153973 -0.2365080877507039
0.20074860478754505 -0.36599547816226097
0.13011216018621793 -0.3228330146917419
0.0796575568995557 -0.12860192907440635
0.09983939821422058 -0.06385823386862781
0.10993031887155304 0.04404792480766974
0.0594757155848908 0.0008854613371507181
0.06956663624222324 0.0008854613371507181
0.13011216018621793 0.10879162001344826
0.08974847755688814 0.21669777868974582
0.029202953612893462 0.32460393736604337
0.0594757155848908 0.34618516910130287
0.10993031887155304 0.2598602421602648
0.12002123952888548 0.1951165469544863
0.029202953612893462 -0.02069577039810879
-0.0010698083591038797 -0.10702069733914683
0.0796575568995557 -0.15018316080966584
0.12002123952888548 -0.17176439254492537
0.12002123952888548 -0.2580893194859634
0.09983939821422058 -0.2365080877507039
0.029202953612893462 -0.042277002133368304
0.0594757155848908 0.1519540834839673
0.08974847755688814 0.2814414738955244
0.14020308084355038 0.4109288643070814
0.12002123952888548 0.4540913277776004
0.09983939821422058 0.4756725595128599
0.08974847755688814 0.5404162547186384
0.14020308084355038 0.648322413394936
0.14020308084355038 0.648322413394936
0.10993031887155304 0.7130661086007145
0.03929387427022591 0.5404162547186384
0.0594757155848908 0.32460393736604337
0.14020308084355038 0.08721038827818876
0.16038492215821526 -0.12860192907440635
0.13011216018621793 -0.10702069733914683
0.14020308084355038 0.04404792480766974
0.18056676347288017 0.13037285174870777
0.15029400150088282 0.23827901042500532
0.10993031887155304 0.1735353152192268
0.06956663624222324 0.1519540834839673
0.06956663624222324 0.04404792480766974
0.1906576841302126 -0.02069577039810879
0.2108395254448775 -0.06385823386862781
0.1906576841302126 -0.21492685601544437
0.14020308084355038 -0.2365080877507039
0.15029400150088282 -0.3228330146917419
0.17047584281554773 -0.36599547816226097
0.14020308084355038 -0.40915794163277996
0.13011216018621793 -0.40915794163277996
0.12002123952888548 -0.38757670989752047
0.10993031887155304 -0.3444142464270014
0.09983939821422058 -0.38757670989752047
0.04938479492755835 -0.36599547816226097
0.0796575568995557 -0.36599547816226097
0.09983939821422058 -0.2580893194859634
0.10993031887155304 0.04404792480766974
0.08974847755688814 0.36776640083656237
0.08974847755688814 0.648322413394936
-0.011160729016436326 0.8425534990122716
-0.021251649673768774 0.7993910355417526
-0.021251649673768774 0.4109288643070814
0.03929387427022591 -0.10702069733914683
0.06956663624222324 -0.38757670989752047
0.03929387427022591 -0.36599547816226097
0.04938479492755835 -0.2796705512212229
0.13011216018621793 -0.2796705512212229
0.12002123952888548 -0.36599547816226097
0.029202953612893462 -0.3444142464270014
-0.021251649673768774 -0.19334562428018487
0.019112032955561013 0.13037285174870777
0.09983939821422058 0.32460393736604337
0.16038492215821526 0.3030227056307839
0.09983939821422058 0.13037285174870777
-0.03134257033110122 -0.12860192907440635
-0.0010698083591038797 -0.15018316080966584
0.0594757155848908 -0.06385823386862781
0.14020308084355038 -0.02069577039810879
0.15029400150088282 0.06562915654292925
0.12002123952888548 0.04404792480766974
0.12002123952888548 0.04404792480766974
0.06956663624222324 0.1519540834839673
0.0796575568995557 0.4540913277776004
0.09983939821422058 0.8641347307475311
0.10993031887155304 1.0583658163648666
0.04938479492755835 0.7993910355417526
-0.10197901493242835 0.21669777868974582
-0.1322517769044257 -0.2580893194859634
-0.03134257033110122 -0.36599547816226097
0.12002123952888548 -0.2580893194859634
0.16038492215821526 -0.2580893194859634
0.09983939821422058 -0.3228330146917419
-0.0010698083591038797 -0.3012517829564824
-0.06161533230309856 -0.3012517829564824
-0.021251649673768774 -0.17176439254492537
-0.0010698083591038797 -0.02069577039810879
0.029202953612893462 -0.06385823386862781
0.019112032955561013 -0.12860192907440635
-0.03134257033110122 -0.15018316080966584
-0.06161533230309856 -0.12860192907440635
-0.10197901493242835 -0.12860192907440635
-0.10197901493242835 0.0008854613371507181
-0.10197901493242835 0.06562915654292925
-0.16252453887642304 0.06562915654292925
-0.21297914216308525 0.022466693072410227
-0.22307006282041772 0.1735353152192268
-0.17261545953375548 0.34618516910130287
-0.0918880942750959 0.4325100960423409
-0.0918880942750959 0.2598602421602648
-0.1322517769044257 -0.10702069733914683
-0.25334282479241504 -0.38757670989752047
-0.22307006282041772 -0.452320405103299
-0.07170625296043101 -0.3228330146917419
-0.0010698083591038797 -0.08543946560388732
-0.0010698083591038797 0.13037285174870777
-0.07170625296043101 0.21669777868974582
-0.08179717361776345 0.21669777868974582
-0.08179717361776345 0.21669777868974582
-0.10197901493242835 0.13037285174870777
-0.06161533230309856 0.1735353152192268
-0.05152441164576611 0.13037285174870777
-0.05152441164576611 0.10879162001344826
-0.0918880942750959 0.06562915654292925
-0.08179717361776345 0.06562915654292925
-0.06161533230309856 0.06562915654292925
-0.0010698083591038797 0.21669777868974582
0.03929387427022591 0.23827901042500532
0.03929387427022591 0.10879162001344826
-0.0010698083591038797 0.1951165469544863
-0.021251649673768774 0.34618516910130287
0.04938479492755835 0.691484876865455
0.06956663624222324 1.0799470481001263
0.0594757155848908 1.0583658163648666
-0.021251649673768774 0.734647340335974
-0.021251649673768774 0.06562915654292925
0.0796575568995557 -0.5386453320443371
0.3016578113608695 -0.7328764176616727
0.5539308277941807 -0.5170641003090776
0.8162947648848243 -0.21492685601544437
0.967658574744811 0.06562915654292925
0.9878404160594759 0.23827901042500532
1.0181131780314732 0.5188350229833789
1.098840543290133 0.9720408894238287
1.16947698789146 1.3820842923937593
1.2098406705207898 1.8137089270989495
1.2098406705207898 1.9863587809810257
1.1896588292061248 1.9863587809810257
1.219931591178122 1.9863587809810257
1.4015681630101062 1.9431963175105067
1.6942048620727472 1.79212769536369
2.0675689263940478 1.5547341462758355
2.2693873395406965 1.4684092193347973
2.390478387428686 1.6410590732168735
2.5317512766313404 1.878452622304728
2.703296927805992 1.7705464636284305
2.8042061343793163 1.5115716828053165
2.794115213721984 0.9720408894238287
2.7436606104353216 -0.17176439254492537
2.6326604832046647 -1.4882195283957556
2.3702965461140213 -2.826255895981845
2.007023402450053 -3.408949152833852
1.754750386016742 -3.6463427019217063
1.5226592108980956 -3.408949152833852
1.1392042259194626 -3.1068119085402186
0.6851127963395025 -2.739930969040807
0.32183965267553444 -2.286725102600357
0.13011216018621793 -1.8766816996304267
-0.0918880942750959 -1.4450570649252366
-0.2432519041350826 -1.1213385888963439
-0.3542520313657395 -0.9486887350142678
-0.4147975553097342 -0.8192013446027107
-0.42488847596706664 -0.5170641003090776
-0.455161237939064 -0.4739016368385585
-0.455161237939064 -0.36599547816226097
-0.4753430792537289 -0.3012517829564824
-0.4753430792537289 -0.43073917336803946
-0.5257976825403912 -0.5386453320443371
-0.5863432064843858 -0.5170641003090776
-0.6267068891137155 -0.38757670989752047
-0.636797809771048 -0.2796705512212229
-0.6065250477990507 -0.36599547816226097
-0.6166159684563831 -0.36599547816226097
-0.6468887304283805 -0.43073917336803946
-0.6771614924003778 -0.38757670989752047
-0.6670705717430454 -0.452320405103299
-0.636797809771048 -0.36599547816226097
-0.6569796510857129 -0.3444142464270014
-0.6872524130577102 -0.40915794163277996
-0.6771614924003778 -0.40915794163277996
-0.6569796510857129 -0.3444142464270014
-0.6166159684563831 -0.3444142464270014
-0.5762522858270533 -0.19334562428018487
-0.5863432064843858 -0.15018316080966584
-0.5863432064843858 -0.08543946560388732
-0.6872524130577102 -0.12860192907440635
-0.72761609568704 -0.08543946560388732
-0.6771614924003778 0.0008854613371507181
-0.5863432064843858 0.13037285174870777
-0.5560704445123884 0.1735353152192268
-0.5964341271417183 0.2598602421602648
-0.5964341271417183 0.23827901042500532
-0.5964341271417183 0.34618516910130287
-0.5762522858270533 0.4756725595128599
-0.5863432064843858 0.605159949924417
-0.5762522858270533 0.5404162547186384
-0.5560704445123884 0.5404162547186384
-0.545979523855056 0.5835787181891575
-0.5157067618830586 0.7130661086007145
-0.5157067618830586 0.9936221211590882
-0.5056158412257262 1.2310156702469428
-0.48543399991106134 1.2525969019822023
-0.4753430792537289 1.1878532067764238
-0.4753430792537289 0.9936221211590882
-0.49552492056839376 0.8209722672770121
-0.48543399991106134 0.691484876865455
-0.4652521585963964 0.5404162547186384
-0.4349793966243991 0.32460393736604337
-0.4349793966243991 0.2814414738955244
-0.4652521585963964 0.2814414738955244
-0.49552492056839376 0.36776640083656237
-0.5157067618830586 0.4540913277776004
-0.5560704445123884 0.5404162547186384
-0.5661613651697209 0.648322413394936
-0.545979523855056 0.561997486453898
-0.5762522858270533 0.3893476325718219
-0.5661613651697209 0.4109288643070814
-0.5358886031977236 0.34618516910130287
-0.4652521585963964 0.2814414738955244
-0.42488847596706664 0.2598602421602648
-0.42488847596706664 0.1951165469544863
-0.3744338726804044 0.08721038827818876
-0.33407019005107463 0.022466693072410227
-0.2836155867644124 0.10879162001344826
-0.27352466610707993 0.1519540834839673
-0.21297914216308525 0.06562915654292925
-0.19279730084842037 -0.06385823386862781
-0.17261545953375548 -0.10702069733914683
-0.12216085624709325 -0.10702069733914683
-0.08179717361776345 -0.02069577039810879
-0.041433490988433665 0.1519540834839673
0.009021112298228566 0.08721038827818876
-0.0010698083591038797 0.022466693072410227
-0.011160729016436326 0.022466693072410227
-0.041433490988433665 0.06562915654292925
0.009021112298228566 0.1951165469544863
0.029202953612893462 0.32460393736604337
0.019112032955561013 0.4756725595128599
-0.011160729016436326 0.4756725595128599
0.03929387427022591 0.5188350229833789
0.029202953612893462 0.5404162547186384
0.019112032955561013 0.6699036451301955
0.009021112298228566 0.7993910355417526
0.0796575568995557 0.648322413394936
0.09983939821422058 0.605159949924417
0.0594757155848908 0.5404162547186384
0.0594757155848908 0.5835787181891575
0.09983939821422058 0.734647340335974
0.16038492215821526 0.7778098038064931
0.13011216018621793 0.8209722672770121
0.03929387427022591 0.9072971942180501
-0.03134257033110122 0.9720408894238287
-0.011160729016436326 1.0799470481001263
-0.0010698083591038797 1.1878532067764238
0.03929387427022591 1.1662719750411643
0.06956663624222324 0.9936221211590882
0.09983939821422058 0.8425534990122716
0.12002123952888548 0.605159949924417
0.04938479492755835 0.648322413394936
0.019112032955561013 0.6267411816596765
0.0796575568995557 0.691484876865455
0.12002123952888548 0.605159949924417
0.08974847755688814 0.5188350229833789
0.029202953612893462 0.36776640083656237
-0.011160729016436326 0.34618516910130287
0.03929387427022591 0.3030227056307839
0.04938479492755835 0.34618516910130287
0.03929387427022591 0.3030227056307839
0.019112032955561013 0.06562915654292925
-0.011160729016436326 -0.10702069733914683
0.04938479492755835 -0.12860192907440635
0.09983939821422058 -0.10702069733914683
0.13011216018621793 0.0008854613371507181
0.15029400150088282 0.0008854613371507181
0.14020308084355038 0.10879162001344826
0.13011216018621793 0.23827901042500532
0.12002123952888548 0.36776640083656237
0.10993031887155304 0.7993910355417526
0.14020308084355038 0.9072971942180501
0.15029400150088282 0.7562285720712336
0.2310213667595424 0.4325100960423409
0.25120320807420726 -0.02069577039810879
0.31174873201820197 -0.38757670989752047
0.39247609727686156 -0.4739016368385585
0.5034762245075185 -0.452320405103299
0.39247609727686156 -0.36599547816226097
0.17047584281554773 -0.2580893194859634
-0.021251649673768774 -0.21492685601544437
-0.06161533230309856 -0.17176439254492537
-0.011160729016436326 -0.042277002133368304
0.0594757155848908 0.022466693072410227
0.12002123952888548 0.04404792480766974
0.08974847755688814 0.06562915654292925
0.08974847755688814 0.06562915654292925
0.13011216018621793 0.06562915654292925
0.18056676347288017 0.13037285174870777
0.2310213667595424 0.2598602421602648
0.1906576841302126 0.4756725595128599
0.16038492215821526 0.5835787181891575
0.09983939821422058 0.8425534990122716
0.06956663624222324 1.1231095115706453
-0.011160729016436326 1.5978966097463545
-0.021251649673768774 1.9216150857752472
0.08974847755688814 1.705802768422652
0.2310213667595424 1.2741781337174618
0.22093044610220994 0.49725379124811947
0.13011216018621793 -0.08543946560388732
0.13011216018621793 -0.38757670989752047
0.2108395254448775 -0.43073917336803946
0.2814759700462046 -0.43073917336803946
0.3016578113608695 -0.3444142464270014
0.31174873201820197 -0.3444142464270014
0.2713850493888722 -0.3444142464270014
0.2108395254448775 -0.21492685601544437
0.06956663624222324 -0.042277002133368304
0.06956663624222324 0.0008854613371507181
0.0796575568995557 0.13037285174870777
0.10993031887155304 0.08721038827818876
0.13011216018621793 0.13037285174870777
0.10993031887155304 0.06562915654292925
0.04938479492755835 0.1735353152192268
0.03929387427022591 0.1951165469544863
-0.06161533230309856 0.1951165469544863
-0.12216085624709325 0.2598602421602648
-0.18270638019108792 0.3030227056307839
-0.11206993558976079 0.2814414738955244
-0.021251649673768774 0.34618516910130287
0.029202953612893462 0.34618516910130287
-0.0010698083591038797 0.3030227056307839
-0.05152441164576611 0.2814414738955244
-0.06161533230309856 0.3893476325718219
-0.07170625296043101 0.4540913277776004
-0.0918880942750959 0.5835787181891575
-0.0918880942750959 0.5188350229833789
-0.07170625296043101 0.4109288643070814
0.009021112298228566 0.34618516910130287
0.03929387427022591 0.23827901042500532
0.0594757155848908 0.1951165469544863
0.0594757155848908 0.2598602421602648
0.13011216018621793 0.32460393736604337
0.17047584281554773 0.4540913277776004
0.08974847755688814 0.4325100960423409
-0.08179717361776345 0.3893476325718219
-0.12216085624709325 0.3030227056307839
-0.0918880942750959 0.1951165469544863
-0.07170625296043101 0.022466693072410227
-0.14234269756175813 -0.08543946560388732
-0.2028882215057528 -0.042277002133368304
-0.16252453887642304 -0.042277002133368304
-0.06161533230309856 0.06562915654292925
0.06956663624222324 0.1951165469544863
0.14020308084355038 0.1735353152192268
0.0594757155848908 0.23827901042500532
-0.0918880942750959 0.1735353152192268
-0.2432519041350826 0.2814414738955244
-0.22307006282041772 0.2814414738955244
-0.0918880942750959 0.34618516910130287
0.009021112298228566 0.1735353152192268
0.04938479492755835 0.1735353152192268
-0.011160729016436326 0.04404792480766974
-0.011160729016436326 0.13037285174870777
0.06956663624222324 0.06562915654292925
0.18056676347288017 0.1735353152192268
0.25120320807420726 0.10879162001344826
0.2713850493888722 0.06562915654292925
0.1906576841302126 -0.042277002133368304
0.09983939821422058 0.0008854613371507181
0.12002123952888548 0.08721038827818876
0.31174873201820197 0.10879162001344826
0.4328397799061913 -0.17176439254492537
0.3622033353048642 -0.6033890272501156
0.18056676347288017 -0.7760388811321917
0.10993031887155304 -0.7328764176616727
0.26129412873153973 -0.2796705512212229
0.3722942559621967 0.08721038827818876
0.0796575568995557 0.32460393736604337
-0.34416111070840705 0.23827901042500532
-0.5964341271417183 0.08721038827818876
-0.5358886031977236 0.022466693072410227
-0.32397926939374216 0.08721038827818876
-0.16252453887642304 0.06562915654292925
-0.16252453887642304 -0.15018316080966584
-0.22307006282041772 -0.2580893194859634
-0.27352466610707993 -0.3228330146917419
-0.21297914216308525 -0.2365080877507039
-0.08179717361776345 0.06562915654292925
0.009021112298228566 0.2598602421602648
0.019112032955561013 0.4325100960423409
-0.041433490988433665 0.3893476325718219
-0.0918880942750959 0.32460393736604337
-0.011160729016436326 0.34618516910130287
0.0796575568995557 0.34618516910130287
0.0796575568995557 0.4325100960423409
0.029202953612893462 0.34618516910130287
-0.06161533230309856 0.32460393736604337
-0.05152441164576611 0.3030227056307839
-0.011160729016436326 0.34618516910130287
0.029202953612893462 0.4325100960423409
0.04938479492755835 0.49725379124811947
0.04938479492755835 0.4325100960423409
0.009021112298228566 0.3893476325718219
-0.0010698083591038797 0.34618516910130287
0.14020308084355038 0.4756725595128599
0.1906576841302126 0.6267411816596765
0.16038492215821526 0.6267411816596765
0.10993031887155304 0.605159949924417
0.18056676347288017 0.8425534990122716
0.2108395254448775 1.036784584629607
0.1906576841302126 1.1878532067764238
0.22093044610220994 1.1231095115706453
0.48329438319285356 1.1231095115706453
0.6750218756821701 0.7993910355417526
0.4227488592488589 0.36776640083656237
-0.1322517769044257 0.022466693072410227
-0.5661613651697209 -0.2580893194859634
-0.545979523855056 -0.5386453320443371
-0.2634337454497475 -0.6897139541911536
-0.07170625296043101 -0.6897139541911536
0.04938479492755835 -0.6465514907206346
0.04938479492755835 -0.38757670989752047
0.019112032955561013 -0.2580893194859634
-0.021251649673768774 -0.15018316080966584
0.029202953612893462 -0.12860192907440635
0.08974847755688814 -0.19334562428018487
0.09983939821422058 -0.2365080877507039
0.03929387427022591 -0.2580893194859634
-0.021251649673768774 -0.17176439254492537
-0.021251649673768774 0.022466693072410227
0.029202953612893462 0.10879162001344826
0.03929387427022591 0.1735353152192268
-0.03134257033110122 0.1519540834839673
-0.0918880942750959 0.1519540834839673
-0.11206993558976079 0.08721038827818876
-0.07170625296043101 0.0008854613371507181
-0.03134257033110122 0.0008854613371507181
0.04938479492755835 0.022466693072410227
0.14020308084355038 0.1735353152192268
0.2108395254448775 0.3030227056307839
0.25120320807420726 0.2598602421602648
0.2713850493888722 0.1519540834839673
0.2108395254448775 0.06562915654292925
0.2108395254448775 0.0008854613371507181
0.3016578113608695 0.1519540834839673
0.4530216212208562 0.2814414738955244
0.604385431080843 0.4756725595128599
0.8667493681714865 0.8857159624827906
1.098840543290133 1.2525969019822023
1.219931591178122 1.6842215366873925
1.0887496226328004 1.9863587809810257
0.9979313367168083 1.9863587809810257
0.9979313367168083 1.705802768422652
1.1997497498634573 1.2094344385116833
1.462113686954101 0.8641347307475311
1.6538411794434174 0.4756725595128599
1.825386830618069 0.21669777868974582
2.007023402450053 0.04404792480766974
2.2693873395406965 -0.06385823386862781
2.4510239113726806 -0.12860192907440635
2.6730241658339944 -0.19334562428018487
2.9353881029246383 -0.5818077955148561
3.1271155954139545 -1.0134324302200461
3.1674792780432846 -1.5745444553367935
3.137206516071287 -2.092494016983022
2.975751785553968 -2.5456998834234716
2.773933372407319 -2.739930969040807
2.5620240386033375 -2.9341620546581426
2.249205498226032 -3.0636494450696996
1.9262960371913935 -3.0420682133344403
1.5428410522127605 -2.696768505570288
1.0685677813181356 -2.243562639129838
0.6447491137101727 -1.72561307748361
0.33193057333286685 -1.2939884427784198
0.13011216018621793 -0.9055262715437487
-0.041433490988433665 -0.4739016368385585
-0.17261545953375548 -0.10702069733914683
-0.2634337454497475 -0.042277002133368304
-0.33407019005107463 -0.042277002133368304
-0.3542520313657395 -0.17176439254492537
-0.33407019005107463 -0.2580893194859634
-0.31388834873640975 -0.452320405103299
-0.33407019005107463 -0.495482868573818
-0.364342952023072 -0.6033890272501156
-0.33407019005107463 -0.6465514907206346
-0.2432519041350826 -0.8192013446027107
-0.27352466610707993 -0.8839450398084892
-0.48543399991106134 -0.7760388811321917
-0.7175251750297076 -0.5602265637795966
-0.8487071435750294 -0.08543946560388732
-0.838616222917697 0.1519540834839673
-0.8285253022603645 0.2814414738955244
-0.8991617468616916 0.21669777868974582
-0.9597072708056863 0.10879162001344826
-0.9899800327776836 -0.042277002133368304
-0.9697981914630188 -0.10702069733914683
-0.9395254294910215 -0.06385823386862781
-0.8587980642323618 -0.042277002133368304
-0.8487071435750294 -0.10702069733914683
-0.7881616196310347 -0.08543946560388732
-0.7578888576590374 -0.10702069733914683
-0.7881616196310347 0.022466693072410227
-0.8184343816030321 0.10879162001344826
-0.8285253022603645 0.0008854613371507181
-0.8285253022603645 -0.02069577039810879
-0.8285253022603645 -0.042277002133368304
-0.7881616196310347 0.022466693072410227
-0.7074342543723752 0.1735353152192268
-0.6569796510857129 0.32460393736604337
-0.636797809771048 0.4109288643070814
-0.6973433337150428 0.3893476325718219
-0.7679797783163699 0.3893476325718219
-0.7881616196310347 0.3030227056307839
-0.6569796510857129 0.32460393736604337
-0.5560704445123884 0.4540913277776004
-0.49552492056839376 0.4756725595128599
-0.5056158412257262 0.605159949924417
-0.48543399991106134 0.691484876865455
-0.4450703172817315 0.9072971942180501
-0.40470663465240175 0.8425534990122716
-0.4753430792537289 0.7130661086007145
-0.5762522858270533 0.561997486453898
-0.5661613651697209 0.32460393736604337
-0.38452479333773687 0.022466693072410227
-0.2432519041350826 -0.21492685601544437
-0.2836155867644124 -0.2796705512212229
-0.4753430792537289 -0.2796705512212229
-0.5257976825403912 -0.3228330146917419
-0.455161237939064 -0.5170641003090776
-0.33407019005107463 -0.6465514907206346
-0.38452479333773687 -0.6465514907206346
-0.5056158412257262 -0.5818077955148561
-0.5358886031977236 -0.40915794163277996
-0.4450703172817315 -0.2580893194859634
-0.31388834873640975 -0.17176439254492537
-0.364342952023072 -0.15018316080966584
-0.4349793966243991 -0.06385823386862781
-0.48543399991106134 0.08721038827818876
-0.4753430792537289 0.1519540834839673
-0.42488847596706664 0.08721038827818876
-0.3946157139950693 -0.042277002133368304
-0.32397926939374216 -0.06385823386862781
-0.22307006282041772 -0.042277002133368304
-0.18270638019108792 0.08721038827818876
-0.16252453887642304 0.2814414738955244
-0.14234269756175813 0.34618516910130287
-0.08179717361776345 0.3030227056307839
-0.08179717361776345 0.2598602421602648
-0.07170625296043101 0.36776640083656237
-0.06161533230309856 0.5404162547186384
-0.041433490988433665 0.605159949924417
-0.0010698083591038797 0.648322413394936
0.03929387427022591 0.7130661086007145
0.10993031887155304 0.691484876865455
0.15029400150088282 0.5835787181891575
0.1906576841302126 0.6267411816596765
0.2108395254448775 0.5404162547186384
0.25120320807420726 0.561997486453898
0.3016578113608695 0.5188350229833789
0.31174873201820197 0.49725379124811947
0.2814759700462046 0.561997486453898
0.2814759700462046 0.6699036451301955
0.3622033353048642 0.7993910355417526
0.5135671451648509 0.9504596576885691
0.6548400343675052 1.2310156702469428
0.604385431080843 1.5547341462758355
0.4227488592488589 1.705802768422652
0.2108395254448775 1.7705464636284305
0.06956663624222324 1.6410590732168735
0.0594757155848908 1.036784584629607
0.10993031887155304 0.1735353152192268
0.2108395254448775 -0.4739016368385585
0.24111228741687485 -0.6897139541911536
0.14020308084355038 -0.40915794163277996
-0.011160729016436326 0.022466693072410227
-0.07170625296043101 0.4109288643070814
-0.10197901493242835 0.5404162547186384
-0.03134257033110122 0.3893476325718219
0.009021112298228566 0.10879162001344826
0.009021112298228566 -0.15018316080966584
0.03929387427022591 -0.40915794163277996
0.08974847755688814 -0.6681327224558941
0.2108395254448775 -0.7760388811321917
0.25120320807420726 -0.8407825763379702
0.2915668907035371 -0.6897139541911536
0.33193057333286685 -0.5386453320443371
0.3722942559621967 -0.3228330146917419
0.3420214939901993 -0.2580893194859634
0.2108395254448775 -0.2365080877507039
0.09983939821422058 -0.2796705512212229
0.17047584281554773 -0.2580893194859634
0.24111228741687485 -0.15018316080966584
0.31174873201820197 -0.042277002133368304
0.31174873201820197 0.022466693072410227
0.2915668907035371 -0.08543946560388732
0.31174873201820197 -0.08543946560388732
0.3016578113608695 -0.02069577039810879
0.2814759700462046 0.10879162001344826
0.15029400150088282 0.3030227056307839
0.08974847755688814 0.3030227056307839
0.06956663624222324 0.2598602421602648
0.10993031887155304 0.2814414738955244
0.13011216018621793 0.23827901042500532
0.2814759700462046 0.23827901042500532
0.3823851766195291 0.2814414738955244
0.4227488592488589 0.23827901042500532
0.4227488592488589 0.1951165469544863
0.39247609727686156 0.1519540834839673
0.3420214939901993 0.1735353152192268
0.26129412873153973 0.3030227056307839
0.16038492215821526 0.3893476325718219
0.04938479492755835 0.4756725595128599
0.009021112298228566 0.691484876865455
-0.011160729016436326 1.0152033528943476
0.0796575568995557 1.533152914540576
0.10993031887155304 2.1158461713925827
0.16038492215821526 2.4395646474214754
0.15029400150088282 2.0295212444515447
0.10993031887155304 1.1231095115706453
0.2108395254448775 -0.15018316080966584
0.32183965267553444 -0.9271075032790083
0.3420214939901993 -1.2076635158373819
0.31174873201820197 -0.9918511984847868
0.31174873201820197 -0.7544576493969322
0.2814759700462046 -0.6681327224558941
0.35211241464753174 -0.6033890272501156
0.40256701793419397 -0.5602265637795966
0.48329438319285356 -0.5170641003090776
0.5135671451648509 -0.4739016368385585
0.5034762245075185 -0.5386453320443371
0.39247609727686156 -0.6033890272501156
0.26129412873153973 -0.5386453320443371
0.13011216018621793 -0.4739016368385585
0.0594757155848908 -0.3228330146917419
0.08974847755688814 -0.2580893194859634
0.1906576841302126 -0.3012517829564824
0.2713850493888722 -0.2580893194859634
0.2915668907035371 -0.3228330146917419
0.35211241464753174 -0.2365080877507039
0.4227488592488589 -0.21492685601544437
0.4631125418781887 -0.15018316080966584
0.40256701793419397 -0.10702069733914683
0.2713850493888722 -0.12860192907440635
0.16038492215821526 -0.042277002133368304
0.16038492215821526 0.08721038827818876
0.25120320807420726 0.21669777868974582
0.3016578113608695 0.32460393736604337
0.20074860478754505 0.4109288643070814
0.0594757155848908 0.605159949924417
-0.08179717361776345 0.8425534990122716
-0.1322517769044257 1.2094344385116833
-0.10197901493242835 1.6410590732168735
-0.041433490988433665 2.3100772570099184
0.009021112298228566 2.633795733038811
0.0594757155848908 2.4827271108919944
0.08974847755688814 1.9647775492457662
0.09983939821422058 1.2310156702469428
0.10993031887155304 0.561997486453898
0.20074860478754505 0.13037285174870777
0.26129412873153973 -0.17176439254492537
0.26129412873153973 -0.3012517829564824
0.22093044610220994 -0.2796705512212229
0.2310213667595424 0.0008854613371507181
0.25120320807420726 0.23827901042500532
0.3420214939901993 0.3893476325718219
0.3823851766195291 0.4325100960423409
0.3420214939901993 0.4325100960423409
0.3016578113608695 0.4109288643070814
0.2713850493888722 0.4325100960423409
0.3016578113608695 0.4109288643070814
0.3722942559621967 0.3893476325718219
0.5438399071368483 0.32460393736604337
0.6851127963395025 0.23827901042500532
0.7355673996261647 0.1951165469544863
0.5640217484515131 0.10879162001344826
0.2814759700462046 0.1951165469544863
0.08974847755688814 0.3030227056307839
0.019112032955561013 0.36776640083656237
0.009021112298228566 0.4325100960423409
0.08974847755688814 0.4325100960423409
0.22093044610220994 0.49725379124811947
0.33193057333286685 0.4109288643070814
0.3722942559621967 0.4109288643070814
0.31174873201820197 0.34618516910130287
0.18056676347288017 0.23827901042500532
0.06956663624222324 0.1519540834839673
0.08974847755688814 0.1735353152192268
0.12002123952888548 0.1519540834839673
0.15029400150088282 0.13037285174870777
0.15029400150088282 -0.08543946560388732
0.13011216018621793 -0.17176439254492537
0.10993031887155304 -0.02069577039810879
0.12002123952888548 0.3893476325718219
0.20074860478754505 0.691484876865455
0.2310213667595424 0.648322413394936
0.15029400150088282 0.23827901042500532
0.019112032955561013 -0.3228330146917419
-0.06161533230309856 -0.6897139541911536
-0.011160729016436326 -0.8407825763379702
0.10993031887155304 -0.9486887350142678
0.3016578113608695 -0.6033890272501156
0.33193057333286685 -0.495482868573818
0.25120320807420726 -0.3012517829564824
0.16038492215821526 -0.2796705512212229
0.0594757155848908 -0.3228330146917419
0.029202953612893462 -0.3012517829564824
0.009021112298228566 -0.38757670989752047
0.009021112298228566 -0.5170641003090776
0.04938479492755835 -0.6033890272501156
0.0796575568995557 -0.6033890272501156
0.09983939821422058 -0.40915794163277996
0.13011216018621793 -0.17176439254492537
0.14020308084355038 0.06562915654292925
0.15029400150088282 0.21669777868974582
0.15029400150088282 0.1951165469544863
0.17047584281554773 0.1951165469544863
0.16038492215821526 0.23827901042500532
0.13011216018621793 0.3030227056307839
0.24111228741687485 0.3893476325718219
0.33193057333286685 0.4540913277776004
0.3622033353048642 0.36776640083656237
0.4328397799061913 0.3030227056307839
0.5337489864795159 0.23827901042500532
0.584203589766178 0.32460393736604337
0.5438399071368483 0.2814414738955244
0.3823851766195291 0.36776640083656237
0.2310213667595424 0.4540913277776004
0.13011216018621793 0.561997486453898
0.18056676347288017 0.7993910355417526
0.2108395254448775 1.0799470481001263
0.1906576841302126 1.1878532067764238
0.12002123952888548 1.0799470481001263
0.03929387427022591 0.9936221211590882
0.06956663624222324 0.9288784259533096
0.13011216018621793 1.0152033528943476
0.20074860478754505 1.2525969019822023
0.2814759700462046 1.4684092193347973
0.31174873201820197 1.3173405971879808
0.39247609727686156 0.9504596576885691
0.5741126691088456 0.5188350229833789
0.6851127963395025 0.4325100960423409
0.6346581930528402 0.34618516910130287
0.4429307005635238 0.21669777868974582
0.2915668907035371 -0.042277002133368304
0.3420214939901993 -0.3444142464270014
0.5337489864795159 -0.6249702589853751
0.7456583202834972 -0.6033890272501156
0.9071130508008163 -0.5386453320443371
1.0685677813181356 -0.36599547816226097
1.16947698789146 -0.2796705512212229
1.1997497498634573 -0.06385823386862781
1.2098406705207898 0.34618516910130287
1.1997497498634573 0.8425534990122716
1.3208407977514467 1.2094344385116833
1.5024773695834306 1.2741781337174618
1.6841139414154147 1.1015282798353858
1.9767506404780557 0.7130661086007145
2.3803874667713534 0.2814414738955244
2.8546607376659785 -0.17176439254492537
3.3289340085606036 -0.5170641003090776
3.5812070249939145 -0.6897139541911536
3.631661628280577 -0.9271075032790083
3.591297945651247 -1.1860822841021224
3.4601159771059256 -1.552963223601534
3.288570325931274 -1.9630066265714647
3.2280248019872793 -2.524118651688212
3.10693375409929 -2.8478371277171046
2.733569689777989 -3.0636494450696996
2.1281144503380425 -3.0636494450696996
1.62356841747142 -2.9557432863934023
1.330931718408779 -2.567281115158731
0.9878404160594759 -2.17881894392406
0.5438399071368483 -1.682450614013091
0.2108395254448775 -1.1645010523668629
-0.05152441164576611 -0.6681327224558941
-0.2028882215057528 -0.36599547816226097
-0.25334282479241504 -0.06385823386862781
-0.19279730084842037 0.13037285174870777
-0.0918880942750959 0.1519540834839673
-0.17261545953375548 0.022466693072410227
-0.38452479333773687 -0.10702069733914683
-0.5661613651697209 -0.3444142464270014
-0.5358886031977236 -0.43073917336803946
-0.34416111070840705 -0.2796705512212229
-0.18270638019108792 -0.042277002133368304
-0.18270638019108792 0.1735353152192268
-0.33407019005107463 0.23827901042500532
-0.48543399991106134 0.3030227056307839
-0.5358886031977236 0.36776640083656237
-0.5056158412257262 0.4109288643070814
-0.4450703172817315 0.49725379124811947
-0.455161237939064 0.5404162547186384
-0.5157067618830586 0.5404162547186384
-0.545979523855056 0.5404162547186384
-0.5157067618830586 0.5835787181891575
-0.4349793966243991 0.648322413394936
-0.33407019005107463 0.6267411816596765
-0.27352466610707993 0.5188350229833789
-0.33407019005107463 0.34618516910130287
-0.455161237939064 0.1951165469544863
-0.6166159684563831 0.022466693072410227
-0.6267068891137155 -0.02069577039810879
-0.5964341271417183 -0.17176439254492537
-0.5157067618830586 -0.2365080877507039
-0.49552492056839376 -0.3012517829564824
-0.5560704445123884 -0.19334562428018487
-0.5964341271417183 -0.15018316080966584
-0.6065250477990507 -0.06385823386862781
-0.5661613651697209 0.04404792480766974
-0.5358886031977236 0.04404792480766974
-0.545979523855056 -0.06385823386862781
-0.5056158412257262 -0.06385823386862781
-0.4652521585963964 -0.02069577039810879
-0.3946157139950693 0.04404792480766974
-0.40470663465240175 0.1519540834839673
-0.455161237939064 0.21669777868974582
-0.5257976825403912 0.2814414738955244
-0.49552492056839376 0.2598602421602648
-0.40470663465240175 0.34618516910130287
-0.33407019005107463 0.49725379124811947
-0.3037974280790773 0.6267411816596765
-0.3946157139950693 0.734647340335974
-0.48543399991106134 0.734647340335974
-0.4753430792537289 0.7778098038064931
-0.33407019005107463 0.8641347307475311
-0.19279730084842037 0.9936221211590882
-0.15243361821909057 0.9288784259533096
-0.2028882215057528 0.8425534990122716
-0.19279730084842037 0.6699036451301955
-0.12216085624709325 0.561997486453898
-0.08179717361776345 0.561997486453898
-0.07170625296043101 0.5835787181891575
-0.021251649673768774 0.7562285720712336
0.0594757155848908 0.8857159624827906
0.2108395254448775 0.9072971942180501
0.25120320807420726 0.9288784259533096
0.10993031887155304 0.9288784259533096
-0.05152441164576611 0.9720408894238287
-0.2028882215057528 0.9936221211590882
-0.18270638019108792 0.9072971942180501
-0.11206993558976079 0.9072971942180501
-0.041433490988433665 0.9072971942180501
0.029202953612893462 0.9288784259533096
0.13011216018621793 0.9936221211590882
0.1906576841302126 0.9720408894238287
0.2108395254448775 0.9072971942180501
0.17047584281554773 0.7562285720712336
0.14020308084355038 0.6267411816596765
0.17047584281554773 0.605159949924417
0.2814759700462046 0.605159949924417
0.3016578113608695 0.6267411816596765
0.2814759700462046 0.6699036451301955
0.2713850493888722 0.648322413394936
0.2915668907035371 0.648322413394936
0.35211241464753174 0.5835787181891575
0.3420214939901993 0.4109288643070814
0.2915668907035371 0.2814414738955244
0.2814759700462046 0.022466693072410227
0.31174873201820197 -0.17176439254492537
0.33193057333286685 -0.08543946560388732
0.24111228741687485 0.08721038827818876
0.16038492215821526 0.32460393736604337
0.13011216018621793 0.4109288643070814
0.15029400150088282 0.4756725595128599
0.1906576841302126 0.3893476325718219
0.20074860478754505 0.23827901042500532
0.16038492215821526 0.1951165469544863
0.1906576841302126 -0.02069577039810879
0.2310213667595424 -0.3012517829564824
0.1906576841302126 -0.5170641003090776
0.029202953612893462 -0.6681327224558941
-0.2634337454497475 -0.6249702589853751
-0.5056158412257262 -0.40915794163277996
-0.48543399991106134 -0.2365080877507039
-0.3037974280790773 -0.12860192907440635
-0.10197901493242835 -0.06385823386862781
-0.03134257033110122 -0.06385823386862781
0.03929387427022591 -0.042277002133368304
0.18056676347288017 -0.08543946560388732
0.33193057333286685 0.08721038827818876
0.31174873201820197 0.4756725595128599
0.13011216018621793 0.7778098038064931
-0.06161533230309856 0.7130661086007145
-0.16252453887642304 0.605159949924417
-0.21297914216308525 0.36776640083656237
-0.14234269756175813 0.21669777868974582
0.03929387427022591 0.04404792480766974
0.09983939821422058 0.022466693072410227
0.029202953612893462 0.04404792480766974
-0.011160729016436326 0.06562915654292925
-0.011160729016436326 0.21669777868974582
0.09983939821422058 0.2814414738955244
0.14020308084355038 0.36776640083656237
0.2108395254448775 0.32460393736604337
0.31174873201820197 0.4325100960423409
0.40256701793419397 0.49725379124811947
0.5236580658221833 0.5404162547186384
0.584203589766178 0.4109288643070814
0.5034762245075185 0.2598602421602648
0.31174873201820197 0.0008854613371507181
-0.011160729016436326 -0.15018316080966584
-0.4652521585963964 -0.3444142464270014
-0.9697981914630188 -0.43073917336803946
-1.3936168590709814 -0.5386453320443371
-1.7972536853642793 -0.8839450398084892
-2.039435781140258 -1.4234758331899768
-2.17061774968558 -1.9414253948362052
-2.3118906388882343 -2.265143870865098
-2.4733453694055534 -2.265143870865098
-2.372436162832229 -2.265143870865098
-2.17061774968558 -2.5456998834234716
-1.9082538125949364 -3.0420682133344403
-1.766980923392282 -3.581599006715928
-1.7367081614202846 -4.142711031832675
-1.787162764706947 -4.38010458092053
-1.7367081614202846 -4.35852334918527
-1.6458898755042928 -4.034804873156378
-1.5550715895883007 -3.754248860598004
-1.4137987003856465 -3.3442054576280733
-1.2523439698683272 -3.0420682133344403
-1.0101618740923486 -2.739930969040807
-0.7679797783163699 -2.5888623468939906
-0.5762522858270533 -2.5025374199529526
-0.48543399991106134 -2.5888623468939906
-0.34416111070840705 -2.7615122007760666
-0.21297914216308525 -2.9341620546581426
-0.22307006282041772 -2.8046746642465856
-0.3037974280790773 -2.653606042099769
-0.34416111070840705 -2.286725102600357
-0.21297914216308525 -2.092494016983022
0.03929387427022591 -1.9845878583067242
0.12002123952888548 -1.7471943092188695
-0.0010698083591038797 -1.4882195283957556
-0.18270638019108792 -1.0997573571610844
-0.21297914216308525 -0.8407825763379702
-0.10197901493242835 -0.5818077955148561
0.03929387427022591 -0.40915794163277996
0.20074860478754505 -0.2796705512212229
0.33193057333286685 -0.042277002133368304
0.39247609727686156 0.2598602421602648
0.3722942559621967 0.49725379124811947
0.25120320807420726 0.648322413394936
0.009021112298228566 0.734647340335974
-0.2028882215057528 0.734647340335974
-0.2432519041350826 0.7778098038064931
-0.16252453887642304 0.8857159624827906
-0.021251649673768774 0.9504596576885691
0.09983939821422058 0.9288784259533096
0.20074860478754505 0.8857159624827906
0.31174873201820197 0.8425534990122716
0.5236580658221833 0.9072971942180501
0.786022002912827 0.9720408894238287
0.9979313367168083 1.1015282798353858
0.9474767334301462 1.1878532067764238
0.6346581930528402 1.1878532067764238
0.2310213667595424 1.3389218289232403
0.009021112298228566 1.619477841481614
0.03929387427022591 2.1374274031278424
0.22093044610220994 2.4179834156862157
0.4227488592488589 2.2669147935393994
0.5337489864795159 1.748965231893171
0.6346581930528402 1.2525969019822023
0.7153855583114999 0.8857159624827906
0.786022002912827 0.7993910355417526
0.7961129235701594 0.9288784259533096
0.7254764789688323 1.0799470481001263
0.7254764789688323 1.0799470481001263
0.7557492409408296 1.0799470481001263
0.8970221301434839 1.1015282798353858
1.0080222573741409 1.1878532067764238
1.149295146576795 1.4036655241290188
1.260295273807452 1.4468279875995378
1.3813863216954414 1.4252467558642783
1.4722046076114335 1.4252467558642783
1.5024773695834306 1.5978966097463545
1.5024773695834306 1.79212769536369
1.4822955282687658 1.9647775492457662
1.5428410522127605 2.007940012716285
1.5932956554994226 2.007940012716285
1.7042957827300795 1.9863587809810257
1.8556595925900663 2.094264939657323
2.087750767708713 2.1374274031278424
2.329932863484691 2.2237523300688804
2.390478387428686 2.2669147935393994
2.0776598470513803 2.547470806097773
1.6740230207580822 3.000676672538223
1.462113686954101 3.5617886976549697
1.5226592108980956 3.863925941948603
1.754750386016742 3.777601015007565
1.8859323545620637 3.324395148567115
1.916205116534061 2.806445586920887
1.8758414339047311 2.633795733038811
1.8556595925900663 2.67695819650933
1.8556595925900663 2.4827271108919944
1.8556595925900663 2.2453335618041397
1.8152959099607366 1.662640304952133
1.8758414339047311 1.3389218289232403
2.087750767708713 0.9288784259533096
2.3702965461140213 0.734647340335974
2.4913875940020103 0.6267411816596765
2.4005693080860184 1.0583658163648666
2.2189327362540343 1.7273840001579115
2.0776598470513803 2.763283123450368
1.8152959099607366 3.5833699293902295
1.351113559723444 3.777601015007565
0.7759310822554946 3.3028139168318558
0.41265793859152644 2.4395646474214754
0.25120320807420726 1.533152914540576
-0.03134257033110122 1.1231095115706453
-0.5661613651697209 1.1015282798353858
-1.1615256839523354 1.3820842923937593
-1.585344351560298 1.6410590732168735
-1.8073446060216118 1.7273840001579115
-1.9587084158815986 1.5115716828053165
-2.1403449877135827 1.2094344385116833
-2.372436162832229 0.7993910355417526
-2.4733453694055534 0.4540913277776004
-2.483436290062886 -0.10702069733914683
-2.3926180041468936 -0.6681327224558941
-2.221072352972242 -1.552963223601534
-2.1807086703429124 -2.17881894392406
-2.3421634008602314 -2.61044357862925
-2.66507286189487 -2.8046746642465856
-2.826527592412189 -2.7615122007760666
-2.897164037013516 -2.8046746642465856
-2.8366185130695216 -2.869418359452364
-2.8467094337268537 -2.9773245181286616
-2.967800481614843 -2.9341620546581426
-3.048527846873503 -2.7615122007760666
-2.9980732435868407 -2.480956188217693
-2.7659820684681944 -2.480956188217693
-2.443072607433556 -2.437793724747174
-2.17061774968558 -2.480956188217693
-1.948617495224266 -2.5025374199529526
-1.766980923392282 -2.351468797806136
-1.5449806689309682 -2.1572377121888002
-1.3734350177563166 -1.9198441631009457
-1.131252921980338 -1.811938004424648
-0.9294345088336889 -1.72561307748361
-0.6973433337150428 -1.682450614013091
-0.48543399991106134 -1.4234758331899768
-0.33407019005107463 -1.1645010523668629
-0.32397926939374216 -0.9271075032790083
-0.364342952023072 -0.8623638080732297
-0.2836155867644124 -0.7544576493969322
0.029202953612893462 -0.6033890272501156
0.48329438319285356 -0.3444142464270014
0.7759310822554946 0.08721038827818876
0.6548400343675052 0.7130661086007145
0.1906576841302126 0.9072971942180501
-0.2836155867644124 0.648322413394936
-0.5358886031977236 0.10879162001344826
-0.5056158412257262 -0.2580893194859634
-0.3744338726804044 -0.5818077955148561
-0.25334282479241504 -0.8407825763379702
-0.23316098347775016 -1.0781761254258249
-0.19279730084842037 -1.1213385888963439
-0.1322517769044257 -1.0565948936905654
-0.05152441164576611 -0.8839450398084892
-0.0010698083591038797 -0.7976201128674512
0.0796575568995557 -0.6033890272501156
0.15029400150088282 -0.4739016368385585
0.2310213667595424 -0.40915794163277996
0.17047584281554773 -0.3444142464270014
0.17047584281554773 -0.17176439254492537
0.2310213667595424 -0.08543946560388732
0.3722942559621967 0.04404792480766974
0.4530216212208562 0.08721038827818876
0.5034762245075185 0.06562915654292925
0.5438399071368483 0.04404792480766974
0.5942945104235104 0.1519540834839673
0.6649309550248376 0.32460393736604337
0.6245672723955078 0.4325100960423409
0.5236580658221833 0.36776640083656237
0.49338530385018603 0.3893476325718219
0.6144763517381754 0.3893476325718219
0.7961129235701594 0.34618516910130287
0.9474767334301462 0.32460393736604337
0.9474767334301462 0.36776640083656237
0.8566584475141541 0.4109288643070814
0.786022002912827 0.4756725595128599
0.7759310822554946 0.5404162547186384
0.9071130508008163 0.734647340335974
1.0887496226328004 0.8425534990122716
1.260295273807452 0.8641347307475311
1.462113686954101 0.9720408894238287
1.6134774968140877 1.2525969019822023
1.7345685447020769 1.5978966097463545
1.754750386016742 1.8137089270989495
1.825386830618069 1.878452622304728
1.8960232752193962 1.5978966097463545
1.916205116534061 1.2310156702469428
1.9363869578487258 0.7778098038064931
1.916205116534061 0.32460393736604337
1.9767506404780557 0.06562915654292925
2.0574780057367152 0.08721038827818876
1.9969324817927205 0.23827901042500532
1.9767506404780557 0.4109288643070814
2.03729616442205 0.5188350229833789
2.0473870850793827 0.561997486453898
2.03729616442205 0.49725379124811947
2.087750767708713 0.34618516910130287
2.148296291652707 0.022466693072410227
2.2189327362540343 -0.2365080877507039
2.249205498226032 -0.5386453320443371
2.2895691808553615 -0.5170641003090776
2.299660101512694 -0.3444142464270014
2.329932863484691 -0.08543946560388732
2.2895691808553615 0.2814414738955244
2.0675689263940478 0.4325100960423409
1.6134774968140877 0.6699036451301955
1.1896588292061248 0.7130661086007145
1.0685677813181356 0.7130661086007145
1.12911330526213 0.734647340335974
1.1795679085487925 0.691484876865455
1.149295146576795 0.691484876865455
1.1190223846047977 0.7778098038064931
1.0685677813181356 1.0799470481001263
1.0080222573741409 1.4468279875995378
0.9373858127728136 1.4252467558642783
0.8062038442274919 1.1662719750411643
0.5942945104235104 0.691484876865455
0.3722942559621967 -0.06385823386862781
0.26129412873153973 -0.5602265637795966
0.25120320807420726 -0.6897139541911536
0.32183965267553444 -0.40915794163277996
0.3823851766195291 0.06562915654292925
0.4227488592488589 0.2598602421602648
0.39247609727686156 0.2598602421602648
0.1906576841302126 0.1951165469544863
-0.08179717361776345 0.08721038827818876
-0.19279730084842037 0.23827901042500532
-0.15243361821909057 0.3893476325718219
-0.14234269756175813 0.4325100960423409
-0.12216085624709325 0.5188350229833789
-0.14234269756175813 0.561997486453898
-0.18270638019108792 0.648322413394936
-0.17261545953375548 0.8209722672770121
-0.17261545953375548 0.9288784259533096
-0.21297914216308525 1.0152033528943476
-0.2634337454497475 0.9936221211590882
-0.23316098347775016 0.9720408894238287
-0.16252453887642304 0.9072971942180501
-0.06161533230309856 0.9072971942180501
-0.03134257033110122 0.8425534990122716
-0.10197901493242835 0.9288784259533096
-0.15243361821909057 1.0152033528943476
-0.16252453887642304 1.2310156702469428
-0.17261545953375548 1.3820842923937593
-0.23316098347775016 1.2957593654527213
-0.27352466610707993 1.1231095115706453
-0.364342952023072 0.9720408894238287
-0.4652521585963964 0.8641347307475311
-0.5964341271417183 0.7778098038064931
-0.6166159684563831 0.4109288643070814
-0.49552492056839376 -0.2365080877507039
-0.31388834873640975 -0.8839450398084892
-0.2634337454497475 -1.4882195283957556
-0.27352466610707993 -1.811938004424648
-0.27352466610707993 -1.9630066265714647
-0.23316098347775016 -1.8766816996304267
-0.1322517769044257 -1.6608693822778315
-0.05152441164576611 -1.466638296660496
-0.11206993558976079 -1.2939884427784198
-0.19279730084842037 -1.1645010523668629
-0.31388834873640975 -1.1213385888963439
-0.2634337454497475 -1.0565948936905654
-0.07170625296043101 -0.8839450398084892
0.019112032955561013 -0.7544576493969322
-0.05152441164576611 -0.7328764176616727
-0.3037974280790773 -0.6681327224558941
-0.545979523855056 -0.495482868573818
-0.6166159684563831 -0.36599547816226097
-0.455161237939064 -0.2580893194859634
-0.25334282479241504 -0.19334562428018487
-0.11206993558976079 -0.19334562428018487
-0.021251649673768774 -0.2365080877507039
-0.14234269756175813 -0.2365080877507039
-0.33407019005107463 -0.12860192907440635
-0.5257976825403912 -0.02069577039810879
-0.5661613651697209 0.06562915654292925
-0.4652521585963964 0.06562915654292925
-0.3037974280790773 0.022466693072410227
-0.10197901493242835 -0.08543946560388732
-0.041433490988433665 0.022466693072410227
-0.12216085624709325 0.2814414738955244
-0.3744338726804044 0.4109288643070814
-0.6065250477990507 0.561997486453898
-0.7679797783163699 0.561997486453898
-0.7377070163443725 0.5404162547186384
-0.5863432064843858 0.648322413394936
-0.3542520313657395 0.561997486453898
-0.17261545953375548 0.7130661086007145
-0.10197901493242835 0.7130661086007145
-0.2028882215057528 0.734647340335974
-0.3946157139950693 0.691484876865455
-0.4349793966243991 0.7130661086007145
-0.23316098347775016 0.7778098038064931
-0.03134257033110122 0.7562285720712336
-0.16252453887642304 0.7130661086007145
-0.4349793966243991 0.7993910355417526
-0.6569796510857129 0.8209722672770121
-0.6267068891137155 0.8641347307475311
-0.5661613651697209 0.7993910355417526
-0.4753430792537289 0.734647340335974
-0.3744338726804044 0.5835787181891575
-0.2836155867644124 0.4109288643070814
-0.2634337454497475 0.23827901042500532
-0.2937065074217448 0.1519540834839673
-0.31388834873640975 0.1735353152192268
-0.2432519041350826 0.0008854613371507181
-0.21297914216308525 -0.15018316080966584
-0.23316098347775016 -0.2365080877507039
-0.19279730084842037 -0.2796705512212229
-0.08179717361776345 -0.17176439254492537
-0.021251649673768774 -0.08543946560388732
-0.12216085624709325 -0.06385823386862781
-0.3037974280790773 -0.2365080877507039
-0.4450703172817315 -0.43073917336803946
-0.42488847596706664 -0.5170641003090776
-0.34416111070840705 -0.452320405103299
-0.23316098347775016 -0.38757670989752047
-0.18270638019108792 -0.2796705512212229
-0.10197901493242835 -0.2580893194859634
0.009021112298228566 -0.3228330146917419
0.06956663624222324 -0.40915794163277996
0.1906576841302126 -0.36599547816226097
0.2915668907035371 -0.2580893194859634
0.26129412873153973 -0.15018316080966584
0.03929387427022591 -0.08543946560388732
-0.2432519041350826 0.04404792480766974
-0.455161237939064 0.23827901042500532
-0.4753430792537289 0.34618516910130287
-0.4147975553097342 0.5835787181891575
-0.21297914216308525 0.8209722672770121
0.009021112298228566 1.1662719750411643
0.18056676347288017 1.3389218289232403
0.32183965267553444 1.4252467558642783
0.5135671451648509 1.3389218289232403
0.7456583202834972 1.3389218289232403
0.9071130508008163 1.3605030606584998
0.876840288828819 1.4252467558642783
0.8062038442274919 1.662640304952133
0.7759310822554946 2.007940012716285
0.8263856855421567 2.1374274031278424
0.876840288828819 2.007940012716285
1.058476860660803 1.576315378011095
1.4015681630101062 1.036784584629607
1.8859323545620637 0.561997486453898
2.279478260198029 0.2814414738955244
2.5620240386033375 0.13037285174870777
2.6730241658339944 0.0008854613371507181
2.7436606104353216 -0.06385823386862781
2.8546607376659785 -0.2365080877507039
3.02620638884063 -0.5818077955148561
3.10693375409929 -0.8839450398084892
3.02620638884063 -1.4018946014547173
2.945479023581971 -2.0493315535125025
2.8546607376659785 -2.480956188217693
2.6124786418899997 -2.6751872738350286
2.249205498226032 -2.8478371277171046
1.8960232752193962 -2.9125808229228833
1.5731138141847578 -2.7615122007760666
1.330931718408779 -2.5888623468939906
0.9878404160594759 -2.265143870865098
0.6144763517381754 -2.1140752487182812
0.4429307005635238 -2.0061690900419835
0.4530216212208562 -1.9198441631009457
0.2713850493888722 -1.6608693822778315
-0.19279730084842037 -1.2508259793079008
-0.6267068891137155 -0.9055262715437487
-0.7881616196310347 -0.5602265637795966
-0.7780706989737023 -0.40915794163277996
-0.7477979370017049 -0.2796705512212229
-0.7377070163443725 -0.2365080877507039
-0.7377070163443725 -0.15018316080966584
-0.7578888576590374 -0.06385823386862781
-0.8184343816030321 0.08721038827818876
-0.8688889848896943 0.1519540834839673
-0.9697981914630188 0.36776640083656237
-0.8688889848896943 0.7562285720712336
-0.7578888576590374 0.9288784259533096
-0.6771614924003778 1.0583658163648666
-0.7377070163443725 1.1015282798353858
-0.8890708262043592 0.9936221211590882
-1.111071080665673 0.8425534990122716
-1.1917984459243327 0.691484876865455
-1.1817075252670002 0.5188350229833789
-1.1413438426376703 0.2598602421602648
-1.0807983186936756 0.13037285174870777
-1.0202527947496811 -0.02069577039810879
-0.9294345088336889 -0.042277002133368304
-0.7881616196310347 -0.08543946560388732
-0.7881616196310347 -0.12860192907440635
-0.8890708262043592 -0.02069577039810879
-1.0101618740923486 0.022466693072410227
-1.0807983186936756 0.10879162001344826
-1.2321621285536624 0.1951165469544863
-1.3431622557843192 0.23827901042500532
-1.2119802872389975 0.13037285174870777
-1.0202527947496811 0.0008854613371507181
-1.0202527947496811 -0.12860192907440635
-1.1615256839523354 -0.12860192907440635
-1.2422530492109949 0.0008854613371507181
-1.1615256839523354 0.2598602421602648
-1.111071080665673 0.648322413394936
-1.1211620013230055 0.8857159624827906
-1.2422530492109949 1.036784584629607
-1.3734350177563166 1.2310156702469428
-1.403707779728314 1.5115716828053165
-1.3431622557843192 1.5978966097463545
-1.2523439698683272 1.5547341462758355
-1.201889366581665 1.662640304952133
-1.201889366581665 1.8568713905694685
-1.1917984459243327 2.1590086348631017
-1.131252921980338 2.6122145013035514
-0.9395254294910215 3.13016406294978
-0.6267068891137155 3.4970450024491915
-0.27352466610707993 3.4107200755081535
-0.27352466610707993 3.022257904273482
-0.7578888576590374 2.8280268186561464
-1.3734350177563166 2.979095440802963
-1.7568900027349497 2.8711892821266654
-1.605526192874963 2.0295212444515447
-1.1615256839523354 0.7130661086007145
-0.8890708262043592 -0.6465514907206346
-0.9193435881763565 -1.4882195283957556
-1.0606164773790108 -1.768775540954129
-1.1211620013230055 -1.5313819918662746
-1.0707073980363433 -1.2076635158373819
-0.9899800327776836 -0.9055262715437487
-0.9294345088336889 -0.7760388811321917
-0.8789799055470268 -0.5602265637795966
-0.8487071435750294 -0.38757670989752047
-0.7679797783163699 -0.15018316080966584
-0.7175251750297076 0.0008854613371507181
-0.6468887304283805 0.08721038827818876
-0.5661613651697209 0.10879162001344826
-0.5056158412257262 0.13037285174870777
-0.4450703172817315 0.1519540834839673
-0.4147975553097342 0.2598602421602648
-0.3946157139950693 0.36776640083656237
-0.34416111070840705 0.4756725595128599
-0.27352466610707993 0.5188350229833789
-0.27352466610707993 0.5835787181891575
-0.21297914216308525 0.49725379124811947
-0.07170625296043101 0.4109288643070814
0.14020308084355038 0.4325100960423409
0.22093044610220994 0.34618516910130287
0.04938479492755835 0.36776640083656237
-0.33407019005107463 0.5188350229833789
-0.6065250477990507 0.5835787181891575
-0.5863432064843858 0.5404162547186384
-0.3946157139950693 0.648322413394936
-0.2432519041350826 0.7993910355417526
-0.14234269756175813 1.036784584629607
-0.1322517769044257 1.3173405971879808
-0.2836155867644124 1.4468279875995378
-0.2836155867644124 1.4468279875995378
-0.05152441164576611 1.1878532067764238
0.12002123952888548 0.9288784259533096
-0.0918880942750959 0.5835787181891575
-0.4652521585963964 0.5835787181891575
-0.6065250477990507 0.648322413394936
-0.4753430792537289 0.9072971942180501
-0.31388834873640975 1.036784584629607
-0.2937065074217448 1.0152033528943476
-0.23316098347775016 0.8425534990122716
-0.15243361821909057 0.605159949924417
-0.07170625296043101 0.4109288643070814
0.019112032955561013 0.3893476325718219
0.08974847755688814 0.4109288643070814
0.019112032955561013 0.4540913277776004
-0.18270638019108792 0.4540913277776004
-0.3037974280790773 0.3893476325718219
-0.2836155867644124 0.2598602421602648
-0.14234269756175813 0.3030227056307839
-0.021251649673768774 0.1951165469544863
0.04938479492755835 0.08721038827818876
0.08974847755688814 -0.15018316080966584
0.0594757155848908 -0.2365080877507039
0.04938479492755835 -0.2580893194859634
0.03929387427022591 -0.2580893194859634
0.0796575568995557 -0.19334562428018487
0.15029400150088282 -0.08543946560388732
0.17047584281554773 -0.06385823386862781
0.20074860478754505 -0.15018316080966584
0.18056676347288017 -0.15018316080966584
0.04938479492755835 -0.12860192907440635
-0.05152441164576611 0.022466693072410227
-0.05152441164576611 0.13037285174870777
-0.011160729016436326 0.08721038827818876
0.0594757155848908 0.08721038827818876
0.019112032955561013 0.13037285174870777
0.019112032955561013 0.1951165469544863
-0.041433490988433665 0.2598602421602648
-0.021251649673768774 0.2814414738955244
0.029202953612893462 0.2598602421602648
0.04938479492755835 0.2598602421602648
-0.041433490988433665 0.3030227056307839
-0.15243361821909057 0.4540913277776004
-0.1322517769044257 0.5404162547186384
-0.10197901493242835 0.648322413394936
-0.0918880942750959 0.6699036451301955
-0.12216085624709325 0.691484876865455
-0.2028882215057528 0.691484876865455
-0.21297914216308525 0.7562285720712336
-0.19279730084842037 0.8641347307475311
-0.19279730084842037 1.0152033528943476
-0.21297914216308525 1.036784584629607
-0.18270638019108792 0.9720408894238287
-0.23316098347775016 1.0152033528943476
-0.3037974280790773 1.0583658163648666
-0.2937065074217448 1.1662719750411643
-0.17261545953375548 1.1446907433059048
-0.06161533230309856 1.036784584629607
-0.021251649673768774 0.9288784259533096
-0.0918880942750959 0.8209722672770121
-0.23316098347775016 0.8425534990122716
-0.33407019005107463 0.8641347307475311
-0.2937065074217448 0.8857159624827906
-0.22307006282041772 0.7562285720712336
-0.12216085624709325 0.5404162547186384
-0.06161533230309856 0.34618516910130287
0.03929387427022591 0.3893476325718219
0.03929387427022591 0.34618516910130287
-0.14234269756175813 0.4109288643070814
-0.364342952023072 0.4540913277776004
-0.48543399991106134 0.605159949924417
-0.42488847596706664 0.7778098038064931
-0.2432519041350826 0.8425534990122716
-0.16252453887642304 0.7993910355417526
-0.21297914216308525 0.648322413394936
-0.3744338726804044 0.4540913277776004
-0.42488847596706664 0.3030227056307839
-0.3744338726804044 0.21669777868974582
-0.3037974280790773 0.08721038827818876
-0.31388834873640975 0.1519540834839673
-0.3946157139950693 0.2598602421602648
-0.364342952023072 0.3030227056307839
-0.21297914216308525 0.32460393736604337
-0.11206993558976079 0.4540913277776004
-0.05152441164576611 0.605159949924417
-0.011160729016436326 0.7993910355417526
-0.041433490988433665 0.8425534990122716
-0.12216085624709325 0.7778098038064931
-0.17261545953375548 0.4756725595128599
-0.1322517769044257 0.2598602421602648
-0.05152441164576611 0.21669777868974582
-0.021251649673768774 0.2814414738955244
-0.05152441164576611 0.32460393736604337
-0.07170625296043101 0.36776640083656237
-0.07170625296043101 0.34618516910130287
-0.05152441164576611 0.3893476325718219
-0.011160729016436326 0.5404162547186384
-0.021251649673768774 0.7778098038064931
-0.011160729016436326 0.9720408894238287
0.009021112298228566 0.9288784259533096
-0.041433490988433665 0.7993910355417526
-0.12216085624709325 0.648322413394936
-0.3037974280790773 0.6699036451301955
-0.49552492056839376 0.7562285720712336
-0.5762522858270533 0.8857159624827906
-0.48543399991106134 1.036784584629607
-0.2432519041350826 1.0799470481001263
-0.0010698083591038797 1.1446907433059048
0.25120320807420726 1.2310156702469428
0.4429307005635238 1.4468279875995378
0.5539308277941807 1.5547341462758355
0.6447491137101727 1.748965231893171
0.7456583202834972 1.79212769536369
0.9071130508008163 1.9647775492457662
1.12911330526213 2.0295212444515447
1.3813863216954414 1.9647775492457662
1.6033865761567552 1.835290158834209
1.754750386016742 1.4252467558642783
1.9666597198207232 1.2310156702469428
2.3501147047993562 1.4036655241290188
2.844569817008646 1.835290158834209
3.2784794052739414 2.1805898665983614
3.500479659735255 2.094264939657323
3.5105705803925877 1.4468279875995378
3.56102518367925 0.34618516910130287
3.7628435968258986 -0.7328764176616727
3.8637528033992234 -1.768775540954129
3.8032072794552287 -2.6751872738350286
3.56102518367925 -3.3442054576280733
3.1472974367286195 -3.754248860598004
2.7234787691206566 -3.970061177950599
2.279478260198029 -4.099548568362156
1.825386830618069 -4.034804873156378
1.3612044803807763 -3.797411324068523
0.9575676540874786 -3.3873679210985923
0.584203589766178 -2.869418359452364
0.2310213667595424 -2.459374956482433
-0.12216085624709325 -1.8982629313656862
-0.4349793966243991 -1.4018946014547173
-0.5157067618830586 -0.8839450398084892
-0.5358886031977236 -0.5386453320443371
-0.5863432064843858 -0.452320405103299
-0.636797809771048 -0.3444142464270014
-0.6670705717430454 -0.2796705512212229
-0.7074342543723752 -0.02069577039810879
-0.7377070163443725 0.08721038827818876
-0.7175251750297076 0.1951165469544863
-0.7377070163443725 0.1519540834839673
-0.7578888576590374 0.04404792480766974
-0.7881616196310347 0.06562915654292925
-0.838616222917697 0.10879162001344826
-0.8688889848896943 0.1951165469544863
-0.8890708262043592 0.36776640083656237
-0.9193435881763565 0.4325100960423409
-0.8083434609456996 0.4325100960423409
-0.6670705717430454 0.2814414738955244
-0.5762522858270533 0.2598602421602648
-0.636797809771048 0.32460393736604337
-0.7377070163443725 0.4325100960423409
-0.8890708262043592 0.5404162547186384
-1.0908892393510081 0.605159949924417
-1.1514347632950028 0.691484876865455
-1.131252921980338 0.8425534990122716
-1.1211620013230055 0.8641347307475311
-0.9395254294910215 0.8857159624827906
-0.7578888576590374 0.7778098038064931
-0.6670705717430454 0.734647340335974
-0.7377070163443725 0.7130661086007145
-0.8789799055470268 0.7993910355417526
-0.9899800327776836 0.9504596576885691
-0.9597072708056863 1.1015282798353858
-0.8789799055470268 1.036784584629607
-0.838616222917697 0.9504596576885691
-0.8890708262043592 0.9720408894238287
-0.9395254294910215 1.2957593654527213
-0.7982525402883672 1.662640304952133
-0.6973433337150428 1.748965231893171
-0.636797809771048 1.3820842923937593
-0.6166159684563831 0.6699036451301955
-0.6065250477990507 0.04404792480766974
-0.5056158412257262 -0.2796705512212229
-0.3946157139950693 -0.2580893194859634
-0.4450703172817315 -0.042277002133368304
-0.5157067618830586 0.2814414738955244
-0.5661613651697209 0.4540913277776004
-0.5358886031977236 0.6699036451301955
-0.48543399991106134 0.8857159624827906
-0.3946157139950693 1.1446907433059048
-0.4147975553097342 1.1878532067764238
-0.3744338726804044 0.9720408894238287
-0.364342952023072 0.7130661086007145
-0.33407019005107463 0.5404162547186384
-0.3037974280790773 0.6267411816596765
-0.2634337454497475 0.8209722672770121
-0.18270638019108792 0.9720408894238287
-0.15243361821909057 0.9720408894238287
-0.11206993558976079 0.8425534990122716
-0.11206993558976079 0.8425534990122716
-0.06161533230309856 1.0152033528943476
-0.03134257033110122 1.0799470481001263
0.019112032955561013 1.0799470481001263
0.029202953612893462 1.1015282798353858
0.029202953612893462 1.1015282798353858
0.0796575568995557 1.2741781337174618
0.09983939821422058 1.4036655241290188
0.08974847755688814 1.3820842923937593
0.009021112298228566 1.2525969019822023
-0.11206993558976079 1.036784584629607
-0.16252453887642304 0.8641347307475311
-0.15243361821909057 0.8209722672770121
-0.07170625296043101 0.8641347307475311
0.019112032955561013 1.036784584629607
0.03929387427022591 1.1231095115706453
-0.03134257033110122 0.9720408894238287
-0.1322517769044257 0.6267411816596765
-0.19279730084842037 0.13037285174870777
-0.14234269756175813 0.0008854613371507181
0.04938479492755835 0.1519540834839673
0.20074860478754505 0.36776640083656237
0.2108395254448775 0.34618516910130287
0.3016578113608695 0.13037285174870777
0.3823851766195291 0.13037285174870777
0.41265793859152644 0.23827901042500532
0.4227488592488589 0.3030227056307839
0.35211241464753174 0.32460393736604337
0.09983939821422058 0.2598602421602648
-0.32397926939374216 0.23827901042500532
-0.5661613651697209 0.3893476325718219
-0.545979523855056 0.49725379124811947
-0.3744338726804044 0.6699036451301955
-0.17261545953375548 0.8209722672770121
-0.12216085624709325 0.8425534990122716
-0.15243361821909057 0.9288784259533096
-0.17261545953375548 0.9288784259533096
-0.05152441164576611 0.9288784259533096
0.04938479492755835 1.036784584629607
0.009021112298228566 1.1662719750411643
-0.11206993558976079 1.2525969019822023
-0.14234269756175813 1.036784584629607
-0.06161533230309856 0.734647340335974
-0.011160729016436326 0.5188350229833789
-0.0010698083591038797 0.4756725595128599
0.06956663624222324 0.4109288643070814
0.10993031887155304 0.36776640083656237
0.04938479492755835 0.32460393736604337
-0.011160729016436326 0.23827901042500532
0.08974847755688814 0.32460393736604337
0.3016578113608695 0.4325100960423409
0.49338530385018603 0.5188350229833789
0.40256701793419397 0.5835787181891575
-0.0010698083591038797 0.561997486453898
-0.33407019005107463 0.5188350229833789
-0.3542520313657395 0.5188350229833789
-0.0918880942750959 0.5835787181891575
0.13011216018621793 0.4756725595128599
0.15029400150088282 0.4109288643070814
-0.021251649673768774 0.3893476325718219
-0.14234269756175813 0.4540913277776004
-0.21297914216308525 0.4325100960423409
-0.1322517769044257 0.4109288643070814
0.04938479492755835 0.4756725595128599
0.16038492215821526 0.4325100960423409
0.20074860478754505 0.561997486453898
0.14020308084355038 0.7562285720712336
0.03929387427022591 1.1446907433059048
-0.11206993558976079 1.2525969019822023
-0.22307006282041772 1.1015282798353858
-0.2937065074217448 0.6267411816596765
-0.2937065074217448 0.04404792480766974
-0.22307006282041772 -0.2796705512212229
-0.15243361821909057 -0.3228330146917419
-0.05152441164576611 0.06562915654292925
0.019112032955561013 0.3893476325718219
0.04938479492755835 0.5404162547186384
-0.011160729016436326 0.5835787181891575
-0.11206993558976079 0.691484876865455
-0.14234269756175813 0.7562285720712336
-0.0918880942750959 0.691484876865455
-0.011160729016436326 0.561997486453898
-0.011160729016436326 0.3030227056307839
-0.06161533230309856 0.1951165469544863
-0.12216085624709325 0.06562915654292925
-0.10197901493242835 0.21669777868974582
-0.08179717361776345 0.4109288643070814
-0.10197901493242835 0.5188350229833789
-0.011160729016436326 0.605159949924417
0.16038492215821526 0.5188350229833789
0.2713850493888722 0.4540913277776004
0.25120320807420726 0.49725379124811947
0.16038492215821526 0.6699036451301955
0.0594757155848908 0.9720408894238287
-0.08179717361776345 1.2957593654527213
-0.2028882215057528 1.4252467558642783
-0.23316098347775016 1.5547341462758355
-0.18270638019108792 1.5115716828053165
-0.18270638019108792 1.4684092193347973
-0.25334282479241504 1.1662719750411643
-0.31388834873640975 0.605159949924417
-0.17261545953375548 0.1951165469544863
0.04938479492755835 0.08721038827818876
0.12002123952888548 0.34618516910130287
0.029202953612893462 0.4756725595128599
-0.14234269756175813 0.691484876865455
-0.17261545953375548 0.8425534990122716
-0.12216085624709325 0.9936221211590882
-0.08179717361776345 1.1662719750411643
0.03929387427022591 1.036784584629607
0.2915668907035371 0.561997486453898
0.5539308277941807 0.0008854613371507181
0.765840161598162 -0.36599547816226097
0.9071130508008163 -0.452320405103299
1.0786587019754679 -0.2365080877507039
1.1593860672341274 0.13037285174870777
1.219931591178122 0.5835787181891575
1.351113559723444 0.9936221211590882
1.5832047348420903 0.9720408894238287
1.9061141958767285 0.7562285720712336
2.188659974282037 0.4540913277776004
2.5620240386033375 0.2814414738955244
2.9252971822673057 0.1735353152192268
3.2784794052739414 0.06562915654292925
3.4903887390779227 -0.06385823386862781
3.5812070249939145 -0.042277002133368304
3.6619343902525743 0.32460393736604337
3.6215707076232446 0.734647340335974
3.4601159771059256 0.5835787181891575
3.1977520400152817 -0.4739016368385585
3.006024547525965 -2.092494016983022
2.8243879756939814 -3.4305303845691113
2.5115694353166753 -4.185873495303194
1.9262960371913935 -4.272198422244232
1.3107498770941142 -4.207454727038454
1.0685677813181356 -4.35852334918527
0.9979313367168083 -4.423267044391049
0.39247609727686156 -3.5168553115101493
-0.5157067618830586 -1.8335192361599075
-0.9395254294910215 -0.2365080877507039
-0.6872524130577102 0.561997486453898
-0.3744338726804044 0.8209722672770121
-0.5157067618830586 0.9504596576885691
-0.9395254294910215 0.8209722672770121
-1.0908892393510081 0.4756725595128599
-0.9597072708056863 0.13037285174870777
-0.6973433337150428 -0.06385823386862781
-0.4753430792537289 -0.06385823386862781
-0.4349793966243991 -0.042277002133368304
-0.48543399991106134 -0.06385823386862781
-0.545979523855056 -0.06385823386862781
-0.5157067618830586 0.04404792480766974
-0.455161237939064 0.04404792480766974
-0.5560704445123884 0.1735353152192268
-0.7377070163443725 0.2598602421602648
-0.8083434609456996 0.2598602421602648
-0.6771614924003778 0.32460393736604337
-0.5157067618830586 0.4756725595128599
-0.4652521585963964 0.5835787181891575
-0.5157067618830586 0.4540913277776004
-0.545979523855056 -0.08543946560388732
-0.48543399991106134 -0.6033890272501156
-0.5157067618830586 -0.9271075032790083
-0.5560704445123884 -0.8407825763379702
-0.5560704445123884 -0.4739016368385585
-0.5661613651697209 0.13037285174870777
-0.5560704445123884 0.6267411816596765
-0.545979523855056 0.7130661086007145
-0.5762522858270533 0.4540913277776004
-0.5964341271417183 0.10879162001344826
-0.5661613651697209 -0.19334562428018487
-0.48543399991106134 -0.40915794163277996
-0.4652521585963964 -0.495482868573818
-0.31388834873640975 -0.38757670989752047
-0.12216085624709325 -0.10702069733914683
-0.07170625296043101 0.36776640083656237
-0.17261545953375548 0.8425534990122716
-0.48543399991106134 1.4252467558642783
-0.6872524130577102 1.9647775492457662
-0.6872524130577102 1.9863587809810257
-0.5358886031977236 1.662640304952133
-0.2634337454497475 1.2525969019822023
-0.07170625296043101 1.3173405971879808
-0.08179717361776345 1.79212769536369
-0.23316098347775016 1.878452622304728
-0.4652521585963964 1.7705464636284305
-0.7175251750297076 1.835290158834209
-0.7679797783163699 1.705802768422652
-0.636797809771048 1.3605030606584998
-0.5257976825403912 0.734647340335974
-0.455161237939064 -0.08543946560388732
-0.2937065074217448 -0.6465514907206346
-0.08179717361776345 -0.8192013446027107
0.03929387427022591 -0.7112951859264132
0.03929387427022591 -0.452320405103299
-0.0010698083591038797 -0.2580893194859634
0.009021112298228566 -0.2580893194859634
0.04938479492755835 -0.2796705512212229
0.0594757155848908 -0.3228330146917419
0.0796575568995557 -0.21492685601544437
0.18056676347288017 -0.15018316080966584
0.3016578113608695 -0.10702069733914683
0.31174873201820197 0.0008854613371507181
0.22093044610220994 0.022466693072410227
0.16038492215821526 0.06562915654292925
0.1906576841302126 0.022466693072410227
0.25120320807420726 0.1519540834839673
0.3420214939901993 0.10879162001344826
0.2915668907035371 0.13037285174870777
0.24111228741687485 0.08721038827818876
0.22093044610220994 0.06562915654292925
0.24111228741687485 0.06562915654292925
0.2310213667595424 0.10879162001344826
0.2713850493888722 0.10879162001344826
0.3016578113608695 0.06562915654292925
0.3722942559621967 0.10879162001344826
0.5539308277941807 0.21669777868974582
0.6649309550248376 0.4540913277776004
0.6750218756821701 0.6699036451301955
0.5034762245075185 0.7778098038064931
0.2108395254448775 0.6267411816596765
0.08974847755688814 0.36776640083656237
0.13011216018621793 0.13037285174870777
0.13011216018621793 -0.06385823386862781
-0.06161533230309856 -0.02069577039810879
-0.2937065074217448 0.1519540834839673
-0.49552492056839376 0.34618516910130287
-0.4450703172817315 0.4756725595128599
-0.34416111070840705 0.6699036451301955
-0.25334282479241504 0.9936221211590882
-0.18270638019108792 1.2957593654527213
-0.16252453887642304 1.878452622304728
-0.17261545953375548 2.2453335618041397
-0.2028882215057528 2.2884960252746587
-0.2028882215057528 1.9431963175105067
-0.18270638019108792 1.1878532067764238
-0.17261545953375548 0.4109288643070814
-0.14234269756175813 -0.2796705512212229
-0.1322517769044257 -0.5818077955148561
-0.10197901493242835 -0.7112951859264132
-0.0918880942750959 -0.5386453320443371
-0.06161533230309856 -0.3228330146917419
-0.03134257033110122 -0.17176439254492537
-0.03134257033110122 -0.08543946560388732
-0.021251649673768774 -0.06385823386862781
-0.03134257033110122 -0.12860192907440635
-0.041433490988433665 -0.12860192907440635
-0.05152441164576611 -0.12860192907440635
-0.03134257033110122 0.022466693072410227
-0.03134257033110122 0.0008854613371507181
-0.011160729016436326 -0.08543946560388732
-0.041433490988433665 -0.3012517829564824
-0.041433490988433665 -0.2580893194859634
-0.03134257033110122 -0.2580893194859634
0.019112032955561013 -0.21492685601544437
0.029202953612893462 -0.12860192907440635
0.10993031887155304 -0.12860192907440635
0.24111228741687485 -0.17176439254492537
0.26129412873153973 -0.10702069733914683
0.20074860478754505 0.0008854613371507181
0.12002123952888548 0.06562915654292925
0.12002123952888548 0.1519540834839673
0.16038492215821526 0.13037285174870777
0.20074860478754505 0.13037285174870777
0.18056676347288017 0.1735353152192268
0.17047584281554773 0.21669777868974582
0.17047584281554773 0.36776640083656237
0.2108395254448775 0.4756725595128599
0.20074860478754505 0.4325100960423409
0.17047584281554773 0.4540913277776004
0.12002123952888548 0.49725379124811947
0.08974847755688814 0.605159949924417
0.09983939821422058 0.8209722672770121
0.10993031887155304 1.1015282798353858
0.0796575568995557 1.4036655241290188
0.009021112298228566 1.4252467558642783
-0.0010698083591038797 1.2741781337174618
0.09983939821422058 1.1015282798353858
0.18056676347288017 1.0799470481001263
0.2310213667595424 1.036784584629607
0.17047584281554773 0.7993910355417526
0.029202953612893462 0.4325100960423409
-0.10197901493242835 0.23827901042500532
-0.16252453887642304 0.2814414738955244
-0.11206993558976079 0.4540913277776004
0.15029400150088282 0.5404162547186384
0.2915668907035371 0.5188350229833789
0.16038492215821526 0.1951165469544863
-0.21297914216308525 -0.15018316080966584
-0.38452479333773687 -0.3012517829564824
-0.2836155867644124 -0.3012517829564824
-0.11206993558976079 -0.06385823386862781
-0.05152441164576611 0.2814414738955244
-0.06161533230309856 0.7778098038064931
-0.14234269756175813 1.036784584629607
-0.16252453887642304 1.0152033528943476
-0.1322517769044257 0.6267411816596765
0.04938479492755835 0.04404792480766974
0.2108395254448775 -0.3012517829564824
0.18056676347288017 -0.2365080877507039
-0.011160729016436326 -0.06385823386862781
-0.0918880942750959 0.04404792480766974
0.019112032955561013 0.06562915654292925
0.15029400150088282 0.0008854613371507181
0.08974847755688814 -0.08543946560388732
-0.03134257033110122 -0.15018316080966584
-0.12216085624709325 -0.15018316080966584
-0.11206993558976079 -0.02069577039810879
-0.041433490988433665 0.10879162001344826
0.03929387427022591 0.1951165469544863
0.10993031887155304 0.32460393736604337
0.2310213667595424 0.4325100960423409
0.22093044610220994 0.49725379124811947
0.10993031887155304 0.7562285720712336
0.06956663624222324 0.9504596576885691
0.13011216018621793 0.7778098038064931
0.16038492215821526 0.4325100960423409
0.0796575568995557 0.10879162001344826
0.0594757155848908 -0.19334562428018487
0.15029400150088282 -0.3228330146917419
0.1906576841302126 -0.38757670989752047
0.0594757155848908 -0.2365080877507039
-0.0918880942750959 -0.15018316080966584
-0.12216085624709325 0.08721038827818876
-0.11206993558976079 0.5404162547186384
-0.1322517769044257 1.0583658163648666
-0.11206993558976079 1.2741781337174618
-0.08179717361776345 0.8857159624827906
-0.03134257033110122 0.23827901042500532
0.009021112298228566 -0.2365080877507039
0.03929387427022591 -0.495482868573818
0.06956663624222324 -0.40915794163277996
0.08974847755688814 -0.15018316080966584
0.10993031887155304 0.06562915654292925
0.06956663624222324 0.10879162001344826
0.04938479492755835 0.13037285174870777
-0.0010698083591038797 0.1735353152192268
0.019112032955561013 0.34618516910130287
0.03929387427022591 0.2814414738955244
0.0796575568995557 0.32460393736604337
0.10993031887155304 0.21669777868974582
0.15029400150088282 0.10879162001344826
0.14020308084355038 0.08721038827818876
0.10993031887155304 0.04404792480766974
0.12002123952888548 -0.02069577039810879
0.08974847755688814 -0.02069577039810879
0.0796575568995557 -0.10702069733914683
0.019112032955561013 -0.19334562428018487
0.06956663624222324 -0.3228330146917419
0.10993031887155304 -0.452320405103299
0.1906576841302126 -0.3444142464270014
0.2310213667595424 -0.3228330146917419
0.20074860478754505 -0.3444142464270014
0.20074860478754505 -0.40915794163277996
0.16038492215821526 -0.38757670989752047
0.15029400150088282 -0.3012517829564824
0.15029400150088282 -0.17176439254492537
0.20074860478754505 0.022466693072410227
0.26129412873153973 0.10879162001344826
0.22093044610220994 0.1951165469544863
0.2108395254448775 0.36776640083656237
0.24111228741687485 0.561997486453898
0.32183965267553444 0.5835787181891575
0.5539308277941807 0.5404162547186384
0.8263856855421567 0.3030227056307839
0.7759310822554946 0.1735353152192268
0.35211241464753174 0.32460393736604337
-0.05152441164576611 0.734647340335974
-0.16252453887642304 0.8857159624827906
-0.06161533230309856 0.7562285720712336
-0.0010698083591038797 0.561997486453898
0.019112032955561013 0.3893476325718219
0.019112032955561013 0.2814414738955244
0.009021112298228566 0.3030227056307839
0.04938479492755835 0.4540913277776004
0.17047584281554773 0.9936221211590882
0.16038492215821526 1.5115716828053165
0.04938479492755835 1.489990451070057
-0.0918880942750959 0.9936221211590882
-0.041433490988433665 0.4756725595128599
0.22093044610220994 0.2598602421602648
0.6144763517381754 0.32460393736604337
0.8162947648848243 0.3893476325718219
0.8970221301434839 0.5404162547186384
0.9777494954021435 0.8209722672770121
1.1089314639474652 1.1231095115706453
1.2401134324927872 1.705802768422652
1.2905680357794493 2.1805898665983614
1.2703861944647845 2.3316584887451777
1.3107498770941142 2.0726837079220637
1.5731138141847578 1.533152914540576
2.0171143231073856 0.8857159624827906
2.4510239113726806 0.3893476325718219
2.7234787691206566 -0.15018316080966584
2.8546607376659785 -0.5818077955148561
2.9353881029246383 -0.9702699667495273
3.0968428334419573 -1.0565948936905654
3.2582975639592764 -1.3155696745136793
3.2784794052739414 -1.7040318457483505
3.207842960672614 -2.351468797806136
2.955569944239303 -2.9773245181286616
2.6528423245193298 -3.2794617624222946
2.299660101512694 -3.2794617624222946
2.007023402450053 -3.0636494450696996
1.754750386016742 -2.7615122007760666
1.4318409249821036 -2.437793724747174
0.9878404160594759 -2.1572377121888002
0.6346581930528402 -1.9630066265714647
0.39247609727686156 -1.639288150542572
0.1906576841302126 -1.1645010523668629
-0.0010698083591038797 -0.5818077955148561
-0.0918880942750959 -0.19334562428018487
-0.14234269756175813 0.0008854613371507181
-0.2028882215057528 0.0008854613371507181
-0.3037974280790773 0.1519540834839673
-0.364342952023072 0.13037285174870777
-0.4450703172817315 0.2814414738955244
-0.48543399991106134 0.4325100960423409
-0.4652521585963964 0.4756725595128599
-0.34416111070840705 0.4756725595128599
-0.25334282479241504 0.34618516910130287
-0.2634337454497475 0.34618516910130287
-0.3037974280790773 0.2598602421602648
-0.34416111070840705 0.3893476325718219
-0.3542520313657395 0.3893476325718219
-0.364342952023072 0.49725379124811947
-0.38452479333773687 0.648322413394936
-0.4147975553097342 0.8425534990122716
-0.455161237939064 0.9072971942180501
-0.4652521585963964 0.9288784259533096
-0.4349793966243991 0.8209722672770121
-0.3946157139950693 0.6267411816596765
-0.38452479333773687 0.6267411816596765
-0.40470663465240175 0.6699036451301955
-0.364342952023072 0.5835787181891575
-0.33407019005107463 0.5835787181891575
-0.33407019005107463 0.4540913277776004
-0.34416111070840705 0.36776640083656237
-0.3037974280790773 0.2598602421602648
-0.2634337454497475 0.21669777868974582
-0.19279730084842037 0.23827901042500532
-0.22307006282041772 0.21669777868974582
-0.364342952023072 0.1735353152192268
-0.4147975553097342 0.08721038827818876
-0.27352466610707993 -0.02069577039810879
-0.14234269756175813 -0.042277002133368304
-0.11206993558976079 -0.10702069733914683
-0.2432519041350826 0.0008854613371507181
-0.3946157139950693 0.10879162001344826
-0.4753430792537289 0.04404792480766974
-0.4753430792537289 -0.042277002133368304
-0.40470663465240175 -0.08543946560388732
-0.33407019005107463 -0.10702069733914683
-0.23316098347775016 -0.10702069733914683
-0.22307006282041772 0.10879162001344826
-0.23316098347775016 0.23827901042500532
-0.31388834873640975 0.3893476325718219
-0.33407019005107463 0.49725379124811947
-0.32397926939374216 0.5188350229833789
-0.22307006282041772 0.6267411816596765
-0.1322517769044257 0.5404162547186384
-0.06161533230309856 0.4756725595128599
-0.16252453887642304 0.561997486453898
-0.23316098347775016 0.8209722672770121
-0.2432519041350826 1.0799470481001263
-0.17261545953375548 1.3173405971879808
-0.0918880942750959 1.3820842923937593
-0.12216085624709325 1.5115716828053165
-0.1322517769044257 1.5115716828053165
-0.14234269756175813 1.7705464636284305
-0.03134257033110122 1.9431963175105067
0.019112032955561013 1.9647775492457662
0.04938479492755835 1.6842215366873925
0.03929387427022591 1.2525969019822023
0.019112032955561013 0.8425534990122716
0.019112032955561013 0.691484876865455
0.1906576841302126 0.691484876865455
0.48329438319285356 0.8425534990122716
0.584203589766178 0.7993910355417526
0.41265793859152644 0.6267411816596765
0.13011216018621793 0.561997486453898
0.029202953612893462 0.605159949924417
0.08974847755688814 0.648322413394936
0.24111228741687485 0.6267411816596765
0.3823851766195291 0.6267411816596765
0.49338530385018603 0.561997486453898
0.4631125418781887 0.561997486453898
0.3622033353048642 0.6267411816596765
0.35211241464753174 0.5835787181891575
0.4227488592488589 0.4540913277776004
0.5337489864795159 0.34618516910130287
0.5438399071368483 0.4540913277776004
0.5034762245075185 0.691484876865455
0.4631125418781887 0.8425534990122716
0.4732034625355211 0.5835787181891575
0.4530216212208562 0.08721038827818876
0.48329438319285356 -0.43073917336803946
0.4530216212208562 -0.6249702589853751
0.4227488592488589 -0.5602265637795966
0.3722942559621967 -0.12860192907440635
0.39247609727686156 0.32460393736604337
0.40256701793419397 0.734647340335974
0.40256701793419397 0.7562285720712336
0.3420214939901993 0.691484876865455
0.3016578113608695 0.7130661086007145
0.3722942559621967 0.7130661086007145
0.604385431080843 0.5404162547186384
0.9979313367168083 0.32460393736604337
1.0786587019754679 0.2598602421602648
0.6750218756821701 0.4756725595128599
-0.021251649673768774 0.8641347307475311
-0.4147975553097342 1.3389218289232403
-0.3946157139950693 1.705802768422652
-0.18270638019108792 1.576315378011095
0.009021112298228566 1.4684092193347973
0.1906576841302126 1.3389218289232403
0.26129412873153973 1.2525969019822023
0.16038492215821526 1.2525969019822023
0.10993031887155304 1.2741781337174618
0.16038492215821526 1.3389218289232403
0.24111228741687485 1.2525969019822023
0.33193057333286685 0.7778098038064931
0.2915668907035371 0.4325100960423409
0.26129412873153973 0.10879162001344826
0.2915668907035371 0.06562915654292925
0.32183965267553444 0.022466693072410227
0.33193057333286685 0.04404792480766974
0.2713850493888722 0.1951165469544863
0.25120320807420726 0.10879162001344826
0.2814759700462046 0.13037285174870777
0.31174873201820197 0.21669777868974582
0.3823851766195291 0.13037285174870777
0.3722942559621967 -0.042277002133368304
0.26129412873153973 -0.06385823386862781
0.13011216018621793 -0.02069577039810879
0.18056676347288017 -0.042277002133368304
0.33193057333286685 -0.06385823386862781
0.4631125418781887 -0.02069577039810879
0.48329438319285356 -0.042277002133368304
0.41265793859152644 0.022466693072410227
0.3420214939901993 0.06562915654292925
0.32183965267553444 0.13037285174870777
0.3823851766195291 0.1735353152192268
0.35211241464753174 0.21669777868974582
0.33193057333286685 0.32460393736604337
0.26129412873153973 0.36776640083656237
0.3016578113608695 0.4540913277776004
0.35211241464753174 0.4109288643070814
0.31174873201820197 0.4540913277776004
0.24111228741687485 0.36776640083656237
0.18056676347288017 0.21669777868974582
0.10993031887155304 0.04404792480766974
0.019112032955561013 -0.02069577039810879
0.03929387427022591 0.1519540834839673
0.09983939821422058 0.4540913277776004
0.20074860478754505 0.6699036451301955
0.2310213667595424 0.7562285720712336
0.24111228741687485 0.7778098038064931
0.33193057333286685 1.1446907433059048
0.4530216212208562 1.705802768422652
0.41265793859152644 2.0726837079220637
0.14020308084355038 1.9863587809810257
-0.18270638019108792 1.5547341462758355
-0.2634337454497475 1.1662719750411643
-0.05152441164576611 0.7778098038064931
0.17047584281554773 0.6699036451301955
0.24111228741687485 0.49725379124811947
0.16038492215821526 0.4109288643070814
0.08974847755688814 0.36776640083656237
0.0594757155848908 0.32460393736604337
0.0796575568995557 0.4540913277776004
0.15029400150088282 0.7130661086007145
0.1906576841302126 0.9720408894238287
0.18056676347288017 1.0152033528943476
0.1906576841302126 0.7562285720712336
0.14020308084355038 0.49725379124811947
0.0796575568995557 0.1735353152192268
0.0594757155848908 0.022466693072410227
0.13011216018621793 0.06562915654292925
0.18056676347288017 0.04404792480766974
0.2108395254448775 0.13037285174870777
0.20074860478754505 -0.042277002133368304
0.17047584281554773 -0.19334562428018487
0.12002123952888548 -0.3012517829564824
0.17047584281554773 -0.38757670989752047
0.2310213667595424 -0.6465514907206346
0.25120320807420726 -0.7544576493969322
0.32183965267553444 -0.8623638080732297
0.3016578113608695 -0.7976201128674512
0.25120320807420726 -0.6465514907206346
0.17047584281554773 -0.5170641003090776
0.04938479492755835 -0.2365080877507039
0.019112032955561013 0.06562915654292925
-0.0010698083591038797 0.1951165469544863
0.0594757155848908 0.32460393736604337
0.0594757155848908 0.4325100960423409
0.12002123952888548 0.49725379124811947
0.17047584281554773 0.6267411816596765
0.14020308084355038 0.7778098038064931
0.12002123952888548 0.8857159624827906
0.09983939821422058 0.8209722672770121
0.14020308084355038 0.5835787181891575
0.14020308084355038 0.2814414738955244
0.0796575568995557 0.022466693072410227
-0.08179717361776345 -0.19334562428018487
-0.15243361821909057 -0.21492685601544437
-0.14234269756175813 0.2814414738955244
-0.06161533230309856 0.9720408894238287
-0.021251649673768774 1.8568713905694685
-0.0918880942750959 2.4827271108919944
-0.2634337454497475 2.4827271108919944
-0.2836155867644124 1.7705464636284305
-0.18270638019108792 0.4756725595128599
-0.03134257033110122 -0.6681327224558941
0.16038492215821526 -1.2939884427784198
0.26129412873153973 -1.509800760131015
0.2713850493888722 -1.3371509062489388
0.26129412873153973 -1.0781761254258249
0.2108395254448775 -0.7544576493969322
0.12002123952888548 -0.5386453320443371
0.09983939821422058 -0.40915794163277996
0.12002123952888548 -0.3444142464270014
0.18056676347288017 -0.3012517829564824
0.18056676347288017 -0.17176439254492537
0.12002123952888548 -0.06385823386862781
0.10993031887155304 0.21669777868974582
0.12002123952888548 0.2598602421602648
0.12002123952888548 0.1951165469544863
0.09983939821422058 0.13037285174870777
0.14020308084355038 0.06562915654292925
0.1906576841302126 0.0008854613371507181
0.17047584281554773 0.022466693072410227
0.14020308084355038 -0.02069577039810879
0.17047584281554773 -0.02069577039810879
0.14020308084355038 -0.08543946560388732
0.10993031887155304 -0.15018316080966584
0.09983939821422058 -0.17176439254492537
0.0796575568995557 -0.12860192907440635
0.13011216018621793 -0.02069577039810879
0.08974847755688814 0.06562915654292925
0.04938479492755835 0.1951165469544863
-0.011160729016436326 0.3030227056307839
-0.041433490988433665 0.5188350229833789
-0.03134257033110122 0.6267411816596765
-0.021251649673768774 0.8209722672770121
0.04938479492755835 0.8425534990122716
0.12002123952888548 0.7778098038064931
0.12002123952888548 0.5404162547186384
0.0594757155848908 0.3030227056307839
0.06956663624222324 0.10879162001344826
0.13011216018621793 0.08721038827818876
0.18056676347288017 0.0008854613371507181
0.10993031887155304 0.06562915654292925
0.03929387427022591 0.08721038827818876
-0.0010698083591038797 0.2814414738955244
0.019112032955561013 0.4756725595128599
0.04938479492755835 0.6267411816596765
0.04938479492755835 0.734647340335974
0.03929387427022591 0.7562285720712336
0.019112032955561013 0.7778098038064931
-0.011160729016436326 0.7993910355417526
0.019112032955561013 0.8425534990122716
0.04938479492755835 0.9720408894238287
0.12002123952888548 1.0152033528943476
0.10993031887155304 0.9936221211590882
0.0796575568995557 0.9720408894238287
0.04938479492755835 0.9288784259533096
0.04938479492755835 0.9288784259533096
0.04938479492755835 0.9504596576885691
0.08974847755688814 0.9072971942180501
0.17047584281554773 0.8209722672770121
0.2108395254448775 0.6699036451301955
0.2310213667595424 0.605159949924417
0.20074860478754505 0.561997486453898
0.20074860478754505 0.561997486453898
0.26129412873153973 0.4756725595128599
0.2713850493888722 0.36776640083656237
0.17047584281554773 0.3030227056307839
0.10993031887155304 0.23827901042500532
0.13011216018621793 0.1951165469544863
0.2310213667595424 0.13037285174870777
0.32183965267553444 0.022466693072410227
0.2814759700462046 0.022466693072410227
0.24111228741687485 0.08721038827818876
0.2713850493888722 0.3030227056307839
0.32183965267553444 0.5835787181891575
0.4227488592488589 0.561997486453898
0.4732034625355211 0.36776640083656237
0.584203589766178 -0.06385823386862781
0.7759310822554946 -0.452320405103299
0.9979313367168083 -0.452320405103299
1.12911330526213 0.022466693072410227
1.2300225118354546 0.32460393736604337
1.3612044803807763 0.4540913277776004
1.4722046076114335 0.5188350229833789
1.532750131555428 0.6699036451301955
1.532750131555428 1.0152033528943476
1.4923864489260983 1.2957593654527213
1.5731138141847578 1.4252467558642783
1.7749322273314068 1.3173405971879808
2.007023402450053 1.0583658163648666
2.2391145775686994 0.7778098038064931
2.3400237841420237 0.4756725595128599
2.410660228743351 0.2598602421602648
2.5620240386033375 0.10879162001344826
2.7840242930646513 -0.042277002133368304
2.8546607376659785 -0.3012517829564824
2.794115213721984 -0.8623638080732297
2.6730241658339944 -1.5313819918662746
2.4005693080860184 -2.0709127852477622
2.097841688366045 -2.308306334335617
1.8455686719327338 -2.1572377121888002
1.5125682902407631 -2.0709127852477622
1.0786587019754679 -1.8766816996304267
0.6346581930528402 -1.5313819918662746
0.3420214939901993 -1.1213385888963439
0.15029400150088282 -0.6249702589853751
-0.03134257033110122 -0.19334562428018487
-0.15243361821909057 0.10879162001344826
-0.21297914216308525 0.2598602421602648
-0.16252453887642304 0.32460393736604337
-0.19279730084842037 0.5188350229833789
-0.32397926939374216 0.8209722672770121
-0.42488847596706664 1.1662719750411643
-0.455161237939064 1.2525969019822023
-0.40470663465240175 1.0152033528943476
-0.38452479333773687 0.648322413394936
-0.4147975553097342 0.2598602421602648
-0.42488847596706664 0.04404792480766974
-0.42488847596706664 -0.21492685601544437
-0.4652521585963964 -0.4739016368385585
-0.48543399991106134 -0.7976201128674512
-0.4450703172817315 -1.0134324302200461
-0.38452479333773687 -1.0781761254258249
-0.38452479333773687 -1.0997573571610844
-0.364342952023072 -1.0350136619553059
-0.34416111070840705 -1.0565948936905654
-0.364342952023072 -1.0134324302200461
-0.4349793966243991 -0.8192013446027107
-0.48543399991106134 -0.7328764176616727
-0.4450703172817315 -0.5818077955148561
-0.455161237939064 -0.38757670989752047
-0.49552492056839376 -0.2796705512212229
-0.5358886031977236 -0.21492685601544437
-0.48543399991106134 -0.2365080877507039
-0.4349793966243991 -0.21492685601544437
-0.4753430792537289 -0.10702069733914683
-0.5358886031977236 -0.042277002133368304
-0.4753430792537289 -0.02069577039810879
-0.42488847596706664 0.10879162001344826
-0.4450703172817315 0.36776640083656237
-0.48543399991106134 0.49725379124811947
-0.4147975553097342 0.691484876865455
-0.2634337454497475 0.7778098038064931
-0.22307006282041772 0.9504596576885691
-0.2634337454497475 1.0152033528943476
-0.38452479333773687 1.2525969019822023
-0.5560704445123884 1.619477841481614
-0.6267068891137155 1.8137089270989495
-0.5964341271417183 1.79212769536369
-0.6166159684563831 1.6410590732168735
-0.6166159684563831 1.3389218289232403
-0.5762522858270533 1.1878532067764238
-0.49552492056839376 1.2310156702469428
-0.455161237939064 1.3605030606584998
-0.40470663465240175 1.3173405971879808
-0.3744338726804044 1.4468279875995378
-0.3946157139950693 1.489990451070057
-0.42488847596706664 1.748965231893171
-0.4147975553097342 1.9216150857752472
-0.3744338726804044 1.7705464636284305
-0.364342952023072 1.4036655241290188
-0.32397926939374216 0.9288784259533096
-0.23316098347775016 0.4109288643070814
-0.14234269756175813 0.10879162001344826
-0.07170625296043101 0.1519540834839673
0.009021112298228566 0.1951165469544863
0.029202953612893462 0.32460393736604337
0.009021112298228566 0.34618516910130287
-0.041433490988433665 0.1519540834839673
-0.0010698083591038797 0.10879162001344826
-0.03134257033110122 -0.02069577039810879
-0.03134257033110122 -0.06385823386862781
-0.05152441164576611 -0.042277002133368304
-0.021251649673768774 -0.10702069733914683
0.08974847755688814 -0.19334562428018487
0.2713850493888722 -0.21492685601544437
0.3016578113608695 -0.17176439254492537
0.2915668907035371 -0.12860192907440635
0.3016578113608695 -0.10702069733914683
0.2713850493888722 -0.17176439254492537
0.25120320807420726 -0.2580893194859634
0.3016578113608695 -0.2580893194859634
0.33193057333286685 -0.2365080877507039
0.3420214939901993 -0.10702069733914683
0.3016578113608695 -0.042277002133368304
0.2814759700462046 0.0008854613371507181
0.25120320807420726 -0.06385823386862781
0.22093044610220994 0.0008854613371507181
0.2310213667595424 0.08721038827818876
0.25120320807420726 0.23827901042500532
0.2713850493888722 0.3030227056307839
0.26129412873153973 0.4109288643070814
0.2310213667595424 0.36776640083656237
0.14020308084355038 0.36776640083656237
0.09983939821422058 0.561997486453898
0.12002123952888548 0.734647340335974
0.1906576841302126 0.7562285720712336
0.2713850493888722 0.8209722672770121
0.3722942559621967 0.8209722672770121
0.39247609727686156 0.8641347307475311
0.3016578113608695 1.036784584629607
0.15029400150088282 1.1878532067764238
-0.021251649673768774 1.533152914540576
-0.11206993558976079 1.878452622304728
-0.08179717361776345 2.051102476186804
-0.0918880942750959 2.051102476186804
-0.18270638019108792 1.835290158834209
-0.2634337454497475 1.576315378011095
-0.25334282479241504 1.1446907433059048
-0.18270638019108792 0.7993910355417526
-0.15243361821909057 0.691484876865455
-0.16252453887642304 0.734647340335974
-0.15243361821909057 0.734647340335974
-0.05152441164576611 0.7993910355417526
0.06956663624222324 0.7993910355417526
0.10993031887155304 0.9720408894238287
0.08974847755688814 0.9072971942180501
0.06956663624222324 0.5404162547186384
0.06956663624222324 0.23827901042500532
0.09983939821422058 -0.042277002133368304
0.16038492215821526 -0.2580893194859634
0.20074860478754505 -0.5170641003090776
0.17047584281554773 -0.5818077955148561
0.14020308084355038 -0.38757670989752047
0.08974847755688814 -0.3012517829564824
0.10993031887155304 -0.21492685601544437
0.14020308084355038 -0.12860192907440635
0.12002123952888548 -0.10702069733914683
0.08974847755688814 -0.15018316080966584
0.03929387427022591 -0.08543946560388732
0.03929387427022591 0.04404792480766974
0.12002123952888548 0.1519540834839673
0.20074860478754505 0.10879162001344826
0.2108395254448775 0.10879162001344826
0.17047584281554773 0.08721038827818876
0.12002123952888548 0.1951165469544863
0.04938479492755835 0.3030227056307839
0.0594757155848908 0.34618516910130287
0.10993031887155304 0.2814414738955244
0.17047584281554773 0.23827901042500532
0.15029400150088282 0.1735353152192268
0.06956663624222324 0.34618516910130287
-0.011160729016436326 0.4325100960423409
0.029202953612893462 0.4325100960423409
0.10993031887155304 0.34618516910130287
0.12002123952888548 0.08721038827818876
0.0594757155848908 0.04404792480766974
0.019112032955561013 0.0008854613371507181
0.009021112298228566 0.10879162001344826
0.029202953612893462 0.2598602421602648
0.0594757155848908 0.3893476325718219
0.0796575568995557 0.4540913277776004
0.0594757155848908 0.49725379124811947
0.019112032955561013 0.5835787181891575
-0.041433490988433665 0.734647340335974
-0.011160729016436326 0.8641347307475311
0.0594757155848908 0.9504596576885691
0.08974847755688814 0.9288784259533096
0.009021112298228566 0.8641347307475311
-0.06161533230309856 0.8641347307475311
-0.07170625296043101 0.9936221211590882
0.029202953612893462 0.9936221211590882
0.019112032955561013 0.9936221211590882
-0.08179717361776345 0.9720408894238287
-0.10197901493242835 0.9072971942180501
-0.0918880942750959 0.8209722672770121
-0.0918880942750959 0.8209722672770121
-0.05152441164576611 0.7562285720712336
-0.021251649673768774 0.561997486453898
0.03929387427022591 0.4756725595128599
0.019112032955561013 0.4109288643070814
-0.021251649673768774 0.4756725595128599
-0.03134257033110122 0.4540913277776004
-0.021251649673768774 0.5404162547186384
0.04938479492755835 0.49725379124811947
0.0796575568995557 0.5404162547186384
0.06956663624222324 0.5188350229833789
0.13011216018621793 0.5404162547186384
0.13011216018621793 0.4109288643070814
0.13011216018621793 0.4325100960423409
0.13011216018621793 0.2598602421602648
0.13011216018621793 0.13037285174870777
0.12002123952888548 0.08721038827818876
0.0594757155848908 0.1735353152192268
-0.0010698083591038797 0.4756725595128599
0.03929387427022591 0.7993910355417526
0.10993031887155304 0.9936221211590882
0.15029400150088282 0.9072971942180501
0.14020308084355038 0.5404162547186384
0.10993031887155304 0.2598602421602648
0.12002123952888548 0.08721038827818876
