-0.6826309508247014 0.04326132266688292
-0.5931664296372848 0.04326132266688292
-0.6155325599341389 -0.0031745720847373825
-0.6378986902309931 0.08969721741850323
-0.6378986902309931 -0.04961046683635768
-0.7720954720121178 -0.1889181510912186
-0.7720954720121178 -0.1424822563395983
-0.794461602308972 -0.1889181510912186
-0.8168277326058261 -0.2353540458428389
-0.794461602308972 -0.09604636158797798
-0.794461602308972 -0.0031745720847373825
-0.794461602308972 0.08969721741850323
-0.8168277326058261 -0.0031745720847373825
-0.7720954720121178 0.08969721741850323
-0.7049970811215555 0.04326132266688292
-0.7049970811215555 -0.04961046683635768
-0.7497293417152637 0.04326132266688292
-0.8391938629026803 -0.04961046683635768
-0.8615599931995344 -0.1424822563395983
-0.8615599931995344 -0.1424822563395983
-0.9062922537932426 -0.1889181510912186
-0.9286583840900967 -0.1889181510912186
-0.9062922537932426 -0.04961046683635768
-0.8839261234963884 0.04326132266688292
-0.8839261234963884 0.08969721741850323
-0.8615599931995344 0.08969721741850323
-0.9062922537932426 0.04326132266688292
-0.9286583840900967 -0.0031745720847373825
-0.973390644683805 -0.09604636158797798
-0.9957567749806592 -0.2353540458428389
-1.0628551658712215 -0.3282258353460795
-1.129953556761784 -0.3746617300976998
-1.1075874264649297 -0.4210976248493201
-1.0628551658712215 -0.3282258353460795
-1.0404890355743674 -0.2817899405944592
-1.0404890355743674 -0.1889181510912186
-1.0181229052775134 -0.04961046683635768
-0.973390644683805 -0.0031745720847373825
-0.9957567749806592 -0.04961046683635768
-1.0181229052775134 -0.09604636158797798
-1.1075874264649297 -0.09604636158797798
-1.1075874264649297 -0.1889181510912186
-1.1970519476523462 -0.2817899405944592
-1.2417842082460546 -0.4210976248493201
-1.2194180779492003 -0.3746617300976998
-1.2194180779492003 -0.2817899405944592
-1.2194180779492003 -0.09604636158797798
-1.1970519476523462 -0.1889181510912186
-1.1746858173554922 -0.09604636158797798
-1.2194180779492003 -0.0031745720847373825
-1.2417842082460546 -0.0031745720847373825
-1.2417842082460546 -0.1424822563395983
-1.2641503385429087 -0.1424822563395983
-1.3088825991366169 -0.2817899405944592
-1.3088825991366169 -0.2353540458428389
-1.3536148597303252 -0.4210976248493201
-1.3312487294334712 -0.2817899405944592
-1.3536148597303252 -0.4210976248493201
-1.3759809900271793 -0.2817899405944592
-1.3536148597303252 -0.2817899405944592
-1.2417842082460546 -0.1889181510912186
-1.2641503385429087 -0.1424822563395983
-1.2194180779492003 -0.09604636158797798
-1.2417842082460546 -0.2353540458428389
-1.2417842082460546 -0.2817899405944592
-1.2417842082460546 -0.4210976248493201
-1.2865164688397628 -0.4210976248493201
-1.2641503385429087 -0.5139694143525607
-1.2641503385429087 -0.4675335196009404
-1.1970519476523462 -0.4210976248493201
-1.152319687058638 -0.3746617300976998
-1.129953556761784 -0.3282258353460795
-1.0628551658712215 -0.2353540458428389
-0.9957567749806592 -0.2353540458428389
-0.973390644683805 -0.1889181510912186
-0.973390644683805 -0.1889181510912186
-0.9510245143869509 -0.2353540458428389
-0.8391938629026803 -0.2817899405944592
-0.8391938629026803 -0.4675335196009404
-0.7720954720121178 -0.4210976248493201
-0.6826309508247014 -0.5604053091041811
-0.6155325599341389 -0.5139694143525607
-0.5260680387467225 -0.3282258353460795
-0.3695051266687435 -0.2817899405944592
-0.21294221459076465 -0.2353540458428389
-0.056379302512785744 -0.1889181510912186
0.0554513489714849 -0.2353540458428389
0.18964813075260967 -0.2817899405944592
0.16728200045575553 -0.2353540458428389
0.27911265194002616 -0.5139694143525607
0.3014787822368803 -0.3746617300976998
0.2567465216431721 -0.5604053091041811
0.2567465216431721 -0.5139694143525607
0.2567465216431721 -0.4675335196009404
0.32384491253373443 -0.3746617300976998
0.3685771731274427 -0.2817899405944592
0.39094330342429684 -0.04961046683635768
0.39094330342429684 -0.09604636158797798
0.43567556401800506 -0.0031745720847373825
0.3685771731274427 -0.0031745720847373825
0.39094330342429684 -0.1424822563395983
0.32384491253373443 -0.1424822563395983
0.2567465216431721 -0.2817899405944592
0.2343803913463179 -0.1889181510912186
0.2120142610494638 -0.1424822563395983
0.16728200045575553 -0.1424822563395983
0.2343803913463179 -0.1424822563395983
0.18964813075260967 -0.04961046683635768
0.2120142610494638 -0.0031745720847373825
0.18964813075260967 0.08969721741850323
0.16728200045575553 0.04326132266688292
0.14491587015890142 0.08969721741850323
0.18964813075260967 -0.0031745720847373825
0.10018360956519315 -0.1889181510912186
0.10018360956519315 -0.09604636158797798
0.10018360956519315 -0.09604636158797798
0.07781747926833903 -0.04961046683635768
0.03308521867463077 -0.04961046683635768
0.0554513489714849 -0.0031745720847373825
0.03308521867463077 -0.0031745720847373825
0.10018360956519315 0.22900490167336413
0.07781747926833903 0.13613311217012353
0.12254973986204729 0.13613311217012353
0.07781747926833903 0.13613311217012353
0.03308521867463077 -0.0031745720847373825
-0.056379302512785744 -0.04961046683635768
-0.12347769340334813 -0.1424822563395983
-0.12347769340334813 -0.04961046683635768
-0.034013172215931614 -0.2353540458428389
-0.011647041919077486 -0.1424822563395983
-0.011647041919077486 -0.0031745720847373825
-0.011647041919077486 0.04326132266688292
-0.034013172215931614 -0.04961046683635768
-0.034013172215931614 -0.0031745720847373825
-0.056379302512785744 -0.0031745720847373825
-0.034013172215931614 -0.0031745720847373825
-0.07874543280963987 -0.04961046683635768
-0.011647041919077486 -0.1424822563395983
-0.056379302512785744 -0.09604636158797798
-0.12347769340334813 -0.2353540458428389
-0.12347769340334813 -0.1889181510912186
-0.07874543280963987 -0.1889181510912186
-0.07874543280963987 -0.04961046683635768
-0.07874543280963987 -0.0031745720847373825
-0.056379302512785744 0.13613311217012353
-0.034013172215931614 0.08969721741850323
-0.011647041919077486 0.04326132266688292
0.03308521867463077 -0.09604636158797798
0.010719088377776641 -0.09604636158797798
0.0554513489714849 -0.09604636158797798
-0.034013172215931614 -0.1424822563395983
-0.056379302512785744 -0.1889181510912186
-0.07874543280963987 -0.1889181510912186
-0.056379302512785744 -0.1889181510912186
-0.056379302512785744 -0.1424822563395983
0.03308521867463077 -0.04961046683635768
0.0554513489714849 0.08969721741850323
0.10018360956519315 0.13613311217012353
0.14491587015890142 0.18256900692174383
0.16728200045575553 0.22900490167336413
0.2343803913463179 0.22900490167336413
0.2343803913463179 0.2754407964249844
0.27911265194002616 0.2754407964249844
0.2567465216431721 0.08969721741850323
0.2343803913463179 0.08969721741850323
0.2567465216431721 0.13613311217012353
0.27911265194002616 0.3218766911766047
0.3685771731274427 0.22900490167336413
0.3685771731274427 0.2754407964249844
0.413309433721151 0.18256900692174383
0.4580416943148592 0.13613311217012353
0.5027739549085675 -0.09604636158797798
0.5475062155022757 -0.09604636158797798
0.48040782461171333 -0.1424822563395983
0.4580416943148592 -0.3282258353460795
0.39094330342429684 -0.2817899405944592
0.34621104283058857 -0.4210976248493201
0.3014787822368803 -0.4675335196009404
0.2567465216431721 -0.4675335196009404
0.2343803913463179 -0.4210976248493201
0.2343803913463179 -0.4210976248493201
0.2567465216431721 -0.4210976248493201
0.16728200045575553 -0.4675335196009404
0.14491587015890142 -0.4675335196009404
0.10018360956519315 -0.4675335196009404
0.0554513489714849 -0.5139694143525607
-0.034013172215931614 -0.5139694143525607
-0.14584382370020227 -0.4210976248493201
-0.1905760842939105 -0.2817899405944592
-0.28004060548132703 -0.4210976248493201
-0.23530834488761876 -0.2353540458428389
-0.28004060548132703 -0.3746617300976998
-0.23530834488761876 -0.04961046683635768
-0.23530834488761876 -0.04961046683635768
-0.23530834488761876 -0.1889181510912186
-0.2576744751844729 -0.1889181510912186
-0.2576744751844729 -0.1889181510912186
-0.30240673577818117 -0.2817899405944592
-0.3247728660750353 -0.3746617300976998
-0.3695051266687435 -0.3746617300976998
-0.39187125696559766 -0.2353540458428389
-0.4142373872624518 -0.2817899405944592
-0.3471389963718894 -0.2353540458428389
-0.30240673577818117 -0.1889181510912186
-0.28004060548132703 -0.09604636158797798
-0.2576744751844729 0.04326132266688292
-0.21294221459076465 -0.0031745720847373825
-0.2576744751844729 -0.09604636158797798
-0.28004060548132703 -0.04961046683635768
-0.30240673577818117 -0.1889181510912186
-0.30240673577818117 -0.1889181510912186
-0.30240673577818117 -0.1424822563395983
-0.3247728660750353 -0.09604636158797798
-0.30240673577818117 -0.0031745720847373825
-0.21294221459076465 0.04326132266688292
-0.056379302512785744 0.13613311217012353
0.18964813075260967 0.13613311217012353
0.48040782461171333 -0.0031745720847373825
0.8382659093613793 0.04326132266688292
1.2408562547047537 -0.1424822563395983
1.7776433818292527 -0.3746617300976998
2.2696982483600436 -0.6532770986074217
2.717020854297126 -0.7925847828622825
3.0525128087499382 -1.1176360461236245
3.1196111996405005 -1.0712001513720044
2.873583766375105 -1.2105078356268653
2.4486272907348767 -1.303379625130106
1.7776433818292527 -1.4891232041365872
1.1513917335173371 -1.4426873093849668
0.34621104283058857 -1.349815519881726
-0.45896964785616007 -1.2105078356268653
-1.3312487294334712 -0.9783283618687637
-1.9351342474485325 -0.2817899405944592
-2.203527811010782 0.6004920596863266
-2.181161680713928 1.3434663757122514
-1.9575003777453865 1.6685176389735936
-1.6220084232925747 1.6220817442219733
-1.2865164688397628 1.3899022704638717
-1.0852212961680756 1.0184151124509093
-0.9286583840900967 0.4611843754314657
-0.9286583840900967 0.22900490167336413
-0.9286583840900967 0.3218766911766047
-0.8839261234963884 0.08969721741850323
-0.9286583840900967 0.13613311217012353
-0.8839261234963884 -0.0031745720847373825
-0.8839261234963884 -0.1889181510912186
-0.8839261234963884 -0.2817899405944592
-0.8839261234963884 -0.2353540458428389
-0.8839261234963884 -0.1889181510912186
-0.9286583840900967 -0.1424822563395983
-0.8839261234963884 -0.0031745720847373825
-0.9286583840900967 0.04326132266688292
-0.9510245143869509 -0.0031745720847373825
-0.9062922537932426 0.04326132266688292
-0.8839261234963884 -0.0031745720847373825
-0.8839261234963884 -0.04961046683635768
-0.8839261234963884 -0.1889181510912186
-0.9062922537932426 -0.1424822563395983
-0.9510245143869509 -0.2353540458428389
-0.973390644683805 -0.2353540458428389
-1.0181229052775134 -0.2353540458428389
-0.9957567749806592 -0.1889181510912186
-0.973390644683805 -0.09604636158797798
-0.973390644683805 -0.0031745720847373825
-0.9286583840900967 0.08969721741850323
-0.9286583840900967 0.18256900692174383
-0.9062922537932426 0.13613311217012353
-0.8839261234963884 0.18256900692174383
-0.9062922537932426 0.04326132266688292
-0.973390644683805 0.08969721741850323
-1.0181229052775134 -0.1424822563395983
-1.0404890355743674 -0.04961046683635768
-1.0628551658712215 -0.1424822563395983
-1.0404890355743674 -0.09604636158797798
-1.0852212961680756 -0.1889181510912186
-1.0404890355743674 -0.04961046683635768
-0.9957567749806592 -0.09604636158797798
-1.0181229052775134 0.08969721741850323
-0.9286583840900967 -0.04961046683635768
-0.9957567749806592 -0.0031745720847373825
-1.0404890355743674 -0.1889181510912186
-1.1075874264649297 -0.2353540458428389
-1.1746858173554922 -0.2817899405944592
-1.2417842082460546 -0.3282258353460795
-1.2417842082460546 -0.2817899405944592
-1.2865164688397628 -0.3282258353460795
-1.1970519476523462 -0.2817899405944592
-1.1970519476523462 -0.1889181510912186
-1.1970519476523462 -0.1424822563395983
-1.1970519476523462 -0.0031745720847373825
-1.1970519476523462 -0.09604636158797798
-1.2417842082460546 -0.1424822563395983
-1.2641503385429087 -0.04961046683635768
-1.3088825991366169 -0.2353540458428389
-1.3983471203240334 -0.2817899405944592
-1.4207132506208875 -0.2817899405944592
-1.4430793809177418 -0.2817899405944592
-1.3759809900271793 -0.2817899405944592
-1.3759809900271793 -0.2817899405944592
-1.3536148597303252 -0.1889181510912186
-1.3088825991366169 -0.1424822563395983
-1.3536148597303252 -0.1424822563395983
-1.2865164688397628 -0.1424822563395983
-1.2865164688397628 -0.1424822563395983
-1.3088825991366169 -0.1424822563395983
-1.3312487294334712 -0.3746617300976998
-1.3536148597303252 -0.3282258353460795
-1.3536148597303252 -0.3746617300976998
-1.3983471203240334 -0.5139694143525607
-1.3536148597303252 -0.5139694143525607
-1.2865164688397628 -0.3746617300976998
-1.2865164688397628 -0.4210976248493201
-1.2194180779492003 -0.2817899405944592
-1.1746858173554922 -0.2353540458428389
-1.1746858173554922 -0.1889181510912186
-1.2194180779492003 -0.1889181510912186
-1.1746858173554922 -0.3282258353460795
-1.1746858173554922 -0.3746617300976998
-1.1075874264649297 -0.4675335196009404
-1.1075874264649297 -0.5604053091041811
-1.0181229052775134 -0.6068412038558013
-0.973390644683805 -0.4675335196009404
-0.8839261234963884 -0.5139694143525607
-0.7273632114184095 -0.3746617300976998
-0.6378986902309931 -0.3282258353460795
-0.5260680387467225 -0.3282258353460795
-0.39187125696559766 -0.2817899405944592
-0.3471389963718894 -0.2817899405944592
-0.3247728660750353 -0.5139694143525607
-0.21294221459076465 -0.4675335196009404
-0.16820995399705638 -0.4675335196009404
-0.14584382370020227 -0.4675335196009404
-0.07874543280963987 -0.5604053091041811
0.010719088377776641 -0.5604053091041811
0.07781747926833903 -0.4675335196009404
0.16728200045575553 -0.2353540458428389
0.14491587015890142 -0.3746617300976998
0.2343803913463179 -0.1424822563395983
0.27911265194002616 -0.1424822563395983
0.2567465216431721 -0.2817899405944592
0.3014787822368803 -0.1424822563395983
0.2567465216431721 -0.2353540458428389
0.2567465216431721 -0.3282258353460795
0.16728200045575553 -0.3282258353460795
0.14491587015890142 -0.3746617300976998
0.18964813075260967 -0.3746617300976998
0.18964813075260967 -0.09604636158797798
0.18964813075260967 -0.2353540458428389
0.14491587015890142 0.08969721741850323
0.14491587015890142 0.04326132266688292
0.18964813075260967 0.18256900692174383
0.16728200045575553 0.13613311217012353
0.12254973986204729 -0.0031745720847373825
0.10018360956519315 -0.09604636158797798
0.10018360956519315 -0.1889181510912186
0.010719088377776641 -0.1424822563395983
0.010719088377776641 -0.1889181510912186
0.03308521867463077 -0.2353540458428389
-0.011647041919077486 -0.09604636158797798
-0.034013172215931614 -0.04961046683635768
-0.07874543280963987 -0.0031745720847373825
-0.056379302512785744 -0.0031745720847373825
0.010719088377776641 0.04326132266688292
0.03308521867463077 -0.04961046683635768
0.010719088377776641 -0.09604636158797798
0.010719088377776641 -0.2353540458428389
-0.07874543280963987 -0.2353540458428389
-0.12347769340334813 -0.3282258353460795
-0.101111563106494 -0.3282258353460795
-0.12347769340334813 -0.2817899405944592
-0.12347769340334813 -0.2353540458428389
-0.056379302512785744 -0.1889181510912186
-0.056379302512785744 -0.2353540458428389
0.010719088377776641 -0.09604636158797798
-0.034013172215931614 -0.1889181510912186
-0.056379302512785744 -0.2353540458428389
-0.12347769340334813 -0.1889181510912186
-0.16820995399705638 -0.3282258353460795
-0.16820995399705638 -0.3282258353460795
-0.21294221459076465 -0.3282258353460795
-0.2576744751844729 -0.4675335196009404
-0.21294221459076465 -0.4675335196009404
-0.21294221459076465 -0.4210976248493201
-0.16820995399705638 -0.2817899405944592
-0.1905760842939105 -0.2353540458428389
-0.16820995399705638 -0.1424822563395983
-0.14584382370020227 -0.1889181510912186
-0.16820995399705638 -0.1889181510912186
-0.12347769340334813 -0.2817899405944592
-0.1905760842939105 -0.3282258353460795
-0.1905760842939105 -0.3282258353460795
-0.16820995399705638 -0.4210976248493201
-0.1905760842939105 -0.3282258353460795
-0.16820995399705638 -0.4210976248493201
-0.14584382370020227 -0.2817899405944592
-0.07874543280963987 -0.04961046683635768
-0.07874543280963987 -0.09604636158797798
-0.011647041919077486 -0.09604636158797798
-0.011647041919077486 0.04326132266688292
0.010719088377776641 -0.04961046683635768
-0.011647041919077486 -0.04961046683635768
0.03308521867463077 -0.1424822563395983
0.03308521867463077 -0.1424822563395983
0.03308521867463077 -0.1889181510912186
0.03308521867463077 -0.09604636158797798
0.010719088377776641 -0.0031745720847373825
0.03308521867463077 0.04326132266688292
0.10018360956519315 0.13613311217012353
0.12254973986204729 0.22900490167336413
0.16728200045575553 0.3218766911766047
0.18964813075260967 0.368312585928225
0.2343803913463179 0.2754407964249844
0.2120142610494638 0.2754407964249844
0.2343803913463179 0.18256900692174383
0.27911265194002616 0.04326132266688292
0.16728200045575553 0.08969721741850323
0.18964813075260967 -0.1424822563395983
0.2120142610494638 -0.1424822563395983
0.2567465216431721 -0.04961046683635768
0.3014787822368803 -0.04961046683635768
0.3014787822368803 0.04326132266688292
0.3014787822368803 0.08969721741850323
0.3014787822368803 -0.0031745720847373825
0.27911265194002616 -0.1424822563395983
0.18964813075260967 -0.3282258353460795
0.12254973986204729 -0.4210976248493201
0.07781747926833903 -0.6997129933590419
-0.011647041919077486 -0.7461488881106623
-0.011647041919077486 -0.7461488881106623
-0.101111563106494 -0.6532770986074217
-0.101111563106494 -0.5139694143525607
-0.12347769340334813 -0.3282258353460795
-0.16820995399705638 -0.2817899405944592
-0.1905760842939105 -0.04961046683635768
-0.2576744751844729 0.04326132266688292
-0.2576744751844729 -0.0031745720847373825
-0.28004060548132703 -0.09604636158797798
-0.3471389963718894 -0.0031745720847373825
-0.3471389963718894 -0.2353540458428389
-0.43660351755930593 -0.3282258353460795
-0.5037019084498683 -0.2817899405944592
-0.4813357781530142 -0.2817899405944592
-0.5260680387467225 -0.1424822563395983
-0.45896964785616007 -0.09604636158797798
-0.43660351755930593 0.04326132266688292
-0.4142373872624518 -0.09604636158797798
-0.39187125696559766 -0.0031745720847373825
-0.39187125696559766 -0.09604636158797798
-0.45896964785616007 -0.1424822563395983
-0.5260680387467225 -0.09604636158797798
-0.5708002993404308 -0.1424822563395983
-0.5708002993404308 -0.1889181510912186
-0.5708002993404308 -0.1424822563395983
-0.4813357781530142 -0.2817899405944592
-0.4813357781530142 -0.0031745720847373825
-0.4142373872624518 0.04326132266688292
-0.43660351755930593 0.18256900692174383
-0.3695051266687435 0.22900490167336413
-0.2576744751844729 0.22900490167336413
-0.14584382370020227 0.08969721741850323
0.0554513489714849 0.08969721741850323
0.32384491253373443 -0.04961046683635768
0.7040691275802546 -0.3746617300976998
1.1961239941110455 -0.4210976248493201
1.7329111212355446 -0.6997129933590419
2.2696982483600436 -0.7925847828622825
2.717020854297126 -0.9318924671171435
3.0525128087499382 -1.1176360461236245
2.9406821572656674 -1.164071940875245
2.6051902028128557 -1.303379625130106
2.0236708150946483 -1.3962514146333465
1.3303207758921702 -1.5355590988882073
0.7488013881739629 -1.6748667831430684
0.010719088377776641 -1.8141744673979292
-0.7497293417152637 -1.7213026778946885
-1.48781164151145 -1.4891232041365872
-2.0693310292296574 -0.9783283618687637
-2.337724592791907 -0.4210976248493201
-2.3153584624950527 0.4147484806798453
-2.203527811010782 1.0648510072025297
-2.0022326383390947 1.6685176389735936
-1.7785713353705537 1.7149535337252138
-1.510177771808304 1.5292099547187326
-1.3536148597303252 1.1112869019541498
-1.2417842082460546 0.6469279544379468
-1.1746858173554922 0.2754407964249844
-1.1970519476523462 0.13613311217012353
-1.1970519476523462 -0.09604636158797798
-1.1075874264649297 -0.1889181510912186
-1.0628551658712215 -0.2817899405944592
-0.973390644683805 -0.1889181510912186
-0.9510245143869509 -0.1889181510912186
-0.8615599931995344 -0.1424822563395983
-0.8168277326058261 -0.1889181510912186
-0.8168277326058261 -0.1424822563395983
-0.8615599931995344 -0.2353540458428389
-0.8839261234963884 -0.2817899405944592
-0.9286583840900967 -0.4210976248493201
-0.9510245143869509 -0.3746617300976998
-0.9286583840900967 -0.5139694143525607
-0.9510245143869509 -0.4210976248493201
-0.9957567749806592 -0.4210976248493201
-1.0181229052775134 -0.4210976248493201
-0.973390644683805 -0.1424822563395983
-0.9062922537932426 -0.1889181510912186
-0.8839261234963884 -0.04961046683635768
-0.8615599931995344 -0.09604636158797798
-0.8391938629026803 -0.09604636158797798
-0.9286583840900967 -0.1424822563395983
-0.9062922537932426 -0.1424822563395983
-0.9510245143869509 -0.2817899405944592
-1.0181229052775134 -0.2817899405944592
-1.0404890355743674 -0.3746617300976998
-1.0404890355743674 -0.2817899405944592
-1.0628551658712215 -0.1424822563395983
-1.0628551658712215 -0.0031745720847373825
-0.9957567749806592 -0.1889181510912186
-0.973390644683805 -0.04961046683635768
-0.9510245143869509 -0.0031745720847373825
-0.973390644683805 -0.04961046683635768
-1.0404890355743674 -0.09604636158797798
-1.0628551658712215 -0.1889181510912186
-1.0852212961680756 -0.2817899405944592
-1.152319687058638 -0.3746617300976998
-1.129953556761784 -0.3282258353460795
-1.152319687058638 -0.3282258353460795
-1.2194180779492003 -0.3746617300976998
-1.152319687058638 -0.2817899405944592
-1.0852212961680756 -0.1889181510912186
-1.1075874264649297 -0.1889181510912186
-1.129953556761784 -0.2353540458428389
-1.129953556761784 -0.1889181510912186
-1.1970519476523462 -0.2817899405944592
-1.1970519476523462 -0.2817899405944592
-1.2865164688397628 -0.3282258353460795
-1.2641503385429087 -0.3746617300976998
-1.2641503385429087 -0.4210976248493201
-1.3088825991366169 -0.4675335196009404
-1.3536148597303252 -0.3746617300976998
-1.2865164688397628 -0.2817899405944592
-1.3088825991366169 -0.1424822563395983
-1.2417842082460546 -0.1889181510912186
-1.2194180779492003 -0.1424822563395983
-1.2417842082460546 -0.2817899405944592
-1.3088825991366169 -0.3746617300976998
-1.3536148597303252 -0.4675335196009404
-1.3536148597303252 -0.3746617300976998
-1.4430793809177418 -0.4675335196009404
-1.4430793809177418 -0.3282258353460795
-1.4430793809177418 -0.4210976248493201
-1.4430793809177418 -0.3746617300976998
-1.3983471203240334 -0.2353540458428389
-1.4207132506208875 -0.2353540458428389
-1.3312487294334712 -0.2817899405944592
-1.2865164688397628 -0.3282258353460795
-1.2641503385429087 -0.3282258353460795
-1.2641503385429087 -0.4210976248493201
-1.2865164688397628 -0.4210976248493201
-1.2641503385429087 -0.5139694143525607
-1.3088825991366169 -0.5604053091041811
-1.3088825991366169 -0.5604053091041811
-1.2865164688397628 -0.5139694143525607
-1.2417842082460546 -0.4210976248493201
-1.1970519476523462 -0.3746617300976998
-1.1075874264649297 -0.3282258353460795
-1.0404890355743674 -0.2353540458428389
-0.973390644683805 -0.2817899405944592
-0.9510245143869509 -0.3746617300976998
-0.8839261234963884 -0.3746617300976998
-0.9062922537932426 -0.4675335196009404
-0.8391938629026803 -0.6068412038558013
-0.794461602308972 -0.6532770986074217
-0.7497293417152637 -0.6532770986074217
-0.6378986902309931 -0.6997129933590419
-0.5708002993404308 -0.4675335196009404
-0.45896964785616007 -0.4675335196009404
-0.28004060548132703 -0.4210976248493201
-0.1905760842939105 -0.3746617300976998
-0.07874543280963987 -0.3282258353460795
-0.056379302512785744 -0.3282258353460795
-0.011647041919077486 -0.4675335196009404
0.03308521867463077 -0.6068412038558013
0.010719088377776641 -0.6997129933590419
0.0554513489714849 -0.6532770986074217
0.10018360956519315 -0.6068412038558013
0.0554513489714849 -0.5604053091041811
0.18964813075260967 -0.4675335196009404
0.2567465216431721 -0.3746617300976998
0.27911265194002616 -0.2353540458428389
0.27911265194002616 -0.1424822563395983
0.3014787822368803 -0.1424822563395983
0.27911265194002616 -0.09604636158797798
0.2567465216431721 -0.3282258353460795
0.2343803913463179 -0.2817899405944592
0.18964813075260967 -0.3282258353460795
0.18964813075260967 -0.3282258353460795
0.14491587015890142 -0.3282258353460795
0.03308521867463077 -0.3282258353460795
0.07781747926833903 -0.1889181510912186
0.0554513489714849 -0.1889181510912186
0.14491587015890142 -0.0031745720847373825
0.12254973986204729 -0.04961046683635768
0.16728200045575553 0.04326132266688292
0.07781747926833903 -0.0031745720847373825
0.0554513489714849 -0.0031745720847373825
0.010719088377776641 -0.09604636158797798
-0.034013172215931614 -0.1424822563395983
-0.07874543280963987 -0.1889181510912186
-0.101111563106494 -0.2353540458428389
-0.12347769340334813 -0.2353540458428389
-0.14584382370020227 -0.04961046683635768
-0.07874543280963987 -0.1424822563395983
-0.07874543280963987 0.04326132266688292
-0.034013172215931614 0.08969721741850323
-0.034013172215931614 0.08969721741850323
-0.056379302512785744 -0.0031745720847373825
-0.07874543280963987 -0.04961046683635768
-0.16820995399705638 -0.1889181510912186
-0.1905760842939105 -0.2353540458428389
-0.1905760842939105 -0.2817899405944592
-0.2576744751844729 -0.3746617300976998
-0.23530834488761876 -0.3746617300976998
-0.23530834488761876 -0.2817899405944592
-0.21294221459076465 -0.2817899405944592
-0.14584382370020227 -0.2353540458428389
-0.14584382370020227 -0.04961046683635768
-0.101111563106494 -0.04961046683635768
-0.14584382370020227 -0.09604636158797798
-0.101111563106494 -0.1424822563395983
-0.14584382370020227 -0.2353540458428389
-0.21294221459076465 -0.2353540458428389
-0.28004060548132703 -0.3746617300976998
-0.21294221459076465 -0.3282258353460795
-0.21294221459076465 -0.3282258353460795
-0.21294221459076465 -0.2353540458428389
-0.1905760842939105 -0.1424822563395983
-0.14584382370020227 -0.09604636158797798
-0.07874543280963987 0.04326132266688292
-0.056379302512785744 -0.1424822563395983
-0.101111563106494 -0.1424822563395983
-0.101111563106494 -0.1424822563395983
-0.056379302512785744 -0.1424822563395983
-0.16820995399705638 -0.2353540458428389
-0.12347769340334813 -0.3282258353460795
-0.14584382370020227 -0.2817899405944592
-0.23530834488761876 -0.3282258353460795
-0.21294221459076465 -0.1889181510912186
-0.14584382370020227 -0.09604636158797798
-0.12347769340334813 -0.09604636158797798
-0.034013172215931614 -0.04961046683635768
0.0554513489714849 -0.0031745720847373825
0.07781747926833903 -0.0031745720847373825
0.07781747926833903 0.08969721741850323
0.14491587015890142 -0.0031745720847373825
0.12254973986204729 0.08969721741850323
0.12254973986204729 -0.09604636158797798
0.12254973986204729 -0.0031745720847373825
0.12254973986204729 0.13613311217012353
0.2120142610494638 0.13613311217012353
0.2120142610494638 0.18256900692174383
0.2567465216431721 0.22900490167336413
0.3014787822368803 0.368312585928225
0.34621104283058857 0.22900490167336413
0.32384491253373443 0.18256900692174383
0.32384491253373443 -0.0031745720847373825
0.39094330342429684 -0.1424822563395983
0.3685771731274427 -0.1889181510912186
0.3014787822368803 -0.2817899405944592
0.27911265194002616 -0.3746617300976998
0.16728200045575553 -0.3282258353460795
0.14491587015890142 -0.5139694143525607
0.10018360956519315 -0.4675335196009404
0.10018360956519315 -0.4675335196009404
0.10018360956519315 -0.4675335196009404
0.0554513489714849 -0.4210976248493201
0.0554513489714849 -0.3282258353460795
-0.034013172215931614 -0.3746617300976998
-0.14584382370020227 -0.4210976248493201
-0.1905760842939105 -0.3282258353460795
-0.30240673577818117 -0.2817899405944592
-0.3695051266687435 -0.2817899405944592
-0.3471389963718894 -0.3746617300976998
-0.3695051266687435 -0.2817899405944592
-0.3471389963718894 -0.2817899405944592
-0.3695051266687435 -0.1424822563395983
-0.43660351755930593 0.04326132266688292
-0.43660351755930593 -0.04961046683635768
-0.45896964785616007 -0.04961046683635768
-0.43660351755930593 -0.1424822563395983
-0.43660351755930593 -0.1889181510912186
-0.45896964785616007 -0.2817899405944592
-0.4142373872624518 -0.3746617300976998
-0.4813357781530142 -0.3746617300976998
-0.4813357781530142 -0.4210976248493201
-0.4142373872624518 -0.2817899405944592
-0.39187125696559766 -0.2353540458428389
-0.39187125696559766 -0.1889181510912186
-0.3247728660750353 -0.0031745720847373825
-0.2576744751844729 -0.0031745720847373825
-0.2576744751844729 -0.1424822563395983
-0.28004060548132703 -0.1424822563395983
-0.30240673577818117 -0.1889181510912186
-0.3471389963718894 -0.1889181510912186
-0.39187125696559766 -0.2817899405944592
-0.3695051266687435 -0.2353540458428389
-0.30240673577818117 -0.1424822563395983
-0.101111563106494 -0.09604636158797798
0.10018360956519315 -0.09604636158797798
0.34621104283058857 -0.09604636158797798
0.7264352578771087 -0.1889181510912186
1.1961239941110455 -0.1889181510912186
1.643446600048128 -0.5139694143525607
2.2025998574694814 -0.8390206776139029
2.6051902028128557 -1.0712001513720044
2.873583766375105 -1.349815519881726
3.0077805481562296 -1.4891232041365872
2.7841192451876884 -1.5355590988882073
2.2025998574694814 -1.8141744673979292
1.643446600048128 -1.8606103621495496
1.0171949517362124 -1.90704625690117
0.48040782461171333 -1.95348215165279
-0.07874543280963987 -1.6748667831430684
-0.6826309508247014 -1.4426873093849668
-1.3759809900271793 -1.303379625130106
-1.9351342474485325 -0.8854565723655231
-2.2929923321981986 -0.2353540458428389
-2.2929923321981986 0.4611843754314657
-2.181161680713928 1.0648510072025297
-1.9575003777453865 1.436338165215492
-1.7562052050736996 1.297030480960631
-1.5772761626988665 1.1112869019541498
-1.3536148597303252 0.5540561649347062
-1.1746858173554922 0.4147484806798453
-1.0852212961680756 0.08969721741850323
-0.973390644683805 -0.04961046683635768
-0.9286583840900967 -0.04961046683635768
-0.8839261234963884 -0.1889181510912186
-0.8615599931995344 -0.2353540458428389
-0.9062922537932426 -0.3282258353460795
-0.9510245143869509 -0.3282258353460795
-0.9062922537932426 -0.3746617300976998
-0.9286583840900967 -0.3282258353460795
-0.9286583840900967 -0.2817899405944592
-0.8839261234963884 -0.3282258353460795
-0.8839261234963884 -0.1889181510912186
-0.8615599931995344 -0.1424822563395983
-0.8168277326058261 -0.1889181510912186
-0.8615599931995344 -0.1889181510912186
-0.9286583840900967 -0.2817899405944592
-0.973390644683805 -0.3282258353460795
-0.9957567749806592 -0.2817899405944592
-1.0404890355743674 -0.4675335196009404
-0.973390644683805 -0.5139694143525607
-0.9286583840900967 -0.3282258353460795
-1.0181229052775134 -0.3282258353460795
-1.0404890355743674 -0.2817899405944592
-0.9957567749806592 -0.1889181510912186
-0.9286583840900967 -0.04961046683635768
-0.8615599931995344 -0.0031745720847373825
-0.8839261234963884 -0.1424822563395983
-0.9062922537932426 -0.1889181510912186
-0.9510245143869509 -0.1889181510912186
-1.0181229052775134 -0.2817899405944592
-1.0181229052775134 -0.4675335196009404
-0.9957567749806592 -0.4210976248493201
-1.0852212961680756 -0.4675335196009404
-1.0628551658712215 -0.3282258353460795
-1.0628551658712215 -0.2353540458428389
-0.9957567749806592 -0.1424822563395983
-0.9510245143869509 -0.09604636158797798
-0.9510245143869509 -0.1889181510912186
-0.973390644683805 -0.2353540458428389
-0.9957567749806592 -0.2353540458428389
-1.0628551658712215 -0.3746617300976998
-1.1075874264649297 -0.4210976248493201
-1.129953556761784 -0.5604053091041811
-1.2194180779492003 -0.4675335196009404
-1.1746858173554922 -0.5139694143525607
-1.1746858173554922 -0.4210976248493201
-1.1970519476523462 -0.4210976248493201
-1.152319687058638 -0.3746617300976998
-1.152319687058638 -0.4210976248493201
-1.129953556761784 -0.2817899405944592
-1.0852212961680756 -0.3282258353460795
-1.129953556761784 -0.3746617300976998
-1.2194180779492003 -0.4675335196009404
-1.1970519476523462 -0.4210976248493201
-1.1746858173554922 -0.5139694143525607
-1.2417842082460546 -0.4210976248493201
-1.2417842082460546 -0.3746617300976998
-1.2417842082460546 -0.4675335196009404
-1.2194180779492003 -0.3746617300976998
-1.1746858173554922 -0.2817899405944592
-1.152319687058638 -0.1889181510912186
-1.1746858173554922 -0.2353540458428389
-1.1746858173554922 -0.3282258353460795
-1.2194180779492003 -0.3282258353460795
-1.2641503385429087 -0.4210976248493201
-1.2417842082460546 -0.5139694143525607
-1.2641503385429087 -0.5604053091041811
-1.2641503385429087 -0.5604053091041811
-1.2865164688397628 -0.5604053091041811
-1.3536148597303252 -0.5139694143525607
-1.2641503385429087 -0.4675335196009404
-1.1970519476523462 -0.4210976248493201
-1.1746858173554922 -0.4210976248493201
-1.129953556761784 -0.4210976248493201
-1.129953556761784 -0.3746617300976998
-1.129953556761784 -0.4675335196009404
-1.0852212961680756 -0.4210976248493201
-1.1075874264649297 -0.6532770986074217
-1.0852212961680756 -0.6997129933590419
-1.0628551658712215 -0.7461488881106623
-1.0181229052775134 -0.6532770986074217
-0.9510245143869509 -0.6068412038558013
-0.8615599931995344 -0.5604053091041811
-0.7720954720121178 -0.5139694143525607
-0.7273632114184095 -0.4210976248493201
-0.5931664296372848 -0.4210976248493201
-0.5260680387467225 -0.4210976248493201
-0.43660351755930593 -0.5139694143525607
-0.39187125696559766 -0.6997129933590419
-0.3247728660750353 -0.7925847828622825
-0.28004060548132703 -0.7461488881106623
-0.23530834488761876 -0.7461488881106623
-0.16820995399705638 -0.7925847828622825
-0.056379302512785744 -0.6068412038558013
0.010719088377776641 -0.6997129933590419
0.12254973986204729 -0.6068412038558013
0.2120142610494638 -0.5139694143525607
0.2343803913463179 -0.5604053091041811
0.2343803913463179 -0.6068412038558013
0.27911265194002616 -0.4210976248493201
0.34621104283058857 -0.6532770986074217
0.27911265194002616 -0.6068412038558013
0.32384491253373443 -0.7461488881106623
0.34621104283058857 -0.6532770986074217
0.3014787822368803 -0.6997129933590419
0.34621104283058857 -0.6532770986074217
0.3685771731274427 -0.4675335196009404
0.39094330342429684 -0.4210976248493201
0.34621104283058857 -0.2817899405944592
0.413309433721151 -0.1889181510912186
0.34621104283058857 -0.3282258353460795
0.27911265194002616 -0.3746617300976998
0.2343803913463179 -0.3746617300976998
0.2120142610494638 -0.3282258353460795
0.18964813075260967 -0.4675335196009404
0.18964813075260967 -0.5139694143525607
0.16728200045575553 -0.4210976248493201
0.16728200045575553 -0.2817899405944592
0.14491587015890142 -0.2817899405944592
0.18964813075260967 -0.1424822563395983
0.16728200045575553 -0.1889181510912186
0.16728200045575553 -0.09604636158797798
0.0554513489714849 -0.09604636158797798
0.07781747926833903 -0.2353540458428389
0.0554513489714849 -0.2353540458428389
0.03308521867463077 -0.2817899405944592
0.03308521867463077 -0.2817899405944592
-0.011647041919077486 -0.2353540458428389
0.010719088377776641 -0.2817899405944592
-0.011647041919077486 -0.2817899405944592
0.010719088377776641 -0.2817899405944592
0.0554513489714849 -0.2353540458428389
0.010719088377776641 -0.1889181510912186
0.03308521867463077 -0.1424822563395983
0.0554513489714849 -0.1889181510912186
0.010719088377776641 -0.2353540458428389
0.010719088377776641 -0.3282258353460795
-0.056379302512785744 -0.3746617300976998
-0.056379302512785744 -0.5139694143525607
-0.07874543280963987 -0.6068412038558013
-0.101111563106494 -0.4675335196009404
-0.07874543280963987 -0.3746617300976998
-0.034013172215931614 -0.3282258353460795
-0.056379302512785744 -0.4210976248493201
-0.011647041919077486 -0.2353540458428389
0.010719088377776641 -0.2817899405944592
-0.034013172215931614 -0.3282258353460795
-0.011647041919077486 -0.2817899405944592
-0.056379302512785744 -0.4210976248493201
-0.101111563106494 -0.4210976248493201
-0.07874543280963987 -0.5139694143525607
-0.14584382370020227 -0.5139694143525607
-0.1905760842939105 -0.4675335196009404
-0.14584382370020227 -0.5604053091041811
-0.14584382370020227 -0.4210976248493201
-0.056379302512785744 -0.3746617300976998
-0.011647041919077486 -0.1889181510912186
0.010719088377776641 -0.2353540458428389
-0.011647041919077486 -0.2353540458428389
-0.011647041919077486 -0.3282258353460795
-0.101111563106494 -0.3746617300976998
-0.12347769340334813 -0.3746617300976998
-0.07874543280963987 -0.4675335196009404
-0.07874543280963987 -0.5604053091041811
-0.101111563106494 -0.4675335196009404
-0.056379302512785744 -0.4675335196009404
-0.034013172215931614 -0.2817899405944592
-0.011647041919077486 -0.2353540458428389
0.0554513489714849 -0.2353540458428389
0.14491587015890142 -0.2353540458428389
0.14491587015890142 -0.09604636158797798
0.12254973986204729 -0.1424822563395983
0.12254973986204729 -0.1889181510912186
0.10018360956519315 -0.1889181510912186
0.16728200045575553 -0.2817899405944592
0.18964813075260967 -0.2353540458428389
0.16728200045575553 -0.04961046683635768
0.16728200045575553 -0.04961046683635768
0.2120142610494638 0.04326132266688292
0.27911265194002616 0.08969721741850323
0.32384491253373443 0.18256900692174383
0.39094330342429684 0.08969721741850323
0.413309433721151 0.08969721741850323
0.3685771731274427 0.04326132266688292
0.39094330342429684 -0.1424822563395983
0.39094330342429684 -0.1889181510912186
0.413309433721151 -0.3746617300976998
0.43567556401800506 -0.3746617300976998
0.39094330342429684 -0.3282258353460795
0.39094330342429684 -0.4210976248493201
0.39094330342429684 -0.4675335196009404
0.48040782461171333 -0.5139694143525607
0.39094330342429684 -0.4210976248493201
0.39094330342429684 -0.5139694143525607
0.3685771731274427 -0.5604053091041811
0.32384491253373443 -0.6997129933590419
0.2343803913463179 -0.6997129933590419
0.16728200045575553 -0.8854565723655231
0.12254973986204729 -0.9783283618687637
0.10018360956519315 -0.8854565723655231
0.010719088377776641 -0.7925847828622825
-0.056379302512785744 -0.6532770986074217
-0.034013172215931614 -0.3746617300976998
-0.101111563106494 -0.2817899405944592
-0.16820995399705638 -0.2353540458428389
-0.101111563106494 -0.2353540458428389
-0.14584382370020227 -0.2817899405944592
-0.14584382370020227 -0.4210976248493201
-0.1905760842939105 -0.4210976248493201
-0.2576744751844729 -0.4210976248493201
-0.30240673577818117 -0.5604053091041811
-0.3471389963718894 -0.6068412038558013
-0.3471389963718894 -0.5604053091041811
-0.3695051266687435 -0.5139694143525607
-0.3247728660750353 -0.4210976248493201
-0.2576744751844729 -0.2817899405944592
-0.2576744751844729 -0.3746617300976998
-0.23530834488761876 -0.3282258353460795
-0.1905760842939105 -0.3282258353460795
-0.21294221459076465 -0.3746617300976998
-0.2576744751844729 -0.3746617300976998
-0.30240673577818117 -0.5139694143525607
-0.30240673577818117 -0.5139694143525607
-0.30240673577818117 -0.6532770986074217
-0.30240673577818117 -0.4675335196009404
-0.30240673577818117 -0.4675335196009404
-0.2576744751844729 -0.3746617300976998
-0.16820995399705638 -0.1889181510912186
-0.16820995399705638 -0.1424822563395983
0.010719088377776641 -0.0031745720847373825
0.03308521867463077 -0.1889181510912186
0.16728200045575553 -0.1889181510912186
0.39094330342429684 -0.2817899405944592
0.6817029972834004 -0.5139694143525607
1.0171949517362124 -0.6997129933590419
1.486883687970149 -0.9318924671171435
2.0907692059852105 -1.024764256620384
2.6051902028128557 -1.349815519881726
3.030146678453084 -1.4426873093849668
3.1643434602342086 -1.349815519881726
3.030146678453084 -1.5355590988882073
2.62755633310971 -1.8141744673979292
2.0236708150946483 -1.90704625690117
1.3750530364858784 -2.1392257306592715
0.7264352578771087 -2.2785334149141323
0.03308521867463077 -2.2785334149141323
-0.6155325599341389 -2.1392257306592715
-1.3536148597303252 -1.90704625690117
-1.9575003777453865 -1.3962514146333465
-2.203527811010782 -0.7925847828622825
-2.2258939413076364 0.08969721741850323
-2.0693310292296574 0.8326715334444281
-1.8233035959642618 1.3434663757122514
-1.5772761626988665 1.3899022704638717
-1.3536148597303252 1.1577227967057702
-1.2194180779492003 0.7397997439411874
-1.129953556761784 0.18256900692174383
-1.0852212961680756 -0.1424822563395983
-1.0628551658712215 -0.2817899405944592
-0.9510245143869509 -0.5139694143525607
-0.9062922537932426 -0.4675335196009404
-0.8168277326058261 -0.4675335196009404
-0.7273632114184095 -0.4675335196009404
-0.6602648205278472 -0.3746617300976998
-0.5931664296372848 -0.3746617300976998
-0.5260680387467225 -0.3282258353460795
-0.5484341690435766 -0.4210976248493201
-0.5931664296372848 -0.5139694143525607
-0.6602648205278472 -0.4210976248493201
-0.6826309508247014 -0.6532770986074217
-0.7049970811215555 -0.6997129933590419
-0.7049970811215555 -0.6532770986074217
-0.7049970811215555 -0.5604053091041811
-0.6826309508247014 -0.5139694143525607
-0.6602648205278472 -0.4675335196009404
-0.5931664296372848 -0.4210976248493201
-0.5484341690435766 -0.3746617300976998
-0.5708002993404308 -0.3282258353460795
-0.5931664296372848 -0.2817899405944592
-0.6378986902309931 -0.3282258353460795
-0.7049970811215555 -0.4210976248493201
-0.7049970811215555 -0.4675335196009404
-0.7497293417152637 -0.6532770986074217
-0.794461602308972 -0.6532770986074217
-0.794461602308972 -0.6068412038558013
-0.8168277326058261 -0.5139694143525607
-0.7497293417152637 -0.3746617300976998
-0.7273632114184095 -0.4210976248493201
-0.7720954720121178 -0.3282258353460795
-0.7273632114184095 -0.3282258353460795
-0.6378986902309931 -0.3282258353460795
-0.6826309508247014 -0.3746617300976998
-0.6826309508247014 -0.4210976248493201
-0.7497293417152637 -0.4675335196009404
-0.7720954720121178 -0.5139694143525607
-0.8168277326058261 -0.5604053091041811
-0.8615599931995344 -0.6532770986074217
-0.8391938629026803 -0.4675335196009404
-0.794461602308972 -0.3746617300976998
-0.8391938629026803 -0.4675335196009404
-0.7720954720121178 -0.3282258353460795
-0.7497293417152637 -0.4210976248493201
-0.7497293417152637 -0.4675335196009404
-0.7273632114184095 -0.4210976248493201
-0.7720954720121178 -0.5604053091041811
-0.794461602308972 -0.6532770986074217
-0.8615599931995344 -0.6532770986074217
-0.8615599931995344 -0.6532770986074217
-0.9510245143869509 -0.6532770986074217
-0.9957567749806592 -0.5139694143525607
-0.9510245143869509 -0.6068412038558013
-0.9957567749806592 -0.5139694143525607
-0.973390644683805 -0.4675335196009404
-0.973390644683805 -0.4675335196009404
-0.973390644683805 -0.4210976248493201
-0.973390644683805 -0.5139694143525607
-0.9510245143869509 -0.6997129933590419
-1.0181229052775134 -0.6068412038558013
-1.0628551658712215 -0.6532770986074217
-1.0852212961680756 -0.8390206776139029
-1.0628551658712215 -0.7461488881106623
-1.0404890355743674 -0.6997129933590419
-0.9957567749806592 -0.6532770986074217
-0.9957567749806592 -0.6068412038558013
-0.8839261234963884 -0.5604053091041811
-0.9062922537932426 -0.5604053091041811
-0.8391938629026803 -0.6532770986074217
-0.8839261234963884 -0.6997129933590419
-0.9062922537932426 -0.8854565723655231
-0.9062922537932426 -0.8854565723655231
-0.9286583840900967 -0.9318924671171435
-0.9510245143869509 -1.024764256620384
-0.8391938629026803 -0.8854565723655231
-0.8615599931995344 -0.8854565723655231
-0.794461602308972 -0.7925847828622825
-0.7497293417152637 -0.6997129933590419
-0.6602648205278472 -0.7461488881106623
-0.5708002993404308 -0.7461488881106623
-0.5708002993404308 -0.6997129933590419
-0.45896964785616007 -0.7461488881106623
-0.39187125696559766 -0.9318924671171435
-0.3695051266687435 -0.9318924671171435
-0.28004060548132703 -1.024764256620384
-0.23530834488761876 -1.0712001513720044
-0.1905760842939105 -1.024764256620384
-0.07874543280963987 -0.9318924671171435
0.0554513489714849 -0.8854565723655231
0.14491587015890142 -0.8390206776139029
0.2567465216431721 -0.7925847828622825
0.3685771731274427 -0.7461488881106623
0.413309433721151 -0.7461488881106623
0.4580416943148592 -0.7461488881106623
0.48040782461171333 -0.7925847828622825
0.5251400852054215 -0.8854565723655231
0.5475062155022757 -0.9318924671171435
0.5698723457991298 -0.9318924671171435
0.5698723457991298 -0.8390206776139029
0.592238476095984 -0.7925847828622825
0.6369707366896923 -0.6532770986074217
0.6817029972834004 -0.7461488881106623
0.6817029972834004 -0.6532770986074217
0.7040691275802546 -0.4675335196009404
0.7264352578771087 -0.5604053091041811
0.7040691275802546 -0.5139694143525607
0.6146046063928381 -0.6068412038558013
0.592238476095984 -0.5604053091041811
0.6146046063928381 -0.6532770986074217
0.5027739549085675 -0.6532770986074217
0.4580416943148592 -0.6068412038558013
0.48040782461171333 -0.6997129933590419
0.4580416943148592 -0.4675335196009404
0.39094330342429684 -0.4675335196009404
0.3685771731274427 -0.5139694143525607
0.413309433721151 -0.3282258353460795
0.413309433721151 -0.3746617300976998
0.413309433721151 -0.5139694143525607
0.39094330342429684 -0.5139694143525607
0.3685771731274427 -0.6068412038558013
0.27911265194002616 -0.6997129933590419
0.27911265194002616 -0.6068412038558013
0.2343803913463179 -0.5604053091041811
0.2120142610494638 -0.5139694143525607
0.2343803913463179 -0.5139694143525607
0.2120142610494638 -0.4675335196009404
0.2343803913463179 -0.3746617300976998
0.2120142610494638 -0.3746617300976998
0.16728200045575553 -0.3282258353460795
0.2120142610494638 -0.5604053091041811
0.18964813075260967 -0.6532770986074217
0.12254973986204729 -0.6997129933590419
0.16728200045575553 -0.7925847828622825
0.14491587015890142 -0.7461488881106623
0.12254973986204729 -0.6532770986074217
0.14491587015890142 -0.6997129933590419
0.14491587015890142 -0.5604053091041811
0.16728200045575553 -0.6068412038558013
0.18964813075260967 -0.4210976248493201
0.2120142610494638 -0.4675335196009404
0.16728200045575553 -0.4210976248493201
0.14491587015890142 -0.5604053091041811
0.12254973986204729 -0.6532770986074217
0.10018360956519315 -0.6997129933590419
0.12254973986204729 -0.7461488881106623
0.10018360956519315 -0.6997129933590419
0.07781747926833903 -0.6532770986074217
0.10018360956519315 -0.6532770986074217
0.12254973986204729 -0.6997129933590419
0.12254973986204729 -0.5139694143525607
0.10018360956519315 -0.4675335196009404
0.18964813075260967 -0.3746617300976998
0.2120142610494638 -0.5604053091041811
0.18964813075260967 -0.5604053091041811
0.18964813075260967 -0.6997129933590419
0.14491587015890142 -0.6997129933590419
0.12254973986204729 -0.8390206776139029
0.18964813075260967 -0.7925847828622825
0.16728200045575553 -0.7461488881106623
0.18964813075260967 -0.7461488881106623
0.18964813075260967 -0.6068412038558013
0.2567465216431721 -0.5604053091041811
0.3014787822368803 -0.4675335196009404
0.413309433721151 -0.4210976248493201
0.43567556401800506 -0.3746617300976998
0.43567556401800506 -0.3746617300976998
0.5027739549085675 -0.3746617300976998
0.4580416943148592 -0.4210976248493201
0.4580416943148592 -0.4210976248493201
0.48040782461171333 -0.3746617300976998
0.48040782461171333 -0.3746617300976998
0.48040782461171333 -0.4210976248493201
0.48040782461171333 -0.1889181510912186
0.5027739549085675 -0.2353540458428389
0.5251400852054215 -0.2817899405944592
0.5251400852054215 -0.1889181510912186
0.6146046063928381 -0.1889181510912186
0.6593368669865464 -0.3746617300976998
0.7040691275802546 -0.5604053091041811
0.7040691275802546 -0.6997129933590419
0.6369707366896923 -0.7925847828622825
0.592238476095984 -0.9783283618687637
0.5251400852054215 -0.8854565723655231
0.4580416943148592 -0.9783283618687637
0.413309433721151 -0.9783283618687637
0.5027739549085675 -1.024764256620384
0.48040782461171333 -1.024764256620384
0.43567556401800506 -1.0712001513720044
0.34621104283058857 -1.024764256620384
0.34621104283058857 -1.024764256620384
0.2343803913463179 -0.9783283618687637
0.14491587015890142 -1.024764256620384
0.07781747926833903 -0.9318924671171435
-0.056379302512785744 -0.8854565723655231
-0.07874543280963987 -0.9318924671171435
-0.07874543280963987 -0.8390206776139029
-0.12347769340334813 -0.7925847828622825
-0.12347769340334813 -0.6532770986074217
-0.101111563106494 -0.6532770986074217
-0.056379302512785744 -0.6997129933590419
-0.056379302512785744 -0.7461488881106623
-0.07874543280963987 -0.6997129933590419
-0.101111563106494 -0.7925847828622825
-0.056379302512785744 -0.8854565723655231
-0.12347769340334813 -0.9318924671171435
-0.16820995399705638 -1.024764256620384
-0.23530834488761876 -0.8854565723655231
-0.1905760842939105 -0.9318924671171435
-0.1905760842939105 -0.7461488881106623
-0.12347769340334813 -0.6532770986074217
-0.07874543280963987 -0.6068412038558013
-0.056379302512785744 -0.4675335196009404
-0.056379302512785744 -0.5139694143525607
-0.034013172215931614 -0.6068412038558013
-0.034013172215931614 -0.7461488881106623
-0.056379302512785744 -0.6532770986074217
-0.07874543280963987 -0.6068412038558013
-0.034013172215931614 -0.6997129933590419
0.010719088377776641 -0.6068412038558013
0.18964813075260967 -0.6068412038558013
0.4580416943148592 -0.5604053091041811
0.8382659093613793 -0.5604053091041811
1.2408562547047537 -0.6532770986074217
1.7552772515323987 -0.8854565723655231
2.2249659877663355 -1.2105078356268653
2.7393869845939802 -1.4426873093849668
3.1196111996405005 -1.7677385726463088
3.2538079814216254 -1.90704625690117
3.1643434602342086 -2.092789835907651
2.7841192451876884 -2.1856616254108916
2.2249659877663355 -2.4642769939206133
1.5316159485638574 -2.4642769939206133
0.9277304305487959 -2.6035846781754746
0.34621104283058857 -2.4642769939206133
-0.3695051266687435 -2.3249693096657524
-1.0404890355743674 -1.90704625690117
-1.666740683886283 -1.5355590988882073
-1.9351342474485325 -0.7925847828622825
-1.9798665080422408 -0.09604636158797798
-1.9575003777453865 0.4611843754314657
-1.7562052050736996 0.8326715334444281
-1.5772761626988665 0.8326715334444281
-1.3536148597303252 0.5540561649347062
-1.1075874264649297 0.22900490167336413
-0.9957567749806592 -0.1889181510912186
-0.8615599931995344 -0.3282258353460795
-0.7497293417152637 -0.3746617300976998
-0.6826309508247014 -0.5139694143525607
-0.5931664296372848 -0.5139694143525607
-0.5484341690435766 -0.7461488881106623
-0.5484341690435766 -0.6997129933590419
-0.5708002993404308 -0.7925847828622825
-0.5931664296372848 -0.7925847828622825
-0.5708002993404308 -0.8854565723655231
-0.5708002993404308 -0.7461488881106623
-0.6155325599341389 -0.8390206776139029
-0.5708002993404308 -0.7925847828622825
-0.4813357781530142 -0.6997129933590419
-0.5484341690435766 -0.6068412038558013
-0.5260680387467225 -0.5604053091041811
-0.4813357781530142 -0.5604053091041811
-0.5037019084498683 -0.7461488881106623
-0.5484341690435766 -0.6532770986074217
-0.5484341690435766 -0.7461488881106623
-0.5708002993404308 -0.8390206776139029
-0.6378986902309931 -0.9783283618687637
-0.6602648205278472 -0.8390206776139029
-0.6155325599341389 -0.7925847828622825
-0.5931664296372848 -0.8390206776139029
-0.5484341690435766 -0.7461488881106623
-0.5260680387467225 -0.6532770986074217
-0.4813357781530142 -0.5604053091041811
-0.5260680387467225 -0.6068412038558013
-0.5260680387467225 -0.6997129933590419
-0.6155325599341389 -0.7461488881106623
-0.6155325599341389 -0.8854565723655231
-0.6378986902309931 -0.9318924671171435
-0.7049970811215555 -1.024764256620384
-0.7497293417152637 -1.024764256620384
-0.7273632114184095 -1.024764256620384
-0.7273632114184095 -0.8390206776139029
-0.7049970811215555 -0.7925847828622825
-0.6155325599341389 -0.7925847828622825
-0.6378986902309931 -0.6532770986074217
-0.5931664296372848 -0.8390206776139029
-0.6602648205278472 -0.7461488881106623
-0.6378986902309931 -0.8390206776139029
-0.6826309508247014 -0.8854565723655231
-0.7273632114184095 -0.9783283618687637
-0.7720954720121178 -1.0712001513720044
-0.8391938629026803 -1.024764256620384
-0.8615599931995344 -1.024764256620384
-0.794461602308972 -0.8854565723655231
-0.794461602308972 -0.7925847828622825
-0.7049970811215555 -0.7461488881106623
-0.6826309508247014 -0.6532770986074217
-0.6826309508247014 -0.8854565723655231
-0.6826309508247014 -0.6997129933590419
-0.7273632114184095 -0.9783283618687637
-0.7497293417152637 -0.8854565723655231
-0.794461602308972 -1.0712001513720044
-0.794461602308972 -0.9783283618687637
-0.8391938629026803 -0.9783283618687637
-0.8168277326058261 -1.024764256620384
-0.8168277326058261 -0.8854565723655231
-0.794461602308972 -0.8390206776139029
-0.7273632114184095 -0.7925847828622825
-0.7273632114184095 -0.7461488881106623
-0.7273632114184095 -0.7925847828622825
-0.7720954720121178 -0.8854565723655231
-0.7720954720121178 -0.9318924671171435
-0.9062922537932426 -0.9783283618687637
-0.8839261234963884 -1.0712001513720044
-0.9062922537932426 -1.164071940875245
-0.794461602308972 -1.1176360461236245
-0.794461602308972 -1.2105078356268653
-0.7497293417152637 -1.024764256620384
-0.7497293417152637 -1.1176360461236245
-0.7049970811215555 -0.9318924671171435
-0.6155325599341389 -0.9318924671171435
-0.6155325599341389 -1.024764256620384
-0.6155325599341389 -1.0712001513720044
-0.5931664296372848 -1.024764256620384
-0.6378986902309931 -1.1176360461236245
-0.6378986902309931 -1.2569437303784856
-0.5260680387467225 -1.2569437303784856
-0.5037019084498683 -1.303379625130106
-0.43660351755930593 -1.2105078356268653
-0.39187125696559766 -1.2569437303784856
-0.30240673577818117 -1.1176360461236245
-0.2576744751844729 -1.024764256620384
-0.14584382370020227 -0.9783283618687637
-0.07874543280963987 -0.9783283618687637
-0.056379302512785744 -1.024764256620384
0.03308521867463077 -1.1176360461236245
0.0554513489714849 -1.164071940875245
0.16728200045575553 -1.2569437303784856
0.27911265194002616 -1.303379625130106
0.34621104283058857 -1.303379625130106
0.4580416943148592 -1.303379625130106
0.5251400852054215 -1.2105078356268653
0.6369707366896923 -1.1176360461236245
0.7040691275802546 -0.9318924671171435
0.7264352578771087 -0.9318924671171435
0.7488013881739629 -0.9783283618687637
0.8382659093613793 -1.0712001513720044
0.7488013881739629 -1.024764256620384
0.8158997790645253 -1.1176360461236245
0.7935336487676712 -1.164071940875245
0.771167518470817 -1.1176360461236245
0.7488013881739629 -1.1176360461236245
0.7040691275802546 -0.9783283618687637
0.7264352578771087 -0.9318924671171435
0.7040691275802546 -0.8854565723655231
0.7935336487676712 -0.7461488881106623
0.6817029972834004 -0.6532770986074217
0.7488013881739629 -0.7925847828622825
0.7264352578771087 -0.6997129933590419
0.6817029972834004 -0.7925847828622825
0.6146046063928381 -0.7925847828622825
0.5698723457991298 -1.024764256620384
0.5475062155022757 -0.9783283618687637
0.5027739549085675 -0.9318924671171435
0.48040782461171333 -0.9783283618687637
0.5698723457991298 -0.7925847828622825
0.5251400852054215 -0.7461488881106623
0.5475062155022757 -0.6997129933590419
0.5475062155022757 -0.6997129933590419
0.5027739549085675 -0.6068412038558013
0.48040782461171333 -0.6532770986074217
0.48040782461171333 -0.6997129933590419
0.3685771731274427 -0.7925847828622825
0.3685771731274427 -0.9783283618687637
0.34621104283058857 -0.8390206776139029
0.32384491253373443 -0.8390206776139029
0.34621104283058857 -0.7925847828622825
0.3685771731274427 -0.6532770986074217
0.3685771731274427 -0.6068412038558013
0.34621104283058857 -0.5604053091041811
0.3685771731274427 -0.5604053091041811
0.34621104283058857 -0.6068412038558013
0.3685771731274427 -0.7925847828622825
0.32384491253373443 -0.7461488881106623
0.32384491253373443 -0.8390206776139029
0.2567465216431721 -0.8854565723655231
0.2567465216431721 -0.9783283618687637
0.27911265194002616 -0.9783283618687637
0.3014787822368803 -0.9318924671171435
0.27911265194002616 -0.8390206776139029
0.27911265194002616 -0.6997129933590419
0.2343803913463179 -0.6532770986074217
0.27911265194002616 -0.6068412038558013
0.3014787822368803 -0.8390206776139029
0.32384491253373443 -0.7925847828622825
0.2343803913463179 -0.7925847828622825
0.2343803913463179 -0.8854565723655231
0.2120142610494638 -0.8854565723655231
0.2343803913463179 -0.9783283618687637
0.2343803913463179 -0.9783283618687637
0.2343803913463179 -0.9318924671171435
0.2567465216431721 -0.9318924671171435
0.27911265194002616 -0.8390206776139029
0.3014787822368803 -0.7461488881106623
0.32384491253373443 -0.6532770986074217
0.32384491253373443 -0.7925847828622825
0.2567465216431721 -0.7461488881106623
0.3014787822368803 -0.7461488881106623
0.2120142610494638 -0.8390206776139029
0.2343803913463179 -0.7925847828622825
0.2343803913463179 -0.8854565723655231
0.2120142610494638 -0.9318924671171435
0.2567465216431721 -0.8390206776139029
0.27911265194002616 -0.8390206776139029
0.32384491253373443 -0.7461488881106623
0.413309433721151 -0.6068412038558013
0.48040782461171333 -0.4675335196009404
0.5027739549085675 -0.3746617300976998
0.5698723457991298 -0.4675335196009404
0.5251400852054215 -0.5139694143525607
0.5698723457991298 -0.5139694143525607
0.5475062155022757 -0.5604053091041811
0.48040782461171333 -0.6068412038558013
0.5027739549085675 -0.5139694143525607
0.5251400852054215 -0.5139694143525607
0.5475062155022757 -0.4210976248493201
0.592238476095984 -0.5139694143525607
0.6369707366896923 -0.4210976248493201
0.7488013881739629 -0.4210976248493201
0.8606320396582335 -0.5139694143525607
0.8158997790645253 -0.5604053091041811
0.7935336487676712 -0.6532770986074217
0.7488013881739629 -0.7925847828622825
0.7935336487676712 -0.8854565723655231
0.7040691275802546 -1.024764256620384
0.6369707366896923 -1.1176360461236245
0.592238476095984 -1.024764256620384
0.592238476095984 -1.1176360461236245
0.5251400852054215 -1.1176360461236245
0.5027739549085675 -1.0712001513720044
0.5027739549085675 -1.024764256620384
0.4580416943148592 -1.0712001513720044
0.413309433721151 -1.0712001513720044
0.3685771731274427 -1.0712001513720044
0.27911265194002616 -1.024764256620384
0.16728200045575553 -0.9318924671171435
0.14491587015890142 -0.9783283618687637
0.0554513489714849 -0.9318924671171435
0.0554513489714849 -0.8854565723655231
0.0554513489714849 -0.8390206776139029
0.07781747926833903 -0.6997129933590419
0.07781747926833903 -0.7461488881106623
0.07781747926833903 -0.6532770986074217
0.03308521867463077 -0.7461488881106623
-0.034013172215931614 -0.6997129933590419
-0.07874543280963987 -0.7925847828622825
-0.12347769340334813 -0.7925847828622825
-0.056379302512785744 -0.8854565723655231
-0.12347769340334813 -0.8390206776139029
-0.12347769340334813 -0.8854565723655231
-0.056379302512785744 -0.8854565723655231
-0.034013172215931614 -0.8390206776139029
-0.011647041919077486 -0.7461488881106623
0.03308521867463077 -0.7925847828622825
0.07781747926833903 -0.6997129933590419
0.10018360956519315 -0.6532770986074217
0.07781747926833903 -0.6068412038558013
0.0554513489714849 -0.6997129933590419
0.03308521867463077 -0.7461488881106623
0.0554513489714849 -0.7925847828622825
-0.034013172215931614 -0.7925847828622825
0.010719088377776641 -0.6997129933590419
0.12254973986204729 -0.6997129933590419
0.2567465216431721 -0.5139694143525607
0.4580416943148592 -0.5604053091041811
0.7488013881739629 -0.5604053091041811
1.106659472923629 -0.6068412038558013
1.5316159485638574 -0.8854565723655231
1.97893855450094 -1.2105078356268653
2.4486272907348767 -1.349815519881726
2.873583766375105 -1.628430888391448
3.1419773299373546 -1.8606103621495496
3.2538079814216254 -1.95348215165279
3.030146678453084 -2.2320975201625117
2.493359551328585 -2.371405204417373
1.8671079030166693 -2.510712888672234
1.0395610820330665 -2.557148783423854
0.3685771731274427 -2.510712888672234
-0.45896964785616007 -2.2320975201625117
-1.2641503385429087 -1.8141744673979292
-1.8233035959642618 -1.2105078356268653
-2.0693310292296574 -0.4675335196009404
-2.0022326383390947 0.4147484806798453
-1.8009374656674078 0.7397997439411874
-1.5996422929957206 0.8791074281960484
-1.3088825991366169 0.5540561649347062
-1.0852212961680756 0.22900490167336413
-0.9510245143869509 -0.2353540458428389
-0.794461602308972 -0.5604053091041811
-0.6826309508247014 -0.6532770986074217
-0.5931664296372848 -0.6532770986074217
-0.5260680387467225 -0.6068412038558013
-0.45896964785616007 -0.6997129933590419
-0.45896964785616007 -0.7461488881106623
-0.5037019084498683 -0.7461488881106623
-0.45896964785616007 -0.9318924671171435
-0.5484341690435766 -0.9318924671171435
-0.5484341690435766 -0.8854565723655231
-0.5484341690435766 -0.9318924671171435
-0.5260680387467225 -0.8854565723655231
-0.5037019084498683 -0.7925847828622825
-0.5484341690435766 -0.7461488881106623
-0.4813357781530142 -0.6532770986074217
-0.4813357781530142 -0.6068412038558013
-0.5037019084498683 -0.6997129933590419
-0.5260680387467225 -0.7925847828622825
-0.5037019084498683 -0.8854565723655231
-0.5708002993404308 -0.9783283618687637
-0.5484341690435766 -0.9783283618687637
-0.5708002993404308 -0.9783283618687637
-0.6155325599341389 -0.9318924671171435
-0.5708002993404308 -0.7925847828622825
-0.5484341690435766 -0.7925847828622825
-0.5260680387467225 -0.7925847828622825
-0.5260680387467225 -0.6532770986074217
-0.5484341690435766 -0.7461488881106623
-0.5037019084498683 -0.7461488881106623
-0.5484341690435766 -0.8854565723655231
-0.6602648205278472 -0.9318924671171435
-0.6155325599341389 -0.9783283618687637
-0.6378986902309931 -1.024764256620384
-0.6602648205278472 -0.9318924671171435
-0.6602648205278472 -1.024764256620384
-0.6378986902309931 -0.7461488881106623
-0.5931664296372848 -0.8854565723655231
-0.6602648205278472 -0.6997129933590419
-0.5931664296372848 -0.6997129933590419
-0.5708002993404308 -0.6532770986074217
-0.6155325599341389 -0.7925847828622825
-0.7049970811215555 -0.8854565723655231
-0.7273632114184095 -0.9318924671171435
-0.7273632114184095 -1.0712001513720044
-0.7720954720121178 -1.024764256620384
-0.7497293417152637 -1.024764256620384
-0.7497293417152637 -1.0712001513720044
-0.7049970811215555 -0.9783283618687637
-0.6826309508247014 -0.8854565723655231
-0.6826309508247014 -0.7925847828622825
-0.7049970811215555 -0.7925847828622825
-0.7273632114184095 -0.8854565723655231
-0.7273632114184095 -0.8390206776139029
-0.7720954720121178 -0.8390206776139029
-0.794461602308972 -1.024764256620384
-0.9062922537932426 -1.1176360461236245
-0.8839261234963884 -1.0712001513720044
-0.9062922537932426 -1.1176360461236245
-0.8615599931995344 -1.164071940875245
-0.9062922537932426 -0.9783283618687637
-0.8391938629026803 -0.9318924671171435
-0.794461602308972 -0.8854565723655231
-0.794461602308972 -0.8390206776139029
-0.794461602308972 -0.9783283618687637
-0.7273632114184095 -1.0712001513720044
-0.7497293417152637 -1.1176360461236245
-0.7497293417152637 -1.2569437303784856
-0.7720954720121178 -1.303379625130106
-0.8839261234963884 -1.349815519881726
-0.8391938629026803 -1.349815519881726
-0.8168277326058261 -1.303379625130106
-0.7273632114184095 -1.2569437303784856
-0.6602648205278472 -1.3962514146333465
-0.6378986902309931 -1.1176360461236245
-0.5931664296372848 -1.164071940875245
-0.5037019084498683 -1.2105078356268653
-0.43660351755930593 -1.2569437303784856
-0.4142373872624518 -1.303379625130106
-0.39187125696559766 -1.3962514146333465
-0.3471389963718894 -1.303379625130106
-0.30240673577818117 -1.4426873093849668
-0.28004060548132703 -1.4426873093849668
-0.21294221459076465 -1.4426873093849668
-0.21294221459076465 -1.2569437303784856
-0.034013172215931614 -1.2569437303784856
0.0554513489714849 -1.1176360461236245
0.16728200045575553 -1.0712001513720044
0.27911265194002616 -1.2105078356268653
0.3685771731274427 -1.2105078356268653
0.43567556401800506 -1.303379625130106
0.4580416943148592 -1.349815519881726
0.5251400852054215 -1.303379625130106
0.5475062155022757 -1.3962514146333465
0.592238476095984 -1.349815519881726
0.6593368669865464 -1.303379625130106
0.7040691275802546 -1.2105078356268653
0.6817029972834004 -1.164071940875245
0.7488013881739629 -1.0712001513720044
0.771167518470817 -0.9318924671171435
0.8382659093613793 -0.8854565723655231
0.8158997790645253 -0.9783283618687637
0.7935336487676712 -1.024764256620384
0.7264352578771087 -1.024764256620384
0.6817029972834004 -1.1176360461236245
0.6369707366896923 -1.2105078356268653
0.5251400852054215 -1.164071940875245
0.6146046063928381 -1.1176360461236245
0.6146046063928381 -1.024764256620384
0.6593368669865464 -0.9783283618687637
0.6369707366896923 -0.7461488881106623
0.6817029972834004 -0.7461488881106623
0.5475062155022757 -0.7925847828622825
0.592238476095984 -0.8854565723655231
0.5475062155022757 -0.8854565723655231
0.48040782461171333 -0.8390206776139029
0.413309433721151 -0.9318924671171435
0.39094330342429684 -1.024764256620384
0.34621104283058857 -0.9318924671171435
0.32384491253373443 -0.9318924671171435
0.3685771731274427 -0.8854565723655231
0.34621104283058857 -0.8390206776139029
0.27911265194002616 -0.6997129933590419
0.3685771731274427 -0.6532770986074217
0.413309433721151 -0.6068412038558013
0.3014787822368803 -0.6532770986074217
0.2567465216431721 -0.8390206776139029
0.18964813075260967 -0.8854565723655231
0.16728200045575553 -0.9783283618687637
0.14491587015890142 -0.9318924671171435
0.18964813075260967 -1.024764256620384
0.14491587015890142 -0.9783283618687637
0.2120142610494638 -0.9318924671171435
0.16728200045575553 -0.7925847828622825
0.2343803913463179 -0.7925847828622825
0.2567465216431721 -0.7461488881106623
0.3014787822368803 -0.7461488881106623
0.2120142610494638 -0.9318924671171435
0.27911265194002616 -0.9783283618687637
0.18964813075260967 -1.024764256620384
0.18964813075260967 -1.2105078356268653
0.14491587015890142 -1.164071940875245
0.12254973986204729 -1.164071940875245
0.14491587015890142 -1.1176360461236245
0.10018360956519315 -1.024764256620384
0.10018360956519315 -0.9783283618687637
0.10018360956519315 -0.9783283618687637
0.03308521867463077 -0.9318924671171435
0.07781747926833903 -0.7925847828622825
0.0554513489714849 -0.9783283618687637
0.07781747926833903 -0.8854565723655231
0.03308521867463077 -0.9783283618687637
0.03308521867463077 -0.9318924671171435
0.010719088377776641 -1.024764256620384
0.07781747926833903 -0.8854565723655231
0.12254973986204729 -1.0712001513720044
0.14491587015890142 -0.9318924671171435
0.18964813075260967 -0.8390206776139029
0.2343803913463179 -0.6997129933590419
0.27911265194002616 -0.6997129933590419
0.3685771731274427 -0.6532770986074217
0.32384491253373443 -0.6997129933590419
0.3685771731274427 -0.7925847828622825
0.3685771731274427 -0.7925847828622825
0.3685771731274427 -0.7925847828622825
0.39094330342429684 -0.6997129933590419
0.39094330342429684 -0.7461488881106623
0.43567556401800506 -0.5604053091041811
0.48040782461171333 -0.6068412038558013
0.5027739549085675 -0.4675335196009404
0.5251400852054215 -0.5139694143525607
0.5475062155022757 -0.3746617300976998
0.5475062155022757 -0.4210976248493201
0.5475062155022757 -0.6068412038558013
0.5475062155022757 -0.6997129933590419
0.592238476095984 -0.7461488881106623
0.6146046063928381 -0.8390206776139029
0.6146046063928381 -0.9783283618687637
0.6369707366896923 -1.1176360461236245
0.6369707366896923 -1.024764256620384
0.5251400852054215 -0.9783283618687637
0.5251400852054215 -0.9783283618687637
0.5027739549085675 -1.1176360461236245
0.48040782461171333 -0.9783283618687637
0.48040782461171333 -1.0712001513720044
0.4580416943148592 -1.2569437303784856
0.39094330342429684 -1.3962514146333465
0.3014787822368803 -1.349815519881726
0.27911265194002616 -1.4426873093849668
0.2343803913463179 -1.3962514146333465
0.2120142610494638 -1.349815519881726
0.14491587015890142 -1.349815519881726
0.12254973986204729 -1.164071940875245
0.14491587015890142 -1.024764256620384
0.0554513489714849 -0.8854565723655231
0.03308521867463077 -0.7461488881106623
0.0554513489714849 -0.7461488881106623
-0.011647041919077486 -0.6997129933590419
-0.056379302512785744 -0.8390206776139029
-0.056379302512785744 -0.9783283618687637
-0.07874543280963987 -1.0712001513720044
-0.16820995399705638 -0.9783283618687637
-0.16820995399705638 -1.024764256620384
-0.16820995399705638 -1.024764256620384
-0.12347769340334813 -0.9783283618687637
-0.07874543280963987 -0.8854565723655231
-0.101111563106494 -0.9783283618687637
-0.056379302512785744 -0.7925847828622825
-0.07874543280963987 -0.8854565723655231
-0.07874543280963987 -0.8390206776139029
-0.12347769340334813 -0.8854565723655231
-0.101111563106494 -0.8390206776139029
-0.101111563106494 -1.024764256620384
-0.101111563106494 -1.024764256620384
-0.101111563106494 -1.0712001513720044
-0.07874543280963987 -1.024764256620384
-0.14584382370020227 -0.9783283618687637
-0.056379302512785744 -0.7925847828622825
-0.07874543280963987 -0.6532770986074217
-0.07874543280963987 -0.5139694143525607
0.010719088377776641 -0.5139694143525607
0.10018360956519315 -0.5604053091041811
0.27911265194002616 -0.6068412038558013
0.48040782461171333 -0.6997129933590419
0.8606320396582335 -0.9318924671171435
1.2632223850016078 -1.1176360461236245
1.7552772515323987 -1.2105078356268653
2.2696982483600436 -1.349815519881726
2.8064853754845425 -1.349815519881726
3.1867095905310627 -1.4891232041365872
3.3209063723121877 -1.4891232041365872
3.2761741117184795 -1.4426873093849668
2.9183160269688133 -1.4891232041365872
2.2920643786568977 -1.5355590988882073
1.621080469751274 -1.5819949936398277
0.9277304305487959 -1.4891232041365872
0.3685771731274427 -1.4426873093849668
-0.2576744751844729 -1.2569437303784856
-0.8615599931995344 -0.9318924671171435
-1.4207132506208875 -0.4210976248493201
-1.666740683886283 0.368312585928225
-1.6220084232925747 1.2041586914573905
-1.5325439021051581 1.9935689022349357
-1.4430793809177418 2.64367142875762
-1.3312487294334712 2.64367142875762
-1.2865164688397628 2.086440691738176
-1.2417842082460546 1.3434663757122514
-1.1970519476523462 0.507620270183086
-1.0404890355743674 -0.1424822563395983
-0.9957567749806592 -0.6532770986074217
-0.8615599931995344 -0.7461488881106623
-0.6378986902309931 -0.9318924671171435
-0.5484341690435766 -0.8390206776139029
-0.4813357781530142 -0.7925847828622825
-0.45896964785616007 -0.8390206776139029
-0.43660351755930593 -0.6997129933590419
-0.39187125696559766 -0.6532770986074217
-0.43660351755930593 -0.8390206776139029
-0.43660351755930593 -0.8854565723655231
-0.5708002993404308 -0.8854565723655231
-0.5708002993404308 -1.024764256620384
-0.5708002993404308 -1.1176360461236245
-0.5931664296372848 -1.1176360461236245
-0.5931664296372848 -1.0712001513720044
-0.5708002993404308 -1.0712001513720044
-0.5260680387467225 -0.9783283618687637
-0.5708002993404308 -0.8854565723655231
-0.5931664296372848 -0.8854565723655231
-0.5037019084498683 -1.024764256620384
-0.5260680387467225 -0.9783283618687637
-0.5484341690435766 -1.0712001513720044
-0.5708002993404308 -1.2105078356268653
-0.5484341690435766 -1.164071940875245
-0.6155325599341389 -1.164071940875245
-0.6155325599341389 -1.164071940875245
-0.5931664296372848 -1.1176360461236245
-0.6155325599341389 -1.2105078356268653
-0.5931664296372848 -0.9783283618687637
-0.5708002993404308 -0.9783283618687637
-0.5260680387467225 -0.9783283618687637
-0.45896964785616007 -1.024764256620384
-0.45896964785616007 -0.9783283618687637
-0.43660351755930593 -1.024764256620384
-0.5260680387467225 -1.1176360461236245
-0.5260680387467225 -1.164071940875245
-0.6378986902309931 -1.2569437303784856
-0.6826309508247014 -1.2569437303784856
-0.6602648205278472 -1.2105078356268653
-0.7273632114184095 -1.164071940875245
-0.7049970811215555 -1.0712001513720044
-0.6378986902309931 -1.024764256620384
-0.6378986902309931 -1.024764256620384
-0.5931664296372848 -0.9783283618687637
-0.6378986902309931 -1.0712001513720044
-0.6602648205278472 -1.164071940875245
-0.7049970811215555 -1.303379625130106
-0.7049970811215555 -1.303379625130106
-0.7273632114184095 -1.349815519881726
-0.7049970811215555 -1.3962514146333465
-0.7273632114184095 -1.164071940875245
-0.7497293417152637 -1.164071940875245
-0.6826309508247014 -1.2105078356268653
-0.7049970811215555 -1.164071940875245
-0.7049970811215555 -1.1176360461236245
-0.7049970811215555 -1.1176360461236245
-0.7049970811215555 -1.164071940875245
-0.7049970811215555 -1.2569437303784856
-0.7049970811215555 -1.2569437303784856
-0.6826309508247014 -1.4426873093849668
-0.6826309508247014 -1.628430888391448
-0.7497293417152637 -1.5355590988882073
-0.7497293417152637 -1.5355590988882073
-0.6826309508247014 -1.4891232041365872
-0.7497293417152637 -1.5355590988882073
-0.7049970811215555 -1.349815519881726
-0.6378986902309931 -1.2569437303784856
-0.6155325599341389 -1.3962514146333465
-0.6155325599341389 -1.3962514146333465
-0.5484341690435766 -1.349815519881726
-0.6155325599341389 -1.5819949936398277
-0.7049970811215555 -1.5355590988882073
-0.6602648205278472 -1.628430888391448
-0.6602648205278472 -1.7213026778946885
-0.6826309508247014 -1.6748667831430684
-0.5931664296372848 -1.5355590988882073
-0.4813357781530142 -1.4426873093849668
-0.45896964785616007 -1.2569437303784856
-0.3471389963718894 -1.303379625130106
-0.3471389963718894 -1.303379625130106
-0.30240673577818117 -1.4891232041365872
-0.28004060548132703 -1.3962514146333465
-0.23530834488761876 -1.628430888391448
-0.3247728660750353 -1.628430888391448
-0.21294221459076465 -1.6748667831430684
-0.16820995399705638 -1.7677385726463088
-0.056379302512785744 -1.6748667831430684
0.0554513489714849 -1.6748667831430684
0.14491587015890142 -1.5819949936398277
0.3014787822368803 -1.6748667831430684
0.3685771731274427 -1.4426873093849668
0.39094330342429684 -1.5355590988882073
0.48040782461171333 -1.5819949936398277
0.5251400852054215 -1.628430888391448
0.592238476095984 -1.7677385726463088
0.6146046063928381 -1.7213026778946885
0.6817029972834004 -1.7677385726463088
0.7488013881739629 -1.7677385726463088
0.771167518470817 -1.628430888391448
0.8158997790645253 -1.5819949936398277
0.8606320396582335 -1.4426873093849668
0.9277304305487959 -1.2569437303784856
0.9724626911425042 -1.2105078356268653
0.9948288214393582 -1.164071940875245
0.9948288214393582 -1.164071940875245
0.9277304305487959 -1.349815519881726
0.8606320396582335 -1.2569437303784856
0.8606320396582335 -1.3962514146333465
0.771167518470817 -1.349815519881726
0.771167518470817 -1.349815519881726
0.7935336487676712 -1.2569437303784856
0.7935336487676712 -1.2569437303784856
0.771167518470817 -1.1176360461236245
0.7935336487676712 -1.024764256620384
0.7488013881739629 -1.1176360461236245
0.7488013881739629 -0.9318924671171435
0.7264352578771087 -1.024764256620384
0.6369707366896923 -1.1176360461236245
0.48040782461171333 -1.1176360461236245
0.5251400852054215 -1.2105078356268653
0.5475062155022757 -1.1176360461236245
0.5475062155022757 -1.2569437303784856
0.5251400852054215 -1.1176360461236245
0.5251400852054215 -1.0712001513720044
0.5027739549085675 -0.9318924671171435
0.4580416943148592 -0.9318924671171435
0.43567556401800506 -0.7925847828622825
0.5027739549085675 -0.7925847828622825
0.48040782461171333 -0.7925847828622825
0.43567556401800506 -0.8854565723655231
0.43567556401800506 -1.024764256620384
0.43567556401800506 -1.1176360461236245
0.43567556401800506 -1.2105078356268653
0.413309433721151 -1.2569437303784856
0.4580416943148592 -1.2105078356268653
0.43567556401800506 -1.164071940875245
0.48040782461171333 -1.1176360461236245
0.43567556401800506 -1.1176360461236245
0.48040782461171333 -1.0712001513720044
0.4580416943148592 -1.0712001513720044
0.43567556401800506 -1.1176360461236245
0.43567556401800506 -1.2105078356268653
0.3685771731274427 -1.1176360461236245
0.32384491253373443 -1.2569437303784856
0.3014787822368803 -1.303379625130106
0.3014787822368803 -1.4426873093849668
0.3014787822368803 -1.2105078356268653
0.32384491253373443 -1.303379625130106
0.3014787822368803 -1.2569437303784856
0.413309433721151 -1.024764256620384
0.4580416943148592 -1.1176360461236245
0.5251400852054215 -1.1176360461236245
0.4580416943148592 -1.164071940875245
0.48040782461171333 -1.164071940875245
0.413309433721151 -1.164071940875245
0.413309433721151 -1.303379625130106
0.27911265194002616 -1.349815519881726
0.3014787822368803 -1.303379625130106
0.34621104283058857 -1.2105078356268653
0.3685771731274427 -1.1176360461236245
0.3685771731274427 -1.1176360461236245
0.32384491253373443 -1.024764256620384
0.413309433721151 -1.024764256620384
0.43567556401800506 -1.024764256620384
0.32384491253373443 -0.9783283618687637
0.413309433721151 -1.0712001513720044
0.39094330342429684 -1.1176360461236245
0.413309433721151 -1.164071940875245
0.413309433721151 -1.2105078356268653
0.413309433721151 -1.2569437303784856
0.48040782461171333 -1.2105078356268653
0.5251400852054215 -1.1176360461236245
0.592238476095984 -1.024764256620384
0.6593368669865464 -0.9318924671171435
0.6369707366896923 -0.8390206776139029
0.6817029972834004 -0.7925847828622825
0.7040691275802546 -0.7925847828622825
0.6369707366896923 -0.8854565723655231
0.6146046063928381 -1.0712001513720044
0.6593368669865464 -1.0712001513720044
0.6593368669865464 -1.164071940875245
0.6817029972834004 -1.2105078356268653
0.7040691275802546 -1.2105078356268653
0.8606320396582335 -1.164071940875245
0.9053643002519418 -1.1176360461236245
0.9724626911425042 -1.1176360461236245
0.8829981699550876 -1.1176360461236245
0.8829981699550876 -1.2105078356268653
0.8382659093613793 -1.2105078356268653
0.7488013881739629 -1.303379625130106
0.6593368669865464 -1.4426873093849668
0.6146046063928381 -1.5819949936398277
0.5475062155022757 -1.5355590988882073
0.5251400852054215 -1.5355590988882073
0.5027739549085675 -1.4891232041365872
0.5251400852054215 -1.5355590988882073
0.48040782461171333 -1.349815519881726
0.413309433721151 -1.303379625130106
0.3685771731274427 -1.2569437303784856
0.34621104283058857 -1.164071940875245
0.32384491253373443 -1.0712001513720044
0.27911265194002616 -1.2105078356268653
0.2120142610494638 -1.164071940875245
0.16728200045575553 -1.2569437303784856
0.12254973986204729 -1.349815519881726
0.0554513489714849 -1.4426873093849668
0.0554513489714849 -1.303379625130106
-0.034013172215931614 -1.303379625130106
0.0554513489714849 -1.2569437303784856
0.07781747926833903 -1.1176360461236245
0.14491587015890142 -1.1176360461236245
0.2120142610494638 -1.0712001513720044
0.16728200045575553 -1.2105078356268653
0.18964813075260967 -1.164071940875245
0.16728200045575553 -1.349815519881726
0.14491587015890142 -1.3962514146333465
0.10018360956519315 -1.4891232041365872
0.07781747926833903 -1.6748667831430684
0.14491587015890142 -1.5819949936398277
0.07781747926833903 -1.3962514146333465
0.16728200045575553 -1.303379625130106
0.16728200045575553 -1.303379625130106
0.18964813075260967 -1.164071940875245
0.2567465216431721 -1.024764256620384
0.27911265194002616 -1.0712001513720044
0.3014787822368803 -0.9783283618687637
0.39094330342429684 -1.164071940875245
0.43567556401800506 -1.2105078356268653
0.6146046063928381 -1.2569437303784856
0.9053643002519418 -1.2569437303784856
1.2408562547047537 -1.4426873093849668
1.5987143394544197 -1.349815519881726
2.1131353362820646 -1.4891232041365872
2.6051902028128557 -1.5355590988882073
3.1419773299373546 -1.628430888391448
3.6340321964681452 -1.8141744673979292
3.902425760030395 -2.0463539411560308
4.0142564115146655 -2.2785334149141323
3.8353273691398324 -2.557148783423854
3.365638632905896 -2.6035846781754746
2.7617531148908343 -2.696456467678715
2.0236708150946483 -2.696456467678715
1.3303207758921702 -2.557148783423854
0.6146046063928381 -2.2320975201625117
-0.14584382370020227 -1.628430888391448
-0.794461602308972 -0.9318924671171435
-1.2417842082460546 -0.0031745720847373825
-1.3088825991366169 1.2505945862090109
-1.1746858173554922 2.2721842707446576
-0.973390644683805 2.7365432182608607
-0.9510245143869509 2.4114919549995184
-0.9062922537932426 1.4827740599671124
-0.9062922537932426 0.368312585928225
-0.7720954720121178 -0.5604053091041811
-0.6826309508247014 -1.1176360461236245
-0.45896964785616007 -1.303379625130106
-0.39187125696559766 -1.3962514146333465
-0.2576744751844729 -1.2569437303784856
-0.21294221459076465 -1.164071940875245
-0.14584382370020227 -1.164071940875245
-0.1905760842939105 -1.2569437303784856
-0.2576744751844729 -1.349815519881726
-0.23530834488761876 -1.4426873093849668
-0.28004060548132703 -1.4891232041365872
-0.30240673577818117 -1.6748667831430684
-0.3471389963718894 -1.6748667831430684
-0.3247728660750353 -1.6748667831430684
-0.3247728660750353 -1.4891232041365872
-0.39187125696559766 -1.5355590988882073
-0.3695051266687435 -1.4891232041365872
-0.3471389963718894 -1.3962514146333465
-0.30240673577818117 -1.3962514146333465
-0.3471389963718894 -1.349815519881726
-0.39187125696559766 -1.5355590988882073
-0.3695051266687435 -1.6748667831430684
-0.39187125696559766 -1.5819949936398277
-0.4142373872624518 -1.6748667831430684
-0.3695051266687435 -1.7677385726463088
-0.4142373872624518 -1.7213026778946885
-0.3695051266687435 -1.6748667831430684
-0.39187125696559766 -1.628430888391448
-0.3695051266687435 -1.5819949936398277
-0.3471389963718894 -1.5819949936398277
-0.3471389963718894 -1.5819949936398277
-0.3471389963718894 -1.5819949936398277
-0.39187125696559766 -1.5355590988882073
-0.39187125696559766 -1.7213026778946885
-0.45896964785616007 -1.6748667831430684
-0.45896964785616007 -1.7677385726463088
-0.4142373872624518 -1.7213026778946885
-0.4142373872624518 -1.8141744673979292
-0.4142373872624518 -1.7677385726463088
-0.3471389963718894 -1.6748667831430684
-0.3695051266687435 -1.7213026778946885
-0.3247728660750353 -1.7213026778946885
-0.3247728660750353 -1.628430888391448
-0.3695051266687435 -1.7213026778946885
-0.4142373872624518 -1.8141744673979292
-0.45896964785616007 -1.8606103621495496
-0.5037019084498683 -1.9999180464044104
-0.5484341690435766 -2.0463539411560308
-0.5260680387467225 -1.95348215165279
-0.5484341690435766 -1.9999180464044104
-0.5260680387467225 -1.8606103621495496
-0.5484341690435766 -1.95348215165279
-0.5260680387467225 -1.7677385726463088
-0.5260680387467225 -1.7213026778946885
-0.5037019084498683 -1.7677385726463088
-0.5037019084498683 -1.7677385726463088
-0.5708002993404308 -1.8606103621495496
-0.5484341690435766 -1.9999180464044104
-0.5931664296372848 -2.0463539411560308
-0.5484341690435766 -1.95348215165279
-0.5484341690435766 -2.092789835907651
-0.5708002993404308 -2.1392257306592715
-0.6155325599341389 -2.0463539411560308
-0.5931664296372848 -2.0463539411560308
-0.5484341690435766 -2.0463539411560308
-0.5260680387467225 -1.90704625690117
-0.4813357781530142 -2.092789835907651
-0.5037019084498683 -2.0463539411560308
-0.4813357781530142 -2.092789835907651
-0.45896964785616007 -2.3249693096657524
-0.45896964785616007 -2.371405204417373
-0.39187125696559766 -2.3249693096657524
-0.39187125696559766 -2.417841099168993
-0.4142373872624518 -2.3249693096657524
-0.39187125696559766 -2.2320975201625117
-0.30240673577818117 -2.2320975201625117
-0.1905760842939105 -2.2320975201625117
-0.16820995399705638 -2.1392257306592715
-0.12347769340334813 -2.1392257306592715
-0.07874543280963987 -2.1856616254108916
-0.034013172215931614 -2.1392257306592715
-0.056379302512785744 -2.1856616254108916
0.03308521867463077 -2.2785334149141323
0.12254973986204729 -2.3249693096657524
0.16728200045575553 -2.417841099168993
0.2120142610494638 -2.417841099168993
0.3014787822368803 -2.2320975201625117
0.43567556401800506 -2.2785334149141323
0.5027739549085675 -2.1856616254108916
0.6369707366896923 -2.092789835907651
0.7264352578771087 -2.092789835907651
0.771167518470817 -1.95348215165279
0.7935336487676712 -1.9999180464044104
0.8606320396582335 -1.9999180464044104
0.9053643002519418 -2.092789835907651
0.9500965608456501 -2.0463539411560308
0.9948288214393582 -2.0463539411560308
1.0395610820330665 -1.9999180464044104
1.0171949517362124 -1.8606103621495496
1.106659472923629 -1.7213026778946885
1.084293342626775 -1.628430888391448
1.0395610820330665 -1.4891232041365872
1.084293342626775 -1.5355590988882073
1.0619272123299206 -1.4426873093849668
1.0395610820330665 -1.4426873093849668
1.0395610820330665 -1.4891232041365872
0.9724626911425042 -1.5355590988882073
0.8606320396582335 -1.5819949936398277
0.8382659093613793 -1.5355590988882073
0.771167518470817 -1.5355590988882073
0.8158997790645253 -1.4426873093849668
0.7935336487676712 -1.4426873093849668
0.8382659093613793 -1.349815519881726
0.8382659093613793 -1.2105078356268653
0.8606320396582335 -1.1176360461236245
0.8158997790645253 -1.2105078356268653
0.8606320396582335 -1.303379625130106
0.7488013881739629 -1.3962514146333465
0.7264352578771087 -1.4891232041365872
0.6817029972834004 -1.5819949936398277
0.6593368669865464 -1.628430888391448
0.6146046063928381 -1.5819949936398277
0.6146046063928381 -1.4426873093849668
0.6593368669865464 -1.303379625130106
0.7040691275802546 -1.2569437303784856
0.7264352578771087 -1.0712001513720044
0.771167518470817 -1.164071940875245
0.771167518470817 -1.2105078356268653
0.8382659093613793 -1.303379625130106
0.771167518470817 -1.303379625130106
0.7264352578771087 -1.4426873093849668
0.6817029972834004 -1.4891232041365872
0.6369707366896923 -1.3962514146333465
0.6369707366896923 -1.349815519881726
0.6369707366896923 -1.3962514146333465
0.7040691275802546 -1.303379625130106
0.6817029972834004 -1.3962514146333465
0.7040691275802546 -1.349815519881726
0.7488013881739629 -1.3962514146333465
0.7488013881739629 -1.349815519881726
0.771167518470817 -1.3962514146333465
0.7040691275802546 -1.3962514146333465
0.7264352578771087 -1.5355590988882073
0.6146046063928381 -1.628430888391448
0.6146046063928381 -1.628430888391448
0.6369707366896923 -1.628430888391448
0.6146046063928381 -1.4426873093849668
0.7040691275802546 -1.628430888391448
0.7264352578771087 -1.3962514146333465
0.7264352578771087 -1.3962514146333465
0.7264352578771087 -1.303379625130106
0.7264352578771087 -1.4426873093849668
0.7040691275802546 -1.4426873093849668
0.6593368669865464 -1.4426873093849668
0.6369707366896923 -1.628430888391448
0.6146046063928381 -1.7213026778946885
0.5698723457991298 -1.6748667831430684
0.592238476095984 -1.628430888391448
0.6593368669865464 -1.5819949936398277
0.7264352578771087 -1.4891232041365872
0.7264352578771087 -1.5355590988882073
0.8382659093613793 -1.349815519881726
0.8606320396582335 -1.3962514146333465
0.9277304305487959 -1.3962514146333465
0.9500965608456501 -1.3962514146333465
0.9277304305487959 -1.3962514146333465
0.8829981699550876 -1.2569437303784856
0.9053643002519418 -1.303379625130106
0.9500965608456501 -1.303379625130106
0.9277304305487959 -1.2569437303784856
0.9277304305487959 -1.2105078356268653
0.9500965608456501 -1.2105078356268653
0.9724626911425042 -1.1176360461236245
0.9948288214393582 -0.9318924671171435
1.0619272123299206 -1.0712001513720044
1.106659472923629 -1.2105078356268653
1.129025603220483 -1.2105078356268653
1.129025603220483 -1.349815519881726
1.106659472923629 -1.4891232041365872
1.084293342626775 -1.4891232041365872
1.1513917335173371 -1.5355590988882073
1.084293342626775 -1.5819949936398277
1.084293342626775 -1.5355590988882073
1.106659472923629 -1.5355590988882073
1.106659472923629 -1.4891232041365872
1.106659472923629 -1.3962514146333465
1.0619272123299206 -1.4426873093849668
1.0395610820330665 -1.4891232041365872
0.9948288214393582 -1.4891232041365872
0.9053643002519418 -1.628430888391448
0.8606320396582335 -1.5819949936398277
0.7935336487676712 -1.628430888391448
0.771167518470817 -1.7213026778946885
0.7264352578771087 -1.6748667831430684
0.6817029972834004 -1.4426873093849668
0.7040691275802546 -1.349815519881726
0.7264352578771087 -1.3962514146333465
0.592238476095984 -1.349815519881726
0.592238476095984 -1.2569437303784856
0.5698723457991298 -1.2569437303784856
0.5251400852054215 -1.3962514146333465
0.48040782461171333 -1.4426873093849668
0.413309433721151 -1.5819949936398277
0.413309433721151 -1.628430888391448
0.39094330342429684 -1.5819949936398277
0.4580416943148592 -1.5819949936398277
0.43567556401800506 -1.4891232041365872
0.5251400852054215 -1.4426873093849668
0.5251400852054215 -1.303379625130106
0.592238476095984 -1.349815519881726
0.5698723457991298 -1.2569437303784856
0.5027739549085675 -1.349815519881726
0.48040782461171333 -1.349815519881726
0.4580416943148592 -1.3962514146333465
0.4580416943148592 -1.4891232041365872
0.48040782461171333 -1.5819949936398277
0.48040782461171333 -1.5355590988882073
0.5027739549085675 -1.4891232041365872
0.5475062155022757 -1.3962514146333465
0.5475062155022757 -1.349815519881726
0.7488013881739629 -1.349815519881726
0.9724626911425042 -1.164071940875245
1.2855885152984619 -1.303379625130106
1.643446600048128 -1.3962514146333465
2.0907692059852105 -1.5819949936398277
2.62755633310971 -1.7677385726463088
3.209075720827917 -2.0463539411560308
3.701130587358708 -2.2785334149141323
4.103720932702082 -2.371405204417373
4.260283844780061 -2.510712888672234
4.193185453889499 -2.557148783423854
3.745862847952416 -2.6500205729270947
3.1643434602342086 -2.6035846781754746
2.515725681625439 -2.510712888672234
1.8894740333135234 -2.417841099168993
1.129025603220483 -2.1856616254108916
0.32384491253373443 -1.8606103621495496
-0.5484341690435766 -1.4426873093849668
-1.0852212961680756 -0.9318924671171435
-1.2865164688397628 -0.04961046683635768
-1.152319687058638 0.971979217699289
-0.9510245143869509 1.8542612179800748
-0.8391938629026803 2.225748375993037
-0.7497293417152637 1.900697112731695
-0.7049970811215555 1.3899022704638717
-0.7049970811215555 0.6004920596863266
-0.5931664296372848 -0.1889181510912186
-0.5037019084498683 -0.6532770986074217
-0.3247728660750353 -1.0712001513720044
-0.16820995399705638 -1.164071940875245
-0.07874543280963987 -1.3962514146333465
-0.011647041919077486 -1.4891232041365872
0.0554513489714849 -1.5819949936398277
-0.011647041919077486 -1.5819949936398277
0.010719088377776641 -1.5355590988882073
-0.011647041919077486 -1.4891232041365872
-0.011647041919077486 -1.4426873093849668
0.010719088377776641 -1.3962514146333465
0.07781747926833903 -1.303379625130106
0.0554513489714849 -1.4426873093849668
0.03308521867463077 -1.4426873093849668
0.03308521867463077 -1.5819949936398277
-0.011647041919077486 -1.628430888391448
-0.011647041919077486 -1.7677385726463088
-0.034013172215931614 -1.628430888391448
-0.034013172215931614 -1.628430888391448
-0.056379302512785744 -1.5819949936398277
-0.011647041919077486 -1.628430888391448
0.010719088377776641 -1.5819949936398277
-0.011647041919077486 -1.5355590988882073
0.07781747926833903 -1.5355590988882073
0.0554513489714849 -1.5819949936398277
-0.034013172215931614 -1.5819949936398277
-0.101111563106494 -1.628430888391448
-0.12347769340334813 -1.7677385726463088
-0.14584382370020227 -1.90704625690117
-0.16820995399705638 -1.95348215165279
-0.1905760842939105 -1.7213026778946885
-0.1905760842939105 -1.628430888391448
-0.14584382370020227 -1.5819949936398277
-0.14584382370020227 -1.628430888391448
-0.101111563106494 -1.5355590988882073
-0.101111563106494 -1.5819949936398277
-0.101111563106494 -1.6748667831430684
-0.101111563106494 -1.7213026778946885
-0.16820995399705638 -1.6748667831430684
-0.1905760842939105 -1.8141744673979292
-0.21294221459076465 -1.8141744673979292
-0.2576744751844729 -1.95348215165279
-0.28004060548132703 -1.8141744673979292
-0.2576744751844729 -1.7677385726463088
-0.2576744751844729 -1.8606103621495496
-0.23530834488761876 -1.7677385726463088
-0.16820995399705638 -1.7213026778946885
-0.14584382370020227 -1.7213026778946885
-0.16820995399705638 -1.6748667831430684
-0.21294221459076465 -1.7213026778946885
-0.23530834488761876 -1.8606103621495496
-0.28004060548132703 -1.9999180464044104
-0.3471389963718894 -2.0463539411560308
-0.3247728660750353 -2.0463539411560308
-0.3247728660750353 -2.0463539411560308
-0.28004060548132703 -1.9999180464044104
-0.28004060548132703 -1.8606103621495496
-0.28004060548132703 -1.7213026778946885
-0.28004060548132703 -1.5819949936398277
-0.23530834488761876 -1.6748667831430684
-0.23530834488761876 -1.5819949936398277
-0.30240673577818117 -1.7213026778946885
-0.30240673577818117 -1.8141744673979292
-0.3471389963718894 -1.95348215165279
-0.3695051266687435 -1.9999180464044104
-0.3695051266687435 -1.90704625690117
-0.39187125696559766 -1.9999180464044104
-0.4142373872624518 -1.90704625690117
-0.3471389963718894 -1.90704625690117
-0.3695051266687435 -1.7677385726463088
-0.21294221459076465 -1.7213026778946885
-0.14584382370020227 -1.6748667831430684
-0.14584382370020227 -1.95348215165279
-0.14584382370020227 -1.90704625690117
-0.14584382370020227 -2.0463539411560308
-0.21294221459076465 -2.0463539411560308
-0.21294221459076465 -2.1392257306592715
-0.23530834488761876 -2.2320975201625117
-0.1905760842939105 -1.9999180464044104
-0.16820995399705638 -1.9999180464044104
-0.101111563106494 -1.9999180464044104
0.010719088377776641 -1.95348215165279
0.07781747926833903 -1.90704625690117
0.16728200045575553 -1.7677385726463088
0.2120142610494638 -1.95348215165279
0.2567465216431721 -1.90704625690117
0.32384491253373443 -2.0463539411560308
0.34621104283058857 -2.0463539411560308
0.39094330342429684 -2.1856616254108916
0.43567556401800506 -2.092789835907651
0.5251400852054215 -2.1392257306592715
0.592238476095984 -2.092789835907651
0.7264352578771087 -2.0463539411560308
0.8382659093613793 -1.9999180464044104
0.9724626911425042 -1.8141744673979292
1.0619272123299206 -1.7213026778946885
1.106659472923629 -1.8141744673979292
1.129025603220483 -1.6748667831430684
1.1737578638141912 -1.7677385726463088
1.129025603220483 -1.8141744673979292
1.1961239941110455 -1.8606103621495496
1.1961239941110455 -1.8141744673979292
1.1737578638141912 -1.7213026778946885
1.1737578638141912 -1.7213026778946885
1.2408562547047537 -1.5355590988882073
1.3079546455953162 -1.4426873093849668
1.2855885152984619 -1.2569437303784856
1.3750530364858784 -1.3962514146333465
1.3750530364858784 -1.303379625130106
1.3303207758921702 -1.2105078356268653
1.2855885152984619 -1.303379625130106
1.2184901244078996 -1.2569437303784856
1.2184901244078996 -1.349815519881726
1.1513917335173371 -1.349815519881726
1.106659472923629 -1.2105078356268653
1.106659472923629 -1.164071940875245
1.129025603220483 -1.1176360461236245
1.1961239941110455 -1.1176360461236245
1.1737578638141912 -0.9318924671171435
1.2184901244078996 -0.9783283618687637
1.129025603220483 -1.0712001513720044
1.129025603220483 -1.0712001513720044
1.106659472923629 -1.1176360461236245
1.0395610820330665 -1.2105078356268653
1.0171949517362124 -1.2569437303784856
0.9948288214393582 -1.303379625130106
0.9724626911425042 -1.2105078356268653
0.9724626911425042 -1.1176360461236245
0.9948288214393582 -1.0712001513720044
0.9500965608456501 -1.164071940875245
0.9724626911425042 -1.0712001513720044
1.0171949517362124 -1.164071940875245
0.9500965608456501 -1.0712001513720044
0.9277304305487959 -1.1176360461236245
0.8158997790645253 -1.2569437303784856
0.771167518470817 -1.2569437303784856
0.7935336487676712 -1.303379625130106
0.7935336487676712 -1.303379625130106
0.7488013881739629 -1.3962514146333465
0.7935336487676712 -1.303379625130106
0.8829981699550876 -1.2569437303784856
0.8606320396582335 -1.0712001513720044
0.9053643002519418 -0.9783283618687637
0.9500965608456501 -1.024764256620384
0.9277304305487959 -1.024764256620384
0.9053643002519418 -1.164071940875245
0.9500965608456501 -1.1176360461236245
0.8829981699550876 -1.2105078356268653
0.8829981699550876 -1.303379625130106
0.8158997790645253 -1.303379625130106
0.8158997790645253 -1.349815519881726
0.771167518470817 -1.2569437303784856
0.8606320396582335 -1.2105078356268653
0.8829981699550876 -1.1176360461236245
0.9053643002519418 -1.0712001513720044
0.9500965608456501 -1.0712001513720044
0.8606320396582335 -1.024764256620384
0.8382659093613793 -1.1176360461236245
0.8382659093613793 -1.164071940875245
0.7935336487676712 -1.0712001513720044
0.771167518470817 -1.2569437303784856
0.8158997790645253 -1.2569437303784856
0.8158997790645253 -1.3962514146333465
0.7935336487676712 -1.2105078356268653
0.8606320396582335 -1.164071940875245
0.8829981699550876 -1.024764256620384
0.8829981699550876 -0.9783283618687637
0.9500965608456501 -0.9318924671171435
0.9500965608456501 -0.9783283618687637
0.9948288214393582 -1.024764256620384
1.0171949517362124 -0.8390206776139029
1.0395610820330665 -0.9783283618687637
1.0171949517362124 -0.9318924671171435
1.084293342626775 -0.9318924671171435
1.084293342626775 -0.9318924671171435
1.084293342626775 -0.6532770986074217
1.129025603220483 -0.7461488881106623
1.1513917335173371 -0.6068412038558013
1.2184901244078996 -0.5139694143525607
1.2632223850016078 -0.5604053091041811
1.2184901244078996 -0.6997129933590419
1.1961239941110455 -0.8854565723655231
1.2632223850016078 -1.024764256620384
1.2855885152984619 -1.1176360461236245
1.2632223850016078 -1.164071940875245
1.2632223850016078 -1.303379625130106
1.2184901244078996 -1.164071940875245
1.1961239941110455 -1.1176360461236245
1.1961239941110455 -1.2569437303784856
1.084293342626775 -1.303379625130106
1.084293342626775 -1.303379625130106
1.084293342626775 -1.303379625130106
0.9277304305487959 -1.3962514146333465
0.9053643002519418 -1.4891232041365872
0.8606320396582335 -1.3962514146333465
0.7935336487676712 -1.4426873093849668
0.7040691275802546 -1.4426873093849668
0.7488013881739629 -1.4426873093849668
0.6369707366896923 -1.4426873093849668
0.6593368669865464 -1.349815519881726
0.6369707366896923 -1.349815519881726
0.592238476095984 -1.2105078356268653
0.5475062155022757 -1.1176360461236245
0.5698723457991298 -1.0712001513720044
0.5475062155022757 -1.024764256620384
0.5698723457991298 -1.0712001513720044
0.5251400852054215 -1.164071940875245
0.5251400852054215 -1.164071940875245
0.4580416943148592 -1.2105078356268653
0.413309433721151 -1.2569437303784856
0.39094330342429684 -1.2569437303784856
0.413309433721151 -1.2105078356268653
0.413309433721151 -1.1176360461236245
0.5027739549085675 -1.1176360461236245
0.5475062155022757 -1.1176360461236245
0.5027739549085675 -0.9318924671171435
0.48040782461171333 -1.0712001513720044
0.48040782461171333 -1.0712001513720044
0.5251400852054215 -1.0712001513720044
0.5027739549085675 -0.9783283618687637
0.413309433721151 -1.0712001513720044
0.413309433721151 -1.164071940875245
0.43567556401800506 -1.164071940875245
0.48040782461171333 -1.024764256620384
0.5027739549085675 -0.8854565723655231
0.5251400852054215 -0.8390206776139029
0.6369707366896923 -0.8390206776139029
0.8158997790645253 -0.7461488881106623
0.9500965608456501 -0.7925847828622825
1.2184901244078996 -0.9318924671171435
1.5539820788607115 -1.1176360461236245
1.97893855450094 -1.2105078356268653
2.493359551328585 -1.4426873093849668
3.0972450693436464 -1.7213026778946885
3.589299935874437 -1.7677385726463088
4.081354802405228 -1.7213026778946885
4.3273822356706235 -1.8141744673979292
4.282649975076915 -1.7677385726463088
3.924791890327249 -1.8141744673979292
3.365638632905896 -1.95348215165279
2.694654724000272 -1.95348215165279
2.0684030756883565 -2.1392257306592715
1.486883687970149 -2.092789835907651
0.8158997790645253 -1.9999180464044104
0.12254973986204729 -1.7677385726463088
-0.5260680387467225 -1.349815519881726
-0.8615599931995344 -0.7461488881106623
-0.973390644683805 0.18256900692174383
-0.9062922537932426 1.0648510072025297
-0.8391938629026803 1.3899022704638717
-0.6155325599341389 1.5292099547187326
-0.4142373872624518 1.0648510072025297
-0.2576744751844729 0.5540561649347062
-0.101111563106494 -0.09604636158797798
-0.07874543280963987 -0.4210976248493201
-0.12347769340334813 -0.9318924671171435
-0.101111563106494 -1.0712001513720044
-0.056379302512785744 -1.2105078356268653
-0.101111563106494 -1.2105078356268653
-0.07874543280963987 -1.0712001513720044
-0.056379302512785744 -1.1176360461236245
-0.034013172215931614 -0.8854565723655231
0.010719088377776641 -0.9318924671171435
0.03308521867463077 -0.8854565723655231
-0.034013172215931614 -1.0712001513720044
-0.034013172215931614 -0.9783283618687637
-0.12347769340334813 -1.303379625130106
-0.21294221459076465 -1.164071940875245
-0.23530834488761876 -1.2569437303784856
-0.14584382370020227 -1.2569437303784856
-0.21294221459076465 -1.349815519881726
-0.1905760842939105 -1.1176360461236245
-0.1905760842939105 -1.0712001513720044
-0.07874543280963987 -1.024764256620384
-0.07874543280963987 -1.024764256620384
-0.056379302512785744 -0.9318924671171435
-0.07874543280963987 -0.9318924671171435
-0.101111563106494 -0.9783283618687637
-0.101111563106494 -1.1176360461236245
-0.21294221459076465 -1.2105078356268653
-0.1905760842939105 -1.2105078356268653
-0.21294221459076465 -1.2569437303784856
-0.28004060548132703 -1.2105078356268653
-0.23530834488761876 -1.2105078356268653
-0.21294221459076465 -1.164071940875245
-0.23530834488761876 -1.1176360461236245
-0.23530834488761876 -1.164071940875245
-0.23530834488761876 -1.0712001513720044
-0.1905760842939105 -1.1176360461236245
-0.23530834488761876 -1.0712001513720044
-0.28004060548132703 -1.2569437303784856
-0.3695051266687435 -1.2569437303784856
-0.45896964785616007 -1.3962514146333465
-0.39187125696559766 -1.4426873093849668
-0.43660351755930593 -1.303379625130106
-0.45896964785616007 -1.4426873093849668
-0.45896964785616007 -1.2105078356268653
-0.5037019084498683 -1.2105078356268653
-0.43660351755930593 -1.164071940875245
-0.4142373872624518 -1.1176360461236245
-0.45896964785616007 -1.164071940875245
-0.5037019084498683 -1.2569437303784856
-0.5708002993404308 -1.2569437303784856
-0.5931664296372848 -1.349815519881726
-0.6155325599341389 -1.3962514146333465
-0.6155325599341389 -1.4426873093849668
-0.6602648205278472 -1.3962514146333465
-0.6155325599341389 -1.303379625130106
-0.6155325599341389 -1.349815519881726
-0.6155325599341389 -1.303379625130106
-0.6155325599341389 -1.2569437303784856
-0.5931664296372848 -1.164071940875245
-0.6378986902309931 -1.2569437303784856
-0.6602648205278472 -1.2105078356268653
-0.7497293417152637 -1.349815519881726
-0.7497293417152637 -1.3962514146333465
-0.7497293417152637 -1.4426873093849668
-0.7720954720121178 -1.4426873093849668
-0.7720954720121178 -1.4426873093849668
-0.8391938629026803 -1.303379625130106
-0.8168277326058261 -1.3962514146333465
-0.7497293417152637 -1.3962514146333465
-0.7273632114184095 -1.303379625130106
-0.7273632114184095 -1.2569437303784856
-0.7049970811215555 -1.3962514146333465
-0.7049970811215555 -1.349815519881726
-0.6826309508247014 -1.3962514146333465
-0.7273632114184095 -1.4891232041365872
-0.7273632114184095 -1.5355590988882073
-0.7273632114184095 -1.628430888391448
-0.7720954720121178 -1.4891232041365872
-0.7049970811215555 -1.5355590988882073
-0.6378986902309931 -1.4426873093849668
-0.5931664296372848 -1.3962514146333465
-0.4813357781530142 -1.2569437303784856
-0.4142373872624518 -1.2569437303784856
-0.3695051266687435 -1.303379625130106
-0.3471389963718894 -1.4426873093849668
-0.28004060548132703 -1.4426873093849668
-0.23530834488761876 -1.5355590988882073
-0.16820995399705638 -1.5355590988882073
-0.07874543280963987 -1.5819949936398277
-0.034013172215931614 -1.628430888391448
0.16728200045575553 -1.5819949936398277
0.2567465216431721 -1.4891232041365872
0.3685771731274427 -1.4426873093849668
0.48040782461171333 -1.303379625130106
0.5698723457991298 -1.2569437303784856
0.6369707366896923 -1.2569437303784856
0.6369707366896923 -1.303379625130106
0.7264352578771087 -1.303379625130106
0.771167518470817 -1.3962514146333465
0.771167518470817 -1.4891232041365872
0.7488013881739629 -1.4426873093849668
0.771167518470817 -1.3962514146333465
0.7935336487676712 -1.303379625130106
0.9053643002519418 -1.2569437303784856
0.8829981699550876 -1.2569437303784856
0.9277304305487959 -1.024764256620384
0.9500965608456501 -0.9783283618687637
0.9277304305487959 -1.024764256620384
0.9053643002519418 -0.9783283618687637
0.8829981699550876 -1.024764256620384
0.8606320396582335 -1.2105078356268653
0.8382659093613793 -1.164071940875245
0.771167518470817 -1.164071940875245
0.7488013881739629 -1.0712001513720044
0.7488013881739629 -0.9783283618687637
0.7264352578771087 -1.0712001513720044
0.7488013881739629 -1.024764256620384
0.6593368669865464 -0.8854565723655231
0.7040691275802546 -0.7461488881106623
0.7040691275802546 -0.8390206776139029
0.7264352578771087 -0.8390206776139029
0.6817029972834004 -0.8390206776139029
0.6817029972834004 -0.9783283618687637
0.6593368669865464 -1.0712001513720044
0.6146046063928381 -1.0712001513720044
0.6146046063928381 -1.0712001513720044
0.5698723457991298 -1.024764256620384
0.6146046063928381 -0.8390206776139029
0.6369707366896923 -0.9318924671171435
0.6369707366896923 -0.7925847828622825
0.6146046063928381 -0.7925847828622825
0.6593368669865464 -0.6997129933590419
0.6369707366896923 -0.8854565723655231
0.6593368669865464 -0.9783283618687637
0.5698723457991298 -1.0712001513720044
0.5698723457991298 -1.2105078356268653
0.5027739549085675 -1.164071940875245
0.5027739549085675 -1.1176360461236245
0.5027739549085675 -1.1176360461236245
0.5475062155022757 -0.9783283618687637
0.5251400852054215 -0.8854565723655231
0.5251400852054215 -0.7925847828622825
0.5475062155022757 -0.7925847828622825
0.5698723457991298 -0.8390206776139029
0.5251400852054215 -0.8854565723655231
0.5251400852054215 -0.9318924671171435
0.48040782461171333 -1.0712001513720044
0.3685771731274427 -1.024764256620384
0.3685771731274427 -1.1176360461236245
0.39094330342429684 -1.1176360461236245
0.34621104283058857 -1.024764256620384
0.39094330342429684 -0.9318924671171435
0.4580416943148592 -0.8854565723655231
0.4580416943148592 -0.8390206776139029
0.48040782461171333 -0.8390206776139029
0.5475062155022757 -0.7925847828622825
0.48040782461171333 -0.8854565723655231
0.43567556401800506 -0.7925847828622825
0.43567556401800506 -0.9318924671171435
0.413309433721151 -1.024764256620384
0.43567556401800506 -1.024764256620384
0.4580416943148592 -1.0712001513720044
0.48040782461171333 -0.9783283618687637
0.48040782461171333 -0.9318924671171435
0.592238476095984 -0.7461488881106623
0.592238476095984 -0.7461488881106623
0.6593368669865464 -0.6068412038558013
0.6817029972834004 -0.5604053091041811
0.7264352578771087 -0.6068412038558013
0.7264352578771087 -0.6068412038558013
0.7040691275802546 -0.6997129933590419
0.7040691275802546 -0.6532770986074217
0.6817029972834004 -0.6532770986074217
0.6817029972834004 -0.5604053091041811
0.7264352578771087 -0.5604053091041811
0.7488013881739629 -0.5604053091041811
0.8158997790645253 -0.5604053091041811
0.8606320396582335 -0.6068412038558013
0.9277304305487959 -0.6068412038558013
0.9500965608456501 -0.6532770986074217
0.9948288214393582 -0.7461488881106623
0.9948288214393582 -0.8390206776139029
0.9500965608456501 -0.9783283618687637
0.8829981699550876 -0.9783283618687637
0.8382659093613793 -1.303379625130106
0.7488013881739629 -1.164071940875245
0.7040691275802546 -1.164071940875245
0.6817029972834004 -1.164071940875245
0.6817029972834004 -1.1176360461236245
0.6593368669865464 -1.2105078356268653
0.6369707366896923 -1.1176360461236245
0.5698723457991298 -1.0712001513720044
0.5251400852054215 -1.1176360461236245
0.5251400852054215 -1.1176360461236245
0.4580416943148592 -1.164071940875245
0.39094330342429684 -1.0712001513720044
0.27911265194002616 -1.0712001513720044
0.2120142610494638 -0.9783283618687637
0.2120142610494638 -0.9783283618687637
0.16728200045575553 -0.8854565723655231
0.16728200045575553 -0.8390206776139029
0.12254973986204729 -0.7461488881106623
0.12254973986204729 -0.7925847828622825
0.14491587015890142 -0.8854565723655231
0.12254973986204729 -0.8854565723655231
0.10018360956519315 -0.9318924671171435
0.0554513489714849 -0.9318924671171435
0.03308521867463077 -1.024764256620384
-0.011647041919077486 -1.024764256620384
-0.034013172215931614 -1.0712001513720044
0.010719088377776641 -1.024764256620384
0.03308521867463077 -0.9783283618687637
0.07781747926833903 -0.8390206776139029
0.07781747926833903 -0.8390206776139029
0.03308521867463077 -0.8854565723655231
-0.011647041919077486 -0.7925847828622825
0.0554513489714849 -0.8390206776139029
0.07781747926833903 -0.8390206776139029
0.0554513489714849 -0.8854565723655231
0.03308521867463077 -0.9318924671171435
0.010719088377776641 -0.9783283618687637
-0.034013172215931614 -0.9318924671171435
-0.011647041919077486 -0.8390206776139029
-0.034013172215931614 -0.6532770986074217
0.0554513489714849 -0.6068412038558013
0.14491587015890142 -0.5139694143525607
0.3014787822368803 -0.4675335196009404
0.5251400852054215 -0.6068412038558013
0.9053643002519418 -0.7461488881106623
1.3303207758921702 -0.9783283618687637
1.9565724242040858 -1.164071940875245
2.649922463406564 -1.3962514146333465
3.2985402420153336 -1.6748667831430684
3.678764457061854 -1.7213026778946885
3.7905951085461242 -1.6748667831430684
3.4774692843901667 -1.8141744673979292
2.851217636078251 -1.8141744673979292
2.2025998574694814 -1.90704625690117
1.5316159485638574 -1.8141744673979292
0.8382659093613793 -1.7677385726463088
0.12254973986204729 -1.628430888391448
-0.6155325599341389 -1.2105078356268653
-1.129953556761784 -0.7925847828622825
-1.3536148597303252 -0.2353540458428389
-1.3759809900271793 0.4611843754314657
-1.2417842082460546 1.0184151124509093
-1.0628551658712215 1.436338165215492
-0.794461602308972 1.2505945862090109
-0.5931664296372848 1.1112869019541498
-0.5037019084498683 0.6469279544379468
-0.3695051266687435 0.3218766911766047
-0.3247728660750353 -0.04961046683635768
-0.4142373872624518 -0.3282258353460795
-0.4813357781530142 -0.4675335196009404
-0.5484341690435766 -0.5604053091041811
-0.5484341690435766 -0.7461488881106623
-0.5708002993404308 -0.8390206776139029
-0.4813357781530142 -1.024764256620384
-0.4813357781530142 -0.9318924671171435
-0.4142373872624518 -0.8854565723655231
-0.45896964785616007 -0.7461488881106623
-0.3695051266687435 -0.6997129933590419
-0.3695051266687435 -0.7461488881106623
-0.3695051266687435 -0.6532770986074217
-0.39187125696559766 -0.7461488881106623
-0.43660351755930593 -0.8854565723655231
-0.5708002993404308 -0.9318924671171435
-0.5931664296372848 -1.024764256620384
-0.5037019084498683 -1.024764256620384
-0.5484341690435766 -0.9783283618687637
-0.5260680387467225 -0.9318924671171435
-0.5484341690435766 -0.8854565723655231
-0.5260680387467225 -0.7925847828622825
-0.5037019084498683 -0.7925847828622825
-0.45896964785616007 -0.6997129933590419
-0.4813357781530142 -0.6997129933590419
-0.45896964785616007 -0.7461488881106623
-0.5484341690435766 -0.8854565723655231
-0.5708002993404308 -0.8854565723655231
-0.6155325599341389 -1.0712001513720044
-0.5931664296372848 -1.0712001513720044
-0.6826309508247014 -1.0712001513720044
-0.6378986902309931 -0.9783283618687637
-0.7273632114184095 -0.8390206776139029
-0.7049970811215555 -0.8390206776139029
-0.6378986902309931 -0.6997129933590419
-0.6378986902309931 -0.6532770986074217
-0.6826309508247014 -0.7925847828622825
-0.6602648205278472 -0.7925847828622825
-0.7049970811215555 -0.8390206776139029
-0.7720954720121178 -0.9783283618687637
-0.7720954720121178 -0.8854565723655231
-0.7497293417152637 -1.1176360461236245
-0.7720954720121178 -1.0712001513720044
-0.794461602308972 -1.024764256620384
-0.7720954720121178 -1.024764256620384
-0.7720954720121178 -0.9318924671171435
-0.7720954720121178 -0.8390206776139029
-0.7720954720121178 -0.8854565723655231
-0.7720954720121178 -0.9318924671171435
-0.794461602308972 -0.9783283618687637
-0.8839261234963884 -0.9783283618687637
-0.9062922537932426 -0.9783283618687637
-0.973390644683805 -1.164071940875245
-0.9510245143869509 -1.164071940875245
-0.973390644683805 -1.1176360461236245
-1.0181229052775134 -1.164071940875245
-1.0181229052775134 -1.024764256620384
-1.0181229052775134 -0.9783283618687637
-1.0404890355743674 -0.9318924671171435
-1.0404890355743674 -0.8390206776139029
-0.9957567749806592 -0.8854565723655231
-1.0181229052775134 -0.8854565723655231
-1.0404890355743674 -1.024764256620384
-1.1075874264649297 -0.9783283618687637
-1.2417842082460546 -1.1176360461236245
-1.152319687058638 -1.164071940875245
-1.1970519476523462 -1.2105078356268653
-1.2194180779492003 -1.1176360461236245
-1.1970519476523462 -1.0712001513720044
-1.152319687058638 -1.0712001513720044
-1.0852212961680756 -0.9318924671171435
-1.0628551658712215 -0.8854565723655231
-1.0181229052775134 -0.8854565723655231
-0.9957567749806592 -0.9783283618687637
-1.0181229052775134 -1.024764256620384
-1.0404890355743674 -1.1176360461236245
-0.9957567749806592 -1.1176360461236245
-1.0628551658712215 -1.164071940875245
-1.0181229052775134 -1.2569437303784856
-1.0181229052775134 -1.164071940875245
-0.9286583840900967 -1.024764256620384
-0.8391938629026803 -0.9318924671171435
-0.794461602308972 -0.8854565723655231
-0.7049970811215555 -0.7925847828622825
-0.7049970811215555 -0.9318924671171435
-0.6155325599341389 -0.8390206776139029
-0.5708002993404308 -0.9318924671171435
-0.6155325599341389 -0.9318924671171435
-0.5931664296372848 -1.1176360461236245
-0.5037019084498683 -1.164071940875245
-0.45896964785616007 -1.164071940875245
-0.3695051266687435 -1.1176360461236245
-0.23530834488761876 -0.9783283618687637
-0.14584382370020227 -1.0712001513720044
-0.034013172215931614 -0.9318924671171435
0.07781747926833903 -0.9783283618687637
0.18964813075260967 -0.9318924671171435
0.2343803913463179 -0.9783283618687637
0.2343803913463179 -1.0712001513720044
0.32384491253373443 -1.164071940875245
0.32384491253373443 -1.164071940875245
0.34621104283058857 -1.164071940875245
0.39094330342429684 -1.1176360461236245
0.43567556401800506 -1.1176360461236245
0.4580416943148592 -0.9783283618687637
0.5027739549085675 -0.7925847828622825
0.5475062155022757 -0.6997129933590419
0.6146046063928381 -0.6997129933590419
0.592238476095984 -0.6532770986074217
0.5475062155022757 -0.6997129933590419
0.5251400852054215 -0.7925847828622825
0.48040782461171333 -0.7925847828622825
0.4580416943148592 -0.8854565723655231
0.4580416943148592 -0.7925847828622825
0.413309433721151 -0.7461488881106623
0.43567556401800506 -0.7461488881106623
0.413309433721151 -0.6997129933590419
0.43567556401800506 -0.5604053091041811
0.4580416943148592 -0.4675335196009404
0.43567556401800506 -0.5139694143525607
0.4580416943148592 -0.5139694143525607
0.413309433721151 -0.6068412038558013
0.43567556401800506 -0.6997129933590419
0.3685771731274427 -0.6068412038558013
0.3685771731274427 -0.6997129933590419
0.3014787822368803 -0.7461488881106623
0.2567465216431721 -0.6532770986074217
0.2567465216431721 -0.6068412038558013
0.2343803913463179 -0.6068412038558013
0.2343803913463179 -0.5139694143525607
0.27911265194002616 -0.4210976248493201
0.3014787822368803 -0.4210976248493201
0.2567465216431721 -0.4675335196009404
0.2343803913463179 -0.4210976248493201
0.2120142610494638 -0.5604053091041811
0.16728200045575553 -0.7925847828622825
0.10018360956519315 -0.7461488881106623
0.07781747926833903 -0.7925847828622825
0.0554513489714849 -0.7925847828622825
0.10018360956519315 -0.9318924671171435
0.07781747926833903 -0.7461488881106623
0.12254973986204729 -0.6532770986074217
0.18964813075260967 -0.6532770986074217
0.16728200045575553 -0.5139694143525607
0.12254973986204729 -0.6997129933590419
0.12254973986204729 -0.5139694143525607
0.14491587015890142 -0.6068412038558013
0.0554513489714849 -0.7461488881106623
0.0554513489714849 -0.7925847828622825
0.03308521867463077 -0.8390206776139029
-0.011647041919077486 -0.7461488881106623
0.03308521867463077 -0.7461488881106623
0.07781747926833903 -0.6532770986074217
0.07781747926833903 -0.6068412038558013
0.12254973986204729 -0.6068412038558013
0.12254973986204729 -0.5139694143525607
0.12254973986204729 -0.5604053091041811
0.10018360956519315 -0.5139694143525607
0.16728200045575553 -0.6532770986074217
0.07781747926833903 -0.5604053091041811
0.07781747926833903 -0.6997129933590419
0.12254973986204729 -0.8390206776139029
0.07781747926833903 -0.7925847828622825
0.0554513489714849 -0.6532770986074217
0.10018360956519315 -0.5604053091041811
0.14491587015890142 -0.3746617300976998
0.18964813075260967 -0.3282258353460795
0.2567465216431721 -0.2353540458428389
0.3685771731274427 -0.1424822563395983
0.3685771731274427 -0.1889181510912186
0.32384491253373443 -0.2817899405944592
0.32384491253373443 -0.3746617300976998
0.32384491253373443 -0.3746617300976998
0.34621104283058857 -0.3282258353460795
0.3685771731274427 -0.3746617300976998
0.3685771731274427 -0.2817899405944592
0.413309433721151 -0.1889181510912186
0.5027739549085675 -0.2817899405944592
0.5027739549085675 -0.2817899405944592
0.5475062155022757 -0.2353540458428389
0.6146046063928381 -0.3282258353460795
0.5475062155022757 -0.3746617300976998
0.5251400852054215 -0.5139694143525607
0.5027739549085675 -0.5604053091041811
0.5251400852054215 -0.7461488881106623
0.4580416943148592 -0.9318924671171435
0.43567556401800506 -0.9318924671171435
0.34621104283058857 -0.9783283618687637
0.39094330342429684 -0.8854565723655231
0.32384491253373443 -0.7925847828622825
0.3685771731274427 -0.8390206776139029
0.34621104283058857 -0.7461488881106623
0.27911265194002616 -0.8390206776139029
0.2120142610494638 -0.6997129933590419
0.14491587015890142 -0.7461488881106623
0.0554513489714849 -0.6068412038558013
-0.011647041919077486 -0.6068412038558013
-0.07874543280963987 -0.6532770986074217
-0.16820995399705638 -0.6997129933590419
-0.21294221459076465 -0.6532770986074217
-0.23530834488761876 -0.5604053091041811
-0.21294221459076465 -0.6532770986074217
-0.23530834488761876 -0.4675335196009404
-0.2576744751844729 -0.4675335196009404
-0.28004060548132703 -0.4210976248493201
-0.23530834488761876 -0.5604053091041811
-0.23530834488761876 -0.4675335196009404
-0.28004060548132703 -0.6068412038558013
-0.28004060548132703 -0.5139694143525607
-0.3471389963718894 -0.6068412038558013
-0.3247728660750353 -0.6532770986074217
-0.28004060548132703 -0.6532770986074217
-0.2576744751844729 -0.5604053091041811
-0.23530834488761876 -0.4675335196009404
-0.23530834488761876 -0.4210976248493201
-0.16820995399705638 -0.2817899405944592
-0.16820995399705638 -0.2817899405944592
-0.14584382370020227 -0.4210976248493201
-0.1905760842939105 -0.2817899405944592
-0.21294221459076465 -0.4210976248493201
-0.21294221459076465 -0.3746617300976998
-0.1905760842939105 -0.4675335196009404
-0.07874543280963987 -0.3746617300976998
0.14491587015890142 -0.4210976248493201
0.43567556401800506 -0.3282258353460795
0.7935336487676712 -0.4210976248493201
1.2184901244078996 -0.5139694143525607
1.7776433818292527 -0.6068412038558013
2.381528899844314 -0.6997129933590419
2.828851505781397 -0.9783283618687637
3.1419773299373546 -1.164071940875245
3.2538079814216254 -1.2569437303784856
3.1643434602342086 -1.4891232041365872
2.694654724000272 -1.628430888391448
2.157867596875773 -1.7677385726463088
1.5539820788607115 -1.8141744673979292
1.084293342626775 -1.6748667831430684
0.4580416943148592 -1.4426873093849668
-0.14584382370020227 -1.164071940875245
-0.8168277326058261 -0.7461488881106623
-1.3088825991366169 -0.1889181510912186
-1.510177771808304 0.6004920596863266
-1.510177771808304 1.2041586914573905
-1.4430793809177418 1.900697112731695
-1.2865164688397628 2.040004796986556
-1.1970519476523462 1.8078253232284545
-1.0181229052775134 1.3434663757122514
-0.973390644683805 0.7397997439411874
-0.8839261234963884 0.507620270183086
-0.8615599931995344 0.18256900692174383
-0.8839261234963884 0.08969721741850323
-0.8839261234963884 0.08969721741850323
-0.8168277326058261 -0.1889181510912186
-0.7497293417152637 -0.2817899405944592
-0.794461602308972 -0.4210976248493201
-0.7720954720121178 -0.4675335196009404
-0.8168277326058261 -0.6068412038558013
-0.7720954720121178 -0.5604053091041811
-0.8391938629026803 -0.4675335196009404
-0.8168277326058261 -0.5604053091041811
-0.8168277326058261 -0.5139694143525607
-0.7720954720121178 -0.4675335196009404
-0.7720954720121178 -0.3282258353460795
-0.7497293417152637 -0.3282258353460795
-0.7497293417152637 -0.3746617300976998
-0.794461602308972 -0.4210976248493201
-0.7497293417152637 -0.5139694143525607
-0.8168277326058261 -0.5139694143525607
-0.794461602308972 -0.6068412038558013
-0.8168277326058261 -0.6532770986074217
-0.8615599931995344 -0.6997129933590419
-0.8391938629026803 -0.6532770986074217
-0.8391938629026803 -0.5139694143525607
-0.8615599931995344 -0.5604053091041811
-0.8615599931995344 -0.4210976248493201
-0.8391938629026803 -0.4675335196009404
-0.8615599931995344 -0.3746617300976998
-0.8391938629026803 -0.4210976248493201
-0.8839261234963884 -0.4210976248493201
-0.8839261234963884 -0.5139694143525607
-0.9510245143869509 -0.6068412038558013
-0.9957567749806592 -0.5604053091041811
