0.12254973986204729 -0.6068412038558013
0.16728200045575553 -0.5604053091041811
0.14491587015890142 -0.5604053091041811
0.12254973986204729 -0.6068412038558013
0.07781747926833903 -0.6997129933590419
0.03308521867463077 -0.6532770986074217
0.010719088377776641 -0.8390206776139029
-0.034013172215931614 -0.7925847828622825
0.010719088377776641 -0.7925847828622825
0.0554513489714849 -0.6068412038558013
0.14491587015890142 -0.6068412038558013
0.14491587015890142 -0.5604053091041811
0.12254973986204729 -0.5139694143525607
0.10018360956519315 -0.6532770986074217
0.0554513489714849 -0.6068412038558013
0.03308521867463077 -0.7461488881106623
-0.056379302512785744 -0.7925847828622825
-0.12347769340334813 -0.9318924671171435
-0.101111563106494 -0.8854565723655231
-0.12347769340334813 -0.7925847828622825
-0.07874543280963987 -0.7461488881106623
-0.14584382370020227 -0.6532770986074217
-0.101111563106494 -0.6532770986074217
-0.07874543280963987 -0.6532770986074217
0.010719088377776641 -0.6068412038558013
0.03308521867463077 -0.5604053091041811
0.010719088377776641 -0.6532770986074217
0.010719088377776641 -0.6997129933590419
-0.011647041919077486 -0.7461488881106623
-0.101111563106494 -0.7925847828622825
-0.101111563106494 -0.8854565723655231
-0.101111563106494 -0.9318924671171435
-0.056379302512785744 -0.8390206776139029
-0.011647041919077486 -0.7925847828622825
0.03308521867463077 -0.6997129933590419
0.010719088377776641 -0.5604053091041811
0.0554513489714849 -0.4210976248493201
0.10018360956519315 -0.2353540458428389
0.12254973986204729 -0.2817899405944592
0.16728200045575553 -0.3282258353460795
0.16728200045575553 -0.4675335196009404
0.18964813075260967 -0.4675335196009404
0.2343803913463179 -0.5604053091041811
0.16728200045575553 -0.6068412038558013
0.2120142610494638 -0.5139694143525607
0.27911265194002616 -0.3746617300976998
0.34621104283058857 -0.2817899405944592
0.34621104283058857 -0.2817899405944592
0.32384491253373443 -0.2817899405944592
0.27911265194002616 -0.3746617300976998
0.2343803913463179 -0.5139694143525607
0.27911265194002616 -0.6068412038558013
0.2567465216431721 -0.6997129933590419
0.3685771731274427 -0.8390206776139029
0.3685771731274427 -0.8390206776139029
0.34621104283058857 -0.9318924671171435
0.32384491253373443 -0.9318924671171435
0.3685771731274427 -0.8390206776139029
0.34621104283058857 -0.8854565723655231
0.34621104283058857 -0.8390206776139029
0.27911265194002616 -0.7925847828622825
0.3014787822368803 -0.8854565723655231
0.2567465216431721 -0.8854565723655231
0.14491587015890142 -0.9783283618687637
0.07781747926833903 -0.9318924671171435
-0.034013172215931614 -0.9318924671171435
-0.101111563106494 -0.9783283618687637
-0.16820995399705638 -0.9783283618687637
-0.23530834488761876 -0.9783283618687637
-0.23530834488761876 -0.9318924671171435
-0.1905760842939105 -0.8390206776139029
-0.21294221459076465 -0.6997129933590419
-0.1905760842939105 -0.5139694143525607
-0.1905760842939105 -0.4210976248493201
-0.1905760842939105 -0.3746617300976998
-0.21294221459076465 -0.3746617300976998
-0.21294221459076465 -0.6532770986074217
-0.21294221459076465 -0.8390206776139029
-0.2576744751844729 -1.024764256620384
-0.28004060548132703 -1.1176360461236245
-0.30240673577818117 -1.1176360461236245
-0.3471389963718894 -1.0712001513720044
-0.3247728660750353 -0.9783283618687637
-0.28004060548132703 -0.7461488881106623
-0.3247728660750353 -0.7925847828622825
-0.28004060548132703 -0.7461488881106623
-0.2576744751844729 -0.6997129933590419
-0.30240673577818117 -0.6997129933590419
-0.3247728660750353 -0.7925847828622825
-0.39187125696559766 -0.8390206776139029
-0.3695051266687435 -0.9318924671171435
-0.3247728660750353 -0.8854565723655231
-0.28004060548132703 -0.8854565723655231
-0.23530834488761876 -0.7461488881106623
-0.1905760842939105 -0.7461488881106623
-0.12347769340334813 -0.6532770986074217
-0.056379302512785744 -0.5604053091041811
0.12254973986204729 -0.6068412038558013
0.34621104283058857 -0.6068412038558013
0.6817029972834004 -0.7461488881106623
1.106659472923629 -0.9783283618687637
1.5763482091575656 -1.164071940875245
2.1131353362820646 -1.3962514146333465
2.560457942219147 -1.5355590988882073
3.0077805481562296 -1.628430888391448
3.209075720827917 -1.90704625690117
3.209075720827917 -1.95348215165279
2.9183160269688133 -2.092789835907651
2.381528899844314 -2.2320975201625117
1.7552772515323987 -2.371405204417373
1.129025603220483 -2.371405204417373
0.43567556401800506 -2.2785334149141323
-0.30240673577818117 -2.1856616254108916
-1.1746858173554922 -1.7213026778946885
-2.0245987686359492 -1.303379625130106
-2.6284842866510103 -0.4675335196009404
-2.8074133290258434 0.5540561649347062
-2.6061181563541562 1.7149535337252138
-2.2482600716044905 2.782979113012481
-1.9351342474485325 3.108030376273823
-1.7114729444799912 2.782979113012481
-1.5549100324020124 2.086440691738176
-1.3983471203240334 1.0648510072025297
-1.2194180779492003 0.3218766911766047
-1.0852212961680756 -0.2817899405944592
-0.9286583840900967 -0.6997129933590419
-0.8168277326058261 -0.6532770986074217
-0.7273632114184095 -0.8390206776139029
-0.6602648205278472 -0.7925847828622825
-0.5931664296372848 -0.7461488881106623
-0.5484341690435766 -0.6997129933590419
-0.5260680387467225 -0.6997129933590419
-0.5484341690435766 -0.5604053091041811
-0.5708002993404308 -0.6997129933590419
-0.6826309508247014 -0.7461488881106623
-0.8168277326058261 -0.7925847828622825
-0.794461602308972 -0.8390206776139029
-0.8391938629026803 -0.8390206776139029
-0.8168277326058261 -0.9783283618687637
-0.8615599931995344 -0.8854565723655231
-0.8391938629026803 -0.8854565723655231
-0.7720954720121178 -0.8390206776139029
-0.6826309508247014 -0.7461488881106623
-0.6826309508247014 -0.7461488881106623
-0.7049970811215555 -0.6997129933590419
-0.7497293417152637 -0.6997129933590419
-0.8168277326058261 -0.8390206776139029
-0.8839261234963884 -0.8854565723655231
-0.9957567749806592 -0.9318924671171435
-0.9957567749806592 -0.8854565723655231
-0.9510245143869509 -0.9318924671171435
-0.9510245143869509 -0.8854565723655231
-0.8839261234963884 -0.9318924671171435
-0.8391938629026803 -0.8390206776139029
-0.8839261234963884 -0.8854565723655231
-0.8615599931995344 -0.7925847828622825
-0.8839261234963884 -0.7461488881106623
-0.9062922537932426 -0.8390206776139029
-0.9286583840900967 -0.8854565723655231
-0.9286583840900967 -0.9783283618687637
-0.973390644683805 -0.9318924671171435
-1.0404890355743674 -1.1176360461236245
-1.0181229052775134 -1.164071940875245
-1.0404890355743674 -1.164071940875245
-1.0181229052775134 -1.024764256620384
-1.0181229052775134 -0.9783283618687637
-1.0181229052775134 -0.9318924671171435
-1.0404890355743674 -0.9318924671171435
-0.9957567749806592 -0.8854565723655231
-0.973390644683805 -0.9318924671171435
-0.8615599931995344 -0.9783283618687637
-0.8615599931995344 -0.9783283618687637
-0.8168277326058261 -1.1176360461236245
-0.7720954720121178 -1.164071940875245
-0.8168277326058261 -1.2105078356268653
-0.9286583840900967 -1.2105078356268653
-1.129953556761784 -1.1176360461236245
-1.3088825991366169 -1.164071940875245
-1.4207132506208875 -1.2105078356268653
-1.4207132506208875 -1.024764256620384
-1.3759809900271793 -0.9783283618687637
-1.2865164688397628 -0.9783283618687637
-1.2417842082460546 -0.9783283618687637
-1.1970519476523462 -1.1176360461236245
-1.152319687058638 -1.2105078356268653
-1.2417842082460546 -1.164071940875245
-1.2641503385429087 -1.2105078356268653
-1.2865164688397628 -1.2569437303784856
-1.3312487294334712 -1.2105078356268653
-1.3088825991366169 -1.2105078356268653
-1.2417842082460546 -1.024764256620384
-1.152319687058638 -1.1176360461236245
-1.1075874264649297 -0.9783283618687637
-1.0628551658712215 -0.9318924671171435
-1.1075874264649297 -1.1176360461236245
-1.1746858173554922 -1.2105078356268653
-1.1746858173554922 -1.2105078356268653
-1.1746858173554922 -1.2569437303784856
-1.1970519476523462 -1.303379625130106
-1.0852212961680756 -1.4426873093849668
-1.0852212961680756 -1.3962514146333465
-1.0181229052775134 -1.349815519881726
-0.9286583840900967 -1.164071940875245
-0.8168277326058261 -1.2105078356268653
-0.7049970811215555 -1.164071940875245
-0.6378986902309931 -1.0712001513720044
-0.6378986902309931 -1.2105078356268653
-0.5484341690435766 -1.164071940875245
-0.5037019084498683 -1.303379625130106
-0.45896964785616007 -1.303379625130106
-0.39187125696559766 -1.2569437303784856
-0.3247728660750353 -1.349815519881726
-0.23530834488761876 -1.2569437303784856
-0.14584382370020227 -1.164071940875245
-0.056379302512785744 -1.164071940875245
0.07781747926833903 -1.1176360461236245
0.18964813075260967 -1.1176360461236245
0.2343803913463179 -1.164071940875245
0.2343803913463179 -0.9318924671171435
0.3014787822368803 -1.0712001513720044
0.32384491253373443 -1.024764256620384
0.3014787822368803 -1.024764256620384
0.3685771731274427 -0.9318924671171435
0.39094330342429684 -0.9318924671171435
0.39094330342429684 -0.8390206776139029
0.39094330342429684 -0.7925847828622825
0.43567556401800506 -0.6997129933590419
0.48040782461171333 -0.6068412038558013
0.4580416943148592 -0.6532770986074217
0.48040782461171333 -0.4675335196009404
0.48040782461171333 -0.6068412038558013
0.4580416943148592 -0.5604053091041811
0.32384491253373443 -0.6997129933590419
0.39094330342429684 -0.6997129933590419
0.4580416943148592 -0.6997129933590419
0.5027739549085675 -0.7461488881106623
0.5475062155022757 -0.5604053091041811
0.6146046063928381 -0.6068412038558013
0.6146046063928381 -0.4675335196009404
0.592238476095984 -0.4675335196009404
0.5027739549085675 -0.2353540458428389
0.32384491253373443 -0.3282258353460795
0.2343803913463179 -0.4675335196009404
0.16728200045575553 -0.4210976248493201
0.14491587015890142 -0.5604053091041811
0.12254973986204729 -0.6532770986074217
0.14491587015890142 -0.6997129933590419
0.18964813075260967 -0.6997129933590419
0.2120142610494638 -0.5604053091041811
0.2343803913463179 -0.4210976248493201
0.2343803913463179 -0.2817899405944592
0.2567465216431721 -0.09604636158797798
0.2343803913463179 -0.09604636158797798
0.2120142610494638 -0.04961046683635768
0.27911265194002616 -0.3746617300976998
0.2567465216431721 -0.6068412038558013
0.2567465216431721 -0.7461488881106623
0.2120142610494638 -0.8854565723655231
0.10018360956519315 -0.8390206776139029
0.12254973986204729 -0.6997129933590419
0.07781747926833903 -0.5139694143525607
0.14491587015890142 -0.3282258353460795
0.16728200045575553 -0.3282258353460795
0.18964813075260967 -0.3746617300976998
0.2120142610494638 -0.5604053091041811
0.2567465216431721 -0.7461488881106623
0.2343803913463179 -0.6997129933590419
0.18964813075260967 -0.6997129933590419
0.16728200045575553 -0.6068412038558013
0.12254973986204729 -0.4675335196009404
0.14491587015890142 -0.5604053091041811
0.16728200045575553 -0.6068412038558013
0.16728200045575553 -0.7461488881106623
0.16728200045575553 -0.7461488881106623
0.2120142610494638 -0.6532770986074217
0.2567465216431721 -0.6532770986074217
0.2567465216431721 -0.5139694143525607
0.34621104283058857 -0.5139694143525607
0.3014787822368803 -0.7925847828622825
0.27911265194002616 -0.9318924671171435
0.2120142610494638 -0.9783283618687637
0.18964813075260967 -0.9783283618687637
0.07781747926833903 -0.8390206776139029
0.07781747926833903 -0.6997129933590419
0.16728200045575553 -0.4675335196009404
0.14491587015890142 -0.1889181510912186
0.16728200045575553 0.13613311217012353
0.2120142610494638 0.18256900692174383
0.27911265194002616 0.3218766911766047
0.34621104283058857 0.13613311217012353
0.3685771731274427 -0.1424822563395983
0.34621104283058857 -0.6532770986074217
0.3685771731274427 -0.9783283618687637
0.34621104283058857 -1.2105078356268653
0.3685771731274427 -1.3962514146333465
0.39094330342429684 -1.2569437303784856
0.43567556401800506 -0.9318924671171435
0.4580416943148592 -0.5604053091041811
0.3685771731274427 -0.1889181510912186
0.3685771731274427 0.13613311217012353
0.32384491253373443 0.4147484806798453
0.39094330342429684 0.6004920596863266
0.3685771731274427 0.368312585928225
0.3685771731274427 0.18256900692174383
0.32384491253373443 -0.09604636158797798
0.4580416943148592 -0.4210976248493201
0.413309433721151 -0.6068412038558013
0.413309433721151 -0.6068412038558013
0.413309433721151 -0.5139694143525607
0.43567556401800506 -0.4210976248493201
0.48040782461171333 -0.2353540458428389
0.5251400852054215 -0.04961046683635768
0.5698723457991298 -0.0031745720847373825
0.6369707366896923 -0.09604636158797798
0.6369707366896923 -0.1424822563395983
0.6146046063928381 -0.3282258353460795
0.592238476095984 -0.5139694143525607
0.5698723457991298 -0.7461488881106623
0.5251400852054215 -0.9318924671171435
0.5027739549085675 -0.8854565723655231
0.413309433721151 -0.8390206776139029
0.39094330342429684 -0.7461488881106623
0.34621104283058857 -0.6068412038558013
0.34621104283058857 -0.6532770986074217
0.3685771731274427 -0.5139694143525607
0.27911265194002616 -0.4675335196009404
0.27911265194002616 -0.4675335196009404
0.2120142610494638 -0.4675335196009404
0.14491587015890142 -0.6068412038558013
0.12254973986204729 -0.5604053091041811
0.0554513489714849 -0.5139694143525607
0.010719088377776641 -0.5604053091041811
-0.011647041919077486 -0.3746617300976998
-0.034013172215931614 -0.2817899405944592
-0.034013172215931614 -0.2353540458428389
-0.056379302512785744 -0.1424822563395983
-0.056379302512785744 -0.1889181510912186
-0.12347769340334813 0.04326132266688292
-0.12347769340334813 0.04326132266688292
-0.21294221459076465 0.08969721741850323
-0.1905760842939105 0.18256900692174383
-0.21294221459076465 0.22900490167336413
-0.21294221459076465 0.18256900692174383
-0.101111563106494 -0.04961046683635768
-0.056379302512785744 -0.5139694143525607
-0.011647041919077486 -0.9783283618687637
0.0554513489714849 -1.2569437303784856
0.03308521867463077 -1.2105078356268653
-0.011647041919077486 -1.024764256620384
-0.034013172215931614 -0.8390206776139029
-0.034013172215931614 -0.6532770986074217
-0.07874543280963987 -0.6532770986074217
-0.101111563106494 -0.5604053091041811
-0.101111563106494 -0.5604053091041811
-0.07874543280963987 -0.6532770986074217
0.0554513489714849 -0.7925847828622825
0.2567465216431721 -0.7925847828622825
0.592238476095984 -0.7461488881106623
1.0171949517362124 -0.6997129933590419
1.464517557673295 -0.6532770986074217
2.001304684797794 -0.7461488881106623
2.560457942219147 -0.9783283618687637
3.0525128087499382 -0.9318924671171435
3.365638632905896 -1.303379625130106
3.432737023796458 -1.628430888391448
3.1643434602342086 -1.90704625690117
2.649922463406564 -2.1392257306592715
1.97893855450094 -2.2320975201625117
1.2855885152984619 -2.417841099168993
0.6369707366896923 -2.2785334149141323
-0.16820995399705638 -1.8606103621495496
-1.0852212961680756 -1.5355590988882073
-1.7562052050736996 -0.8854565723655231
-2.2482600716044905 -0.09604636158797798
-2.2706262019013446 0.7862356386928078
-2.0469648989328033 1.6220817442219733
-1.7562052050736996 2.4579278497511385
-1.5549100324020124 2.5972355340059994
-1.4207132506208875 2.179312481241417
-1.2417842082460546 1.575645849470353
-1.152319687058638 0.9255433229476687
-1.0181229052775134 0.5540561649347062
-0.8615599931995344 0.368312585928225
-0.7273632114184095 0.18256900692174383
-0.6155325599341389 -0.0031745720847373825
-0.5260680387467225 -0.2353540458428389
-0.5037019084498683 -0.6068412038558013
-0.4813357781530142 -0.6997129933590419
-0.5484341690435766 -0.7925847828622825
-0.5260680387467225 -0.6997129933590419
-0.6378986902309931 -0.6997129933590419
-0.6826309508247014 -0.5604053091041811
-0.7273632114184095 -0.3746617300976998
-0.7497293417152637 -0.1424822563395983
-0.6155325599341389 -0.1889181510912186
-0.5260680387467225 -0.09604636158797798
-0.4142373872624518 -0.1424822563395983
-0.3247728660750353 -0.2353540458428389
-0.3247728660750353 -0.4210976248493201
-0.3247728660750353 -0.3282258353460795
-0.43660351755930593 -0.5604053091041811
-0.5708002993404308 -0.5604053091041811
-0.7720954720121178 -0.6532770986074217
-0.8615599931995344 -0.6997129933590419
-0.8615599931995344 -0.6068412038558013
-0.8391938629026803 -0.6068412038558013
-0.8168277326058261 -0.6068412038558013
-0.8168277326058261 -0.6068412038558013
-0.6602648205278472 -0.5139694143525607
-0.6155325599341389 -0.5604053091041811
-0.6602648205278472 -0.5139694143525607
-0.6155325599341389 -0.4675335196009404
-0.6602648205278472 -0.4675335196009404
-0.7497293417152637 -0.6068412038558013
-0.8391938629026803 -0.6532770986074217
-0.9062922537932426 -0.7461488881106623
-0.9510245143869509 -0.7925847828622825
-0.8391938629026803 -0.6532770986074217
-0.8168277326058261 -0.5604053091041811
-0.8391938629026803 -0.6532770986074217
-0.7497293417152637 -0.4210976248493201
-0.7497293417152637 -0.3746617300976998
-0.7720954720121178 -0.3746617300976998
-0.794461602308972 -0.3746617300976998
-0.8615599931995344 -0.4210976248493201
-0.8615599931995344 -0.5139694143525607
-0.973390644683805 -0.6997129933590419
-0.9286583840900967 -0.8390206776139029
-0.9062922537932426 -0.8854565723655231
-0.9062922537932426 -0.8390206776139029
-0.9062922537932426 -0.6532770986074217
-0.8615599931995344 -0.5604053091041811
-0.8391938629026803 -0.4675335196009404
-0.8839261234963884 -0.5139694143525607
-0.9062922537932426 -0.5604053091041811
-0.973390644683805 -0.6532770986074217
-1.0181229052775134 -0.8390206776139029
-1.0852212961680756 -0.9318924671171435
-1.0852212961680756 -0.9783283618687637
-1.0852212961680756 -0.9783283618687637
-1.0404890355743674 -1.024764256620384
-1.0628551658712215 -0.8390206776139029
-0.973390644683805 -0.7461488881106623
-1.0181229052775134 -0.6997129933590419
-1.0181229052775134 -0.7461488881106623
-0.9510245143869509 -0.7461488881106623
-0.9510245143869509 -0.6532770986074217
-0.9286583840900967 -0.6532770986074217
-0.9286583840900967 -0.8390206776139029
-0.9510245143869509 -0.7461488881106623
-0.973390644683805 -0.7925847828622825
-1.0404890355743674 -0.9783283618687637
-1.0628551658712215 -0.9318924671171435
-1.1075874264649297 -1.024764256620384
-1.152319687058638 -0.9318924671171435
-1.1075874264649297 -0.8854565723655231
-1.0404890355743674 -0.7925847828622825
-0.973390644683805 -0.6997129933590419
-0.9062922537932426 -0.7925847828622825
-0.8168277326058261 -0.8390206776139029
-0.8615599931995344 -0.9318924671171435
-0.8168277326058261 -0.8390206776139029
-0.8391938629026803 -0.8390206776139029
-0.9062922537932426 -0.7925847828622825
-0.8168277326058261 -0.6068412038558013
-0.7497293417152637 -0.4210976248493201
-0.6378986902309931 -0.09604636158797798
-0.5484341690435766 0.04326132266688292
-0.45896964785616007 0.04326132266688292
-0.3247728660750353 -0.1424822563395983
-0.1905760842939105 -0.6532770986074217
-0.101111563106494 -1.2569437303784856
-0.034013172215931614 -1.6748667831430684
-0.011647041919077486 -1.628430888391448
0.07781747926833903 -1.6748667831430684
0.14491587015890142 -1.3962514146333465
0.16728200045575553 -1.164071940875245
0.27911265194002616 -0.9318924671171435
0.39094330342429684 -0.7925847828622825
0.4580416943148592 -0.7925847828622825
0.5475062155022757 -0.5604053091041811
0.592238476095984 -0.6068412038558013
0.6146046063928381 -0.7461488881106623
0.6146046063928381 -0.7925847828622825
0.5698723457991298 -0.7461488881106623
0.5251400852054215 -0.8390206776139029
0.4580416943148592 -0.7925847828622825
0.5027739549085675 -0.6068412038558013
0.48040782461171333 -0.5604053091041811
0.5475062155022757 -0.3746617300976998
0.5475062155022757 -0.3746617300976998
0.5027739549085675 -0.3282258353460795
0.5475062155022757 -0.2353540458428389
0.5475062155022757 -0.2817899405944592
0.5251400852054215 -0.3282258353460795
0.5027739549085675 -0.2817899405944592
0.48040782461171333 -0.3746617300976998
0.43567556401800506 -0.4210976248493201
0.3685771731274427 -0.4675335196009404
0.34621104283058857 -0.5139694143525607
0.32384491253373443 -0.3282258353460795
0.34621104283058857 -0.1889181510912186
0.3014787822368803 -0.04961046683635768
0.3685771731274427 0.18256900692174383
0.34621104283058857 0.3218766911766047
0.413309433721151 0.2754407964249844
0.39094330342429684 -0.0031745720847373825
0.39094330342429684 -0.3282258353460795
0.39094330342429684 -0.6068412038558013
0.3014787822368803 -1.1176360461236245
0.32384491253373443 -1.2569437303784856
0.2567465216431721 -1.164071940875245
0.2343803913463179 -1.024764256620384
0.27911265194002616 -0.7461488881106623
0.27911265194002616 -0.5139694143525607
0.2343803913463179 -0.1424822563395983
0.2343803913463179 -0.1889181510912186
0.2567465216431721 -0.09604636158797798
0.18964813075260967 -0.1424822563395983
0.18964813075260967 -0.0031745720847373825
0.16728200045575553 -0.1889181510912186
0.16728200045575553 -0.3746617300976998
0.18964813075260967 -0.5604053091041811
0.18964813075260967 -0.8854565723655231
0.16728200045575553 -0.8390206776139029
0.2120142610494638 -1.024764256620384
0.2343803913463179 -0.8390206776139029
0.2567465216431721 -0.6068412038558013
0.2567465216431721 -0.3282258353460795
0.32384491253373443 -0.1889181510912186
0.32384491253373443 -0.1424822563395983
0.3014787822368803 -0.1889181510912186
0.3014787822368803 -0.2353540458428389
0.34621104283058857 -0.1424822563395983
0.4580416943148592 0.18256900692174383
0.5251400852054215 0.507620270183086
0.5251400852054215 0.7397997439411874
0.43567556401800506 0.507620270183086
0.27911265194002616 -0.1424822563395983
0.010719088377776641 -0.9318924671171435
-0.16820995399705638 -1.4891232041365872
-0.21294221459076465 -1.4891232041365872
-0.2576744751844729 -1.2569437303784856
-0.16820995399705638 -0.7461488881106623
-0.034013172215931614 -0.09604636158797798
0.0554513489714849 0.22900490167336413
-0.011647041919077486 0.4611843754314657
0.14491587015890142 0.368312585928225
0.12254973986204729 0.22900490167336413
0.16728200045575553 -0.3746617300976998
0.2343803913463179 -0.7461488881106623
0.2567465216431721 -1.164071940875245
0.3014787822368803 -0.9783283618687637
0.39094330342429684 -0.6532770986074217
0.413309433721151 -0.3282258353460795
0.4580416943148592 0.08969721741850323
0.39094330342429684 0.5540561649347062
0.39094330342429684 0.6933638491895672
0.3685771731274427 0.5540561649347062
0.3685771731274427 0.18256900692174383
0.39094330342429684 -0.1424822563395983
0.3685771731274427 -0.4210976248493201
0.39094330342429684 -0.1889181510912186
0.4580416943148592 0.04326132266688292
0.43567556401800506 0.368312585928225
0.5475062155022757 0.507620270183086
0.5475062155022757 0.3218766911766047
0.5251400852054215 -0.1424822563395983
0.592238476095984 -0.5139694143525607
0.5027739549085675 -0.8390206776139029
0.43567556401800506 -0.7925847828622825
0.3685771731274427 -0.3746617300976998
0.27911265194002616 0.368312585928225
0.2567465216431721 0.971979217699289
0.18964813075260967 1.3434663757122514
0.2567465216431721 0.8791074281960484
0.2567465216431721 0.08969721741850323
0.3014787822368803 -0.8854565723655231
0.2120142610494638 -1.90704625690117
0.12254973986204729 -2.1392257306592715
0.07781747926833903 -1.9999180464044104
-0.07874543280963987 -1.5355590988882073
-0.12347769340334813 -0.9783283618687637
-0.1905760842939105 -0.6997129933590419
-0.16820995399705638 -0.6068412038558013
-0.14584382370020227 -0.6068412038558013
-0.14584382370020227 -0.5604053091041811
-0.101111563106494 -0.5139694143525607
-0.16820995399705638 -0.5604053091041811
-0.1905760842939105 -0.4675335196009404
-0.21294221459076465 -0.4675335196009404
-0.2576744751844729 -0.4210976248493201
-0.28004060548132703 -0.4675335196009404
-0.2576744751844729 -0.3746617300976998
-0.23530834488761876 -0.5139694143525607
-0.2576744751844729 -0.5604053091041811
-0.2576744751844729 -0.5139694143525607
-0.2576744751844729 -0.5604053091041811
-0.2576744751844729 -0.2353540458428389
-0.21294221459076465 -0.1889181510912186
-0.16820995399705638 -0.09604636158797798
-0.14584382370020227 -0.09604636158797798
-0.16820995399705638 -0.2353540458428389
-0.21294221459076465 -0.3282258353460795
-0.1905760842939105 -0.5139694143525607
-0.21294221459076465 -0.6068412038558013
-0.1905760842939105 -0.5604053091041811
-0.1905760842939105 -0.4675335196009404
-0.21294221459076465 -0.4675335196009404
-0.1905760842939105 -0.3282258353460795
-0.101111563106494 -0.2353540458428389
0.010719088377776641 -0.1889181510912186
0.2343803913463179 -0.1889181510912186
0.5251400852054215 -0.04961046683635768
0.8382659093613793 -0.2817899405944592
1.2184901244078996 -0.4210976248493201
1.643446600048128 -0.6068412038558013
2.1131353362820646 -0.8854565723655231
2.62755633310971 -1.1176360461236245
2.9630482875625215 -1.4891232041365872
3.1867095905310627 -1.5819949936398277
3.2538079814216254 -1.628430888391448
2.9854144178593756 -1.4891232041365872
2.493359551328585 -1.5355590988882073
1.8894740333135234 -1.628430888391448
1.3079546455953162 -1.7677385726463088
0.6369707366896923 -1.8606103621495496
-0.1905760842939105 -1.90704625690117
-1.0181229052775134 -1.8141744673979292
-1.845669726261116 -1.5355590988882073
-2.337724592791907 -0.8390206776139029
-2.427189113979323 0.22900490167336413
-2.3153584624950527 1.2041586914573905
-2.0245987686359492 1.900697112731695
-1.666740683886283 1.900697112731695
-1.4430793809177418 1.5292099547187326
-1.129953556761784 1.0184151124509093
-0.9062922537932426 0.368312585928225
-0.8391938629026803 -0.09604636158797798
-0.7720954720121178 -0.3282258353460795
-0.7720954720121178 -0.4210976248493201
-0.7497293417152637 -0.6068412038558013
-0.7049970811215555 -0.6068412038558013
-0.6378986902309931 -0.7461488881106623
-0.6378986902309931 -0.6068412038558013
-0.6155325599341389 -0.6068412038558013
-0.6155325599341389 -0.5604053091041811
-0.5708002993404308 -0.6068412038558013
-0.5931664296372848 -0.4210976248493201
-0.5708002993404308 -0.4675335196009404
-0.5931664296372848 -0.5139694143525607
-0.5260680387467225 -0.6068412038558013
-0.5708002993404308 -0.6532770986074217
-0.5931664296372848 -0.6068412038558013
-0.6602648205278472 -0.6997129933590419
-0.6378986902309931 -0.7461488881106623
-0.6602648205278472 -0.7925847828622825
-0.6602648205278472 -0.7461488881106623
-0.5708002993404308 -0.6532770986074217
-0.5484341690435766 -0.5139694143525607
-0.4813357781530142 -0.3282258353460795
-0.4813357781530142 -0.2817899405944592
-0.5260680387467225 -0.4675335196009404
-0.5484341690435766 -0.4675335196009404
-0.6155325599341389 -0.6997129933590419
-0.6378986902309931 -0.7925847828622825
-0.6826309508247014 -0.8854565723655231
-0.6602648205278472 -0.8390206776139029
-0.6826309508247014 -0.7925847828622825
-0.6826309508247014 -0.6997129933590419
-0.6155325599341389 -0.7461488881106623
-0.6155325599341389 -0.5604053091041811
-0.5484341690435766 -0.5604053091041811
-0.5708002993404308 -0.4675335196009404
-0.5260680387467225 -0.5604053091041811
-0.5931664296372848 -0.6068412038558013
-0.6602648205278472 -0.6068412038558013
-0.6602648205278472 -0.7461488881106623
-0.7049970811215555 -0.7461488881106623
-0.7497293417152637 -0.7461488881106623
-0.7497293417152637 -0.8854565723655231
-0.7273632114184095 -0.6532770986074217
-0.6602648205278472 -0.6532770986074217
-0.7049970811215555 -0.5139694143525607
-0.6602648205278472 -0.5604053091041811
-0.6602648205278472 -0.4675335196009404
-0.7273632114184095 -0.6068412038558013
-0.7720954720121178 -0.6532770986074217
-0.794461602308972 -0.7461488881106623
-0.794461602308972 -0.8854565723655231
-0.8168277326058261 -0.8390206776139029
-0.8168277326058261 -0.9318924671171435
-0.8168277326058261 -0.9318924671171435
-0.8168277326058261 -0.8390206776139029
-0.8839261234963884 -0.7925847828622825
-0.8168277326058261 -0.8390206776139029
-0.8391938629026803 -0.7925847828622825
-0.7720954720121178 -0.6997129933590419
-0.8168277326058261 -0.8390206776139029
-0.8839261234963884 -0.7925847828622825
-0.8615599931995344 -0.8854565723655231
-0.8839261234963884 -1.024764256620384
-0.8615599931995344 -1.1176360461236245
-0.973390644683805 -1.024764256620384
-0.9286583840900967 -0.9783283618687637
-0.9510245143869509 -0.9783283618687637
-0.9286583840900967 -0.9318924671171435
-0.9286583840900967 -0.7925847828622825
-0.9510245143869509 -0.8854565723655231
-0.8839261234963884 -0.8390206776139029
-0.8391938629026803 -0.9318924671171435
-0.8615599931995344 -1.1176360461236245
-0.8168277326058261 -1.2105078356268653
-0.8391938629026803 -1.1176360461236245
-0.8391938629026803 -1.303379625130106
-0.8839261234963884 -1.349815519881726
-0.8615599931995344 -1.3962514146333465
-0.794461602308972 -1.2105078356268653
-0.6826309508247014 -1.2105078356268653
-0.6155325599341389 -1.024764256620384
-0.5260680387467225 -0.9318924671171435
-0.5037019084498683 -0.8854565723655231
-0.4142373872624518 -0.9783283618687637
-0.39187125696559766 -0.8854565723655231
-0.3471389963718894 -1.0712001513720044
-0.28004060548132703 -1.024764256620384
-0.2576744751844729 -1.0712001513720044
-0.1905760842939105 -1.024764256620384
-0.101111563106494 -0.9783283618687637
-0.034013172215931614 -1.0712001513720044
0.12254973986204729 -1.0712001513720044
0.16728200045575553 -1.024764256620384
0.27911265194002616 -0.9783283618687637
0.3685771731274427 -0.9783283618687637
0.413309433721151 -1.024764256620384
0.48040782461171333 -0.8854565723655231
0.5475062155022757 -0.9783283618687637
0.5475062155022757 -1.0712001513720044
0.5475062155022757 -1.1176360461236245
0.5698723457991298 -1.1176360461236245
0.6146046063928381 -1.0712001513720044
0.6369707366896923 -0.9318924671171435
0.6817029972834004 -0.9783283618687637
0.7264352578771087 -0.8390206776139029
0.771167518470817 -0.6997129933590419
0.771167518470817 -0.6997129933590419
0.7264352578771087 -0.6532770986074217
0.771167518470817 -0.7461488881106623
0.7040691275802546 -0.7925847828622825
0.6593368669865464 -0.6532770986074217
0.6369707366896923 -0.6997129933590419
0.6146046063928381 -0.8390206776139029
0.5475062155022757 -0.7925847828622825
0.5698723457991298 -0.6068412038558013
0.6146046063928381 -0.5139694143525607
0.6593368669865464 -0.3746617300976998
0.592238476095984 -0.3746617300976998
0.6369707366896923 -0.4675335196009404
0.6817029972834004 -0.4675335196009404
0.592238476095984 -0.5139694143525607
0.5475062155022757 -0.6532770986074217
0.5251400852054215 -0.7461488881106623
0.5251400852054215 -0.6532770986074217
0.5251400852054215 -0.7461488881106623
0.48040782461171333 -0.8390206776139029
0.4580416943148592 -0.7925847828622825
0.5027739549085675 -0.6997129933590419
0.5698723457991298 -0.5604053091041811
0.5698723457991298 -0.5604053091041811
0.5698723457991298 -0.5604053091041811
0.5027739549085675 -0.5604053091041811
0.4580416943148592 -0.6532770986074217
0.48040782461171333 -0.7461488881106623
0.39094330342429684 -0.7925847828622825
0.34621104283058857 -0.9318924671171435
0.39094330342429684 -0.8854565723655231
0.39094330342429684 -0.8390206776139029
0.413309433721151 -0.6532770986074217
0.43567556401800506 -0.6532770986074217
0.4580416943148592 -0.6532770986074217
0.4580416943148592 -0.6068412038558013
0.5027739549085675 -0.5604053091041811
0.43567556401800506 -0.6068412038558013
0.413309433721151 -0.6532770986074217
0.3685771731274427 -0.6532770986074217
0.3014787822368803 -0.5139694143525607
0.32384491253373443 -0.4675335196009404
0.32384491253373443 -0.4675335196009404
0.3685771731274427 -0.4675335196009404
0.32384491253373443 -0.5139694143525607
0.39094330342429684 -0.7925847828622825
0.39094330342429684 -0.8390206776139029
0.3685771731274427 -1.0712001513720044
0.34621104283058857 -1.0712001513720044
0.34621104283058857 -1.164071940875245
0.39094330342429684 -1.0712001513720044
0.34621104283058857 -0.9783283618687637
0.3014787822368803 -0.7925847828622825
0.27911265194002616 -0.8854565723655231
0.2567465216431721 -0.9783283618687637
0.27911265194002616 -0.8390206776139029
0.27911265194002616 -0.9318924671171435
0.34621104283058857 -0.7461488881106623
0.3685771731274427 -0.6997129933590419
0.39094330342429684 -0.6068412038558013
0.413309433721151 -0.7461488881106623
0.43567556401800506 -0.7925847828622825
0.3685771731274427 -0.8854565723655231
0.3685771731274427 -0.7925847828622825
0.39094330342429684 -0.9318924671171435
0.34621104283058857 -1.024764256620384
0.32384491253373443 -0.9783283618687637
0.39094330342429684 -0.9783283618687637
0.39094330342429684 -0.8854565723655231
0.5251400852054215 -0.6997129933590419
0.5475062155022757 -0.5139694143525607
0.6369707366896923 -0.4210976248493201
0.7040691275802546 -0.3746617300976998
0.7488013881739629 -0.1424822563395983
0.7040691275802546 -0.1424822563395983
0.7040691275802546 -0.2353540458428389
0.7264352578771087 -0.2353540458428389
0.7040691275802546 -0.6068412038558013
0.7264352578771087 -0.7461488881106623
0.6817029972834004 -0.7461488881106623
0.6817029972834004 -0.6997129933590419
0.7935336487676712 -0.6997129933590419
0.8382659093613793 -0.5604053091041811
0.9500965608456501 -0.2353540458428389
1.084293342626775 -0.09604636158797798
1.106659472923629 -0.2817899405944592
1.2184901244078996 -0.3746617300976998
1.1737578638141912 -0.6532770986074217
1.0171949517362124 -0.9318924671171435
0.8158997790645253 -1.164071940875245
0.5027739549085675 -1.303379625130106
0.413309433721151 -1.4426873093849668
0.27911265194002616 -1.3962514146333465
0.27911265194002616 -1.4426873093849668
0.3014787822368803 -1.303379625130106
0.34621104283058857 -1.164071940875245
0.3685771731274427 -1.024764256620384
0.34621104283058857 -1.024764256620384
0.3014787822368803 -0.9783283618687637
0.2343803913463179 -1.024764256620384
0.14491587015890142 -0.9783283618687637
0.14491587015890142 -0.9318924671171435
0.12254973986204729 -1.024764256620384
0.07781747926833903 -0.8854565723655231
0.03308521867463077 -0.8854565723655231
0.10018360956519315 -0.9783283618687637
0.12254973986204729 -0.7925847828622825
0.07781747926833903 -0.6997129933590419
0.10018360956519315 -0.7461488881106623
0.14491587015890142 -0.7461488881106623
0.14491587015890142 -0.5604053091041811
0.10018360956519315 -0.6068412038558013
0.18964813075260967 -0.4210976248493201
0.18964813075260967 -0.4675335196009404
0.2120142610494638 -0.7461488881106623
0.2120142610494638 -1.024764256620384
0.2567465216431721 -1.164071940875245
0.32384491253373443 -1.303379625130106
0.3014787822368803 -1.2569437303784856
0.34621104283058857 -0.9783283618687637
0.34621104283058857 -0.6997129933590419
0.2343803913463179 -0.6068412038558013
0.10018360956519315 -0.4675335196009404
-0.034013172215931614 -0.4675335196009404
-0.12347769340334813 -0.6532770986074217
-0.056379302512785744 -0.9318924671171435
0.2120142610494638 -1.164071940875245
0.6369707366896923 -1.303379625130106
1.106659472923629 -1.303379625130106
1.6881788606418362 -1.2105078356268653
2.2473321180631896 -1.303379625130106
2.873583766375105 -1.349815519881726
3.3209063723121877 -1.5355590988882073
3.544567675280729 -1.8141744673979292
3.6340321964681452 -1.90704625690117
3.2314418511247713 -2.092789835907651
2.62755633310971 -2.2785334149141323
2.0236708150946483 -2.557148783423854
1.3750530364858784 -2.7428923624303354
0.7264352578771087 -2.696456467678715
0.03308521867463077 -2.417841099168993
-0.7720954720121178 -2.092789835907651
-1.4430793809177418 -1.303379625130106
-1.8233035959642618 -0.5139694143525607
-1.8904019868548243 0.6933638491895672
-1.7114729444799912 1.6220817442219733
-1.510177771808304 2.2721842707446576
-1.2641503385429087 2.086440691738176
-1.1075874264649297 1.5292099547187326
-1.0852212961680756 0.7862356386928078
-1.0181229052775134 0.04326132266688292
-1.0181229052775134 -0.6068412038558013
-0.9062922537932426 -0.8854565723655231
-0.794461602308972 -0.8390206776139029
-0.7273632114184095 -0.8854565723655231
-0.5484341690435766 -0.7925847828622825
-0.45896964785616007 -0.8390206776139029
-0.45896964785616007 -0.8390206776139029
-0.4142373872624518 -0.8854565723655231
-0.45896964785616007 -0.9783283618687637
-0.43660351755930593 -0.9783283618687637
-0.43660351755930593 -1.024764256620384
-0.43660351755930593 -1.024764256620384
-0.3471389963718894 -1.024764256620384
-0.30240673577818117 -0.9783283618687637
-0.28004060548132703 -0.9783283618687637
-0.28004060548132703 -0.9318924671171435
-0.3471389963718894 -0.9783283618687637
-0.39187125696559766 -0.7925847828622825
-0.5037019084498683 -0.7925847828622825
-0.5931664296372848 -0.6997129933590419
-0.6602648205278472 -0.7461488881106623
-0.5931664296372848 -0.9318924671171435
-0.5037019084498683 -0.9783283618687637
-0.39187125696559766 -0.9318924671171435
-0.3471389963718894 -0.9783283618687637
-0.30240673577818117 -1.0712001513720044
-0.3695051266687435 -1.024764256620384
-0.5260680387467225 -0.9783283618687637
-0.6602648205278472 -0.8390206776139029
-0.6378986902309931 -0.7925847828622825
-0.5037019084498683 -0.6997129933590419
-0.28004060548132703 -0.6068412038558013
-0.14584382370020227 -0.6068412038558013
-0.056379302512785744 -0.5604053091041811
-0.23530834488761876 -0.6532770986074217
-0.6378986902309931 -0.8854565723655231
-1.0181229052775134 -1.024764256620384
-1.2641503385429087 -0.9783283618687637
-1.3536148597303252 -0.8390206776139029
-1.2417842082460546 -0.8390206776139029
-1.0181229052775134 -0.9783283618687637
-0.8391938629026803 -1.2105078356268653
-0.7273632114184095 -1.5819949936398277
-0.7720954720121178 -1.628430888391448
-0.794461602308972 -1.628430888391448
-0.8839261234963884 -1.628430888391448
-0.9286583840900967 -1.4426873093849668
-0.9957567749806592 -1.349815519881726
-1.0404890355743674 -1.303379625130106
-1.0404890355743674 -1.3962514146333465
-1.0181229052775134 -1.4426873093849668
-0.9957567749806592 -1.349815519881726
-1.0404890355743674 -1.303379625130106
-1.0181229052775134 -1.164071940875245
-0.9957567749806592 -1.303379625130106
-0.973390644683805 -1.303379625130106
-1.0181229052775134 -1.349815519881726
-1.0628551658712215 -1.3962514146333465
-1.1075874264649297 -1.4426873093849668
-1.152319687058638 -1.4426873093849668
-1.129953556761784 -1.4426873093849668
-1.1746858173554922 -1.3962514146333465
-1.152319687058638 -1.2105078356268653
-1.152319687058638 -1.303379625130106
-1.152319687058638 -1.349815519881726
-1.129953556761784 -1.2569437303784856
-1.0852212961680756 -1.3962514146333465
-1.152319687058638 -1.303379625130106
-1.152319687058638 -1.349815519881726
-1.152319687058638 -1.3962514146333465
-1.129953556761784 -1.4891232041365872
-1.129953556761784 -1.5819949936398277
-1.1746858173554922 -1.4426873093849668
-1.1075874264649297 -1.4426873093849668
-1.0404890355743674 -1.349815519881726
-0.9510245143869509 -1.2105078356268653
-0.8839261234963884 -1.164071940875245
-0.8839261234963884 -1.2105078356268653
-0.9286583840900967 -1.2569437303784856
-1.0404890355743674 -1.1176360461236245
-1.0628551658712215 -0.9783283618687637
-1.0181229052775134 -0.6532770986074217
-0.9062922537932426 -0.7461488881106623
-0.7720954720121178 -0.8854565723655231
-0.6826309508247014 -1.3962514146333465
-0.5708002993404308 -1.95348215165279
-0.4813357781530142 -2.2320975201625117
-0.4142373872624518 -2.0463539411560308
-0.3471389963718894 -1.8141744673979292
-0.28004060548132703 -1.6748667831430684
-0.3247728660750353 -1.3962514146333465
-0.3471389963718894 -1.3962514146333465
-0.3471389963718894 -1.4426873093849668
-0.4142373872624518 -1.5819949936398277
-0.3695051266687435 -1.6748667831430684
-0.3471389963718894 -1.8141744673979292
-0.1905760842939105 -1.7677385726463088
-0.011647041919077486 -1.628430888391448
0.2120142610494638 -1.5819949936398277
0.34621104283058857 -1.4426873093849668
0.5251400852054215 -1.164071940875245
0.7040691275802546 -1.1176360461236245
0.7935336487676712 -1.2569437303784856
0.7488013881739629 -1.1176360461236245
0.592238476095984 -1.164071940875245
0.39094330342429684 -1.303379625130106
0.18964813075260967 -1.2569437303784856
0.10018360956519315 -1.349815519881726
0.2120142610494638 -1.2569437303784856
0.3014787822368803 -1.024764256620384
0.413309433721151 -0.7461488881106623
0.43567556401800506 -0.4675335196009404
0.5698723457991298 -0.04961046683635768
0.6593368669865464 0.2754407964249844
0.6817029972834004 0.507620270183086
0.5698723457991298 0.22900490167336413
0.39094330342429684 -0.6532770986074217
0.2120142610494638 -1.6748667831430684
-0.011647041919077486 -2.4642769939206133
-0.12347769340334813 -2.7428923624303354
-0.12347769340334813 -2.417841099168993
0.010719088377776641 -2.0463539411560308
0.14491587015890142 -1.4891232041365872
0.18964813075260967 -1.164071940875245
0.2343803913463179 -1.0712001513720044
0.18964813075260967 -0.9318924671171435
0.12254973986204729 -1.1176360461236245
0.10018360956519315 -1.024764256620384
0.07781747926833903 -1.2105078356268653
0.07781747926833903 -1.2105078356268653
0.03308521867463077 -1.2105078356268653
0.12254973986204729 -1.303379625130106
0.10018360956519315 -1.303379625130106
0.12254973986204729 -1.1176360461236245
0.10018360956519315 -1.0712001513720044
0.12254973986204729 -0.9318924671171435
0.10018360956519315 -1.0712001513720044
0.10018360956519315 -1.024764256620384
0.07781747926833903 -1.1176360461236245
0.10018360956519315 -1.1176360461236245
0.16728200045575553 -1.2105078356268653
0.2567465216431721 -1.164071940875245
0.3014787822368803 -1.1176360461236245
0.3685771731274427 -1.2105078356268653
0.413309433721151 -1.164071940875245
0.3014787822368803 -1.0712001513720044
0.14491587015890142 -0.9783283618687637
-0.056379302512785744 -0.9783283618687637
-0.3247728660750353 -1.024764256620384
-0.4142373872624518 -0.9783283618687637
-0.3471389963718894 -1.0712001513720044
-0.2576744751844729 -1.0712001513720044
-0.16820995399705638 -1.2569437303784856
-0.056379302512785744 -1.2105078356268653
0.010719088377776641 -1.2569437303784856
0.03308521867463077 -1.2569437303784856
0.010719088377776641 -1.1176360461236245
0.0554513489714849 -1.1176360461236245
0.0554513489714849 -1.1176360461236245
-0.011647041919077486 -1.0712001513720044
-0.07874543280963987 -1.024764256620384
-0.056379302512785744 -0.9318924671171435
-0.101111563106494 -0.9783283618687637
-0.16820995399705638 -0.9318924671171435
-0.16820995399705638 -1.164071940875245
-0.1905760842939105 -1.164071940875245
-0.14584382370020227 -1.303379625130106
-0.12347769340334813 -1.3962514146333465
-0.07874543280963987 -1.3962514146333465
-0.056379302512785744 -1.303379625130106
0.03308521867463077 -1.1176360461236245
0.12254973986204729 -1.0712001513720044
0.18964813075260967 -1.024764256620384
0.3014787822368803 -0.8390206776139029
0.34621104283058857 -0.7925847828622825
0.34621104283058857 -0.7925847828622825
0.2567465216431721 -0.7925847828622825
0.16728200045575553 -0.8390206776139029
0.10018360956519315 -0.9318924671171435
0.03308521867463077 -0.9318924671171435
0.10018360956519315 -0.7925847828622825
0.18964813075260967 -0.6068412038558013
0.27911265194002616 -0.5139694143525607
0.3685771731274427 -0.5139694143525607
0.43567556401800506 -0.6532770986074217
0.48040782461171333 -0.8854565723655231
0.5251400852054215 -0.9318924671171435
0.5027739549085675 -1.1176360461236245
0.4580416943148592 -1.1176360461236245
0.4580416943148592 -1.2105078356268653
0.3685771731274427 -1.349815519881726
0.32384491253373443 -1.349815519881726
0.3014787822368803 -1.3962514146333465
0.32384491253373443 -1.4426873093849668
0.3014787822368803 -1.349815519881726
0.2343803913463179 -1.3962514146333465
0.14491587015890142 -1.2105078356268653
0.07781747926833903 -1.349815519881726
0.07781747926833903 -1.349815519881726
0.03308521867463077 -1.4426873093849668
-0.07874543280963987 -1.5819949936398277
-0.12347769340334813 -1.628430888391448
-0.21294221459076465 -1.6748667831430684
-0.23530834488761876 -1.5355590988882073
-0.28004060548132703 -1.4426873093849668
-0.23530834488761876 -1.349815519881726
-0.21294221459076465 -1.2569437303784856
-0.1905760842939105 -1.2569437303784856
-0.1905760842939105 -1.0712001513720044
-0.2576744751844729 -1.1176360461236245
-0.3247728660750353 -1.2105078356268653
-0.30240673577818117 -1.303379625130106
-0.3247728660750353 -1.349815519881726
-0.3695051266687435 -1.3962514146333465
-0.3247728660750353 -1.3962514146333465
-0.23530834488761876 -1.2569437303784856
-0.21294221459076465 -1.4426873093849668
-0.21294221459076465 -1.2569437303784856
-0.12347769340334813 -1.2569437303784856
-0.16820995399705638 -1.164071940875245
-0.28004060548132703 -1.164071940875245
-0.39187125696559766 -1.2569437303784856
-0.43660351755930593 -1.303379625130106
-0.4813357781530142 -1.303379625130106
-0.4142373872624518 -1.349815519881726
-0.3247728660750353 -1.303379625130106
-0.1905760842939105 -1.3962514146333465
-0.12347769340334813 -1.3962514146333465
-0.101111563106494 -1.3962514146333465
-0.101111563106494 -1.2105078356268653
-0.1905760842939105 -1.1176360461236245
-0.23530834488761876 -1.2105078356268653
-0.21294221459076465 -1.0712001513720044
-0.011647041919077486 -1.024764256620384
0.2343803913463179 -1.024764256620384
0.6146046063928381 -1.2105078356268653
0.9500965608456501 -1.303379625130106
1.486883687970149 -1.4891232041365872
2.0236708150946483 -1.6748667831430684
2.62755633310971 -1.90704625690117
3.0972450693436464 -2.1856616254108916
3.365638632905896 -2.2785334149141323
3.38800476320275 -2.2320975201625117
3.0748789390467923 -2.417841099168993
2.493359551328585 -2.6035846781754746
1.8671079030166693 -2.8822000466851962
1.2632223850016078 -3.021507730940057
0.5698723457991298 -3.2536872046981586
-0.101111563106494 -3.0679436256916772
-0.9286583840900967 -2.8822000466851962
-1.8009374656674078 -2.510712888672234
-2.4495552442761777 -1.8141744673979292
-2.740314938135281 -0.8390206776139029
-2.695582677541573 0.18256900692174383
-2.427189113979323 0.8326715334444281
-2.0022326383390947 1.0648510072025297
-1.6443745535894287 0.7397997439411874
-1.3088825991366169 0.2754407964249844
-1.0852212961680756 -0.3282258353460795
-0.9510245143869509 -0.8390206776139029
-0.8839261234963884 -1.2105078356268653
-0.9062922537932426 -1.349815519881726
-0.9062922537932426 -1.4426873093849668
-0.8391938629026803 -1.4426873093849668
-0.8391938629026803 -1.4891232041365872
-0.7497293417152637 -1.349815519881726
-0.7720954720121178 -1.4426873093849668
-0.794461602308972 -1.303379625130106
-0.794461602308972 -1.303379625130106
-0.8168277326058261 -1.2105078356268653
-0.8615599931995344 -1.2569437303784856
-0.8839261234963884 -1.303379625130106
-0.8615599931995344 -1.349815519881726
-0.9062922537932426 -1.4426873093849668
-0.8615599931995344 -1.4426873093849668
-0.9286583840900967 -1.5355590988882073
-0.973390644683805 -1.4891232041365872
-0.973390644683805 -1.349815519881726
-0.9957567749806592 -1.2105078356268653
-0.9510245143869509 -1.2569437303784856
-0.9286583840900967 -1.164071940875245
-0.8615599931995344 -1.1176360461236245
-0.8391938629026803 -1.2105078356268653
-0.8615599931995344 -1.2569437303784856
-0.8168277326058261 -1.3962514146333465
-0.8615599931995344 -1.5355590988882073
-0.8615599931995344 -1.628430888391448
-0.973390644683805 -1.7213026778946885
-0.9957567749806592 -1.6748667831430684
-0.9510245143869509 -1.5355590988882073
-0.9062922537932426 -1.4891232041365872
-0.9062922537932426 -1.3962514146333465
-0.8391938629026803 -1.2105078356268653
-0.8168277326058261 -1.2105078356268653
-0.8391938629026803 -1.2569437303784856
-0.9062922537932426 -1.303379625130106
-1.0404890355743674 -1.349815519881726
-1.0852212961680756 -1.4426873093849668
-1.0852212961680756 -1.5355590988882073
-1.152319687058638 -1.628430888391448
-1.1746858173554922 -1.6748667831430684
-1.1075874264649297 -1.628430888391448
-0.973390644683805 -1.4891232041365872
-0.9062922537932426 -1.4426873093849668
-0.9062922537932426 -1.303379625130106
-0.8615599931995344 -1.303379625130106
-0.9286583840900967 -1.349815519881726
-1.0181229052775134 -1.2569437303784856
-1.1075874264649297 -1.3962514146333465
-1.1746858173554922 -1.4426873093849668
-1.2417842082460546 -1.4426873093849668
-1.2194180779492003 -1.5355590988882073
-1.1970519476523462 -1.4426873093849668
-1.1970519476523462 -1.4891232041365872
-1.2194180779492003 -1.3962514146333465
-1.0628551658712215 -1.4891232041365872
-1.0852212961680756 -1.4891232041365872
-1.0181229052775134 -1.5355590988882073
-1.0404890355743674 -1.5355590988882073
-1.129953556761784 -1.5819949936398277
-1.1970519476523462 -1.5355590988882073
-1.3088825991366169 -1.6748667831430684
-1.3312487294334712 -1.6748667831430684
-1.3536148597303252 -1.8141744673979292
-1.3088825991366169 -1.8606103621495496
-1.2865164688397628 -1.6748667831430684
-1.2641503385429087 -1.628430888391448
-1.2417842082460546 -1.4891232041365872
-1.2417842082460546 -1.4426873093849668
-1.1970519476523462 -1.3962514146333465
-1.152319687058638 -1.4426873093849668
-1.1075874264649297 -1.5355590988882073
-1.0628551658712215 -1.4891232041365872
-1.0628551658712215 -1.4426873093849668
-1.1075874264649297 -1.5355590988882073
-1.152319687058638 -1.5819949936398277
-1.2194180779492003 -1.628430888391448
-1.2865164688397628 -1.7213026778946885
-1.2641503385429087 -1.4891232041365872
-1.1075874264649297 -1.4891232041365872
-1.0404890355743674 -1.303379625130106
-0.9062922537932426 -1.164071940875245
-0.7720954720121178 -1.2105078356268653
-0.7497293417152637 -1.2569437303784856
-0.7049970811215555 -1.3962514146333465
-0.6826309508247014 -1.6748667831430684
-0.5931664296372848 -1.6748667831430684
-0.5931664296372848 -1.8141744673979292
-0.4813357781530142 -1.7213026778946885
-0.39187125696559766 -1.7213026778946885
-0.28004060548132703 -1.628430888391448
-0.16820995399705638 -1.5355590988882073
-0.07874543280963987 -1.4426873093849668
0.03308521867463077 -1.4426873093849668
0.10018360956519315 -1.4891232041365872
0.12254973986204729 -1.5355590988882073
0.16728200045575553 -1.628430888391448
0.2343803913463179 -1.5819949936398277
0.2567465216431721 -1.6748667831430684
0.3014787822368803 -1.5355590988882073
0.32384491253373443 -1.4426873093849668
0.34621104283058857 -1.2569437303784856
0.34621104283058857 -1.2105078356268653
0.3685771731274427 -0.9783283618687637
0.3685771731274427 -0.9783283618687637
0.43567556401800506 -0.9783283618687637
0.4580416943148592 -1.0712001513720044
0.4580416943148592 -1.0712001513720044
0.43567556401800506 -0.9783283618687637
0.3685771731274427 -0.8854565723655231
0.3685771731274427 -0.9783283618687637
0.3685771731274427 -1.1176360461236245
0.34621104283058857 -1.303379625130106
0.32384491253373443 -1.349815519881726
0.3014787822368803 -1.2105078356268653
0.18964813075260967 -1.0712001513720044
0.18964813075260967 -0.7925847828622825
0.18964813075260967 -0.5604053091041811
0.27911265194002616 -0.5604053091041811
0.27911265194002616 -0.6068412038558013
0.34621104283058857 -1.024764256620384
0.32384491253373443 -1.2569437303784856
0.3685771731274427 -1.7213026778946885
0.3685771731274427 -1.7677385726463088
0.34621104283058857 -1.8141744673979292
0.3685771731274427 -1.7677385726463088
0.27911265194002616 -1.4891232041365872
0.2567465216431721 -1.349815519881726
0.2120142610494638 -1.164071940875245
0.14491587015890142 -1.0712001513720044
0.03308521867463077 -1.024764256620384
-0.034013172215931614 -1.2105078356268653
-0.12347769340334813 -1.2105078356268653
-0.1905760842939105 -1.2569437303784856
-0.16820995399705638 -1.349815519881726
-0.101111563106494 -1.303379625130106
-0.056379302512785744 -1.349815519881726
0.010719088377776641 -1.303379625130106
0.03308521867463077 -1.2105078356268653
0.07781747926833903 -1.1176360461236245
0.07781747926833903 -1.0712001513720044
0.10018360956519315 -1.0712001513720044
0.10018360956519315 -1.1176360461236245
0.0554513489714849 -1.2105078356268653
0.03308521867463077 -1.2569437303784856
-0.034013172215931614 -1.349815519881726
-0.056379302512785744 -1.3962514146333465
-0.011647041919077486 -1.4891232041365872
-0.034013172215931614 -1.3962514146333465
-0.056379302512785744 -1.3962514146333465
-0.011647041919077486 -1.349815519881726
-0.034013172215931614 -1.2569437303784856
-0.011647041919077486 -1.2569437303784856
0.03308521867463077 -1.164071940875245
0.03308521867463077 -1.164071940875245
0.010719088377776641 -1.164071940875245
-0.011647041919077486 -1.2105078356268653
-0.034013172215931614 -1.2569437303784856
-0.056379302512785744 -1.303379625130106
-0.101111563106494 -1.303379625130106
-0.056379302512785744 -1.349815519881726
-0.034013172215931614 -1.3962514146333465
-0.07874543280963987 -1.3962514146333465
-0.101111563106494 -1.3962514146333465
-0.011647041919077486 -1.2105078356268653
0.03308521867463077 -1.1176360461236245
0.07781747926833903 -1.0712001513720044
0.10018360956519315 -1.164071940875245
0.07781747926833903 -1.1176360461236245
0.0554513489714849 -1.2569437303784856
0.0554513489714849 -1.303379625130106
0.07781747926833903 -1.2105078356268653
0.12254973986204729 -1.164071940875245
0.14491587015890142 -1.164071940875245
0.2120142610494638 -0.9783283618687637
0.2120142610494638 -0.9318924671171435
0.3014787822368803 -0.7925847828622825
0.3014787822368803 -0.6532770986074217
0.27911265194002616 -0.5604053091041811
0.32384491253373443 -0.6532770986074217
0.3014787822368803 -0.8390206776139029
0.27911265194002616 -0.9318924671171435
0.34621104283058857 -1.0712001513720044
0.27911265194002616 -1.2105078356268653
0.3014787822368803 -1.303379625130106
0.3685771731274427 -1.2569437303784856
0.413309433721151 -1.2569437303784856
0.43567556401800506 -1.164071940875245
0.39094330342429684 -1.164071940875245
0.413309433721151 -1.164071940875245
0.39094330342429684 -1.2105078356268653
0.32384491253373443 -1.2105078356268653
0.2567465216431721 -1.349815519881726
0.2120142610494638 -1.5819949936398277
0.16728200045575553 -1.628430888391448
0.2120142610494638 -1.5819949936398277
0.27911265194002616 -1.5819949936398277
0.18964813075260967 -1.4891232041365872
0.10018360956519315 -1.4426873093849668
0.07781747926833903 -1.3962514146333465
0.03308521867463077 -1.2569437303784856
0.010719088377776641 -1.164071940875245
-0.034013172215931614 -1.164071940875245
-0.034013172215931614 -1.2569437303784856
-0.101111563106494 -1.2569437303784856
-0.2576744751844729 -1.303379625130106
-0.45896964785616007 -1.303379625130106
-0.5708002993404308 -1.303379625130106
-0.5931664296372848 -1.0712001513720044
-0.6155325599341389 -0.8390206776139029
-0.5037019084498683 -0.6068412038558013
-0.4813357781530142 -0.7925847828622825
-0.39187125696559766 -1.1176360461236245
-0.3471389963718894 -1.3962514146333465
-0.3471389963718894 -1.628430888391448
-0.39187125696559766 -1.5819949936398277
-0.3471389963718894 -1.4426873093849668
-0.4142373872624518 -1.4426873093849668
-0.4142373872624518 -1.349815519881726
-0.3695051266687435 -1.349815519881726
-0.3247728660750353 -1.4426873093849668
-0.3247728660750353 -1.4426873093849668
-0.3247728660750353 -1.303379625130106
-0.28004060548132703 -1.164071940875245
-0.3247728660750353 -1.0712001513720044
-0.28004060548132703 -0.9783283618687637
-0.2576744751844729 -0.9318924671171435
-0.1905760842939105 -1.024764256620384
0.0554513489714849 -1.024764256620384
0.34621104283058857 -1.2569437303784856
0.7935336487676712 -1.349815519881726
1.2408562547047537 -1.4891232041365872
1.7776433818292527 -1.6748667831430684
2.336796639250606 -1.7677385726463088
2.873583766375105 -1.90704625690117
3.2314418511247713 -2.1392257306592715
3.209075720827917 -2.3249693096657524
2.8959498966719592 -2.417841099168993
2.2920643786568977 -2.7428923624303354
1.486883687970149 -2.975071836188437
0.6817029972834004 -3.160815415194918
-0.056379302512785744 -3.114379520443298
-0.8839261234963884 -3.160815415194918
-1.7114729444799912 -2.7893282571819555
-2.337724592791907 -2.1856616254108916
-2.650850416947865 -1.3962514146333465
-2.740314938135281 -0.3746617300976998
-2.4719213745730317 0.7397997439411874
-2.1587955504170737 1.297030480960631
-1.8904019868548243 1.3899022704638717
-1.5996422929957206 1.0184151124509093
-1.3759809900271793 0.4611843754314657
-1.1970519476523462 -0.09604636158797798
-1.129953556761784 -0.6068412038558013
-1.152319687058638 -0.9318924671171435
-1.1970519476523462 -1.1176360461236245
-1.3312487294334712 -1.349815519881726
-1.3088825991366169 -1.349815519881726
-1.2194180779492003 -1.303379625130106
-1.0628551658712215 -1.2105078356268653
-0.9062922537932426 -1.1176360461236245
-0.794461602308972 -1.024764256620384
-0.6826309508247014 -1.024764256620384
-0.6602648205278472 -1.024764256620384
-0.6826309508247014 -1.164071940875245
-0.7720954720121178 -1.1176360461236245
-0.9062922537932426 -1.2569437303784856
-1.0404890355743674 -1.303379625130106
-1.1970519476523462 -1.4891232041365872
-1.2641503385429087 -1.4426873093849668
-1.2865164688397628 -1.349815519881726
-1.2194180779492003 -1.2105078356268653
-1.0628551658712215 -1.0712001513720044
-0.9510245143869509 -0.9783283618687637
-0.8839261234963884 -1.024764256620384
-0.8615599931995344 -1.1176360461236245
-0.9062922537932426 -1.303379625130106
-0.9286583840900967 -1.3962514146333465
-1.0852212961680756 -1.5355590988882073
-1.1075874264649297 -1.349815519881726
-1.129953556761784 -1.4891232041365872
-1.129953556761784 -1.2569437303784856
-1.129953556761784 -1.2105078356268653
-1.0404890355743674 -1.2569437303784856
-1.0404890355743674 -1.1176360461236245
-1.0628551658712215 -1.164071940875245
-1.0404890355743674 -1.164071940875245
-1.0181229052775134 -1.349815519881726
-1.0628551658712215 -1.303379625130106
-1.1075874264649297 -1.349815519881726
-1.152319687058638 -1.3962514146333465
-1.152319687058638 -1.3962514146333465
-1.1075874264649297 -1.4426873093849668
-1.0852212961680756 -1.4891232041365872
-0.973390644683805 -1.303379625130106
-0.9286583840900967 -1.349815519881726
-0.9286583840900967 -1.2569437303784856
-0.9286583840900967 -1.2105078356268653
-1.0404890355743674 -1.164071940875245
-1.1746858173554922 -1.2105078356268653
-1.2865164688397628 -1.3962514146333465
-1.3983471203240334 -1.4426873093849668
-1.4654455112145959 -1.5355590988882073
-1.5549100324020124 -1.5819949936398277
-1.5325439021051581 -1.5355590988882073
-1.510177771808304 -1.628430888391448
-1.4430793809177418 -1.5819949936398277
-1.3759809900271793 -1.4891232041365872
-1.3312487294334712 -1.3962514146333465
-1.3312487294334712 -1.303379625130106
-1.3088825991366169 -1.303379625130106
-1.3759809900271793 -1.4426873093849668
-1.3983471203240334 -1.4426873093849668
-1.3983471203240334 -1.5355590988882073
-1.4430793809177418 -1.5819949936398277
-1.4430793809177418 -1.628430888391448
-1.4430793809177418 -1.628430888391448
-1.48781164151145 -1.5355590988882073
-1.4207132506208875 -1.3962514146333465
-1.3759809900271793 -1.349815519881726
-1.3312487294334712 -1.164071940875245
-1.2641503385429087 -1.2105078356268653
-1.3312487294334712 -1.2569437303784856
-1.3312487294334712 -1.5355590988882073
-1.3536148597303252 -1.628430888391448
-1.3088825991366169 -1.7213026778946885
-1.3536148597303252 -1.8141744673979292
-1.3088825991366169 -1.8606103621495496
-1.3536148597303252 -1.7677385726463088
-1.3088825991366169 -1.6748667831430684
-1.1746858173554922 -1.5355590988882073
-1.0852212961680756 -1.4891232041365872
-1.0404890355743674 -1.4426873093849668
-0.9957567749806592 -1.303379625130106
-0.9286583840900967 -1.349815519881726
-0.9062922537932426 -1.349815519881726
-0.8615599931995344 -1.4426873093849668
-0.794461602308972 -1.5819949936398277
-0.6826309508247014 -1.5819949936398277
-0.6378986902309931 -1.628430888391448
-0.5037019084498683 -1.5819949936398277
-0.4142373872624518 -1.5355590988882073
-0.39187125696559766 -1.349815519881726
-0.4142373872624518 -1.3962514146333465
-0.3471389963718894 -1.2569437303784856
-0.2576744751844729 -1.349815519881726
-0.1905760842939105 -1.4891232041365872
-0.12347769340334813 -1.628430888391448
-0.07874543280963987 -1.5819949936398277
0.0554513489714849 -1.6748667831430684
0.10018360956519315 -1.5819949936398277
0.16728200045575553 -1.5355590988882073
0.2120142610494638 -1.303379625130106
0.2567465216431721 -1.303379625130106
0.3014787822368803 -1.349815519881726
0.32384491253373443 -1.3962514146333465
0.3685771731274427 -1.3962514146333465
0.34621104283058857 -1.349815519881726
0.32384491253373443 -1.3962514146333465
0.27911265194002616 -1.2105078356268653
0.2567465216431721 -1.164071940875245
0.2120142610494638 -1.2105078356268653
0.2343803913463179 -1.303379625130106
0.18964813075260967 -1.349815519881726
0.16728200045575553 -1.349815519881726
0.16728200045575553 -1.349815519881726
0.16728200045575553 -1.303379625130106
0.18964813075260967 -1.2105078356268653
0.18964813075260967 -1.0712001513720044
0.14491587015890142 -1.0712001513720044
0.16728200045575553 -1.1176360461236245
0.14491587015890142 -1.2105078356268653
0.10018360956519315 -1.2105078356268653
0.07781747926833903 -1.3962514146333465
0.03308521867463077 -1.349815519881726
0.010719088377776641 -1.2569437303784856
-0.011647041919077486 -1.4426873093849668
0.03308521867463077 -1.4426873093849668
-0.011647041919077486 -1.2569437303784856
0.03308521867463077 -1.2569437303784856
0.0554513489714849 -1.024764256620384
0.10018360956519315 -1.024764256620384
0.0554513489714849 -0.9783283618687637
-0.034013172215931614 -0.8854565723655231
-0.056379302512785744 -1.024764256620384
-0.07874543280963987 -1.024764256620384
-0.12347769340334813 -1.164071940875245
-0.101111563106494 -1.164071940875245
-0.07874543280963987 -1.0712001513720044
-0.101111563106494 -0.9318924671171435
-0.101111563106494 -0.8854565723655231
-0.056379302512785744 -0.9783283618687637
-0.011647041919077486 -1.164071940875245
-0.011647041919077486 -1.2569437303784856
0.010719088377776641 -1.4426873093849668
0.010719088377776641 -1.6748667831430684
-0.056379302512785744 -1.7213026778946885
-0.07874543280963987 -1.7677385726463088
-0.12347769340334813 -1.8141744673979292
-0.14584382370020227 -1.8141744673979292
-0.14584382370020227 -1.6748667831430684
-0.12347769340334813 -1.4891232041365872
-0.07874543280963987 -1.3962514146333465
-0.07874543280963987 -1.349815519881726
-0.07874543280963987 -1.349815519881726
-0.011647041919077486 -1.2105078356268653
-0.034013172215931614 -1.2105078356268653
-0.056379302512785744 -1.303379625130106
-0.056379302512785744 -1.4891232041365872
-0.07874543280963987 -1.5819949936398277
-0.101111563106494 -1.4891232041365872
-0.12347769340334813 -1.5819949936398277
-0.101111563106494 -1.3962514146333465
-0.101111563106494 -1.303379625130106
-0.101111563106494 -1.164071940875245
-0.07874543280963987 -1.1176360461236245
-0.056379302512785744 -0.9783283618687637
-0.056379302512785744 -0.7925847828622825
-0.011647041919077486 -0.6997129933590419
-0.07874543280963987 -0.6997129933590419
-0.07874543280963987 -0.7461488881106623
-0.07874543280963987 -1.0712001513720044
-0.12347769340334813 -1.3962514146333465
-0.101111563106494 -1.6748667831430684
-0.034013172215931614 -1.8141744673979292
-0.034013172215931614 -1.7677385726463088
-0.034013172215931614 -1.5355590988882073
0.03308521867463077 -1.349815519881726
0.14491587015890142 -1.1176360461236245
0.2120142610494638 -0.9318924671171435
0.3014787822368803 -0.8854565723655231
0.39094330342429684 -0.8854565723655231
0.34621104283058857 -0.7925847828622825
0.27911265194002616 -0.8390206776139029
0.2120142610494638 -0.7925847828622825
0.18964813075260967 -0.8390206776139029
0.2120142610494638 -0.8854565723655231
0.2567465216431721 -0.7925847828622825
0.39094330342429684 -0.8390206776139029
0.48040782461171333 -0.8390206776139029
0.5475062155022757 -0.8390206776139029
0.5475062155022757 -0.9318924671171435
0.48040782461171333 -0.9318924671171435
0.32384491253373443 -1.164071940875245
0.27911265194002616 -1.1176360461236245
0.2120142610494638 -1.2105078356268653
0.2120142610494638 -1.2569437303784856
0.2120142610494638 -1.349815519881726
0.2120142610494638 -1.4891232041365872
0.16728200045575553 -1.3962514146333465
0.10018360956519315 -1.4426873093849668
0.10018360956519315 -1.3962514146333465
0.10018360956519315 -1.4426873093849668
0.14491587015890142 -1.349815519881726
0.10018360956519315 -1.349815519881726
-0.011647041919077486 -1.349815519881726
-0.011647041919077486 -1.349815519881726
-0.056379302512785744 -1.303379625130106
-0.12347769340334813 -1.303379625130106
-0.16820995399705638 -1.164071940875245
-0.2576744751844729 -1.164071940875245
-0.2576744751844729 -1.303379625130106
-0.30240673577818117 -1.2569437303784856
-0.30240673577818117 -1.164071940875245
-0.3247728660750353 -1.1176360461236245
-0.3247728660750353 -1.0712001513720044
-0.28004060548132703 -0.9318924671171435
-0.28004060548132703 -1.0712001513720044
-0.30240673577818117 -1.024764256620384
-0.3247728660750353 -1.164071940875245
-0.30240673577818117 -1.1176360461236245
-0.28004060548132703 -1.303379625130106
-0.2576744751844729 -1.2569437303784856
-0.28004060548132703 -1.1176360461236245
-0.30240673577818117 -1.024764256620384
-0.39187125696559766 -1.1176360461236245
-0.43660351755930593 -1.1176360461236245
-0.45896964785616007 -1.024764256620384
-0.3695051266687435 -1.024764256620384
-0.3471389963718894 -1.024764256620384
-0.28004060548132703 -0.9783283618687637
-0.23530834488761876 -1.164071940875245
-0.21294221459076465 -1.0712001513720044
-0.21294221459076465 -1.164071940875245
-0.21294221459076465 -1.164071940875245
-0.21294221459076465 -1.0712001513720044
-0.14584382370020227 -0.9783283618687637
-0.034013172215931614 -0.9318924671171435
0.14491587015890142 -0.8390206776139029
0.3685771731274427 -0.8854565723655231
0.7488013881739629 -1.024764256620384
1.1737578638141912 -1.303379625130106
1.7329111212355446 -1.349815519881726
2.381528899844314 -1.5355590988882073
2.828851505781397 -1.8141744673979292
3.1419773299373546 -2.1392257306592715
3.2314418511247713 -2.371405204417373
2.9406821572656674 -2.510712888672234
2.4486272907348767 -2.7428923624303354
1.7105449909386905 -2.7893282571819555
1.0395610820330665 -2.7893282571819555
0.2343803913463179 -2.8357641519335757
-0.5931664296372848 -2.696456467678715
-1.5772761626988665 -2.2785334149141323
-2.360090723088761 -1.6748667831430684
-2.874511719916406 -0.7925847828622825
-2.89687785021326 0.3218766911766047
-2.583752026057302 1.0648510072025297
-2.2482600716044905 1.3899022704638717
-1.8904019868548243 1.1577227967057702
-1.48781164151145 0.5540561649347062
-1.2417842082460546 0.04326132266688292
-1.129953556761784 -0.4210976248493201
-1.0404890355743674 -0.6532770986074217
-1.0181229052775134 -0.8390206776139029
-1.0628551658712215 -0.9318924671171435
-1.0404890355743674 -1.1176360461236245
-1.0181229052775134 -1.303379625130106
-0.973390644683805 -1.4426873093849668
-0.9286583840900967 -1.5355590988882073
-0.8615599931995344 -1.349815519881726
-0.9062922537932426 -1.1176360461236245
-0.794461602308972 -0.9783283618687637
-0.794461602308972 -0.9318924671171435
-0.7720954720121178 -0.8854565723655231
-0.794461602308972 -0.8854565723655231
-0.794461602308972 -0.9318924671171435
-0.8615599931995344 -0.9318924671171435
-0.8615599931995344 -1.2105078356268653
-0.8391938629026803 -1.2105078356268653
-0.8839261234963884 -1.2569437303784856
-0.8839261234963884 -1.303379625130106
-0.9062922537932426 -1.349815519881726
-0.9510245143869509 -1.303379625130106
-0.973390644683805 -1.303379625130106
-0.9062922537932426 -1.2569437303784856
-0.9062922537932426 -1.164071940875245
-0.8615599931995344 -1.024764256620384
-0.8391938629026803 -0.9783283618687637
-0.8615599931995344 -0.9783283618687637
-0.9062922537932426 -1.0712001513720044
-0.9062922537932426 -1.2105078356268653
-0.9062922537932426 -1.2569437303784856
-0.9062922537932426 -1.3962514146333465
-0.8168277326058261 -1.2569437303784856
-0.7049970811215555 -1.303379625130106
-0.6826309508247014 -1.2105078356268653
-0.7273632114184095 -1.1176360461236245
-0.8839261234963884 -1.024764256620384
-1.0404890355743674 -0.8854565723655231
-1.1075874264649297 -1.024764256620384
-1.2194180779492003 -0.9783283618687637
-1.2417842082460546 -1.0712001513720044
-1.1746858173554922 -1.1176360461236245
-1.0852212961680756 -1.1176360461236245
-1.0404890355743674 -1.2105078356268653
-0.9957567749806592 -1.2569437303784856
-1.0852212961680756 -1.2105078356268653
-1.0852212961680756 -1.2569437303784856
-1.0852212961680756 -1.2105078356268653
-1.0628551658712215 -1.164071940875245
-1.0852212961680756 -1.164071940875245
-1.0628551658712215 -1.164071940875245
-1.0852212961680756 -1.2105078356268653
-1.129953556761784 -1.164071940875245
-1.129953556761784 -1.303379625130106
-1.152319687058638 -1.3962514146333465
-1.152319687058638 -1.303379625130106
-1.152319687058638 -1.349815519881726
-1.2194180779492003 -1.349815519881726
-1.1970519476523462 -1.303379625130106
-1.1970519476523462 -1.2569437303784856
-1.1746858173554922 -1.2105078356268653
-1.129953556761784 -1.164071940875245
-1.0404890355743674 -1.164071940875245
-1.0628551658712215 -1.2105078356268653
-1.129953556761784 -1.2569437303784856
-1.152319687058638 -1.349815519881726
-1.2865164688397628 -1.2569437303784856
-1.3312487294334712 -1.349815519881726
-1.3983471203240334 -1.4426873093849668
-1.4430793809177418 -1.349815519881726
-1.3759809900271793 -1.3962514146333465
-1.3536148597303252 -1.4426873093849668
-1.1746858173554922 -1.3962514146333465
-1.1075874264649297 -1.2105078356268653
-1.0404890355743674 -1.2569437303784856
-1.0181229052775134 -1.1176360461236245
-1.0404890355743674 -1.2105078356268653
-1.0628551658712215 -1.349815519881726
-1.1075874264649297 -1.4426873093849668
-1.0852212961680756 -1.5355590988882073
-1.0628551658712215 -1.5355590988882073
-0.9957567749806592 -1.3962514146333465
-0.973390644683805 -1.3962514146333465
-0.7720954720121178 -1.2105078356268653
-0.7049970811215555 -1.2105078356268653
-0.5484341690435766 -1.1176360461236245
-0.45896964785616007 -1.2105078356268653
-0.43660351755930593 -1.164071940875245
-0.3471389963718894 -1.303379625130106
-0.30240673577818117 -1.349815519881726
-0.28004060548132703 -1.349815519881726
-0.21294221459076465 -1.349815519881726
-0.1905760842939105 -1.5355590988882073
-0.034013172215931614 -1.4891232041365872
-0.056379302512785744 -1.4426873093849668
-0.011647041919077486 -1.349815519881726
0.03308521867463077 -1.349815519881726
0.10018360956519315 -1.0712001513720044
0.16728200045575553 -1.164071940875245
0.2120142610494638 -1.1176360461236245
0.2120142610494638 -1.164071940875245
0.2120142610494638 -1.2105078356268653
0.27911265194002616 -1.164071940875245
0.3014787822368803 -1.164071940875245
0.32384491253373443 -1.2105078356268653
0.3685771731274427 -1.1176360461236245
0.34621104283058857 -1.1176360461236245
0.3685771731274427 -0.9783283618687637
0.3685771731274427 -0.8854565723655231
0.3014787822368803 -0.6997129933590419
0.3014787822368803 -0.7925847828622825
0.3014787822368803 -0.8390206776139029
0.2567465216431721 -0.9783283618687637
0.2343803913463179 -0.9318924671171435
0.18964813075260967 -0.9783283618687637
0.2120142610494638 -1.024764256620384
0.16728200045575553 -1.024764256620384
0.16728200045575553 -1.024764256620384
0.12254973986204729 -0.9318924671171435
0.12254973986204729 -0.8390206776139029
0.14491587015890142 -0.8390206776139029
0.16728200045575553 -0.6997129933590419
0.14491587015890142 -0.6997129933590419
0.16728200045575553 -0.7925847828622825
0.16728200045575553 -0.8854565723655231
0.18964813075260967 -0.8854565723655231
0.12254973986204729 -0.9318924671171435
0.03308521867463077 -1.0712001513720044
0.0554513489714849 -0.9783283618687637
0.03308521867463077 -0.9783283618687637
0.0554513489714849 -0.8854565723655231
0.10018360956519315 -0.9783283618687637
0.16728200045575553 -0.8854565723655231
0.14491587015890142 -0.7925847828622825
0.16728200045575553 -0.8854565723655231
0.2343803913463179 -0.8390206776139029
0.2343803913463179 -0.9783283618687637
0.14491587015890142 -0.9318924671171435
0.03308521867463077 -1.0712001513720044
-0.07874543280963987 -1.024764256620384
-0.12347769340334813 -1.1176360461236245
-0.12347769340334813 -1.164071940875245
-0.101111563106494 -1.0712001513720044
-0.07874543280963987 -0.9783283618687637
-0.07874543280963987 -0.9318924671171435
-0.07874543280963987 -0.8854565723655231
-0.07874543280963987 -0.7925847828622825
-0.101111563106494 -0.9318924671171435
-0.07874543280963987 -1.0712001513720044
-0.034013172215931614 -1.164071940875245
-0.056379302512785744 -1.1176360461236245
-0.056379302512785744 -1.2105078356268653
-0.14584382370020227 -1.349815519881726
-0.16820995399705638 -1.2105078356268653
-0.101111563106494 -1.164071940875245
-0.07874543280963987 -1.0712001513720044
-0.07874543280963987 -0.9318924671171435
0.010719088377776641 -0.8854565723655231
0.010719088377776641 -0.8854565723655231
0.03308521867463077 -0.9783283618687637
0.010719088377776641 -1.0712001513720044
-0.011647041919077486 -1.164071940875245
0.0554513489714849 -1.2105078356268653
-0.034013172215931614 -1.303379625130106
-0.101111563106494 -1.2569437303784856
-0.12347769340334813 -1.2105078356268653
-0.14584382370020227 -1.0712001513720044
-0.12347769340334813 -1.0712001513720044
-0.056379302512785744 -1.0712001513720044
0.010719088377776641 -0.8854565723655231
-0.011647041919077486 -0.8854565723655231
0.0554513489714849 -1.0712001513720044
0.10018360956519315 -1.024764256620384
0.10018360956519315 -1.164071940875245
0.10018360956519315 -1.164071940875245
0.14491587015890142 -1.0712001513720044
0.2120142610494638 -1.024764256620384
0.2567465216431721 -0.8390206776139029
0.27911265194002616 -0.6997129933590419
0.3014787822368803 -0.6997129933590419
0.27911265194002616 -0.7461488881106623
0.2567465216431721 -0.6997129933590419
0.32384491253373443 -0.6068412038558013
0.32384491253373443 -0.6997129933590419
0.34621104283058857 -0.6532770986074217
0.43567556401800506 -0.7461488881106623
0.413309433721151 -0.7461488881106623
0.39094330342429684 -0.9783283618687637
0.39094330342429684 -1.024764256620384
0.27911265194002616 -1.024764256620384
0.2567465216431721 -1.0712001513720044
0.2567465216431721 -1.024764256620384
0.39094330342429684 -1.024764256620384
0.413309433721151 -0.8854565723655231
0.4580416943148592 -0.9783283618687637
0.43567556401800506 -1.1176360461236245
0.4580416943148592 -1.2569437303784856
0.3685771731274427 -1.4426873093849668
0.27911265194002616 -1.3962514146333465
0.18964813075260967 -1.5355590988882073
0.07781747926833903 -1.628430888391448
-0.011647041919077486 -1.5355590988882073
-0.07874543280963987 -1.4891232041365872
-0.12347769340334813 -1.349815519881726
-0.12347769340334813 -1.2105078356268653
-0.056379302512785744 -1.164071940875245
-0.07874543280963987 -1.0712001513720044
-0.12347769340334813 -1.024764256620384
-0.1905760842939105 -1.1176360461236245
-0.28004060548132703 -1.164071940875245
-0.28004060548132703 -1.2105078356268653
-0.3695051266687435 -1.2569437303784856
-0.3695051266687435 -1.349815519881726
-0.30240673577818117 -1.349815519881726
-0.3471389963718894 -1.2569437303784856
-0.3471389963718894 -1.164071940875245
-0.3471389963718894 -1.0712001513720044
-0.3471389963718894 -0.9783283618687637
-0.3471389963718894 -1.024764256620384
-0.3247728660750353 -1.164071940875245
-0.30240673577818117 -1.1176360461236245
-0.3247728660750353 -1.2569437303784856
-0.39187125696559766 -1.2569437303784856
-0.30240673577818117 -1.349815519881726
-0.3247728660750353 -1.303379625130106
-0.3695051266687435 -1.2569437303784856
-0.39187125696559766 -1.2569437303784856
-0.3695051266687435 -1.2105078356268653
-0.3247728660750353 -1.1176360461236245
-0.2576744751844729 -1.024764256620384
-0.16820995399705638 -1.024764256620384
-0.101111563106494 -0.9318924671171435
-0.034013172215931614 -0.9318924671171435
0.07781747926833903 -1.1176360461236245
0.27911265194002616 -1.1176360461236245
0.48040782461171333 -1.2569437303784856
0.7935336487676712 -1.3962514146333465
1.2855885152984619 -1.4891232041365872
1.9118401636103775 -1.5355590988882073
2.493359551328585 -1.628430888391448
2.9406821572656674 -1.90704625690117
3.2538079814216254 -2.0463539411560308
3.2538079814216254 -2.2320975201625117
2.828851505781397 -2.510712888672234
2.2025998574694814 -2.7893282571819555
1.464517557673295 -3.021507730940057
0.8158997790645253 -3.160815415194918
0.16728200045575553 -3.114379520443298
-0.6155325599341389 -3.0679436256916772
-1.4654455112145959 -2.8357641519335757
-2.2258939413076364 -2.2320975201625117
-2.717948807838427 -1.4891232041365872
-2.8074133290258434 -0.4675335196009404
-2.583752026057302 0.6004920596863266
-2.2706262019013446 1.3434663757122514
-1.9798665080422408 1.7149535337252138
-1.7562052050736996 1.297030480960631
-1.5996422929957206 0.7862356386928078
-1.4430793809177418 0.13613311217012353
-1.3536148597303252 -0.5139694143525607
-1.2417842082460546 -0.7461488881106623
-1.1746858173554922 -0.9783283618687637
-1.0852212961680756 -1.0712001513720044
-1.0181229052775134 -1.024764256620384
-0.973390644683805 -1.0712001513720044
-0.9286583840900967 -1.024764256620384
-0.8615599931995344 -1.0712001513720044
-0.794461602308972 -1.024764256620384
-0.8615599931995344 -1.1176360461236245
-0.8615599931995344 -1.164071940875245
-0.9510245143869509 -1.0712001513720044
-0.9062922537932426 -1.2105078356268653
-0.8839261234963884 -1.2105078356268653
-0.8391938629026803 -1.2105078356268653
-0.794461602308972 -1.1176360461236245
-0.794461602308972 -1.2105078356268653
-0.8615599931995344 -1.164071940875245
-0.8168277326058261 -1.2105078356268653
-0.9062922537932426 -1.2105078356268653
-0.9957567749806592 -1.4426873093849668
-0.9957567749806592 -1.349815519881726
-0.9510245143869509 -1.3962514146333465
-0.9062922537932426 -1.303379625130106
-0.8391938629026803 -1.2569437303784856
-0.8615599931995344 -1.164071940875245
-0.9510245143869509 -1.2105078356268653
-1.0404890355743674 -1.2569437303784856
-1.0628551658712215 -1.2569437303784856
-1.0628551658712215 -1.164071940875245
-1.0852212961680756 -1.303379625130106
-0.9510245143869509 -1.2105078356268653
-0.973390644683805 -1.349815519881726
-0.973390644683805 -1.303379625130106
-1.0181229052775134 -1.3962514146333465
-1.0628551658712215 -1.4426873093849668
-1.0404890355743674 -1.5355590988882073
-1.1075874264649297 -1.5355590988882073
-1.0852212961680756 -1.4426873093849668
-1.152319687058638 -1.4426873093849668
-1.0852212961680756 -1.349815519881726
-1.0628551658712215 -1.3962514146333465
-1.0852212961680756 -1.164071940875245
-1.0628551658712215 -1.349815519881726
-1.0628551658712215 -1.349815519881726
-1.152319687058638 -1.4426873093849668
-1.129953556761784 -1.4426873093849668
-1.1970519476523462 -1.4426873093849668
-1.2194180779492003 -1.5355590988882073
-1.2641503385429087 -1.5819949936398277
-1.2865164688397628 -1.5819949936398277
-1.2641503385429087 -1.4891232041365872
-1.1970519476523462 -1.4426873093849668
-1.152319687058638 -1.349815519881726
-1.1970519476523462 -1.2569437303784856
-1.2417842082460546 -1.349815519881726
-1.2417842082460546 -1.3962514146333465
-1.2865164688397628 -1.4426873093849668
-1.3088825991366169 -1.4891232041365872
-1.2865164688397628 -1.5819949936398277
-1.3312487294334712 -1.5819949936398277
-1.3536148597303252 -1.6748667831430684
-1.3536148597303252 -1.7677385726463088
-1.3088825991366169 -1.628430888391448
-1.3312487294334712 -1.5355590988882073
-1.3088825991366169 -1.3962514146333465
-1.2417842082460546 -1.349815519881726
-1.2641503385429087 -1.349815519881726
-1.2641503385429087 -1.349815519881726
-1.2641503385429087 -1.4891232041365872
-1.2865164688397628 -1.5355590988882073
-1.2865164688397628 -1.7213026778946885
-1.2865164688397628 -1.7677385726463088
-1.2865164688397628 -1.7213026778946885
-1.3088825991366169 -1.6748667831430684
-1.1970519476523462 -1.5819949936398277
-1.152319687058638 -1.4891232041365872
-1.1075874264649297 -1.3962514146333465
-1.1075874264649297 -1.303379625130106
-1.0852212961680756 -1.2569437303784856
-1.0628551658712215 -1.3962514146333465
-1.0181229052775134 -1.5355590988882073
-1.0404890355743674 -1.4891232041365872
-0.973390644683805 -1.628430888391448
-0.9286583840900967 -1.6748667831430684
-0.9286583840900967 -1.6748667831430684
-0.8168277326058261 -1.5819949936398277
-0.7720954720121178 -1.6748667831430684
-0.6826309508247014 -1.4891232041365872
-0.5484341690435766 -1.4891232041365872
-0.43660351755930593 -1.4426873093849668
-0.3471389963718894 -1.3962514146333465
-0.2576744751844729 -1.4891232041365872
-0.16820995399705638 -1.628430888391448
-0.12347769340334813 -1.628430888391448
-0.07874543280963987 -1.628430888391448
-0.034013172215931614 -1.7677385726463088
0.0554513489714849 -1.6748667831430684
0.10018360956519315 -1.6748667831430684
0.12254973986204729 -1.628430888391448
0.18964813075260967 -1.5355590988882073
0.2120142610494638 -1.3962514146333465
0.27911265194002616 -1.303379625130106
0.27911265194002616 -1.2569437303784856
0.3014787822368803 -1.303379625130106
0.32384491253373443 -1.349815519881726
0.27911265194002616 -1.3962514146333465
0.16728200045575553 -1.349815519881726
0.07781747926833903 -1.4426873093849668
0.14491587015890142 -1.4891232041365872
0.07781747926833903 -1.2569437303784856
0.10018360956519315 -1.2569437303784856
0.12254973986204729 -1.164071940875245
0.16728200045575553 -1.1176360461236245
0.16728200045575553 -0.9783283618687637
0.16728200045575553 -0.9783283618687637
0.2120142610494638 -1.0712001513720044
0.12254973986204729 -1.1176360461236245
0.14491587015890142 -1.1176360461236245
0.10018360956519315 -1.2569437303784856
0.10018360956519315 -1.2569437303784856
0.07781747926833903 -1.303379625130106
0.03308521867463077 -1.2569437303784856
-0.011647041919077486 -1.2105078356268653
-0.034013172215931614 -1.0712001513720044
-0.034013172215931614 -1.0712001513720044
-0.034013172215931614 -1.0712001513720044
-0.011647041919077486 -0.8854565723655231
-0.101111563106494 -0.9783283618687637
-0.14584382370020227 -1.0712001513720044
-0.14584382370020227 -1.024764256620384
-0.21294221459076465 -1.1176360461236245
-0.2576744751844729 -1.303379625130106
-0.28004060548132703 -1.2569437303784856
-0.2576744751844729 -1.2105078356268653
-0.23530834488761876 -1.2569437303784856
-0.23530834488761876 -1.164071940875245
-0.1905760842939105 -1.164071940875245
-0.1905760842939105 -1.0712001513720044
-0.14584382370020227 -1.164071940875245
-0.14584382370020227 -1.164071940875245
-0.21294221459076465 -1.1176360461236245
-0.1905760842939105 -1.164071940875245
-0.23530834488761876 -1.2105078356268653
-0.28004060548132703 -1.1176360461236245
-0.2576744751844729 -1.164071940875245
-0.30240673577818117 -1.1176360461236245
-0.30240673577818117 -1.164071940875245
-0.21294221459076465 -1.2569437303784856
-0.1905760842939105 -1.2569437303784856
-0.16820995399705638 -1.2569437303784856
-0.1905760842939105 -1.164071940875245
-0.14584382370020227 -1.2569437303784856
-0.2576744751844729 -1.2105078356268653
-0.2576744751844729 -1.303379625130106
-0.30240673577818117 -1.2105078356268653
-0.30240673577818117 -1.303379625130106
-0.2576744751844729 -1.349815519881726
-0.30240673577818117 -1.4426873093849668
-0.30240673577818117 -1.5355590988882073
-0.30240673577818117 -1.4891232041365872
-0.28004060548132703 -1.4891232041365872
-0.30240673577818117 -1.4891232041365872
-0.21294221459076465 -1.349815519881726
-0.21294221459076465 -1.4426873093849668
-0.21294221459076465 -1.4891232041365872
-0.1905760842939105 -1.628430888391448
-0.21294221459076465 -1.628430888391448
-0.30240673577818117 -1.628430888391448
-0.3247728660750353 -1.6748667831430684
-0.30240673577818117 -1.5355590988882073
-0.2576744751844729 -1.5355590988882073
-0.21294221459076465 -1.4891232041365872
-0.07874543280963987 -1.3962514146333465
0.07781747926833903 -1.2105078356268653
0.2343803913463179 -1.1176360461236245
0.32384491253373443 -1.024764256620384
0.3685771731274427 -1.0712001513720044
0.3014787822368803 -1.024764256620384
0.14491587015890142 -1.1176360461236245
-0.011647041919077486 -1.164071940875245
-0.16820995399705638 -1.2569437303784856
-0.28004060548132703 -1.1176360461236245
-0.2576744751844729 -1.0712001513720044
-0.101111563106494 -0.9318924671171435
0.010719088377776641 -0.8854565723655231
0.10018360956519315 -0.9783283618687637
0.16728200045575553 -1.024764256620384
0.16728200045575553 -1.024764256620384
0.14491587015890142 -1.1176360461236245
0.12254973986204729 -1.2105078356268653
0.03308521867463077 -1.349815519881726
-0.056379302512785744 -1.4426873093849668
-0.12347769340334813 -1.5355590988882073
-0.101111563106494 -1.4891232041365872
-0.101111563106494 -1.4891232041365872
-0.056379302512785744 -1.4426873093849668
-0.07874543280963987 -1.4426873093849668
-0.011647041919077486 -1.303379625130106
-0.056379302512785744 -1.349815519881726
-0.101111563106494 -1.4426873093849668
-0.1905760842939105 -1.4891232041365872
-0.23530834488761876 -1.4891232041365872
-0.3247728660750353 -1.5355590988882073
-0.3695051266687435 -1.5355590988882073
-0.43660351755930593 -1.628430888391448
-0.5037019084498683 -1.4891232041365872
-0.5484341690435766 -1.4426873093849668
-0.5037019084498683 -1.2569437303784856
-0.6155325599341389 -1.303379625130106
-0.5484341690435766 -1.2105078356268653
-0.5037019084498683 -1.2105078356268653
-0.6378986902309931 -1.2105078356268653
-0.6826309508247014 -1.2105078356268653
-0.6602648205278472 -1.2569437303784856
-0.6602648205278472 -1.5355590988882073
-0.6826309508247014 -1.3962514146333465
-0.7273632114184095 -1.4891232041365872
-0.7497293417152637 -1.3962514146333465
-0.7497293417152637 -1.349815519881726
-0.7049970811215555 -1.2569437303784856
-0.7049970811215555 -1.2105078356268653
-0.6826309508247014 -1.024764256620384
-0.6378986902309931 -1.024764256620384
-0.7049970811215555 -1.2569437303784856
-0.7049970811215555 -1.2105078356268653
-0.6826309508247014 -1.2569437303784856
-0.7720954720121178 -1.349815519881726
-0.7497293417152637 -1.4891232041365872
-0.7497293417152637 -1.4426873093849668
-0.7497293417152637 -1.3962514146333465
-0.6826309508247014 -1.3962514146333465
-0.6378986902309931 -1.2105078356268653
-0.5708002993404308 -1.1176360461236245
-0.4813357781530142 -1.164071940875245
-0.1905760842939105 -1.1176360461236245
0.0554513489714849 -1.2105078356268653
0.39094330342429684 -1.303379625130106
0.8158997790645253 -1.5355590988882073
1.2855885152984619 -1.8141744673979292
1.8000095121261068 -1.9999180464044104
2.2920643786568977 -2.1392257306592715
2.538091811922293 -2.3249693096657524
2.538091811922293 -2.510712888672234
2.2025998574694814 -2.696456467678715
1.5316159485638574 -2.7893282571819555
0.8829981699550876 -2.7893282571819555
0.2120142610494638 -2.7893282571819555
-0.6602648205278472 -2.557148783423854
-1.5549100324020124 -2.1392257306592715
-2.404822983682469 -1.628430888391448
-2.9192439805101142 -0.9318924671171435
-2.9639762411038224 -0.09604636158797798
-2.717948807838427 0.8326715334444281
-2.4719213745730317 1.575645849470353
-2.181161680713928 1.9935689022349357
-2.0469648989328033 1.575645849470353
-1.9798665080422408 1.0648510072025297
-1.8904019868548243 0.4147484806798453
-1.8009374656674078 -0.1424822563395983
-1.6891068141831371 -0.6532770986074217
-1.5772761626988665 -1.024764256620384
-1.4654455112145959 -1.349815519881726
-1.3759809900271793 -1.4426873093849668
-1.3088825991366169 -1.4426873093849668
-1.2641503385429087 -1.5355590988882073
-1.2865164688397628 -1.5355590988882073
-1.2417842082460546 -1.4891232041365872
-1.2417842082460546 -1.4426873093849668
-1.2641503385429087 -1.4891232041365872
-1.2417842082460546 -1.4426873093849668
-1.1746858173554922 -1.4426873093849668
-1.2417842082460546 -1.349815519881726
-1.2641503385429087 -1.3962514146333465
-1.2865164688397628 -1.3962514146333465
-1.2865164688397628 -1.5819949936398277
-1.2865164688397628 -1.6748667831430684
-1.3312487294334712 -1.5819949936398277
-1.3088825991366169 -1.7213026778946885
-1.3312487294334712 -1.8141744673979292
-1.3088825991366169 -1.628430888391448
-1.3312487294334712 -1.6748667831430684
-1.3088825991366169 -1.628430888391448
-1.2865164688397628 -1.628430888391448
-1.3536148597303252 -1.6748667831430684
-1.4207132506208875 -1.6748667831430684
-1.3536148597303252 -1.6748667831430684
-1.3759809900271793 -1.7677385726463088
-1.3983471203240334 -1.7213026778946885
-1.4207132506208875 -1.6748667831430684
-1.3983471203240334 -1.8141744673979292
-1.4207132506208875 -1.8141744673979292
-1.4430793809177418 -1.7677385726463088
-1.4654455112145959 -1.5819949936398277
-1.3312487294334712 -1.5355590988882073
-1.3536148597303252 -1.4426873093849668
-1.3759809900271793 -1.4426873093849668
-1.4430793809177418 -1.4891232041365872
-1.510177771808304 -1.4426873093849668
-1.5549100324020124 -1.6748667831430684
-1.5772761626988665 -1.628430888391448
-1.5772761626988665 -1.7677385726463088
-1.5996422929957206 -1.628430888391448
-1.5325439021051581 -1.5819949936398277
-1.4654455112145959 -1.6748667831430684
-1.4430793809177418 -1.5819949936398277
-1.4430793809177418 -1.5819949936398277
-1.3983471203240334 -1.628430888391448
-1.4654455112145959 -1.7677385726463088
-1.5549100324020124 -1.7213026778946885
-1.5996422929957206 -1.7213026778946885
-1.6220084232925747 -1.8141744673979292
-1.6443745535894287 -1.9999180464044104
-1.6443745535894287 -1.9999180464044104
-1.6443745535894287 -1.95348215165279
-1.6891068141831371 -1.95348215165279
-1.6443745535894287 -1.7677385726463088
-1.666740683886283 -1.8141744673979292
-1.6443745535894287 -1.7213026778946885
-1.5996422929957206 -1.7213026778946885
-1.6220084232925747 -1.7677385726463088
-1.6891068141831371 -1.8141744673979292
-1.7114729444799912 -1.90704625690117
-1.7338390747768453 -1.9999180464044104
-1.7562052050736996 -2.0463539411560308
-1.8009374656674078 -1.9999180464044104
-1.845669726261116 -2.0463539411560308
-1.7785713353705537 -1.90704625690117
-1.7562052050736996 -1.90704625690117
-1.7338390747768453 -1.8141744673979292
-1.666740683886283 -1.8606103621495496
-1.5549100324020124 -1.8606103621495496
-1.5549100324020124 -1.90704625690117
-1.666740683886283 -2.092789835907651
-1.666740683886283 -2.092789835907651
-1.666740683886283 -2.2785334149141323
-1.666740683886283 -2.2785334149141323
-1.666740683886283 -2.1392257306592715
-1.666740683886283 -2.1856616254108916
-1.6443745535894287 -2.092789835907651
-1.5772761626988665 -2.1856616254108916
-1.5549100324020124 -2.092789835907651
-1.48781164151145 -2.092789835907651
-1.3983471203240334 -1.9999180464044104
-1.3536148597303252 -1.9999180464044104
-1.3088825991366169 -2.0463539411560308
-1.2865164688397628 -2.0463539411560308
-1.2194180779492003 -2.0463539411560308
-1.2641503385429087 -1.9999180464044104
-1.2194180779492003 -2.092789835907651
-1.152319687058638 -2.0463539411560308
-1.0404890355743674 -1.9999180464044104
-0.9062922537932426 -1.90704625690117
-0.7497293417152637 -1.8606103621495496
-0.6155325599341389 -1.8606103621495496
-0.4813357781530142 -1.90704625690117
-0.39187125696559766 -1.95348215165279
-0.4813357781530142 -1.9999180464044104
-0.39187125696559766 -1.9999180464044104
-0.39187125696559766 -2.0463539411560308
-0.3247728660750353 -1.9999180464044104
-0.3247728660750353 -1.9999180464044104
-0.3247728660750353 -1.90704625690117
-0.3247728660750353 -1.90704625690117
-0.28004060548132703 -1.7677385726463088
-0.23530834488761876 -1.8141744673979292
-0.16820995399705638 -1.8606103621495496
-0.056379302512785744 -1.7213026778946885
-0.12347769340334813 -1.90704625690117
-0.14584382370020227 -1.8606103621495496
-0.16820995399705638 -1.8141744673979292
-0.21294221459076465 -1.95348215165279
-0.3471389963718894 -1.8141744673979292
-0.3695051266687435 -1.8606103621495496
-0.3471389963718894 -1.8141744673979292
-0.4142373872624518 -1.7677385726463088
-0.39187125696559766 -1.5819949936398277
-0.3695051266687435 -1.7213026778946885
-0.45896964785616007 -1.3962514146333465
-0.45896964785616007 -1.349815519881726
-0.45896964785616007 -1.349815519881726
-0.45896964785616007 -1.349815519881726
-0.4813357781530142 -1.3962514146333465
-0.5484341690435766 -1.349815519881726
-0.5708002993404308 -1.4891232041365872
-0.5931664296372848 -1.5819949936398277
-0.5931664296372848 -1.4891232041365872
-0.5708002993404308 -1.3962514146333465
-0.5931664296372848 -1.349815519881726
-0.5484341690435766 -1.349815519881726
-0.43660351755930593 -1.349815519881726
-0.3471389963718894 -1.349815519881726
-0.4142373872624518 -1.3962514146333465
-0.4813357781530142 -1.303379625130106
-0.5260680387467225 -1.5355590988882073
-0.5931664296372848 -1.4426873093849668
-0.5931664296372848 -1.5819949936398277
-0.5931664296372848 -1.6748667831430684
-0.6155325599341389 -1.6748667831430684
-0.5931664296372848 -1.7677385726463088
-0.5484341690435766 -1.5355590988882073
-0.5484341690435766 -1.4426873093849668
-0.5037019084498683 -1.5355590988882073
-0.45896964785616007 -1.303379625130106
-0.4813357781530142 -1.3962514146333465
-0.5484341690435766 -1.4426873093849668
-0.5708002993404308 -1.5355590988882073
-0.6155325599341389 -1.7677385726463088
-0.6826309508247014 -1.7213026778946885
-0.6602648205278472 -1.7213026778946885
-0.6378986902309931 -1.628430888391448
-0.6826309508247014 -1.6748667831430684
-0.6155325599341389 -1.4426873093849668
-0.5708002993404308 -1.4891232041365872
-0.5260680387467225 -1.4426873093849668
-0.45896964785616007 -1.5355590988882073
-0.4813357781530142 -1.5819949936398277
-0.5260680387467225 -1.5819949936398277
-0.5037019084498683 -1.6748667831430684
-0.6155325599341389 -1.7677385726463088
-0.5931664296372848 -1.7677385726463088
-0.6155325599341389 -1.7677385726463088
-0.6378986902309931 -1.8606103621495496
-0.7049970811215555 -1.7213026778946885
-0.7497293417152637 -1.4426873093849668
-0.7273632114184095 -1.3962514146333465
-0.7049970811215555 -1.303379625130106
-0.7049970811215555 -1.2569437303784856
-0.6826309508247014 -1.3962514146333465
-0.6155325599341389 -1.3962514146333465
-0.5708002993404308 -1.5819949936398277
-0.5260680387467225 -1.6748667831430684
-0.5037019084498683 -1.7213026778946885
-0.45896964785616007 -1.7677385726463088
-0.39187125696559766 -1.6748667831430684
-0.43660351755930593 -1.4891232041365872
-0.3471389963718894 -1.4426873093849668
-0.3247728660750353 -1.303379625130106
-0.23530834488761876 -1.2105078356268653
-0.1905760842939105 -1.1176360461236245
-0.23530834488761876 -1.1176360461236245
-0.21294221459076465 -1.1176360461236245
-0.21294221459076465 -1.0712001513720044
-0.1905760842939105 -1.164071940875245
-0.21294221459076465 -1.2105078356268653
-0.23530834488761876 -1.349815519881726
-0.28004060548132703 -1.349815519881726
-0.28004060548132703 -1.303379625130106
-0.21294221459076465 -1.303379625130106
-0.1905760842939105 -1.2569437303784856
-0.14584382370020227 -1.2105078356268653
-0.034013172215931614 -1.2105078356268653
0.010719088377776641 -1.2569437303784856
0.010719088377776641 -1.349815519881726
-0.12347769340334813 -1.3962514146333465
-0.056379302512785744 -1.628430888391448
-0.101111563106494 -1.8141744673979292
-0.12347769340334813 -1.8606103621495496
-0.14584382370020227 -1.90704625690117
-0.21294221459076465 -1.7213026778946885
-0.16820995399705638 -1.628430888391448
-0.21294221459076465 -1.5355590988882073
-0.30240673577818117 -1.4426873093849668
-0.30240673577818117 -1.4891232041365872
-0.3695051266687435 -1.4426873093849668
-0.39187125696559766 -1.4891232041365872
-0.43660351755930593 -1.5819949936398277
-0.5037019084498683 -1.628430888391448
-0.6378986902309931 -1.5355590988882073
-0.6602648205278472 -1.8606103621495496
-0.7273632114184095 -1.90704625690117
-0.7273632114184095 -1.8606103621495496
-0.7049970811215555 -1.6748667831430684
-0.7049970811215555 -1.628430888391448
-0.6378986902309931 -1.5355590988882073
-0.6602648205278472 -1.4426873093849668
-0.6378986902309931 -1.5355590988882073
-0.7273632114184095 -1.5355590988882073
-0.6826309508247014 -1.628430888391448
-0.6826309508247014 -1.7677385726463088
-0.7049970811215555 -1.7213026778946885
-0.7273632114184095 -1.8606103621495496
-0.7497293417152637 -1.7213026778946885
-0.7497293417152637 -1.4891232041365872
-0.7497293417152637 -1.5355590988882073
-0.7049970811215555 -1.5355590988882073
-0.6602648205278472 -1.4891232041365872
-0.6155325599341389 -1.4426873093849668
-0.5931664296372848 -1.5355590988882073
-0.5708002993404308 -1.5355590988882073
-0.5931664296372848 -1.5355590988882073
-0.5931664296372848 -1.7213026778946885
-0.6155325599341389 -1.6748667831430684
-0.6155325599341389 -1.628430888391448
-0.5037019084498683 -1.5819949936398277
-0.2576744751844729 -1.5819949936398277
0.0554513489714849 -1.4891232041365872
0.4580416943148592 -1.4891232041365872
0.8829981699550876 -1.4891232041365872
1.486883687970149 -1.5355590988882073
2.001304684797794 -1.8606103621495496
2.515725681625439 -2.0463539411560308
2.873583766375105 -2.417841099168993
3.0077805481562296 -2.6035846781754746
2.9630482875625215 -2.975071836188437
2.538091811922293 -3.160815415194918
1.9342062939072318 -3.2536872046981586
1.2632223850016078 -3.3465589942013994
0.5698723457991298 -3.2072513099465385
-0.12347769340334813 -3.114379520443298
-0.8391938629026803 -2.7893282571819555
-1.6443745535894287 -2.3249693096657524
-2.561385895760448 -1.90704625690117
-3.232369804666072 -1.303379625130106
-3.5231294985251758 -0.4210976248493201
-3.388932716744051 0.4611843754314657
-2.9863423714006765 1.3434663757122514
-2.673216547244719 1.7149535337252138
-2.4495552442761777 1.6220817442219733
-2.360090723088761 1.1112869019541498
-2.2482600716044905 0.368312585928225
-2.0469648989328033 -0.1889181510912186
-1.8680358565579702 -0.6532770986074217
-1.6443745535894287 -0.8390206776139029
-1.3759809900271793 -1.164071940875245
-1.2641503385429087 -1.0712001513720044
-1.1746858173554922 -1.2569437303784856
-1.152319687058638 -1.4426873093849668
-1.1075874264649297 -1.4891232041365872
-1.1970519476523462 -1.5819949936398277
-1.2194180779492003 -1.5355590988882073
-1.2194180779492003 -1.5819949936398277
-1.2194180779492003 -1.349815519881726
-1.1746858173554922 -1.349815519881726
-1.152319687058638 -1.349815519881726
-1.1075874264649297 -1.3962514146333465
-1.0852212961680756 -1.349815519881726
-1.0852212961680756 -1.3962514146333465
-1.1075874264649297 -1.4426873093849668
-1.1746858173554922 -1.5355590988882073
-1.2194180779492003 -1.628430888391448
-1.2417842082460546 -1.6748667831430684
-1.2194180779492003 -1.628430888391448
-1.2194180779492003 -1.628430888391448
-1.152319687058638 -1.4891232041365872
-1.1746858173554922 -1.4426873093849668
-1.152319687058638 -1.349815519881726
-1.129953556761784 -1.3962514146333465
-1.152319687058638 -1.4426873093849668
-1.1746858173554922 -1.5355590988882073
-1.1970519476523462 -1.4891232041365872
-1.3088825991366169 -1.628430888391448
-1.3312487294334712 -1.7213026778946885
-1.3312487294334712 -1.628430888391448
-1.3312487294334712 -1.628430888391448
-1.3536148597303252 -1.6748667831430684
-1.3088825991366169 -1.5819949936398277
-1.2641503385429087 -1.4891232041365872
-1.2194180779492003 -1.4426873093849668
-1.2194180779492003 -1.4426873093849668
-1.1970519476523462 -1.4426873093849668
-1.1970519476523462 -1.5355590988882073
-1.2194180779492003 -1.628430888391448
-1.2865164688397628 -1.5819949936398277
-1.3088825991366169 -1.6748667831430684
-1.3536148597303252 -1.6748667831430684
-1.3759809900271793 -1.7677385726463088
-1.3536148597303252 -1.628430888391448
-1.3088825991366169 -1.628430888391448
-1.3312487294334712 -1.4891232041365872
-1.3088825991366169 -1.4426873093849668
-1.2641503385429087 -1.4891232041365872
-1.2865164688397628 -1.5819949936398277
-1.2865164688397628 -1.5355590988882073
-1.3536148597303252 -1.6748667831430684
-1.3983471203240334 -1.7677385726463088
-1.3983471203240334 -1.7677385726463088
-1.4430793809177418 -1.6748667831430684
-1.4654455112145959 -1.8606103621495496
-1.4430793809177418 -1.7213026778946885
-1.4207132506208875 -1.5819949936398277
-1.4430793809177418 -1.628430888391448
-1.4430793809177418 -1.5819949936398277
-1.3759809900271793 -1.5819949936398277
-1.4207132506208875 -1.5355590988882073
-1.4207132506208875 -1.6748667831430684
-1.4207132506208875 -1.6748667831430684
-1.48781164151145 -1.7677385726463088
-1.5325439021051581 -1.8141744673979292
-1.5772761626988665 -1.8141744673979292
-1.5996422929957206 -1.8141744673979292
-1.5325439021051581 -1.7677385726463088
-1.5325439021051581 -1.7213026778946885
-1.48781164151145 -1.7213026778946885
-1.4654455112145959 -1.7213026778946885
-1.4207132506208875 -1.628430888391448
-1.4207132506208875 -1.7677385726463088
-1.4430793809177418 -1.6748667831430684
-1.3983471203240334 -1.7677385726463088
-1.4430793809177418 -1.90704625690117
-1.4430793809177418 -1.9999180464044104
-1.4654455112145959 -2.0463539411560308
-1.4207132506208875 -2.092789835907651
-1.4207132506208875 -1.90704625690117
-1.3536148597303252 -1.8606103621495496
-1.3088825991366169 -1.7677385726463088
-1.2641503385429087 -1.7677385726463088
-1.1970519476523462 -1.6748667831430684
-1.152319687058638 -1.7213026778946885
-1.0852212961680756 -1.8606103621495496
-1.0404890355743674 -1.90704625690117
-0.973390644683805 -1.90704625690117
-0.9286583840900967 -1.9999180464044104
-0.8168277326058261 -2.0463539411560308
-0.7720954720121178 -1.9999180464044104
-0.6378986902309931 -1.95348215165279
-0.5708002993404308 -1.7213026778946885
-0.43660351755930593 -1.7677385726463088
-0.3695051266687435 -1.628430888391448
-0.21294221459076465 -1.6748667831430684
-0.14584382370020227 -1.628430888391448
-0.101111563106494 -1.6748667831430684
-0.056379302512785744 -1.6748667831430684
0.010719088377776641 -1.7677385726463088
-0.011647041919077486 -1.7213026778946885
0.0554513489714849 -1.7213026778946885
0.03308521867463077 -1.628430888391448
0.10018360956519315 -1.5819949936398277
0.10018360956519315 -1.349815519881726
0.18964813075260967 -1.303379625130106
0.2120142610494638 -1.2105078356268653
0.2343803913463179 -1.1176360461236245
0.2343803913463179 -1.1176360461236245
0.18964813075260967 -1.0712001513720044
0.12254973986204729 -1.164071940875245
0.14491587015890142 -1.2569437303784856
0.03308521867463077 -1.2569437303784856
0.010719088377776641 -1.2569437303784856
0.0554513489714849 -1.164071940875245
0.010719088377776641 -1.1176360461236245
0.0554513489714849 -1.1176360461236245
0.0554513489714849 -1.0712001513720044
0.03308521867463077 -0.8854565723655231
0.0554513489714849 -0.9783283618687637
0.010719088377776641 -0.9318924671171435
0.03308521867463077 -1.1176360461236245
-0.011647041919077486 -1.0712001513720044
-0.07874543280963987 -0.9783283618687637
-0.101111563106494 -1.164071940875245
-0.101111563106494 -1.1176360461236245
-0.14584382370020227 -1.2105078356268653
-0.12347769340334813 -1.1176360461236245
-0.12347769340334813 -0.9783283618687637
-0.056379302512785744 -1.024764256620384
-0.07874543280963987 -1.024764256620384
-0.034013172215931614 -0.9318924671171435
-0.034013172215931614 -1.024764256620384
-0.056379302512785744 -0.9783283618687637
-0.056379302512785744 -1.1176360461236245
-0.101111563106494 -1.2105078356268653
-0.14584382370020227 -1.303379625130106
-0.14584382370020227 -1.2569437303784856
-0.23530834488761876 -1.2569437303784856
-0.1905760842939105 -1.2569437303784856
-0.14584382370020227 -1.1176360461236245
-0.14584382370020227 -1.1176360461236245
-0.16820995399705638 -1.0712001513720044
-0.07874543280963987 -0.9783283618687637
-0.101111563106494 -1.0712001513720044
-0.12347769340334813 -0.9783283618687637
-0.12347769340334813 -1.1176360461236245
-0.16820995399705638 -1.2105078356268653
-0.16820995399705638 -1.164071940875245
-0.21294221459076465 -1.303379625130106
-0.2576744751844729 -1.349815519881726
-0.1905760842939105 -1.2105078356268653
-0.1905760842939105 -1.164071940875245
-0.1905760842939105 -1.0712001513720044
-0.14584382370020227 -0.9783283618687637
-0.12347769340334813 -0.9318924671171435
-0.12347769340334813 -0.9783283618687637
-0.101111563106494 -1.0712001513720044
-0.1905760842939105 -1.0712001513720044
-0.1905760842939105 -1.2105078356268653
-0.12347769340334813 -1.2569437303784856
-0.14584382370020227 -1.2569437303784856
-0.2576744751844729 -1.2105078356268653
-0.30240673577818117 -1.2105078356268653
-0.1905760842939105 -1.1176360461236245
-0.14584382370020227 -1.024764256620384
-0.101111563106494 -1.1176360461236245
-0.07874543280963987 -0.9783283618687637
-0.07874543280963987 -1.0712001513720044
-0.07874543280963987 -1.024764256620384
-0.101111563106494 -1.1176360461236245
-0.14584382370020227 -1.164071940875245
-0.12347769340334813 -1.2569437303784856
-0.101111563106494 -1.303379625130106
-0.12347769340334813 -1.164071940875245
-0.101111563106494 -1.2105078356268653
-0.011647041919077486 -1.0712001513720044
0.03308521867463077 -0.9783283618687637
0.10018360956519315 -0.7925847828622825
0.0554513489714849 -0.7461488881106623
0.16728200045575553 -0.6532770986074217
0.2120142610494638 -0.6997129933590419
0.2120142610494638 -0.6997129933590419
0.18964813075260967 -0.6068412038558013
0.16728200045575553 -0.7461488881106623
0.14491587015890142 -0.7925847828622825
0.10018360956519315 -0.6997129933590419
0.16728200045575553 -0.7461488881106623
0.2120142610494638 -0.6068412038558013
0.27911265194002616 -0.6532770986074217
0.32384491253373443 -0.6532770986074217
0.34621104283058857 -0.6532770986074217
0.39094330342429684 -0.7925847828622825
0.39094330342429684 -0.9318924671171435
0.43567556401800506 -0.9783283618687637
0.3685771731274427 -0.9783283618687637
0.3014787822368803 -1.1176360461236245
0.2343803913463179 -1.2569437303784856
0.2567465216431721 -1.2569437303784856
0.2120142610494638 -1.303379625130106
0.2120142610494638 -1.2569437303784856
0.18964813075260967 -1.2105078356268653
0.2343803913463179 -1.164071940875245
0.10018360956519315 -1.164071940875245
0.03308521867463077 -1.1176360461236245
0.07781747926833903 -1.164071940875245
-0.034013172215931614 -1.2105078356268653
-0.12347769340334813 -1.2569437303784856
-0.1905760842939105 -1.2569437303784856
-0.14584382370020227 -1.2569437303784856
-0.1905760842939105 -1.024764256620384
-0.1905760842939105 -1.1176360461236245
-0.2576744751844729 -1.024764256620384
-0.28004060548132703 -0.9783283618687637
-0.30240673577818117 -0.8854565723655231
-0.28004060548132703 -0.8854565723655231
-0.3695051266687435 -0.8854565723655231
-0.4142373872624518 -0.9783283618687637
-0.3695051266687435 -0.9318924671171435
-0.43660351755930593 -1.0712001513720044
-0.43660351755930593 -1.1176360461236245
-0.45896964785616007 -1.2105078356268653
-0.5037019084498683 -1.0712001513720044
-0.5037019084498683 -1.0712001513720044
-0.4142373872624518 -1.0712001513720044
-0.39187125696559766 -0.9318924671171435
-0.39187125696559766 -0.8854565723655231
-0.3695051266687435 -0.7461488881106623
-0.3471389963718894 -0.8390206776139029
-0.3247728660750353 -0.8854565723655231
-0.3247728660750353 -0.9783283618687637
-0.4142373872624518 -1.0712001513720044
-0.39187125696559766 -1.024764256620384
-0.43660351755930593 -1.024764256620384
-0.39187125696559766 -1.024764256620384
-0.3695051266687435 -0.9318924671171435
-0.28004060548132703 -0.8854565723655231
-0.12347769340334813 -0.9318924671171435
0.18964813075260967 -0.7925847828622825
0.5698723457991298 -0.8390206776139029
1.0171949517362124 -1.024764256620384
1.621080469751274 -1.1176360461236245
2.1802337271726273 -1.3962514146333465
2.717020854297126 -1.628430888391448
3.1196111996405005 -2.0463539411560308
3.2314418511247713 -2.2320975201625117
3.0077805481562296 -2.371405204417373
2.4486272907348767 -2.557148783423854
1.8223756424229611 -2.6500205729270947
1.1513917335173371 -2.6500205729270947
0.5027739549085675 -2.557148783423854
-0.16820995399705638 -2.417841099168993
-0.9957567749806592 -2.0463539411560308
-1.8680358565579702 -1.6748667831430684
-2.51665363516674 -1.1176360461236245
-2.8297794593226975 -0.3746617300976998
-2.7626810684321352 0.507620270183086
-2.4719213745730317 1.2041586914573905
-2.1364294201202196 1.4827740599671124
-1.9127681171516784 1.3899022704638717
-1.7338390747768453 1.0184151124509093
-1.4654455112145959 0.6004920596863266
-1.2865164688397628 0.13613311217012353
-1.152319687058638 -0.09604636158797798
-1.129953556761784 -0.4675335196009404
-1.0628551658712215 -0.6532770986074217
-0.9957567749806592 -0.8390206776139029
-0.973390644683805 -0.9783283618687637
-0.9510245143869509 -1.0712001513720044
-0.973390644683805 -1.1176360461236245
-0.9957567749806592 -1.1176360461236245
-0.9510245143869509 -1.0712001513720044
-0.9286583840900967 -0.9783283618687637
-0.9062922537932426 -0.8390206776139029
-0.8615599931995344 -0.8854565723655231
-0.8839261234963884 -0.6532770986074217
-0.8839261234963884 -0.7461488881106623
-0.8839261234963884 -0.8854565723655231
-0.8839261234963884 -0.8854565723655231
-0.9510245143869509 -0.9318924671171435
-0.973390644683805 -0.9783283618687637
-0.9286583840900967 -1.0712001513720044
-0.973390644683805 -1.1176360461236245
-0.9510245143869509 -1.024764256620384
-0.9286583840900967 -0.9318924671171435
-0.9062922537932426 -0.9783283618687637
-0.9286583840900967 -0.8854565723655231
-0.9062922537932426 -0.8390206776139029
-0.8839261234963884 -0.7925847828622825
-0.9957567749806592 -0.8854565723655231
-1.0404890355743674 -1.024764256620384
-0.9957567749806592 -1.164071940875245
-1.0181229052775134 -1.164071940875245
-1.0404890355743674 -1.2105078356268653
-1.0181229052775134 -1.1176360461236245
-1.0404890355743674 -1.0712001513720044
-1.0628551658712215 -1.024764256620384
-1.0628551658712215 -0.9783283618687637
-1.0181229052775134 -0.8854565723655231
-1.0404890355743674 -0.8854565723655231
-1.0181229052775134 -0.9318924671171435
-1.0181229052775134 -0.9783283618687637
-1.0852212961680756 -0.9783283618687637
-1.0852212961680756 -1.0712001513720044
-1.1075874264649297 -1.164071940875245
-1.1746858173554922 -1.1176360461236245
-1.1970519476523462 -1.2105078356268653
-1.1746858173554922 -1.2105078356268653
-1.1970519476523462 -1.1176360461236245
-1.152319687058638 -1.0712001513720044
-1.1746858173554922 -1.0712001513720044
-1.152319687058638 -0.8854565723655231
-1.1746858173554922 -1.024764256620384
-1.2417842082460546 -1.1176360461236245
-1.2194180779492003 -1.1176360461236245
-1.2865164688397628 -1.2105078356268653
-1.2865164688397628 -1.303379625130106
-1.3536148597303252 -1.349815519881726
-1.3536148597303252 -1.2569437303784856
-1.3983471203240334 -1.2105078356268653
-1.3759809900271793 -1.1176360461236245
-1.3312487294334712 -0.9783283618687637
-1.3536148597303252 -1.024764256620384
-1.3312487294334712 -1.0712001513720044
-1.3312487294334712 -1.0712001513720044
-1.3536148597303252 -1.1176360461236245
-1.3759809900271793 -1.164071940875245
-1.4207132506208875 -1.164071940875245
-1.4654455112145959 -1.303379625130106
-1.48781164151145 -1.2569437303784856
-1.510177771808304 -1.3962514146333465
-1.4430793809177418 -1.303379625130106
-1.4207132506208875 -1.1176360461236245
-1.3983471203240334 -1.1176360461236245
-1.3759809900271793 -0.9783283618687637
-1.3759809900271793 -1.024764256620384
-1.3983471203240334 -1.0712001513720044
-1.3983471203240334 -1.0712001513720044
-1.3983471203240334 -1.164071940875245
-1.3983471203240334 -1.164071940875245
-1.3759809900271793 -1.164071940875245
-1.3759809900271793 -1.2569437303784856
-1.3536148597303252 -1.2569437303784856
-1.3312487294334712 -1.164071940875245
-1.2417842082460546 -1.164071940875245
-1.1970519476523462 -1.024764256620384
-1.1970519476523462 -0.8854565723655231
-1.129953556761784 -0.9318924671171435
-1.0181229052775134 -0.9783283618687637
-1.0181229052775134 -1.024764256620384
-0.9510245143869509 -1.1176360461236245
-0.9062922537932426 -1.2569437303784856
-0.9286583840900967 -1.303379625130106
-0.9062922537932426 -1.349815519881726
-0.7720954720121178 -1.2569437303784856
-0.7049970811215555 -1.164071940875245
-0.5708002993404308 -1.164071940875245
-0.4142373872624518 -1.2105078356268653
-0.3247728660750353 -1.024764256620384
-0.16820995399705638 -1.024764256620384
-0.16820995399705638 -1.1176360461236245
-0.07874543280963987 -1.0712001513720044
-0.056379302512785744 -1.1176360461236245
-0.034013172215931614 -1.1176360461236245
0.010719088377776641 -1.164071940875245
-0.011647041919077486 -1.303379625130106
0.07781747926833903 -1.164071940875245
0.10018360956519315 -1.1176360461236245
0.16728200045575553 -0.9783283618687637
0.2343803913463179 -0.7925847828622825
0.27911265194002616 -0.7461488881106623
0.34621104283058857 -0.6997129933590419
0.32384491253373443 -0.5604053091041811
0.32384491253373443 -0.7461488881106623
0.2567465216431721 -0.6532770986074217
0.2343803913463179 -0.8390206776139029
0.16728200045575553 -0.8390206776139029
0.16728200045575553 -0.7461488881106623
0.14491587015890142 -0.7925847828622825
0.14491587015890142 -0.7461488881106623
0.14491587015890142 -0.6068412038558013
0.12254973986204729 -0.5604053091041811
0.14491587015890142 -0.4675335196009404
0.16728200045575553 -0.4210976248493201
0.18964813075260967 -0.5604053091041811
0.16728200045575553 -0.6068412038558013
0.12254973986204729 -0.6068412038558013
0.0554513489714849 -0.6068412038558013
0.03308521867463077 -0.6997129933590419
0.03308521867463077 -0.8390206776139029
-0.011647041919077486 -0.7925847828622825
-0.011647041919077486 -0.7461488881106623
0.03308521867463077 -0.7461488881106623
0.03308521867463077 -0.6997129933590419
0.0554513489714849 -0.5604053091041811
0.12254973986204729 -0.5604053091041811
0.07781747926833903 -0.5604053091041811
0.07781747926833903 -0.6532770986074217
0.07781747926833903 -0.6997129933590419
-0.011647041919077486 -0.7925847828622825
-0.011647041919077486 -0.8390206776139029
-0.101111563106494 -0.7925847828622825
-0.07874543280963987 -0.8854565723655231
-0.034013172215931614 -0.8854565723655231
-0.034013172215931614 -0.6997129933590419
-0.056379302512785744 -0.6532770986074217
-0.07874543280963987 -0.6997129933590419
-0.056379302512785744 -0.6532770986074217
0.010719088377776641 -0.6997129933590419
-0.07874543280963987 -0.6997129933590419
-0.12347769340334813 -0.6997129933590419
-0.12347769340334813 -0.7461488881106623
-0.1905760842939105 -0.9318924671171435
-0.14584382370020227 -0.8854565723655231
-0.16820995399705638 -0.9318924671171435
-0.1905760842939105 -0.9318924671171435
-0.16820995399705638 -0.8390206776139029
-0.12347769340334813 -0.7925847828622825
-0.14584382370020227 -0.7925847828622825
-0.056379302512785744 -0.6532770986074217
-0.056379302512785744 -0.7461488881106623
-0.07874543280963987 -0.6997129933590419
-0.101111563106494 -0.7925847828622825
-0.12347769340334813 -0.9318924671171435
-0.12347769340334813 -0.9783283618687637
-0.14584382370020227 -0.9318924671171435
-0.14584382370020227 -0.9318924671171435
-0.14584382370020227 -0.8854565723655231
-0.12347769340334813 -0.9783283618687637
-0.056379302512785744 -0.7925847828622825
-0.034013172215931614 -0.7461488881106623
-0.034013172215931614 -0.6532770986074217
-0.034013172215931614 -0.6997129933590419
0.010719088377776641 -0.7925847828622825
-0.056379302512785744 -0.8390206776139029
-0.056379302512785744 -0.8390206776139029
-0.07874543280963987 -0.8854565723655231
-0.07874543280963987 -0.9783283618687637
-0.101111563106494 -0.9318924671171435
-0.011647041919077486 -0.7925847828622825
0.03308521867463077 -0.6532770986074217
0.10018360956519315 -0.5139694143525607
0.18964813075260967 -0.3282258353460795
0.2120142610494638 -0.1424822563395983
0.32384491253373443 -0.3746617300976998
0.27911265194002616 -0.3746617300976998
0.2120142610494638 -0.4210976248493201
0.2343803913463179 -0.4210976248493201
0.2343803913463179 -0.4675335196009404
0.16728200045575553 -0.5139694143525607
0.16728200045575553 -0.4210976248493201
0.2343803913463179 -0.6068412038558013
0.3014787822368803 -0.5139694143525607
0.34621104283058857 -0.6532770986074217
0.3014787822368803 -0.6997129933590419
0.34621104283058857 -0.6532770986074217
0.413309433721151 -0.7925847828622825
0.3685771731274427 -0.8854565723655231
0.3014787822368803 -0.9783283618687637
0.2120142610494638 -1.164071940875245
0.12254973986204729 -1.2105078356268653
0.07781747926833903 -1.303379625130106
0.0554513489714849 -1.349815519881726
-0.034013172215931614 -1.303379625130106
-0.034013172215931614 -1.303379625130106
-0.034013172215931614 -1.1176360461236245
-0.056379302512785744 -1.164071940875245
-0.07874543280963987 -0.8390206776139029
-0.14584382370020227 -0.8390206776139029
-0.21294221459076465 -0.9318924671171435
-0.2576744751844729 -0.8854565723655231
-0.3247728660750353 -0.8854565723655231
-0.39187125696559766 -1.024764256620384
-0.43660351755930593 -1.0712001513720044
-0.4813357781530142 -1.0712001513720044
-0.4813357781530142 -1.024764256620384
-0.4813357781530142 -0.9783283618687637
-0.43660351755930593 -0.9783283618687637
-0.39187125696559766 -0.8854565723655231
-0.3695051266687435 -0.7461488881106623
-0.3247728660750353 -0.8390206776139029
-0.3471389963718894 -0.7461488881106623
-0.3471389963718894 -0.9783283618687637
-0.45896964785616007 -1.024764256620384
-0.4813357781530142 -1.0712001513720044
-0.5037019084498683 -0.8854565723655231
-0.4813357781530142 -1.024764256620384
-0.43660351755930593 -0.8854565723655231
-0.43660351755930593 -0.9318924671171435
-0.4142373872624518 -0.8390206776139029
-0.3695051266687435 -0.6997129933590419
-0.3695051266687435 -0.6532770986074217
-0.3695051266687435 -0.5604053091041811
-0.3247728660750353 -0.6532770986074217
-0.30240673577818117 -0.7461488881106623
-0.28004060548132703 -0.8390206776139029
-0.2576744751844729 -0.8854565723655231
-0.034013172215931614 -0.8390206776139029
0.18964813075260967 -0.8390206776139029
0.5027739549085675 -0.9783283618687637
0.9053643002519418 -0.9783283618687637
1.464517557673295 -1.024764256620384
2.0907692059852105 -1.164071940875245
2.649922463406564 -1.2105078356268653
3.0972450693436464 -1.4426873093849668
3.2985402420153336 -1.7213026778946885
3.2985402420153336 -1.95348215165279
2.8959498966719592 -2.1856616254108916
2.2473321180631896 -2.4642769939206133
1.5316159485638574 -2.6500205729270947
0.8382659093613793 -2.7893282571819555
0.32384491253373443 -2.7428923624303354
-0.30240673577818117 -2.510712888672234
-1.0404890355743674 -2.2785334149141323
-1.8904019868548243 -1.8141744673979292
-2.4719213745730317 -1.0712001513720044
-2.7850471987289893 -0.4675335196009404
-2.8297794593226975 0.507620270183086
-2.6061181563541562 1.1577227967057702
-2.2929923321981986 1.4827740599671124
-2.0693310292296574 1.436338165215492
-1.845669726261116 1.0648510072025297
-1.6891068141831371 0.4611843754314657
-1.4654455112145959 0.04326132266688292
-1.2641503385429087 -0.1889181510912186
-1.129953556761784 -0.5139694143525607
-1.0852212961680756 -0.5139694143525607
-0.973390644683805 -0.5604053091041811
-0.9286583840900967 -0.7461488881106623
-0.8615599931995344 -0.7461488881106623
-0.8391938629026803 -0.7461488881106623
-0.8839261234963884 -0.8390206776139029
-0.8839261234963884 -0.8390206776139029
-0.8839261234963884 -0.8854565723655231
-0.9062922537932426 -0.8854565723655231
-0.9510245143869509 -0.7925847828622825
-0.8839261234963884 -0.7925847828622825
-0.8839261234963884 -0.6532770986074217
-0.8839261234963884 -0.7925847828622825
-0.8615599931995344 -0.6068412038558013
-0.8391938629026803 -0.6532770986074217
-0.8839261234963884 -0.7925847828622825
-0.9062922537932426 -0.7925847828622825
-0.9510245143869509 -0.8854565723655231
-0.9957567749806592 -0.9783283618687637
-1.0404890355743674 -0.9783283618687637
-1.0181229052775134 -1.024764256620384
-1.0852212961680756 -1.024764256620384
-1.1075874264649297 -0.9783283618687637
-0.9510245143869509 -0.8854565723655231
-0.9510245143869509 -0.7925847828622825
-0.9286583840900967 -0.6997129933590419
-0.9062922537932426 -0.6532770986074217
-0.9286583840900967 -0.8390206776139029
-0.973390644683805 -0.9318924671171435
-0.973390644683805 -0.8854565723655231
-1.0404890355743674 -0.9783283618687637
-1.1075874264649297 -1.024764256620384
-1.129953556761784 -1.024764256620384
-1.1970519476523462 -1.024764256620384
-1.152319687058638 -0.8854565723655231
-1.0852212961680756 -0.8390206776139029
-1.0628551658712215 -0.7925847828622825
-1.0628551658712215 -0.7925847828622825
-1.0404890355743674 -0.7925847828622825
-1.1075874264649297 -0.9318924671171435
-1.152319687058638 -0.8390206776139029
-1.1970519476523462 -1.024764256620384
-1.1746858173554922 -1.1176360461236245
-1.2417842082460546 -1.164071940875245
-1.2417842082460546 -1.2105078356268653
