0.4580416943148592 -0.6997129933590419
0.5475062155022757 -0.7461488881106623
0.5475062155022757 -0.8854565723655231
0.5475062155022757 -0.8854565723655231
0.5698723457991298 -0.8854565723655231
0.5475062155022757 -0.8390206776139029
0.5698723457991298 -0.8390206776139029
0.592238476095984 -0.7925847828622825
0.592238476095984 -0.6997129933590419
0.6593368669865464 -0.6997129933590419
0.6593368669865464 -0.6997129933590419
0.6369707366896923 -0.7461488881106623
0.5475062155022757 -0.7925847828622825
0.5698723457991298 -0.9318924671171435
0.5698723457991298 -0.8390206776139029
0.5027739549085675 -1.024764256620384
0.5251400852054215 -0.9318924671171435
0.5251400852054215 -0.9318924671171435
0.6369707366896923 -0.8854565723655231
0.7488013881739629 -0.8854565723655231
0.8606320396582335 -0.6532770986074217
0.9277304305487959 -0.6532770986074217
0.9053643002519418 -0.7461488881106623
0.8158997790645253 -0.7925847828622825
0.5698723457991298 -0.8390206776139029
0.3685771731274427 -0.8854565723655231
0.18964813075260967 -0.8854565723655231
0.2567465216431721 -0.9318924671171435
0.34621104283058857 -1.024764256620384
0.5251400852054215 -0.7925847828622825
0.6817029972834004 -0.7925847828622825
0.8606320396582335 -0.6997129933590419
0.9948288214393582 -0.5604053091041811
1.0171949517362124 -0.3282258353460795
1.0171949517362124 -0.2817899405944592
0.9500965608456501 -0.3282258353460795
0.9724626911425042 -0.2353540458428389
0.9053643002519418 -0.3746617300976998
0.8829981699550876 -0.3282258353460795
0.8606320396582335 -0.3746617300976998
0.771167518470817 -0.5604053091041811
0.8158997790645253 -0.6068412038558013
0.8829981699550876 -0.6068412038558013
0.9724626911425042 -0.5139694143525607
1.0171949517362124 -0.4675335196009404
1.106659472923629 -0.3746617300976998
1.1513917335173371 -0.4210976248493201
1.0395610820330665 -0.7461488881106623
1.0619272123299206 -0.9318924671171435
0.9724626911425042 -1.2105078356268653
0.8829981699550876 -1.4426873093849668
0.9053643002519418 -1.5355590988882073
0.8606320396582335 -1.5819949936398277
0.7935336487676712 -1.5355590988882073
0.7264352578771087 -1.628430888391448
0.6817029972834004 -1.5819949936398277
0.6593368669865464 -1.4891232041365872
0.6369707366896923 -1.349815519881726
0.6369707366896923 -1.1176360461236245
0.592238476095984 -1.024764256620384
0.5475062155022757 -0.9783283618687637
0.48040782461171333 -0.9783283618687637
0.48040782461171333 -0.9783283618687637
0.39094330342429684 -1.024764256620384
0.39094330342429684 -1.1176360461236245
0.39094330342429684 -1.1176360461236245
0.4580416943148592 -1.024764256620384
0.4580416943148592 -0.9783283618687637
0.5698723457991298 -0.7925847828622825
0.6593368669865464 -0.5604053091041811
0.7264352578771087 -0.4675335196009404
0.7488013881739629 -0.5604053091041811
0.7040691275802546 -0.5139694143525607
0.6369707366896923 -0.4675335196009404
0.5027739549085675 -0.3746617300976998
0.32384491253373443 -0.1889181510912186
0.18964813075260967 -0.09604636158797798
0.14491587015890142 -0.2353540458428389
0.16728200045575553 -0.4675335196009404
0.16728200045575553 -0.7925847828622825
0.10018360956519315 -1.164071940875245
0.07781747926833903 -1.303379625130106
0.14491587015890142 -1.303379625130106
0.10018360956519315 -1.4426873093849668
0.07781747926833903 -1.3962514146333465
0.0554513489714849 -1.2569437303784856
0.18964813075260967 -1.2105078356268653
0.3685771731274427 -1.164071940875245
0.7040691275802546 -0.9783283618687637
1.129025603220483 -1.024764256620384
1.6658127303449821 -1.164071940875245
2.336796639250606 -1.0712001513720044
3.1196111996405005 -1.1176360461236245
3.8353273691398324 -1.3962514146333465
4.439212887154894 -1.3962514146333465
4.774704841607706 -1.5819949936398277
4.729972581013998 -1.6748667831430684
4.3273822356706235 -1.90704625690117
3.723496717655562 -2.1392257306592715
2.8959498966719592 -2.371405204417373
2.1131353362820646 -2.4642769939206133
1.4197852970795868 -2.510712888672234
0.6369707366896923 -2.2785334149141323
-0.21294221459076465 -2.0463539411560308
-0.9957567749806592 -1.6748667831430684
-1.5772761626988665 -1.2105078356268653
-1.7785713353705537 -0.5604053091041811
-1.845669726261116 0.18256900692174383
-1.6891068141831371 0.8326715334444281
-1.4430793809177418 1.297030480960631
-1.2417842082460546 1.3899022704638717
-1.0404890355743674 1.1577227967057702
-0.8168277326058261 0.8326715334444281
-0.6155325599341389 0.507620270183086
-0.5260680387467225 0.18256900692174383
-0.5260680387467225 -0.0031745720847373825
-0.4142373872624518 -0.2817899405944592
-0.28004060548132703 -0.7461488881106623
-0.14584382370020227 -0.9318924671171435
-0.101111563106494 -1.164071940875245
-0.101111563106494 -1.164071940875245
-0.14584382370020227 -1.349815519881726
-0.16820995399705638 -1.349815519881726
-0.21294221459076465 -1.2569437303784856
-0.28004060548132703 -1.2105078356268653
-0.3471389963718894 -1.164071940875245
-0.4142373872624518 -1.1176360461236245
-0.39187125696559766 -0.9783283618687637
-0.3695051266687435 -0.9318924671171435
-0.3695051266687435 -0.7925847828622825
-0.3247728660750353 -0.7461488881106623
-0.3247728660750353 -0.6997129933590419
-0.28004060548132703 -0.6532770986074217
-0.21294221459076465 -0.6997129933590419
-0.1905760842939105 -0.8390206776139029
-0.14584382370020227 -0.7925847828622825
-0.14584382370020227 -0.8390206776139029
-0.16820995399705638 -0.8854565723655231
-0.30240673577818117 -0.6532770986074217
-0.39187125696559766 -0.4675335196009404
-0.43660351755930593 -0.4210976248493201
-0.6155325599341389 -0.2817899405944592
-0.7049970811215555 -0.3282258353460795
-0.6826309508247014 -0.3282258353460795
-0.6826309508247014 -0.6068412038558013
-0.6155325599341389 -0.8854565723655231
-0.5484341690435766 -1.2105078356268653
-0.5037019084498683 -1.5355590988882073
-0.45896964785616007 -1.628430888391448
-0.45896964785616007 -1.4426873093849668
-0.5037019084498683 -1.2569437303784856
-0.5037019084498683 -1.2105078356268653
-0.45896964785616007 -1.164071940875245
-0.4813357781530142 -0.9783283618687637
-0.5037019084498683 -1.164071940875245
-0.5037019084498683 -1.2569437303784856
-0.5260680387467225 -1.303379625130106
-0.5484341690435766 -1.2569437303784856
-0.6378986902309931 -1.303379625130106
-0.6826309508247014 -1.303379625130106
-0.7049970811215555 -1.2569437303784856
-0.7720954720121178 -1.2105078356268653
-0.7049970811215555 -1.2105078356268653
-0.7273632114184095 -1.1176360461236245
-0.7273632114184095 -0.9783283618687637
-0.6826309508247014 -0.9318924671171435
-0.7049970811215555 -0.8390206776139029
-0.794461602308972 -1.0712001513720044
-0.794461602308972 -1.024764256620384
-0.8615599931995344 -1.0712001513720044
-0.8839261234963884 -1.2105078356268653
-0.9510245143869509 -1.2569437303784856
-0.9957567749806592 -1.2105078356268653
-0.973390644683805 -1.2569437303784856
-0.9957567749806592 -1.164071940875245
-0.9957567749806592 -1.024764256620384
-0.9957567749806592 -1.1176360461236245
-1.0404890355743674 -1.0712001513720044
-0.973390644683805 -1.024764256620384
-0.973390644683805 -1.1176360461236245
-0.9957567749806592 -1.164071940875245
-1.0404890355743674 -1.2569437303784856
-1.0628551658712215 -1.2105078356268653
-1.1075874264649297 -1.349815519881726
-1.152319687058638 -1.349815519881726
-1.152319687058638 -1.303379625130106
-1.152319687058638 -1.3962514146333465
-1.0628551658712215 -1.2569437303784856
-1.0404890355743674 -1.2105078356268653
-1.0404890355743674 -1.1176360461236245
-1.0181229052775134 -1.164071940875245
-1.0628551658712215 -1.024764256620384
-1.0181229052775134 -1.164071940875245
-1.0404890355743674 -1.2569437303784856
-1.0628551658712215 -1.349815519881726
-1.0181229052775134 -1.4426873093849668
-0.9510245143869509 -1.3962514146333465
-0.973390644683805 -1.349815519881726
-0.9286583840900967 -1.349815519881726
-0.8391938629026803 -1.2569437303784856
-0.7273632114184095 -1.2569437303784856
-0.6826309508247014 -1.1176360461236245
-0.5484341690435766 -1.0712001513720044
-0.4813357781530142 -1.1176360461236245
-0.45896964785616007 -1.164071940875245
-0.3695051266687435 -1.349815519881726
-0.30240673577818117 -1.3962514146333465
-0.23530834488761876 -1.349815519881726
-0.12347769340334813 -1.4891232041365872
-0.12347769340334813 -1.303379625130106
0.03308521867463077 -1.3962514146333465
0.14491587015890142 -1.2569437303784856
0.27911265194002616 -1.164071940875245
0.43567556401800506 -1.164071940875245
0.5027739549085675 -1.1176360461236245
0.5475062155022757 -1.024764256620384
0.592238476095984 -1.024764256620384
0.6146046063928381 -1.2105078356268653
0.6593368669865464 -1.1176360461236245
0.6593368669865464 -1.164071940875245
0.6593368669865464 -1.164071940875245
0.6817029972834004 -0.9783283618687637
0.6593368669865464 -1.024764256620384
0.7040691275802546 -0.8854565723655231
0.7040691275802546 -0.8390206776139029
0.7488013881739629 -0.7925847828622825
0.771167518470817 -0.6532770986074217
0.771167518470817 -0.7461488881106623
0.7264352578771087 -0.6997129933590419
0.7040691275802546 -0.7461488881106623
0.6817029972834004 -0.9318924671171435
0.6369707366896923 -0.9318924671171435
0.592238476095984 -1.024764256620384
0.5027739549085675 -0.9318924671171435
0.5251400852054215 -0.6532770986074217
0.5027739549085675 -0.7461488881106623
0.5698723457991298 -0.6532770986074217
0.6146046063928381 -0.5604053091041811
0.6146046063928381 -0.5604053091041811
0.592238476095984 -0.5604053091041811
0.5698723457991298 -0.5139694143525607
0.592238476095984 -0.6532770986074217
0.5475062155022757 -0.6532770986074217
0.5698723457991298 -0.8390206776139029
0.48040782461171333 -0.8390206776139029
0.5475062155022757 -0.8854565723655231
0.5475062155022757 -0.7461488881106623
0.5027739549085675 -0.6997129933590419
0.5475062155022757 -0.6997129933590419
0.592238476095984 -0.6532770986074217
0.5251400852054215 -0.6068412038558013
0.48040782461171333 -0.6532770986074217
0.48040782461171333 -0.7461488881106623
0.5251400852054215 -0.7925847828622825
0.4580416943148592 -0.8854565723655231
0.4580416943148592 -0.9318924671171435
0.43567556401800506 -0.9783283618687637
0.39094330342429684 -1.0712001513720044
0.43567556401800506 -0.8854565723655231
0.4580416943148592 -0.7925847828622825
0.43567556401800506 -0.7461488881106623
0.4580416943148592 -0.7461488881106623
0.5251400852054215 -0.7461488881106623
0.48040782461171333 -0.7461488881106623
0.48040782461171333 -0.7461488881106623
0.48040782461171333 -0.8854565723655231
0.43567556401800506 -0.8854565723655231
0.39094330342429684 -0.9783283618687637
0.32384491253373443 -1.0712001513720044
0.39094330342429684 -0.8390206776139029
0.3685771731274427 -0.8390206776139029
0.39094330342429684 -0.7461488881106623
0.4580416943148592 -0.6532770986074217
0.43567556401800506 -0.7461488881106623
0.5027739549085675 -0.6532770986074217
0.48040782461171333 -0.6532770986074217
0.5251400852054215 -0.7461488881106623
0.48040782461171333 -0.7925847828622825
0.48040782461171333 -0.7925847828622825
0.43567556401800506 -0.9783283618687637
0.48040782461171333 -0.9783283618687637
0.5251400852054215 -0.8390206776139029
0.5475062155022757 -0.9783283618687637
0.5475062155022757 -0.7461488881106623
0.6593368669865464 -0.6997129933590419
0.7040691275802546 -0.5604053091041811
0.7935336487676712 -0.4675335196009404
0.7935336487676712 -0.4210976248493201
0.771167518470817 -0.4210976248493201
0.7488013881739629 -0.3746617300976998
0.7935336487676712 -0.3282258353460795
0.7935336487676712 -0.4675335196009404
0.8158997790645253 -0.5604053091041811
0.7935336487676712 -0.4675335196009404
0.7935336487676712 -0.4210976248493201
0.8606320396582335 -0.4210976248493201
0.8382659093613793 -0.3282258353460795
0.9277304305487959 -0.4210976248493201
0.9724626911425042 -0.3746617300976998
1.0395610820330665 -0.3746617300976998
1.0395610820330665 -0.5604053091041811
1.0395610820330665 -0.6997129933590419
1.0171949517362124 -0.6997129933590419
0.9500965608456501 -0.8390206776139029
0.9500965608456501 -1.024764256620384
0.8382659093613793 -1.024764256620384
0.8158997790645253 -1.1176360461236245
0.771167518470817 -1.024764256620384
0.7935336487676712 -1.024764256620384
0.7264352578771087 -1.164071940875245
0.7264352578771087 -0.9783283618687637
0.7040691275802546 -1.0712001513720044
0.6369707366896923 -1.024764256620384
0.5251400852054215 -0.9783283618687637
0.43567556401800506 -0.9318924671171435
0.413309433721151 -0.9783283618687637
0.34621104283058857 -0.9318924671171435
0.2567465216431721 -0.9783283618687637
0.27911265194002616 -0.8854565723655231
0.18964813075260967 -0.7925847828622825
0.2567465216431721 -0.7461488881106623
0.2567465216431721 -0.7925847828622825
0.3014787822368803 -0.7461488881106623
0.2567465216431721 -0.7925847828622825
0.2567465216431721 -0.8854565723655231
0.2343803913463179 -0.8390206776139029
0.18964813075260967 -0.9783283618687637
0.18964813075260967 -1.024764256620384
0.12254973986204729 -1.0712001513720044
0.12254973986204729 -0.9783283618687637
0.12254973986204729 -0.9783283618687637
0.18964813075260967 -0.8854565723655231
0.27911265194002616 -0.7461488881106623
0.2567465216431721 -0.7461488881106623
0.3014787822368803 -0.6068412038558013
0.3014787822368803 -0.6997129933590419
0.3014787822368803 -0.6997129933590419
0.2567465216431721 -0.6997129933590419
0.2343803913463179 -0.6997129933590419
0.27911265194002616 -0.7925847828622825
0.27911265194002616 -0.7461488881106623
0.3685771731274427 -0.7925847828622825
0.48040782461171333 -0.6997129933590419
0.8158997790645253 -0.5604053091041811
1.2184901244078996 -0.6997129933590419
1.6658127303449821 -0.6997129933590419
2.314430508953752 -0.7461488881106623
2.9630482875625215 -0.8390206776139029
3.566933805577583 -1.164071940875245
4.126087062998936 -1.4426873093849668
4.573409668936018 -1.7213026778946885
4.573409668936018 -1.8141744673979292
4.305016105373769 -1.90704625690117
3.6340321964681452 -2.0463539411560308
2.9406821572656674 -2.2320975201625117
2.1802337271726273 -2.371405204417373
1.4197852970795868 -2.2320975201625117
0.5027739549085675 -2.0463539411560308
-0.39187125696559766 -1.6748667831430684
-1.0852212961680756 -1.303379625130106
-1.5325439021051581 -0.7461488881106623
-1.7114729444799912 -0.04961046683635768
-1.5996422929957206 0.6004920596863266
-1.510177771808304 1.1577227967057702
-1.3088825991366169 1.2505945862090109
-1.0852212961680756 0.9255433229476687
-0.8839261234963884 0.5540561649347062
-0.7273632114184095 0.2754407964249844
-0.5260680387467225 -0.1424822563395983
-0.43660351755930593 -0.2817899405944592
-0.3471389963718894 -0.4675335196009404
-0.3471389963718894 -0.6532770986074217
-0.30240673577818117 -0.6997129933590419
-0.28004060548132703 -0.8390206776139029
-0.23530834488761876 -0.9318924671171435
-0.30240673577818117 -1.0712001513720044
-0.23530834488761876 -1.0712001513720044
-0.23530834488761876 -0.9783283618687637
-0.28004060548132703 -0.9783283618687637
-0.2576744751844729 -0.8390206776139029
-0.21294221459076465 -0.8390206776139029
-0.1905760842939105 -0.7925847828622825
-0.23530834488761876 -0.7925847828622825
-0.16820995399705638 -0.8854565723655231
-0.1905760842939105 -0.9318924671171435
-0.23530834488761876 -1.024764256620384
-0.2576744751844729 -1.024764256620384
-0.2576744751844729 -1.164071940875245
-0.30240673577818117 -1.1176360461236245
-0.3247728660750353 -1.164071940875245
-0.3247728660750353 -1.0712001513720044
-0.3247728660750353 -0.9318924671171435
-0.28004060548132703 -0.8854565723655231
-0.28004060548132703 -0.7925847828622825
-0.28004060548132703 -0.7925847828622825
-0.28004060548132703 -0.7925847828622825
-0.28004060548132703 -0.8390206776139029
-0.3247728660750353 -1.024764256620384
-0.3471389963718894 -0.9783283618687637
-0.3695051266687435 -1.0712001513720044
-0.39187125696559766 -1.1176360461236245
-0.4813357781530142 -1.164071940875245
-0.43660351755930593 -1.1176360461236245
-0.4142373872624518 -1.0712001513720044
-0.3695051266687435 -1.0712001513720044
-0.3695051266687435 -0.8854565723655231
-0.4142373872624518 -0.7925847828622825
-0.4142373872624518 -0.8854565723655231
-0.39187125696559766 -0.9318924671171435
-0.4142373872624518 -1.024764256620384
-0.4813357781530142 -1.0712001513720044
-0.5260680387467225 -1.1176360461236245
-0.5484341690435766 -1.2105078356268653
-0.5931664296372848 -1.2569437303784856
-0.6378986902309931 -1.164071940875245
-0.6155325599341389 -1.0712001513720044
-0.6378986902309931 -1.0712001513720044
-0.6378986902309931 -1.1176360461236245
-0.6378986902309931 -0.8854565723655231
-0.6378986902309931 -0.9783283618687637
-0.6602648205278472 -1.024764256620384
-0.6602648205278472 -1.1176360461236245
-0.7497293417152637 -1.164071940875245
-0.7720954720121178 -1.303379625130106
-0.8391938629026803 -1.349815519881726
-0.8168277326058261 -1.349815519881726
-0.7720954720121178 -1.349815519881726
-0.7497293417152637 -1.2569437303784856
-0.7497293417152637 -1.164071940875245
-0.7497293417152637 -1.1176360461236245
-0.7497293417152637 -1.024764256620384
-0.794461602308972 -1.024764256620384
-0.7720954720121178 -1.1176360461236245
-0.8615599931995344 -1.2105078356268653
-0.8615599931995344 -1.4426873093849668
-0.8839261234963884 -1.4891232041365872
-0.9286583840900967 -1.5355590988882073
-0.8839261234963884 -1.5355590988882073
-0.8615599931995344 -1.303379625130106
-0.8615599931995344 -1.303379625130106
-0.8391938629026803 -1.2569437303784856
-0.7720954720121178 -1.2569437303784856
-0.7497293417152637 -1.164071940875245
-0.6602648205278472 -1.303379625130106
-0.6826309508247014 -1.303379625130106
-0.6378986902309931 -1.3962514146333465
-0.5931664296372848 -1.3962514146333465
-0.5260680387467225 -1.4426873093849668
-0.5484341690435766 -1.5355590988882073
-0.5037019084498683 -1.4891232041365872
-0.4813357781530142 -1.4891232041365872
-0.39187125696559766 -1.4891232041365872
-0.2576744751844729 -1.2569437303784856
-0.1905760842939105 -1.3962514146333465
-0.011647041919077486 -1.303379625130106
0.10018360956519315 -1.349815519881726
0.2120142610494638 -1.3962514146333465
0.32384491253373443 -1.4426873093849668
0.3685771731274427 -1.4891232041365872
0.48040782461171333 -1.628430888391448
0.5475062155022757 -1.6748667831430684
0.6593368669865464 -1.5819949936398277
0.7264352578771087 -1.5355590988882073
0.771167518470817 -1.4426873093849668
0.8606320396582335 -1.349815519881726
0.9277304305487959 -1.2105078356268653
0.9277304305487959 -1.024764256620384
0.9724626911425042 -1.164071940875245
0.9724626911425042 -1.1176360461236245
0.9277304305487959 -1.164071940875245
0.8606320396582335 -1.1176360461236245
0.8829981699550876 -1.2105078356268653
0.771167518470817 -1.1176360461236245
0.8382659093613793 -1.1176360461236245
0.8158997790645253 -1.0712001513720044
0.7935336487676712 -1.024764256620384
0.8158997790645253 -0.9783283618687637
0.8158997790645253 -0.7925847828622825
0.7935336487676712 -0.7925847828622825
0.8606320396582335 -0.8390206776139029
0.8829981699550876 -0.9318924671171435
0.8829981699550876 -0.7925847828622825
0.8158997790645253 -0.8390206776139029
0.771167518470817 -0.9783283618687637
0.7264352578771087 -1.024764256620384
0.7040691275802546 -0.9783283618687637
0.7040691275802546 -1.024764256620384
0.7264352578771087 -0.8854565723655231
0.7488013881739629 -0.8854565723655231
0.7488013881739629 -0.8390206776139029
0.8606320396582335 -0.7461488881106623
0.7935336487676712 -0.8390206776139029
0.8382659093613793 -0.7461488881106623
0.8158997790645253 -0.8390206776139029
0.771167518470817 -0.9783283618687637
0.7264352578771087 -1.024764256620384
0.7040691275802546 -1.0712001513720044
0.6593368669865464 -1.024764256620384
0.7040691275802546 -0.9318924671171435
0.7040691275802546 -0.8390206776139029
0.6817029972834004 -0.8390206776139029
0.6817029972834004 -0.7461488881106623
0.7264352578771087 -0.6068412038558013
0.7488013881739629 -0.7461488881106623
0.6817029972834004 -0.7461488881106623
0.7040691275802546 -1.024764256620384
0.7264352578771087 -0.9783283618687637
0.6817029972834004 -1.1176360461236245
0.6369707366896923 -1.1176360461236245
0.6593368669865464 -1.1176360461236245
0.5698723457991298 -1.024764256620384
0.6369707366896923 -0.9318924671171435
0.6369707366896923 -1.024764256620384
0.6593368669865464 -0.9783283618687637
0.7040691275802546 -0.9318924671171435
0.6817029972834004 -0.7925847828622825
0.6593368669865464 -0.8390206776139029
0.6593368669865464 -0.8854565723655231
0.6369707366896923 -0.9318924671171435
0.6146046063928381 -1.0712001513720044
0.592238476095984 -1.0712001513720044
0.5475062155022757 -1.0712001513720044
0.5698723457991298 -1.024764256620384
0.5698723457991298 -1.024764256620384
0.6146046063928381 -0.9318924671171435
0.7040691275802546 -0.7925847828622825
0.7488013881739629 -0.6997129933590419
0.7935336487676712 -0.6997129933590419
0.8829981699550876 -0.6997129933590419
0.9277304305487959 -0.7461488881106623
0.9277304305487959 -0.6997129933590419
0.9500965608456501 -0.6997129933590419
0.8829981699550876 -0.7461488881106623
0.9277304305487959 -0.6997129933590419
0.9724626911425042 -0.6068412038558013
0.9948288214393582 -0.5139694143525607
0.9948288214393582 -0.5139694143525607
0.9948288214393582 -0.5139694143525607
1.0619272123299206 -0.4675335196009404
1.106659472923629 -0.6068412038558013
1.106659472923629 -0.5604053091041811
1.1513917335173371 -0.6068412038558013
1.129025603220483 -0.7461488881106623
1.1513917335173371 -0.9318924671171435
1.084293342626775 -0.9783283618687637
1.084293342626775 -1.0712001513720044
1.0395610820330665 -1.1176360461236245
1.0171949517362124 -1.1176360461236245
0.9948288214393582 -1.0712001513720044
0.9277304305487959 -1.024764256620384
0.8829981699550876 -1.164071940875245
0.8829981699550876 -1.164071940875245
0.8606320396582335 -1.164071940875245
0.771167518470817 -1.164071940875245
0.6817029972834004 -1.2105078356268653
0.6593368669865464 -1.303379625130106
0.592238476095984 -1.164071940875245
0.5475062155022757 -1.1176360461236245
0.5027739549085675 -1.024764256620384
0.43567556401800506 -0.7925847828622825
0.413309433721151 -0.7925847828622825
0.5027739549085675 -0.7461488881106623
0.5027739549085675 -0.6997129933590419
0.5475062155022757 -0.7461488881106623
0.5027739549085675 -0.8390206776139029
0.4580416943148592 -0.8854565723655231
0.413309433721151 -1.024764256620384
0.34621104283058857 -0.9783283618687637
0.34621104283058857 -0.9783283618687637
0.43567556401800506 -0.9783283618687637
0.4580416943148592 -0.8854565723655231
0.48040782461171333 -0.7925847828622825
0.5475062155022757 -0.6997129933590419
0.5027739549085675 -0.6997129933590419
0.5475062155022757 -0.6068412038558013
0.4580416943148592 -0.6532770986074217
0.39094330342429684 -0.8390206776139029
0.27911265194002616 -0.9783283618687637
0.2120142610494638 -0.9318924671171435
0.2120142610494638 -0.9783283618687637
0.2343803913463179 -0.9783283618687637
0.27911265194002616 -0.6068412038558013
0.2120142610494638 -0.3282258353460795
0.32384491253373443 -0.2817899405944592
0.39094330342429684 -0.4675335196009404
0.4580416943148592 -0.6068412038558013
0.5251400852054215 -0.6068412038558013
0.6593368669865464 -1.024764256620384
0.8829981699550876 -0.9318924671171435
1.1513917335173371 -1.2105078356268653
1.5092498182670033 -1.303379625130106
1.97893855450094 -1.3962514146333465
2.538091811922293 -1.4426873093849668
3.1643434602342086 -1.5819949936398277
3.723496717655562 -1.6748667831430684
4.170819323592645 -1.7213026778946885
4.372114496264332 -1.90704625690117
4.193185453889499 -2.0463539411560308
3.745862847952416 -2.0463539411560308
3.1196111996405005 -2.1856616254108916
2.2696982483600436 -2.417841099168993
1.3750530364858784 -2.3249693096657524
0.2567465216431721 -2.2785334149141323
-0.794461602308972 -1.90704625690117
-1.6220084232925747 -1.2569437303784856
-1.9127681171516784 -0.1889181510912186
-1.9127681171516784 0.971979217699289
-1.7562052050736996 2.086440691738176
-1.510177771808304 2.4114919549995184
-1.2417842082460546 2.086440691738176
-0.9510245143869509 1.436338165215492
-0.7273632114184095 0.6004920596863266
-0.6602648205278472 -0.0031745720847373825
-0.5484341690435766 -0.4675335196009404
-0.5037019084498683 -0.7925847828622825
-0.43660351755930593 -0.8854565723655231
-0.4142373872624518 -1.024764256620384
-0.3695051266687435 -0.9783283618687637
-0.3695051266687435 -1.0712001513720044
-0.3695051266687435 -0.9783283618687637
-0.3247728660750353 -0.9318924671171435
-0.3471389963718894 -0.8390206776139029
-0.3695051266687435 -0.8854565723655231
-0.3471389963718894 -0.8854565723655231
-0.3695051266687435 -0.9318924671171435
-0.39187125696559766 -0.9318924671171435
-0.43660351755930593 -0.9783283618687637
-0.4813357781530142 -1.164071940875245
-0.5037019084498683 -1.1176360461236245
-0.4813357781530142 -1.164071940875245
-0.45896964785616007 -1.2569437303784856
-0.4813357781530142 -1.164071940875245
-0.4813357781530142 -1.1176360461236245
-0.43660351755930593 -1.1176360461236245
-0.39187125696559766 -0.9783283618687637
-0.39187125696559766 -0.9318924671171435
-0.4142373872624518 -0.9783283618687637
-0.5260680387467225 -0.9783283618687637
-0.5037019084498683 -1.164071940875245
-0.5037019084498683 -1.349815519881726
-0.5708002993404308 -1.4426873093849668
-0.5708002993404308 -1.4426873093849668
-0.5708002993404308 -1.2569437303784856
-0.5484341690435766 -1.2569437303784856
-0.5037019084498683 -1.349815519881726
-0.45896964785616007 -1.2105078356268653
-0.4813357781530142 -1.164071940875245
-0.5037019084498683 -1.2105078356268653
-0.5260680387467225 -1.2569437303784856
-0.5260680387467225 -1.349815519881726
-0.6155325599341389 -1.2569437303784856
-0.6378986902309931 -1.4426873093849668
-0.6602648205278472 -1.303379625130106
-0.7273632114184095 -1.303379625130106
-0.7049970811215555 -1.349815519881726
-0.7273632114184095 -1.3962514146333465
-0.7273632114184095 -1.3962514146333465
-0.6826309508247014 -1.3962514146333465
-0.7049970811215555 -1.2569437303784856
-0.7049970811215555 -1.2569437303784856
-0.7049970811215555 -1.4426873093849668
-0.7497293417152637 -1.4426873093849668
-0.8615599931995344 -1.4891232041365872
-0.8839261234963884 -1.6748667831430684
-0.9286583840900967 -1.7677385726463088
-1.0181229052775134 -1.6748667831430684
-0.9510245143869509 -1.5819949936398277
-0.8839261234963884 -1.5355590988882073
-0.9062922537932426 -1.4426873093849668
-0.9510245143869509 -1.4426873093849668
-0.9510245143869509 -1.3962514146333465
-0.9062922537932426 -1.4891232041365872
-0.9062922537932426 -1.5355590988882073
-0.9510245143869509 -1.5819949936398277
-1.0181229052775134 -1.5819949936398277
-0.9957567749806592 -1.7213026778946885
-1.1075874264649297 -1.7677385726463088
-1.0404890355743674 -1.7213026778946885
-1.0404890355743674 -1.8141744673979292
-1.0404890355743674 -1.8606103621495496
-0.9957567749806592 -1.7677385726463088
-0.9286583840900967 -1.628430888391448
-0.9062922537932426 -1.5819949936398277
-0.9062922537932426 -1.5819949936398277
-0.9510245143869509 -1.6748667831430684
-0.973390644683805 -1.6748667831430684
-1.0181229052775134 -1.8141744673979292
-0.9957567749806592 -1.90704625690117
-0.9957567749806592 -1.8606103621495496
-0.9957567749806592 -1.8606103621495496
-0.9286583840900967 -1.8141744673979292
-0.8391938629026803 -1.7677385726463088
-0.7720954720121178 -1.6748667831430684
-0.6826309508247014 -1.5819949936398277
-0.5931664296372848 -1.5819949936398277
-0.5260680387467225 -1.628430888391448
-0.5037019084498683 -1.6748667831430684
-0.43660351755930593 -1.7677385726463088
-0.4142373872624518 -1.8141744673979292
-0.3695051266687435 -1.90704625690117
-0.28004060548132703 -1.95348215165279
-0.23530834488761876 -1.95348215165279
-0.07874543280963987 -1.90704625690117
-0.011647041919077486 -1.7677385726463088
0.12254973986204729 -1.8141744673979292
0.2120142610494638 -1.6748667831430684
0.3014787822368803 -1.628430888391448
0.413309433721151 -1.628430888391448
0.413309433721151 -1.5355590988882073
0.43567556401800506 -1.4426873093849668
0.413309433721151 -1.5819949936398277
0.39094330342429684 -1.5819949936398277
0.39094330342429684 -1.5819949936398277
0.43567556401800506 -1.628430888391448
0.4580416943148592 -1.5819949936398277
0.4580416943148592 -1.4891232041365872
0.5698723457991298 -1.303379625130106
0.5698723457991298 -1.164071940875245
0.5698723457991298 -1.024764256620384
0.5475062155022757 -1.0712001513720044
0.592238476095984 -1.024764256620384
0.5475062155022757 -1.1176360461236245
0.5027739549085675 -1.164071940875245
0.4580416943148592 -1.303379625130106
0.413309433721151 -1.303379625130106
0.34621104283058857 -1.2569437303784856
0.3014787822368803 -1.164071940875245
0.27911265194002616 -1.0712001513720044
0.34621104283058857 -1.024764256620384
0.32384491253373443 -0.9318924671171435
0.32384491253373443 -0.8854565723655231
0.3014787822368803 -0.8390206776139029
0.27911265194002616 -1.0712001513720044
0.2567465216431721 -0.9783283618687637
0.2343803913463179 -0.9318924671171435
0.2567465216431721 -1.1176360461236245
0.2120142610494638 -1.164071940875245
0.2120142610494638 -1.164071940875245
0.18964813075260967 -1.0712001513720044
0.18964813075260967 -0.9783283618687637
0.16728200045575553 -1.024764256620384
0.16728200045575553 -0.8854565723655231
0.18964813075260967 -0.7925847828622825
0.2120142610494638 -0.8854565723655231
0.2120142610494638 -0.7461488881106623
0.2343803913463179 -0.7461488881106623
0.2120142610494638 -0.7925847828622825
0.18964813075260967 -1.024764256620384
0.18964813075260967 -1.0712001513720044
0.14491587015890142 -1.2105078356268653
0.18964813075260967 -1.349815519881726
0.2343803913463179 -1.303379625130106
0.18964813075260967 -1.2105078356268653
0.18964813075260967 -1.2105078356268653
0.2343803913463179 -1.024764256620384
0.2120142610494638 -1.0712001513720044
0.16728200045575553 -1.0712001513720044
0.12254973986204729 -1.2105078356268653
0.0554513489714849 -1.303379625130106
0.0554513489714849 -1.4891232041365872
0.10018360956519315 -1.4426873093849668
0.07781747926833903 -1.4426873093849668
0.10018360956519315 -1.3962514146333465
0.07781747926833903 -1.2569437303784856
0.03308521867463077 -1.0712001513720044
0.07781747926833903 -0.9318924671171435
0.12254973986204729 -0.9318924671171435
0.0554513489714849 -0.9318924671171435
0.0554513489714849 -1.164071940875245
-0.034013172215931614 -1.1176360461236245
-0.056379302512785744 -1.2569437303784856
-0.034013172215931614 -1.2569437303784856
-0.101111563106494 -1.303379625130106
-0.056379302512785744 -1.0712001513720044
-0.011647041919077486 -1.0712001513720044
0.10018360956519315 -1.024764256620384
0.18964813075260967 -0.8390206776139029
0.2567465216431721 -0.7461488881106623
0.32384491253373443 -0.6532770986074217
0.3685771731274427 -0.7461488881106623
0.3685771731274427 -0.6997129933590419
0.39094330342429684 -0.7461488881106623
0.39094330342429684 -0.7925847828622825
0.43567556401800506 -0.7461488881106623
0.3014787822368803 -0.7925847828622825
0.3014787822368803 -1.1176360461236245
0.32384491253373443 -0.9783283618687637
0.34621104283058857 -1.024764256620384
0.413309433721151 -0.8390206776139029
0.5251400852054215 -0.7461488881106623
0.592238476095984 -0.7925847828622825
0.6369707366896923 -0.7925847828622825
0.592238476095984 -0.8390206776139029
0.5251400852054215 -0.9318924671171435
0.43567556401800506 -1.024764256620384
0.39094330342429684 -1.164071940875245
0.3685771731274427 -1.164071940875245
0.34621104283058857 -1.349815519881726
0.32384491253373443 -1.303379625130106
0.27911265194002616 -1.2105078356268653
0.2567465216431721 -1.2105078356268653
0.2120142610494638 -1.164071940875245
0.16728200045575553 -1.024764256620384
0.14491587015890142 -1.1176360461236245
0.07781747926833903 -1.1176360461236245
0.03308521867463077 -1.1176360461236245
-0.034013172215931614 -1.1176360461236245
-0.16820995399705638 -1.164071940875245
-0.28004060548132703 -1.2569437303784856
-0.3247728660750353 -1.2105078356268653
-0.4142373872624518 -1.164071940875245
-0.39187125696559766 -1.1176360461236245
-0.30240673577818117 -1.0712001513720044
-0.3247728660750353 -0.9318924671171435
-0.23530834488761876 -1.024764256620384
-0.21294221459076465 -1.024764256620384
-0.23530834488761876 -1.0712001513720044
-0.28004060548132703 -1.1176360461236245
-0.3471389963718894 -1.2105078356268653
-0.3247728660750353 -1.2569437303784856
-0.43660351755930593 -1.303379625130106
-0.45896964785616007 -1.349815519881726
-0.43660351755930593 -1.303379625130106
-0.43660351755930593 -1.303379625130106
-0.4142373872624518 -1.2105078356268653
-0.3471389963718894 -1.0712001513720044
-0.3247728660750353 -1.024764256620384
-0.2576744751844729 -0.9783283618687637
-0.28004060548132703 -1.0712001513720044
-0.23530834488761876 -1.0712001513720044
-0.1905760842939105 -1.164071940875245
-0.12347769340334813 -1.164071940875245
0.03308521867463077 -1.2569437303784856
0.3014787822368803 -1.2569437303784856
0.8158997790645253 -1.2569437303784856
1.3526869061890243 -1.303379625130106
2.0684030756883565 -1.3962514146333465
2.7841192451876884 -1.4891232041365872
3.432737023796458 -1.628430888391448
3.857693499436687 -1.8606103621495496
3.880059629733541 -2.1392257306592715
3.4998354146870208 -2.3249693096657524
2.8064853754845425 -2.6035846781754746
1.8671079030166693 -2.6500205729270947
1.0395610820330665 -2.7893282571819555
0.16728200045575553 -2.696456467678715
-0.7497293417152637 -2.557148783423854
-1.6220084232925747 -2.092789835907651
-2.2929923321981986 -1.628430888391448
-2.695582677541573 -0.8854565723655231
-2.717948807838427 -0.04961046683635768
-2.427189113979323 0.9255433229476687
-2.203527811010782 1.8078253232284545
-1.9798665080422408 2.179312481241417
-1.8904019868548243 2.040004796986556
-1.8009374656674078 1.4827740599671124
-1.7562052050736996 0.6004920596863266
-1.6220084232925747 -0.1424822563395983
-1.3759809900271793 -0.5604053091041811
-1.1746858173554922 -0.7925847828622825
-0.9286583840900967 -0.8390206776139029
-0.7720954720121178 -0.9318924671171435
-0.7273632114184095 -0.8854565723655231
-0.794461602308972 -0.9783283618687637
-0.8615599931995344 -1.164071940875245
-0.9510245143869509 -1.1176360461236245
-1.129953556761784 -1.164071940875245
-1.2417842082460546 -1.3962514146333465
-1.2417842082460546 -1.3962514146333465
-1.1970519476523462 -1.3962514146333465
-1.0852212961680756 -1.4891232041365872
-1.0404890355743674 -1.349815519881726
-0.9510245143869509 -1.2569437303784856
-0.9510245143869509 -1.303379625130106
-0.9510245143869509 -1.2105078356268653
-0.9957567749806592 -1.164071940875245
-0.9957567749806592 -1.2105078356268653
-1.0181229052775134 -1.349815519881726
-1.0628551658712215 -1.4426873093849668
-1.0628551658712215 -1.4891232041365872
-1.0852212961680756 -1.5355590988882073
-1.0628551658712215 -1.5819949936398277
-1.0628551658712215 -1.628430888391448
-1.0404890355743674 -1.4426873093849668
-0.9957567749806592 -1.3962514146333465
-0.973390644683805 -1.349815519881726
-0.973390644683805 -1.303379625130106
-0.9062922537932426 -1.2569437303784856
-0.9286583840900967 -1.303379625130106
-0.9510245143869509 -1.4891232041365872
-1.0628551658712215 -1.3962514146333465
-1.0404890355743674 -1.5819949936398277
-1.129953556761784 -1.4891232041365872
-1.2194180779492003 -1.5355590988882073
-1.2417842082460546 -1.4891232041365872
-1.2641503385429087 -1.5355590988882073
-1.2417842082460546 -1.4426873093849668
-1.2194180779492003 -1.4891232041365872
-1.2641503385429087 -1.4426873093849668
-1.2417842082460546 -1.4426873093849668
-1.2865164688397628 -1.4426873093849668
-1.2641503385429087 -1.4891232041365872
-1.3088825991366169 -1.6748667831430684
-1.3536148597303252 -1.628430888391448
-1.4430793809177418 -1.7677385726463088
-1.4654455112145959 -1.7213026778946885
-1.4430793809177418 -1.8141744673979292
-1.4654455112145959 -1.7213026778946885
-1.4430793809177418 -1.628430888391448
-1.3983471203240334 -1.8141744673979292
-1.3983471203240334 -1.5355590988882073
-1.3759809900271793 -1.5819949936398277
-1.3983471203240334 -1.6748667831430684
-1.4207132506208875 -1.8141744673979292
-1.4207132506208875 -1.8606103621495496
-1.4430793809177418 -1.95348215165279
-1.5325439021051581 -2.092789835907651
-1.5325439021051581 -1.9999180464044104
-1.5772761626988665 -1.90704625690117
-1.6220084232925747 -1.8141744673979292
-1.5996422929957206 -1.7677385726463088
-1.5996422929957206 -1.5819949936398277
-1.5549100324020124 -1.6748667831430684
-1.510177771808304 -1.628430888391448
-1.5549100324020124 -1.6748667831430684
-1.510177771808304 -1.7213026778946885
-1.48781164151145 -1.8606103621495496
-1.48781164151145 -1.9999180464044104
-1.4654455112145959 -1.95348215165279
-1.4654455112145959 -1.9999180464044104
-1.4654455112145959 -1.9999180464044104
-1.4430793809177418 -1.95348215165279
-1.3759809900271793 -1.8141744673979292
-1.3759809900271793 -1.8606103621495496
-1.2865164688397628 -1.7677385726463088
-1.2641503385429087 -1.7677385726463088
-1.1970519476523462 -1.7677385726463088
-1.152319687058638 -1.8141744673979292
-1.0628551658712215 -1.90704625690117
-0.9957567749806592 -2.092789835907651
-0.9286583840900967 -1.95348215165279
-0.8839261234963884 -2.0463539411560308
-0.7720954720121178 -2.0463539411560308
-0.6602648205278472 -1.9999180464044104
-0.6155325599341389 -1.8606103621495496
-0.45896964785616007 -1.8141744673979292
-0.3247728660750353 -1.7213026778946885
-0.21294221459076465 -1.7213026778946885
-0.1905760842939105 -1.6748667831430684
-0.16820995399705638 -1.8141744673979292
-0.14584382370020227 -1.6748667831430684
-0.16820995399705638 -1.6748667831430684
-0.14584382370020227 -1.7213026778946885
-0.12347769340334813 -1.7213026778946885
-0.056379302512785744 -1.628430888391448
0.010719088377776641 -1.5355590988882073
0.010719088377776641 -1.349815519881726
0.03308521867463077 -1.349815519881726
0.0554513489714849 -1.2105078356268653
0.0554513489714849 -1.2569437303784856
-0.011647041919077486 -1.164071940875245
0.010719088377776641 -1.164071940875245
0.03308521867463077 -1.2105078356268653
0.03308521867463077 -1.2105078356268653
-0.034013172215931614 -1.2105078356268653
-0.056379302512785744 -1.2569437303784856
-0.07874543280963987 -1.303379625130106
-0.07874543280963987 -1.303379625130106
-0.056379302512785744 -1.2105078356268653
0.010719088377776641 -1.1176360461236245
0.010719088377776641 -1.0712001513720044
0.0554513489714849 -1.024764256620384
-0.034013172215931614 -1.2105078356268653
-0.011647041919077486 -1.164071940875245
-0.07874543280963987 -1.1176360461236245
-0.1905760842939105 -1.349815519881726
-0.23530834488761876 -1.2569437303784856
-0.23530834488761876 -1.2569437303784856
-0.2576744751844729 -1.2569437303784856
-0.16820995399705638 -1.1176360461236245
-0.1905760842939105 -1.024764256620384
-0.101111563106494 -1.024764256620384
-0.034013172215931614 -1.024764256620384
0.010719088377776641 -1.1176360461236245
-0.056379302512785744 -1.164071940875245
-0.07874543280963987 -1.0712001513720044
-0.12347769340334813 -1.2105078356268653
-0.16820995399705638 -1.303379625130106
-0.1905760842939105 -1.2569437303784856
-0.2576744751844729 -1.2569437303784856
-0.23530834488761876 -1.2105078356268653
-0.1905760842939105 -1.2105078356268653
-0.21294221459076465 -1.164071940875245
-0.21294221459076465 -1.1176360461236245
-0.23530834488761876 -0.9318924671171435
-0.21294221459076465 -0.9783283618687637
-0.23530834488761876 -1.0712001513720044
-0.28004060548132703 -1.2105078356268653
-0.21294221459076465 -1.2105078356268653
-0.23530834488761876 -1.2569437303784856
-0.23530834488761876 -1.349815519881726
-0.21294221459076465 -1.303379625130106
-0.23530834488761876 -1.349815519881726
-0.21294221459076465 -1.2569437303784856
-0.23530834488761876 -1.2105078356268653
-0.23530834488761876 -1.1176360461236245
-0.21294221459076465 -1.0712001513720044
-0.16820995399705638 -1.0712001513720044
-0.1905760842939105 -1.0712001513720044
-0.1905760842939105 -1.1176360461236245
-0.21294221459076465 -1.164071940875245
-0.21294221459076465 -1.2569437303784856
-0.30240673577818117 -1.2569437303784856
-0.28004060548132703 -1.303379625130106
-0.23530834488761876 -1.2105078356268653
-0.14584382370020227 -1.164071940875245
-0.16820995399705638 -1.0712001513720044
-0.056379302512785744 -1.1176360461236245
0.03308521867463077 -0.9783283618687637
0.12254973986204729 -0.9318924671171435
0.10018360956519315 -0.8854565723655231
0.10018360956519315 -0.9318924671171435
0.07781747926833903 -0.9318924671171435
0.10018360956519315 -0.8854565723655231
0.03308521867463077 -0.9318924671171435
0.07781747926833903 -0.8854565723655231
0.12254973986204729 -0.6068412038558013
0.18964813075260967 -0.6532770986074217
0.14491587015890142 -0.5139694143525607
0.2120142610494638 -0.4210976248493201
0.3014787822368803 -0.4210976248493201
0.27911265194002616 -0.5604053091041811
0.3014787822368803 -0.6997129933590419
0.3014787822368803 -0.8854565723655231
0.27911265194002616 -0.9318924671171435
0.3014787822368803 -0.8854565723655231
0.34621104283058857 -1.024764256620384
0.27911265194002616 -0.9783283618687637
0.2567465216431721 -0.9783283618687637
0.2567465216431721 -0.8854565723655231
0.2567465216431721 -0.8390206776139029
0.2120142610494638 -0.8854565723655231
0.2343803913463179 -0.7925847828622825
0.2120142610494638 -0.8390206776139029
0.12254973986204729 -0.9783283618687637
0.0554513489714849 -0.9318924671171435
-0.034013172215931614 -1.024764256620384
-0.12347769340334813 -1.2105078356268653
-0.16820995399705638 -1.303379625130106
-0.21294221459076465 -1.3962514146333465
-0.14584382370020227 -1.3962514146333465
-0.23530834488761876 -1.164071940875245
-0.23530834488761876 -1.2105078356268653
-0.2576744751844729 -1.024764256620384
-0.2576744751844729 -0.9318924671171435
-0.2576744751844729 -1.0712001513720044
-0.30240673577818117 -1.024764256620384
-0.3247728660750353 -0.9318924671171435
-0.30240673577818117 -1.1176360461236245
-0.3471389963718894 -1.0712001513720044
-0.3471389963718894 -1.0712001513720044
-0.43660351755930593 -1.1176360461236245
-0.4142373872624518 -1.2105078356268653
-0.4142373872624518 -1.024764256620384
-0.39187125696559766 -1.024764256620384
-0.3695051266687435 -0.9318924671171435
-0.2576744751844729 -0.9318924671171435
-0.2576744751844729 -0.9318924671171435
-0.23530834488761876 -0.9318924671171435
-0.21294221459076465 -0.8854565723655231
-0.23530834488761876 -0.9318924671171435
-0.30240673577818117 -1.024764256620384
-0.28004060548132703 -1.024764256620384
-0.3247728660750353 -0.9783283618687637
-0.28004060548132703 -0.9783283618687637
-0.2576744751844729 -0.9318924671171435
-0.21294221459076465 -0.6997129933590419
-0.14584382370020227 -0.7925847828622825
-0.056379302512785744 -0.6532770986074217
0.12254973986204729 -0.6068412038558013
0.3685771731274427 -0.6068412038558013
0.7040691275802546 -0.6997129933590419
1.084293342626775 -0.7925847828622825
1.5316159485638574 -0.8390206776139029
2.157867596875773 -0.7461488881106623
2.717020854297126 -0.7461488881106623
3.3209063723121877 -0.8390206776139029
3.76822897824927 -0.9318924671171435
4.0142564115146655 -1.0712001513720044
4.058988672108374 -1.2105078356268653
3.611666066171291 -1.164071940875245
2.9630482875625215 -1.2569437303784856
2.157867596875773 -1.6748667831430684
1.3974191667827327 -2.1856616254108916
0.592238476095984 -2.557148783423854
-0.1905760842939105 -2.696456467678715
-1.0628551658712215 -2.7428923624303354
-1.8680358565579702 -2.371405204417373
-2.4495552442761777 -1.7677385726463088
-2.717948807838427 -0.9783283618687637
-2.673216547244719 0.08969721741850323
-2.360090723088761 1.0648510072025297
-2.0693310292296574 1.9471330074833153
-1.8680358565579702 2.3186201654962777
-1.7114729444799912 1.9471330074833153
-1.5325439021051581 1.2041586914573905
-1.4430793809177418 0.5540561649347062
-1.2417842082460546 -0.04961046683635768
-1.0404890355743674 -0.5139694143525607
-0.9062922537932426 -0.7461488881106623
-0.7720954720121178 -0.7925847828622825
-0.6602648205278472 -0.7925847828622825
-0.5708002993404308 -0.6532770986074217
-0.5260680387467225 -0.3746617300976998
-0.5260680387467225 -0.2353540458428389
-0.4813357781530142 -0.1424822563395983
-0.5708002993404308 -0.3282258353460795
-0.7049970811215555 -0.4210976248493201
-0.794461602308972 -0.2817899405944592
-0.9062922537932426 -0.0031745720847373825
-0.9957567749806592 0.8791074281960484
-1.0181229052775134 2.040004796986556
-0.9286583840900967 2.829415007764101
-0.794461602308972 2.8758509025157215
-0.6602648205278472 1.900697112731695
-0.5931664296372848 0.22900490167336413
-0.5708002993404308 -1.4891232041365872
-0.6602648205278472 -2.696456467678715
-0.794461602308972 -3.0679436256916772
-0.9510245143869509 -2.7893282571819555
-1.0181229052775134 -2.092789835907651
-0.973390644683805 -1.4426873093849668
-1.0181229052775134 -1.164071940875245
-0.973390644683805 -1.164071940875245
-0.973390644683805 -1.303379625130106
-0.973390644683805 -1.4426873093849668
-0.9510245143869509 -1.349815519881726
-0.9286583840900967 -1.303379625130106
-0.8615599931995344 -1.164071940875245
-0.794461602308972 -0.9318924671171435
-0.8615599931995344 -0.7461488881106623
-0.8168277326058261 -0.7925847828622825
-0.8391938629026803 -0.8390206776139029
-0.9062922537932426 -0.9783283618687637
-0.9286583840900967 -1.024764256620384
-0.9957567749806592 -0.9318924671171435
-0.973390644683805 -0.9318924671171435
-0.9957567749806592 -0.8390206776139029
-0.973390644683805 -0.8390206776139029
-0.9286583840900967 -0.5604053091041811
-0.9062922537932426 -0.5139694143525607
-0.9062922537932426 -0.4210976248493201
-0.9286583840900967 -0.5139694143525607
-0.9510245143869509 -0.5604053091041811
-0.973390644683805 -0.7461488881106623
-1.0404890355743674 -0.7925847828622825
-1.0628551658712215 -0.8390206776139029
-1.1075874264649297 -0.9783283618687637
-1.2194180779492003 -0.8854565723655231
-1.1970519476523462 -0.7925847828622825
-1.1970519476523462 -0.7925847828622825
-1.1075874264649297 -0.6997129933590419
-1.1075874264649297 -0.5604053091041811
-1.0628551658712215 -0.6068412038558013
-1.1075874264649297 -0.5604053091041811
-1.152319687058638 -0.6068412038558013
-1.2194180779492003 -0.5139694143525607
-1.2865164688397628 -0.4675335196009404
-1.2641503385429087 -0.3746617300976998
-1.2865164688397628 -0.4675335196009404
-1.2641503385429087 -0.3746617300976998
-1.1970519476523462 -0.2817899405944592
-1.152319687058638 -0.2353540458428389
-1.1075874264649297 -0.1889181510912186
-1.1075874264649297 -0.1889181510912186
-1.152319687058638 -0.2817899405944592
-1.3088825991366169 -0.4675335196009404
-1.4654455112145959 -0.6532770986074217
-1.48781164151145 -0.8390206776139029
-1.48781164151145 -1.0712001513720044
-1.48781164151145 -1.4426873093849668
-1.4207132506208875 -1.8141744673979292
-1.3759809900271793 -1.90704625690117
-1.2417842082460546 -1.8141744673979292
-1.2194180779492003 -1.5819949936398277
-1.152319687058638 -1.303379625130106
-1.129953556761784 -1.2105078356268653
-1.0181229052775134 -1.024764256620384
-0.973390644683805 -1.0712001513720044
-0.9286583840900967 -1.024764256620384
-0.8391938629026803 -1.1176360461236245
-0.794461602308972 -1.1176360461236245
-0.7273632114184095 -1.1176360461236245
-0.6155325599341389 -1.1176360461236245
-0.5708002993404308 -1.0712001513720044
-0.5037019084498683 -0.8854565723655231
-0.3471389963718894 -0.8390206776139029
-0.28004060548132703 -0.7461488881106623
-0.101111563106494 -0.6532770986074217
-0.034013172215931614 -0.6997129933590419
0.0554513489714849 -0.5604053091041811
0.12254973986204729 -0.5604053091041811
0.18964813075260967 -0.5139694143525607
0.2567465216431721 -0.5604053091041811
0.2567465216431721 -0.6997129933590419
0.32384491253373443 -0.7925847828622825
0.34621104283058857 -0.7925847828622825
0.34621104283058857 -0.7461488881106623
0.32384491253373443 -0.6068412038558013
0.43567556401800506 -0.09604636158797798
0.4580416943148592 0.5540561649347062
0.5251400852054215 1.2041586914573905
0.48040782461171333 1.436338165215492
0.592238476095984 0.971979217699289
0.6369707366896923 0.2754407964249844
0.6369707366896923 -0.8390206776139029
0.592238476095984 -1.5819949936398277
0.5475062155022757 -1.9999180464044104
0.48040782461171333 -1.7213026778946885
0.413309433721151 -1.349815519881726
0.413309433721151 -0.7925847828622825
0.413309433721151 -0.4675335196009404
0.4580416943148592 -0.1889181510912186
0.43567556401800506 -0.1889181510912186
0.43567556401800506 -0.2353540458428389
0.39094330342429684 -0.3746617300976998
0.3685771731274427 -0.4675335196009404
0.3685771731274427 -0.5139694143525607
0.34621104283058857 -0.5139694143525607
0.39094330342429684 -0.5139694143525607
0.39094330342429684 -0.3746617300976998
0.4580416943148592 -0.2817899405944592
0.4580416943148592 -0.09604636158797798
0.5027739549085675 -0.0031745720847373825
0.5251400852054215 0.04326132266688292
0.5251400852054215 0.08969721741850323
0.48040782461171333 -0.0031745720847373825
0.5027739549085675 -0.09604636158797798
0.48040782461171333 -0.1889181510912186
0.48040782461171333 -0.3282258353460795
0.43567556401800506 -0.3282258353460795
0.43567556401800506 -0.4675335196009404
0.39094330342429684 -0.3746617300976998
0.413309433721151 -0.2353540458428389
0.413309433721151 -0.04961046683635768
0.43567556401800506 -0.09604636158797798
0.43567556401800506 -0.09604636158797798
0.5027739549085675 -0.04961046683635768
0.5027739549085675 -0.1424822563395983
0.48040782461171333 -0.1889181510912186
0.413309433721151 -0.1889181510912186
0.43567556401800506 -0.3746617300976998
0.413309433721151 -0.4675335196009404
0.39094330342429684 -0.4210976248493201
0.39094330342429684 -0.4210976248493201
0.39094330342429684 -0.3746617300976998
0.3685771731274427 -0.2817899405944592
0.43567556401800506 -0.1889181510912186
0.48040782461171333 -0.1889181510912186
0.5251400852054215 -0.09604636158797798
0.48040782461171333 -0.2353540458428389
0.5027739549085675 -0.2353540458428389
0.5027739549085675 -0.3282258353460795
0.5251400852054215 -0.3746617300976998
0.5027739549085675 -0.4210976248493201
0.5027739549085675 -0.4675335196009404
0.5251400852054215 -0.4210976248493201
0.5698723457991298 -0.4210976248493201
0.592238476095984 -0.3282258353460795
0.6593368669865464 -0.09604636158797798
0.771167518470817 0.04326132266688292
0.8606320396582335 0.13613311217012353
0.8606320396582335 -0.0031745720847373825
0.9053643002519418 -0.04961046683635768
0.9053643002519418 -0.09604636158797798
0.8606320396582335 -0.0031745720847373825
0.7935336487676712 -0.0031745720847373825
0.8606320396582335 -0.04961046683635768
0.9053643002519418 0.13613311217012353
0.8829981699550876 -0.0031745720847373825
0.8829981699550876 0.08969721741850323
0.9500965608456501 0.04326132266688292
0.9948288214393582 0.13613311217012353
1.084293342626775 -0.0031745720847373825
1.084293342626775 -0.04961046683635768
1.106659472923629 -0.09604636158797798
1.0619272123299206 -0.1889181510912186
1.0171949517362124 -0.3282258353460795
0.9948288214393582 -0.4675335196009404
0.9948288214393582 -0.4675335196009404
0.9277304305487959 -0.4675335196009404
0.8829981699550876 -0.5139694143525607
0.8606320396582335 -0.4675335196009404
0.9053643002519418 -0.5604053091041811
0.8829981699550876 -0.5139694143525607
0.8606320396582335 -0.4210976248493201
0.7040691275802546 -0.4675335196009404
0.6817029972834004 -0.5139694143525607
0.5698723457991298 -0.6068412038558013
0.5475062155022757 -0.6068412038558013
0.43567556401800506 -0.7461488881106623
0.4580416943148592 -0.6068412038558013
0.39094330342429684 -0.5139694143525607
0.34621104283058857 -0.4210976248493201
0.413309433721151 -0.3746617300976998
0.32384491253373443 -0.2817899405944592
0.32384491253373443 -0.2817899405944592
0.3685771731274427 -0.2353540458428389
0.3685771731274427 -0.3282258353460795
0.34621104283058857 -0.3746617300976998
0.34621104283058857 -0.4210976248493201
0.32384491253373443 -0.4675335196009404
0.27911265194002616 -0.5139694143525607
0.32384491253373443 -0.5604053091041811
0.27911265194002616 -0.6068412038558013
0.2343803913463179 -0.5604053091041811
0.3014787822368803 -0.3282258353460795
0.3685771731274427 -0.4210976248493201
0.4580416943148592 -0.4210976248493201
0.5251400852054215 -0.3282258353460795
0.5251400852054215 -0.4210976248493201
0.5251400852054215 -0.4675335196009404
0.5251400852054215 -0.4210976248493201
0.43567556401800506 -0.5604053091041811
0.43567556401800506 -0.6532770986074217
0.43567556401800506 -0.4210976248493201
0.48040782461171333 -0.3282258353460795
0.5475062155022757 -0.1889181510912186
0.771167518470817 -0.1889181510912186
1.084293342626775 -0.04961046683635768
1.486883687970149 -0.09604636158797798
2.157867596875773 -0.2353540458428389
2.851217636078251 -0.2817899405944592
3.678764457061854 -0.6532770986074217
4.305016105373769 -0.8854565723655231
4.729972581013998 -1.0712001513720044
4.729972581013998 -1.303379625130106
4.305016105373769 -1.5819949936398277
3.4774692843901667 -1.6748667831430684
2.6051902028128557 -1.7213026778946885
1.7329111212355446 -1.7677385726463088
0.9053643002519418 -1.5819949936398277
0.010719088377776641 -1.4426873093849668
-0.8615599931995344 -1.303379625130106
-1.4430793809177418 -0.7925847828622825
-1.7114729444799912 -0.2353540458428389
-1.6891068141831371 0.507620270183086
-1.4654455112145959 1.2505945862090109
-1.1970519476523462 1.575645849470353
-0.8839261234963884 1.6220817442219733
-0.6826309508247014 1.3434663757122514
-0.4142373872624518 0.8791074281960484
-0.28004060548132703 0.507620270183086
-0.07874543280963987 0.22900490167336413
-0.011647041919077486 -0.0031745720847373825
0.0554513489714849 -0.1889181510912186
0.07781747926833903 -0.3282258353460795
0.12254973986204729 -0.4210976248493201
0.010719088377776641 -0.5139694143525607
0.010719088377776641 -0.5604053091041811
-0.07874543280963987 -0.5604053091041811
-0.23530834488761876 -0.5604053091041811
-0.2576744751844729 -0.6532770986074217
-0.14584382370020227 -0.5139694143525607
-0.056379302512785744 -0.4675335196009404
-0.011647041919077486 -0.4210976248493201
0.03308521867463077 -0.2353540458428389
0.10018360956519315 -0.2353540458428389
0.10018360956519315 -0.2817899405944592
0.10018360956519315 -0.4210976248493201
0.03308521867463077 -0.3746617300976998
-0.034013172215931614 -0.5604053091041811
-0.034013172215931614 -0.6068412038558013
-0.056379302512785744 -0.6997129933590419
-0.07874543280963987 -0.6068412038558013
-0.16820995399705638 -0.6068412038558013
-0.12347769340334813 -0.4675335196009404
-0.12347769340334813 -0.4210976248493201
-0.12347769340334813 -0.2817899405944592
-0.011647041919077486 -0.2817899405944592
-0.034013172215931614 -0.4210976248493201
-0.056379302512785744 -0.3282258353460795
-0.056379302512785744 -0.6997129933590419
-0.101111563106494 -0.5139694143525607
-0.16820995399705638 -0.6532770986074217
-0.2576744751844729 -0.6997129933590419
-0.23530834488761876 -0.7461488881106623
-0.1905760842939105 -0.5604053091041811
-0.1905760842939105 -0.5604053091041811
-0.12347769340334813 -0.5139694143525607
-0.12347769340334813 -0.4210976248493201
-0.07874543280963987 -0.3746617300976998
-0.14584382370020227 -0.5604053091041811
-0.14584382370020227 -0.4675335196009404
-0.14584382370020227 -0.6068412038558013
-0.1905760842939105 -0.5604053091041811
-0.16820995399705638 -0.6997129933590419
-0.2576744751844729 -0.6532770986074217
-0.30240673577818117 -0.6532770986074217
-0.30240673577818117 -0.6532770986074217
-0.28004060548132703 -0.5139694143525607
-0.2576744751844729 -0.5139694143525607
-0.28004060548132703 -0.5604053091041811
-0.2576744751844729 -0.5604053091041811
-0.21294221459076465 -0.6068412038558013
-0.28004060548132703 -0.6532770986074217
-0.28004060548132703 -0.6532770986074217
-0.30240673577818117 -0.6997129933590419
-0.39187125696559766 -0.7461488881106623
-0.5037019084498683 -0.7925847828622825
-0.5484341690435766 -0.7925847828622825
-0.5037019084498683 -0.7925847828622825
-0.43660351755930593 -0.8390206776139029
-0.4142373872624518 -0.7925847828622825
-0.45896964785616007 -0.6997129933590419
-0.43660351755930593 -0.6068412038558013
-0.5708002993404308 -0.7461488881106623
-0.6155325599341389 -0.7925847828622825
-0.7049970811215555 -0.9318924671171435
-0.7497293417152637 -1.024764256620384
-0.7273632114184095 -1.024764256620384
-0.7049970811215555 -1.1176360461236245
-0.7049970811215555 -0.9318924671171435
-0.7497293417152637 -0.9318924671171435
-0.794461602308972 -0.7925847828622825
-0.7720954720121178 -0.7461488881106623
-0.7497293417152637 -0.6532770986074217
-0.6602648205278472 -0.6997129933590419
-0.5708002993404308 -0.7925847828622825
-0.5260680387467225 -0.6532770986074217
-0.45896964785616007 -0.7461488881106623
-0.3695051266687435 -0.7925847828622825
-0.3247728660750353 -0.8390206776139029
-0.23530834488761876 -0.8390206776139029
-0.21294221459076465 -0.9318924671171435
-0.07874543280963987 -0.9318924671171435
0.12254973986204729 -0.7925847828622825
0.2567465216431721 -0.8390206776139029
0.32384491253373443 -0.7925847828622825
0.48040782461171333 -0.6997129933590419
0.592238476095984 -0.9318924671171435
0.6817029972834004 -0.8390206776139029
0.7488013881739629 -0.8390206776139029
0.8158997790645253 -1.0712001513720044
0.8606320396582335 -1.024764256620384
0.9724626911425042 -1.024764256620384
1.0171949517362124 -0.9318924671171435
1.106659472923629 -0.8390206776139029
1.129025603220483 -0.6997129933590419
1.2184901244078996 -0.5604053091041811
1.3079546455953162 -0.5139694143525607
1.3526869061890243 -0.4675335196009404
1.3526869061890243 -0.5139694143525607
1.3750530364858784 -0.4675335196009404
1.3750530364858784 -0.4210976248493201
1.3750530364858784 -0.5139694143525607
1.4197852970795868 -0.5604053091041811
1.3974191667827327 -0.5139694143525607
1.3526869061890243 -0.4210976248493201
1.3526869061890243 -0.3282258353460795
1.4197852970795868 -0.3282258353460795
1.4197852970795868 -0.2353540458428389
1.464517557673295 -0.2353540458428389
1.4421514273764409 -0.1424822563395983
1.3750530364858784 -0.1424822563395983
1.2632223850016078 -0.3282258353460795
1.084293342626775 -0.3746617300976998
0.9277304305487959 -0.3282258353460795
0.9277304305487959 -0.5139694143525607
0.9053643002519418 -0.4210976248493201
0.9277304305487959 -0.3746617300976998
0.9948288214393582 -0.2817899405944592
1.084293342626775 -0.2353540458428389
1.1513917335173371 -0.1889181510912186
1.1513917335173371 -0.09604636158797798
1.1961239941110455 -0.1889181510912186
1.1737578638141912 -0.09604636158797798
1.129025603220483 -0.2817899405944592
1.084293342626775 -0.2817899405944592
1.0395610820330665 -0.3746617300976998
1.0395610820330665 -0.4210976248493201
0.9277304305487959 -0.4675335196009404
0.9500965608456501 -0.4675335196009404
1.0395610820330665 -0.2353540458428389
1.0395610820330665 -0.1424822563395983
1.084293342626775 -0.09604636158797798
1.084293342626775 -0.09604636158797798
1.084293342626775 -0.2353540458428389
1.084293342626775 -0.1889181510912186
1.0619272123299206 -0.2353540458428389
1.0395610820330665 -0.3282258353460795
0.9277304305487959 -0.3746617300976998
0.9500965608456501 -0.5139694143525607
0.9277304305487959 -0.5139694143525607
0.9053643002519418 -0.4675335196009404
0.9277304305487959 -0.4210976248493201
0.9500965608456501 -0.2353540458428389
0.9948288214393582 -0.2353540458428389
1.0395610820330665 -0.2353540458428389
1.0395610820330665 -0.1889181510912186
1.0395610820330665 -0.1889181510912186
1.0171949517362124 -0.2817899405944592
1.0171949517362124 -0.4210976248493201
0.9724626911425042 -0.4675335196009404
0.9053643002519418 -0.4675335196009404
0.8829981699550876 -0.5604053091041811
0.8829981699550876 -0.5139694143525607
0.9500965608456501 -0.4210976248493201
0.9500965608456501 -0.3746617300976998
1.0171949517362124 -0.3282258353460795
1.106659472923629 -0.3282258353460795
1.106659472923629 -0.09604636158797798
1.1513917335173371 -0.1889181510912186
1.106659472923629 -0.1889181510912186
1.1513917335173371 -0.1889181510912186
1.1513917335173371 -0.1889181510912186
1.1513917335173371 -0.09604636158797798
1.129025603220483 -0.04961046683635768
1.1737578638141912 -0.0031745720847373825
1.2184901244078996 0.08969721741850323
1.2855885152984619 0.2754407964249844
1.3079546455953162 0.22900490167336413
1.3303207758921702 0.2754407964249844
1.3526869061890243 0.368312585928225
1.3974191667827327 0.2754407964249844
1.3750530364858784 0.18256900692174383
1.3526869061890243 -0.0031745720847373825
1.3750530364858784 -0.1424822563395983
1.3974191667827327 -0.2817899405944592
1.3974191667827327 -0.3282258353460795
1.4197852970795868 -0.2817899405944592
1.4197852970795868 -0.4210976248493201
1.3974191667827327 -0.3282258353460795
1.3974191667827327 -0.2353540458428389
1.3974191667827327 -0.2817899405944592
1.4197852970795868 -0.3746617300976998
1.3079546455953162 -0.4675335196009404
1.2855885152984619 -0.5604053091041811
1.1961239941110455 -0.6532770986074217
1.106659472923629 -0.8390206776139029
1.0395610820330665 -0.7925847828622825
0.9724626911425042 -0.6532770986074217
0.8606320396582335 -0.6532770986074217
0.8382659093613793 -0.4675335196009404
0.8158997790645253 -0.3746617300976998
0.771167518470817 -0.1889181510912186
0.771167518470817 -0.1424822563395983
0.7488013881739629 -0.1424822563395983
0.6817029972834004 -0.1889181510912186
0.6593368669865464 -0.2353540458428389
0.6369707366896923 -0.3282258353460795
0.592238476095984 -0.3746617300976998
0.6146046063928381 -0.3746617300976998
0.5698723457991298 -0.4210976248493201
0.5698723457991298 -0.5139694143525607
0.5251400852054215 -0.3282258353460795
0.6369707366896923 -0.3746617300976998
0.592238476095984 -0.3282258353460795
0.6146046063928381 -0.2817899405944592
0.6817029972834004 -0.1889181510912186
0.7040691275802546 -0.2353540458428389
0.6593368669865464 -0.3282258353460795
0.6369707366896923 -0.3746617300976998
0.6369707366896923 -0.4210976248493201
0.6369707366896923 -0.6068412038558013
0.6146046063928381 -0.5604053091041811
0.6146046063928381 -0.5139694143525607
0.6146046063928381 -0.4675335196009404
0.6593368669865464 -0.2353540458428389
0.7040691275802546 -0.2353540458428389
0.7488013881739629 -0.09604636158797798
0.9277304305487959 0.08969721741850323
1.129025603220483 -0.09604636158797798
1.4421514273764409 -0.09604636158797798
1.8000095121261068 -0.3282258353460795
2.314430508953752 -0.4210976248493201
2.8959498966719592 -0.6532770986074217
3.544567675280729 -0.8390206776139029
4.103720932702082 -0.8390206776139029
4.551043538639164 -1.1176360461236245
4.886535493091976 -1.164071940875245
4.79707097190456 -1.2569437303784856
4.439212887154894 -1.2569437303784856
3.8129612388429783 -1.349815519881726
3.0748789390467923 -1.5819949936398277
2.2025998574694814 -1.7677385726463088
1.4421514273764409 -1.8606103621495496
0.4580416943148592 -1.8141744673979292
-0.39187125696559766 -1.628430888391448
-1.0181229052775134 -1.2105078356268653
-1.3088825991366169 -0.5139694143525607
-1.3088825991366169 0.3218766911766047
-1.152319687058638 1.2505945862090109
-0.8615599931995344 1.761389428476834
-0.6155325599341389 1.9471330074833153
-0.28004060548132703 1.6220817442219733
-0.14584382370020227 1.0184151124509093
-0.011647041919077486 0.6469279544379468
0.010719088377776641 0.13613311217012353
-0.011647041919077486 -0.1424822563395983
0.010719088377776641 -0.2817899405944592
0.07781747926833903 -0.5139694143525607
-0.011647041919077486 -0.4210976248493201
0.0554513489714849 -0.4675335196009404
0.10018360956519315 -0.5139694143525607
0.12254973986204729 -0.4210976248493201
0.10018360956519315 -0.4210976248493201
0.2120142610494638 -0.2353540458428389
0.16728200045575553 -0.2817899405944592
0.14491587015890142 -0.3282258353460795
0.12254973986204729 -0.4210976248493201
0.10018360956519315 -0.4675335196009404
0.0554513489714849 -0.4675335196009404
0.07781747926833903 -0.5139694143525607
0.07781747926833903 -0.6068412038558013
0.10018360956519315 -0.4675335196009404
0.16728200045575553 -0.3746617300976998
0.18964813075260967 -0.2817899405944592
0.16728200045575553 -0.3282258353460795
0.18964813075260967 -0.3282258353460795
0.2343803913463179 -0.3282258353460795
0.12254973986204729 -0.3282258353460795
0.10018360956519315 -0.4210976248493201
0.03308521867463077 -0.6068412038558013
0.0554513489714849 -0.6532770986074217
0.03308521867463077 -0.6997129933590419
-0.011647041919077486 -0.6532770986074217
-0.07874543280963987 -0.6532770986074217
-0.056379302512785744 -0.6532770986074217
-0.07874543280963987 -0.4675335196009404
-0.12347769340334813 -0.4210976248493201
-0.056379302512785744 -0.4210976248493201
-0.101111563106494 -0.4210976248493201
-0.16820995399705638 -0.5139694143525607
-0.07874543280963987 -0.5139694143525607
-0.16820995399705638 -0.6997129933590419
-0.14584382370020227 -0.6532770986074217
-0.14584382370020227 -0.7461488881106623
-0.23530834488761876 -0.6532770986074217
-0.28004060548132703 -0.6997129933590419
-0.23530834488761876 -0.5139694143525607
-0.21294221459076465 -0.5604053091041811
-0.21294221459076465 -0.3746617300976998
-0.16820995399705638 -0.4210976248493201
-0.21294221459076465 -0.5604053091041811
-0.23530834488761876 -0.5604053091041811
-0.21294221459076465 -0.7461488881106623
-0.28004060548132703 -0.6997129933590419
-0.3471389963718894 -0.8854565723655231
-0.3247728660750353 -0.8854565723655231
-0.3247728660750353 -0.8390206776139029
-0.3471389963718894 -0.6997129933590419
-0.3695051266687435 -0.6997129933590419
-0.3471389963718894 -0.5604053091041811
-0.3695051266687435 -0.4675335196009404
-0.3471389963718894 -0.6532770986074217
-0.3695051266687435 -0.6532770986074217
-0.3695051266687435 -0.6068412038558013
-0.39187125696559766 -0.7461488881106623
-0.5260680387467225 -0.7925847828622825
-0.4813357781530142 -0.8390206776139029
-0.5260680387467225 -0.9783283618687637
-0.5484341690435766 -0.8854565723655231
-0.4813357781530142 -0.7925847828622825
-0.4813357781530142 -0.7461488881106623
-0.43660351755930593 -0.7925847828622825
-0.3695051266687435 -0.6068412038558013
-0.3695051266687435 -0.5604053091041811
-0.3695051266687435 -0.6532770986074217
-0.3247728660750353 -0.6068412038558013
-0.39187125696559766 -0.7461488881106623
-0.45896964785616007 -0.7461488881106623
-0.45896964785616007 -0.8390206776139029
-0.3247728660750353 -0.8854565723655231
-0.39187125696559766 -0.9318924671171435
-0.3695051266687435 -0.7461488881106623
-0.30240673577818117 -0.6532770986074217
-0.1905760842939105 -0.6532770986074217
-0.14584382370020227 -0.5604053091041811
-0.101111563106494 -0.5139694143525607
-0.011647041919077486 -0.5604053091041811
0.07781747926833903 -0.7461488881106623
0.12254973986204729 -0.7925847828622825
0.18964813075260967 -0.8854565723655231
0.2567465216431721 -1.0712001513720044
0.34621104283058857 -1.1176360461236245
0.413309433721151 -1.1176360461236245
0.48040782461171333 -1.024764256620384
0.6593368669865464 -0.9783283618687637
0.8158997790645253 -0.9318924671171435
0.9500965608456501 -0.7925847828622825
1.0619272123299206 -0.6532770986074217
1.129025603220483 -0.8390206776139029
1.1737578638141912 -0.6997129933590419
1.2184901244078996 -0.7925847828622825
1.2184901244078996 -0.7461488881106623
1.2855885152984619 -0.8854565723655231
1.2408562547047537 -0.8390206776139029
1.2855885152984619 -0.6532770986074217
1.3079546455953162 -0.6997129933590419
1.3526869061890243 -0.5139694143525607
1.3974191667827327 -0.5139694143525607
1.3974191667827327 -0.3282258353460795
1.4197852970795868 -0.3282258353460795
1.4197852970795868 -0.3282258353460795
1.3750530364858784 -0.3746617300976998
1.3750530364858784 -0.3746617300976998
1.2855885152984619 -0.4675335196009404
1.2408562547047537 -0.4675335196009404
1.2408562547047537 -0.4210976248493201
1.1737578638141912 -0.4210976248493201
1.2184901244078996 -0.2817899405944592
1.1737578638141912 -0.2353540458428389
1.2408562547047537 -0.1424822563395983
1.2184901244078996 -0.1424822563395983
1.2184901244078996 -0.1424822563395983
1.2632223850016078 -0.1889181510912186
1.1961239941110455 -0.2353540458428389
1.1513917335173371 -0.2353540458428389
1.129025603220483 -0.3282258353460795
1.1513917335173371 -0.4210976248493201
1.0619272123299206 -0.4675335196009404
1.0619272123299206 -0.4675335196009404
1.129025603220483 -0.4210976248493201
1.129025603220483 -0.2353540458428389
1.1737578638141912 -0.2817899405944592
1.1961239941110455 -0.1424822563395983
1.2408562547047537 -0.09604636158797798
1.2184901244078996 -0.1889181510912186
1.1513917335173371 -0.1424822563395983
1.106659472923629 -0.2353540458428389
1.0619272123299206 -0.3746617300976998
1.0395610820330665 -0.5139694143525607
1.0171949517362124 -0.5139694143525607
1.0171949517362124 -0.4210976248493201
1.0619272123299206 -0.4675335196009404
1.0619272123299206 -0.2817899405944592
1.0619272123299206 -0.2353540458428389
1.129025603220483 -0.1424822563395983
1.1513917335173371 -0.2817899405944592
1.1513917335173371 -0.2353540458428389
1.106659472923629 -0.1889181510912186
1.084293342626775 -0.3282258353460795
1.084293342626775 -0.3746617300976998
1.0171949517362124 -0.4675335196009404
1.0171949517362124 -0.4210976248493201
1.0171949517362124 -0.4210976248493201
0.9724626911425042 -0.4675335196009404
1.0171949517362124 -0.3746617300976998
1.0395610820330665 -0.2353540458428389
1.0395610820330665 -0.3282258353460795
1.084293342626775 -0.2817899405944592
1.0619272123299206 -0.2353540458428389
1.084293342626775 -0.3282258353460795
1.0619272123299206 -0.4675335196009404
1.0395610820330665 -0.4675335196009404
1.0171949517362124 -0.5604053091041811
1.0171949517362124 -0.4675335196009404
1.0171949517362124 -0.4675335196009404
1.0395610820330665 -0.5604053091041811
1.084293342626775 -0.3746617300976998
1.1513917335173371 -0.3746617300976998
1.1737578638141912 -0.2353540458428389
1.2855885152984619 -0.04961046683635768
1.3303207758921702 -0.0031745720847373825
1.3079546455953162 0.13613311217012353
1.2855885152984619 -0.04961046683635768
1.3526869061890243 0.04326132266688292
1.3079546455953162 0.08969721741850323
1.2408562547047537 -0.0031745720847373825
1.2408562547047537 -0.0031745720847373825
1.2632223850016078 0.08969721741850323
1.3303207758921702 0.08969721741850323
1.4197852970795868 -0.0031745720847373825
1.5092498182670033 -0.0031745720847373825
1.486883687970149 -0.0031745720847373825
1.5987143394544197 -0.04961046683635768
1.621080469751274 -0.1889181510912186
1.5539820788607115 -0.3282258353460795
1.464517557673295 -0.4675335196009404
1.4421514273764409 -0.6997129933590419
1.3974191667827327 -0.7925847828622825
1.2632223850016078 -0.8854565723655231
1.1737578638141912 -0.7461488881106623
1.1961239941110455 -0.7461488881106623
1.1737578638141912 -0.6997129933590419
1.1737578638141912 -0.5604053091041811
1.1513917335173371 -0.5604053091041811
1.084293342626775 -0.4675335196009404
0.9948288214393582 -0.4675335196009404
0.9053643002519418 -0.3746617300976998
0.8158997790645253 -0.3746617300976998
0.7935336487676712 -0.3746617300976998
0.7488013881739629 -0.4675335196009404
0.7040691275802546 -0.3746617300976998
0.6817029972834004 -0.3282258353460795
0.6369707366896923 -0.2817899405944592
0.6593368669865464 -0.2817899405944592
0.6369707366896923 -0.2817899405944592
0.7040691275802546 -0.2353540458428389
0.6817029972834004 -0.1889181510912186
0.6593368669865464 -0.2353540458428389
0.6817029972834004 -0.3746617300976998
0.6817029972834004 -0.4675335196009404
0.6146046063928381 -0.3282258353460795
0.6369707366896923 -0.5139694143525607
0.6593368669865464 -0.4675335196009404
0.6146046063928381 -0.4675335196009404
0.6593368669865464 -0.4210976248493201
0.7488013881739629 -0.2817899405944592
0.7264352578771087 -0.2817899405944592
0.8382659093613793 -0.1424822563395983
0.771167518470817 -0.2353540458428389
0.6817029972834004 -0.2817899405944592
0.7264352578771087 -0.3282258353460795
0.6593368669865464 -0.2817899405944592
0.6369707366896923 -0.3282258353460795
0.6817029972834004 -0.3746617300976998
0.8382659093613793 -0.2817899405944592
0.9724626911425042 -0.09604636158797798
1.1737578638141912 -0.1889181510912186
1.621080469751274 -0.2353540458428389
2.0460369453915024 -0.04961046683635768
2.538091811922293 -0.1889181510912186
3.0748789390467923 -0.2817899405944592
3.678764457061854 -0.5139694143525607
4.14845319329579 -0.7461488881106623
4.52867740834231 -0.9318924671171435
4.68524032042029 -1.164071940875245
4.573409668936018 -1.349815519881726
4.081354802405228 -1.4891232041365872
3.4551031540933126 -1.5819949936398277
2.694654724000272 -1.6748667831430684
1.97893855450094 -1.7677385726463088
1.129025603220483 -1.8141744673979292
0.2567465216431721 -1.4426873093849668
-0.5931664296372848 -1.164071940875245
-1.152319687058638 -0.5604053091041811
-1.3088825991366169 0.08969721741850323
-1.3088825991366169 1.0648510072025297
-1.129953556761784 1.6685176389735936
-0.9286583840900967 1.8542612179800748
-0.7273632114184095 1.7149535337252138
-0.5484341690435766 1.3434663757122514
-0.28004060548132703 0.8326715334444281
-0.14584382370020227 0.4147484806798453
-0.034013172215931614 0.13613311217012353
0.10018360956519315 0.04326132266688292
0.12254973986204729 -0.1889181510912186
0.14491587015890142 -0.3282258353460795
0.16728200045575553 -0.3746617300976998
0.10018360956519315 -0.5139694143525607
0.10018360956519315 -0.4210976248493201
0.07781747926833903 -0.4675335196009404
0.0554513489714849 -0.4210976248493201
0.12254973986204729 -0.3746617300976998
0.10018360956519315 -0.2817899405944592
0.14491587015890142 -0.3282258353460795
0.18964813075260967 -0.2817899405944592
0.2120142610494638 -0.1889181510912186
0.14491587015890142 -0.2353540458428389
0.16728200045575553 -0.2353540458428389
0.16728200045575553 -0.3746617300976998
0.07781747926833903 -0.4675335196009404
0.0554513489714849 -0.6532770986074217
0.03308521867463077 -0.6068412038558013
-0.034013172215931614 -0.6068412038558013
-0.011647041919077486 -0.3746617300976998
0.03308521867463077 -0.3746617300976998
0.07781747926833903 -0.4675335196009404
0.0554513489714849 -0.2817899405944592
0.10018360956519315 -0.3746617300976998
0.18964813075260967 -0.3282258353460795
0.07781747926833903 -0.4210976248493201
0.03308521867463077 -0.5139694143525607
-0.034013172215931614 -0.6068412038558013
-0.011647041919077486 -0.5139694143525607
-0.034013172215931614 -0.6068412038558013
-0.056379302512785744 -0.6997129933590419
-0.101111563106494 -0.6532770986074217
-0.07874543280963987 -0.5139694143525607
-0.034013172215931614 -0.3282258353460795
-0.034013172215931614 -0.4210976248493201
-0.011647041919077486 -0.4210976248493201
-0.056379302512785744 -0.4210976248493201
-0.07874543280963987 -0.5604053091041811
-0.101111563106494 -0.5604053091041811
-0.16820995399705638 -0.6997129933590419
-0.16820995399705638 -0.6532770986074217
-0.1905760842939105 -0.7925847828622825
-0.23530834488761876 -0.6997129933590419
-0.21294221459076465 -0.6997129933590419
-0.16820995399705638 -0.6997129933590419
-0.1905760842939105 -0.5139694143525607
-0.14584382370020227 -0.4210976248493201
-0.101111563106494 -0.3282258353460795
-0.16820995399705638 -0.4675335196009404
-0.21294221459076465 -0.5139694143525607
-0.2576744751844729 -0.5604053091041811
-0.28004060548132703 -0.6997129933590419
-0.3471389963718894 -0.7461488881106623
-0.39187125696559766 -0.7925847828622825
-0.4142373872624518 -0.6997129933590419
-0.43660351755930593 -0.6532770986074217
-0.45896964785616007 -0.6068412038558013
-0.4142373872624518 -0.6068412038558013
-0.4142373872624518 -0.6068412038558013
-0.45896964785616007 -0.5139694143525607
-0.4142373872624518 -0.5604053091041811
-0.43660351755930593 -0.6068412038558013
-0.4142373872624518 -0.6997129933590419
-0.45896964785616007 -0.7925847828622825
-0.5484341690435766 -0.8854565723655231
-0.4813357781530142 -0.9318924671171435
-0.5037019084498683 -0.8390206776139029
-0.45896964785616007 -0.7925847828622825
-0.43660351755930593 -0.8390206776139029
-0.3695051266687435 -0.6532770986074217
-0.3695051266687435 -0.6997129933590419
-0.28004060548132703 -0.5139694143525607
-0.30240673577818117 -0.6532770986074217
-0.2576744751844729 -0.6532770986074217
-0.30240673577818117 -0.6532770986074217
-0.3247728660750353 -0.7461488881106623
-0.28004060548132703 -0.8390206776139029
-0.21294221459076465 -0.8390206776139029
-0.21294221459076465 -0.7925847828622825
-0.12347769340334813 -0.8390206776139029
-0.011647041919077486 -0.6532770986074217
0.0554513489714849 -0.6532770986074217
0.16728200045575553 -0.6068412038558013
0.27911265194002616 -0.6532770986074217
0.3685771731274427 -0.6532770986074217
0.413309433721151 -0.7461488881106623
0.5027739549085675 -0.8854565723655231
0.6369707366896923 -0.9318924671171435
0.6146046063928381 -1.024764256620384
0.7040691275802546 -1.024764256620384
0.8382659093613793 -0.9318924671171435
0.9277304305487959 -0.9318924671171435
0.9948288214393582 -0.9318924671171435
1.106659472923629 -0.7461488881106623
1.1737578638141912 -0.6068412038558013
1.2632223850016078 -0.6532770986074217
1.2632223850016078 -0.6068412038558013
1.2855885152984619 -0.7461488881106623
1.2184901244078996 -0.6068412038558013
1.2408562547047537 -0.6532770986074217
1.1961239941110455 -0.7461488881106623
1.2632223850016078 -0.7925847828622825
1.1737578638141912 -0.6532770986074217
1.2408562547047537 -0.6068412038558013
1.2184901244078996 -0.5139694143525607
1.2632223850016078 -0.3282258353460795
1.2632223850016078 -0.3282258353460795
1.2408562547047537 -0.2353540458428389
1.1961239941110455 -0.1889181510912186
1.1737578638141912 -0.2817899405944592
1.1513917335173371 -0.2817899405944592
1.1737578638141912 -0.2817899405944592
1.129025603220483 -0.3746617300976998
1.084293342626775 -0.4675335196009404
1.0171949517362124 -0.3746617300976998
1.0171949517362124 -0.3746617300976998
1.0619272123299206 -0.2353540458428389
1.0619272123299206 -0.1889181510912186
1.084293342626775 -0.1889181510912186
1.0619272123299206 -0.1889181510912186
1.129025603220483 -0.1889181510912186
1.084293342626775 -0.3282258353460795
1.0395610820330665 -0.4210976248493201
0.9724626911425042 -0.4675335196009404
0.9724626911425042 -0.5139694143525607
0.9500965608456501 -0.5604053091041811
0.9277304305487959 -0.5604053091041811
0.9277304305487959 -0.4675335196009404
0.9277304305487959 -0.4210976248493201
0.9277304305487959 -0.3282258353460795
0.9500965608456501 -0.3746617300976998
0.9724626911425042 -0.3282258353460795
0.9948288214393582 -0.3746617300976998
0.9277304305487959 -0.4675335196009404
0.8829981699550876 -0.4675335196009404
0.8158997790645253 -0.5139694143525607
0.7935336487676712 -0.5604053091041811
0.7488013881739629 -0.5604053091041811
0.7488013881739629 -0.6997129933590419
0.8382659093613793 -0.5604053091041811
0.7488013881739629 -0.4675335196009404
0.8829981699550876 -0.4210976248493201
0.8606320396582335 -0.3282258353460795
0.8606320396582335 -0.2353540458428389
0.7935336487676712 -0.1889181510912186
0.8382659093613793 -0.1889181510912186
0.771167518470817 -0.3282258353460795
0.8158997790645253 -0.2817899405944592
0.7935336487676712 -0.4210976248493201
0.6817029972834004 -0.4675335196009404
0.7488013881739629 -0.4675335196009404
0.7488013881739629 -0.4675335196009404
0.7488013881739629 -0.4210976248493201
0.8158997790645253 -0.3282258353460795
0.771167518470817 -0.2817899405944592
0.8158997790645253 -0.1889181510912186
0.8382659093613793 -0.3282258353460795
0.8382659093613793 -0.3746617300976998
0.8158997790645253 -0.2817899405944592
0.8158997790645253 -0.3746617300976998
0.8158997790645253 -0.5604053091041811
0.7488013881739629 -0.6068412038558013
0.8158997790645253 -0.5604053091041811
0.7935336487676712 -0.4210976248493201
0.8158997790645253 -0.3282258353460795
0.9277304305487959 -0.2353540458428389
0.9948288214393582 -0.04961046683635768
1.106659472923629 -0.04961046683635768
1.084293342626775 0.08969721741850323
1.0619272123299206 0.08969721741850323
1.0619272123299206 0.08969721741850323
1.0619272123299206 0.04326132266688292
1.0619272123299206 -0.04961046683635768
1.106659472923629 -0.04961046683635768
1.106659472923629 -0.04961046683635768
1.084293342626775 -0.0031745720847373825
1.1513917335173371 -0.0031745720847373825
1.1737578638141912 0.04326132266688292
1.2632223850016078 0.04326132266688292
1.2632223850016078 0.04326132266688292
1.3303207758921702 -0.09604636158797798
1.3303207758921702 -0.2353540458428389
1.2855885152984619 -0.3282258353460795
1.2184901244078996 -0.3282258353460795
1.1961239941110455 -0.5604053091041811
1.084293342626775 -0.6532770986074217
1.106659472923629 -0.7461488881106623
1.0395610820330665 -0.7925847828622825
1.0395610820330665 -0.7925847828622825
0.9500965608456501 -0.7925847828622825
0.9500965608456501 -0.6532770986074217
0.9053643002519418 -0.6532770986074217
0.9500965608456501 -0.6997129933590419
0.8829981699550876 -0.6997129933590419
0.8158997790645253 -0.6997129933590419
0.7488013881739629 -0.6532770986074217
0.6146046063928381 -0.6997129933590419
0.5698723457991298 -0.6532770986074217
0.48040782461171333 -0.5139694143525607
0.43567556401800506 -0.4210976248493201
0.4580416943148592 -0.3746617300976998
0.4580416943148592 -0.3282258353460795
0.4580416943148592 -0.2817899405944592
0.5027739549085675 -0.2353540458428389
0.5027739549085675 -0.3282258353460795
0.4580416943148592 -0.1889181510912186
0.43567556401800506 -0.4210976248493201
0.39094330342429684 -0.3746617300976998
0.32384491253373443 -0.5139694143525607
0.3014787822368803 -0.4675335196009404
0.27911265194002616 -0.5139694143525607
0.32384491253373443 -0.5604053091041811
0.3685771731274427 -0.3282258353460795
0.3685771731274427 -0.3746617300976998
0.43567556401800506 -0.3282258353460795
0.4580416943148592 -0.3282258353460795
0.48040782461171333 -0.2817899405944592
0.4580416943148592 -0.4210976248493201
0.4580416943148592 -0.4210976248493201
0.43567556401800506 -0.5139694143525607
0.413309433721151 -0.5604053091041811
0.413309433721151 -0.5139694143525607
0.34621104283058857 -0.4210976248493201
0.43567556401800506 -0.3282258353460795
0.592238476095984 -0.4210976248493201
0.8382659093613793 -0.3282258353460795
1.1737578638141912 -0.2353540458428389
1.621080469751274 -0.1889181510912186
2.0460369453915024 -0.3746617300976998
2.6051902028128557 -0.6068412038558013
3.1643434602342086 -0.7925847828622825
3.701130587358708 -0.9783283618687637
4.081354802405228 -1.303379625130106
4.237917714483207 -1.5819949936398277
4.058988672108374 -1.7213026778946885
3.589299935874437 -1.7677385726463088
2.9183160269688133 -1.95348215165279
2.2696982483600436 -1.9999180464044104
1.5987143394544197 -1.9999180464044104
0.8829981699550876 -1.9999180464044104
0.10018360956519315 -1.90704625690117
-0.7497293417152637 -1.6748667831430684
-1.4430793809177418 -1.4426873093849668
-1.7114729444799912 -0.7925847828622825
-1.845669726261116 0.04326132266688292
-1.7114729444799912 0.8326715334444281
-1.48781164151145 1.4827740599671124
-1.2417842082460546 1.6685176389735936
-1.0404890355743674 1.575645849470353
-0.8168277326058261 1.1577227967057702
-0.6155325599341389 0.6933638491895672
-0.5037019084498683 0.4147484806798453
-0.4142373872624518 0.13613311217012353
-0.3471389963718894 -0.09604636158797798
-0.3695051266687435 -0.2817899405944592
-0.3471389963718894 -0.4210976248493201
-0.3247728660750353 -0.6997129933590419
-0.3247728660750353 -0.6068412038558013
-0.30240673577818117 -0.7461488881106623
-0.28004060548132703 -0.6068412038558013
-0.23530834488761876 -0.5139694143525607
-0.21294221459076465 -0.5139694143525607
-0.1905760842939105 -0.3746617300976998
-0.14584382370020227 -0.3282258353460795
-0.1905760842939105 -0.3282258353460795
-0.23530834488761876 -0.4675335196009404
-0.23530834488761876 -0.5139694143525607
-0.2576744751844729 -0.4675335196009404
-0.28004060548132703 -0.5604053091041811
-0.28004060548132703 -0.6532770986074217
-0.3247728660750353 -0.5604053091041811
-0.2576744751844729 -0.5139694143525607
-0.28004060548132703 -0.4675335196009404
-0.1905760842939105 -0.3746617300976998
-0.21294221459076465 -0.2353540458428389
-0.21294221459076465 -0.2817899405944592
-0.21294221459076465 -0.2817899405944592
-0.23530834488761876 -0.4210976248493201
-0.2576744751844729 -0.5139694143525607
-0.3471389963718894 -0.5604053091041811
-0.3695051266687435 -0.6997129933590419
-0.3695051266687435 -0.6997129933590419
-0.4142373872624518 -0.7461488881106623
-0.4142373872624518 -0.6068412038558013
-0.3695051266687435 -0.6068412038558013
-0.39187125696559766 -0.5604053091041811
-0.39187125696559766 -0.5604053091041811
-0.3471389963718894 -0.3746617300976998
-0.3471389963718894 -0.5604053091041811
-0.39187125696559766 -0.5139694143525607
-0.4142373872624518 -0.5604053091041811
-0.45896964785616007 -0.6532770986074217
-0.4813357781530142 -0.7925847828622825
-0.5484341690435766 -0.7461488881106623
-0.5708002993404308 -0.7925847828622825
-0.6378986902309931 -0.7461488881106623
-0.6378986902309931 -0.6997129933590419
-0.5931664296372848 -0.6068412038558013
-0.5708002993404308 -0.4210976248493201
-0.5708002993404308 -0.5139694143525607
-0.5931664296372848 -0.6532770986074217
-0.5931664296372848 -0.6068412038558013
-0.6378986902309931 -0.6532770986074217
-0.6602648205278472 -0.6997129933590419
-0.7273632114184095 -0.8390206776139029
-0.7497293417152637 -0.8390206776139029
-0.7720954720121178 -0.8854565723655231
-0.8391938629026803 -0.8390206776139029
-0.8168277326058261 -0.7461488881106623
-0.8391938629026803 -0.6997129933590419
-0.7720954720121178 -0.6997129933590419
-0.7720954720121178 -0.6532770986074217
-0.7273632114184095 -0.6997129933590419
-0.7273632114184095 -0.6997129933590419
-0.7273632114184095 -0.8390206776139029
-0.7720954720121178 -0.9318924671171435
-0.794461602308972 -0.9783283618687637
-0.8391938629026803 -0.9783283618687637
-0.8168277326058261 -0.9783283618687637
-0.8168277326058261 -0.9783283618687637
-0.794461602308972 -0.8854565723655231
-0.7049970811215555 -0.8390206776139029
-0.6602648205278472 -0.8390206776139029
-0.5931664296372848 -0.6997129933590419
-0.5708002993404308 -0.7925847828622825
-0.5931664296372848 -0.7461488881106623
-0.5931664296372848 -0.8390206776139029
-0.6155325599341389 -0.8390206776139029
-0.5708002993404308 -0.9783283618687637
-0.5708002993404308 -0.9318924671171435
-0.5931664296372848 -1.024764256620384
-0.4813357781530142 -0.8854565723655231
-0.3695051266687435 -0.8854565723655231
-0.28004060548132703 -0.8854565723655231
-0.101111563106494 -0.7925847828622825
-0.011647041919077486 -0.7461488881106623
0.10018360956519315 -0.7925847828622825
0.14491587015890142 -0.9783283618687637
0.2567465216431721 -1.024764256620384
0.3014787822368803 -1.0712001513720044
0.3685771731274427 -1.1176360461236245
0.43567556401800506 -1.1176360461236245
0.48040782461171333 -1.0712001513720044
0.5475062155022757 -1.164071940875245
0.6369707366896923 -1.0712001513720044
0.7040691275802546 -0.9318924671171435
0.771167518470817 -0.7925847828622825
0.8606320396582335 -0.7461488881106623
0.9277304305487959 -0.6068412038558013
0.9500965608456501 -0.7461488881106623
0.9277304305487959 -0.7461488881106623
0.9053643002519418 -0.7925847828622825
0.9053643002519418 -0.6997129933590419
0.8606320396582335 -0.7461488881106623
0.8382659093613793 -0.7461488881106623
0.8606320396582335 -0.6997129933590419
0.8606320396582335 -0.5604053091041811
0.8606320396582335 -0.4675335196009404
0.9277304305487959 -0.4210976248493201
0.9500965608456501 -0.2353540458428389
0.9277304305487959 -0.3746617300976998
0.8382659093613793 -0.3282258353460795
0.8158997790645253 -0.4210976248493201
0.7935336487676712 -0.4675335196009404
0.7488013881739629 -0.4675335196009404
0.6817029972834004 -0.5139694143525607
0.7040691275802546 -0.6532770986074217
0.6593368669865464 -0.5604053091041811
0.6817029972834004 -0.3746617300976998
0.7264352578771087 -0.4210976248493201
0.7488013881739629 -0.3746617300976998
0.7488013881739629 -0.2353540458428389
0.7264352578771087 -0.1889181510912186
0.7040691275802546 -0.3746617300976998
0.7264352578771087 -0.5604053091041811
0.6369707366896923 -0.5604053091041811
0.592238476095984 -0.5604053091041811
0.592238476095984 -0.5604053091041811
0.5475062155022757 -0.5604053091041811
0.5475062155022757 -0.5139694143525607
0.6146046063928381 -0.3746617300976998
0.6369707366896923 -0.3746617300976998
0.6369707366896923 -0.3746617300976998
0.6369707366896923 -0.3746617300976998
0.6593368669865464 -0.3282258353460795
0.6369707366896923 -0.3282258353460795
0.6146046063928381 -0.4675335196009404
0.5475062155022757 -0.5604053091041811
0.5251400852054215 -0.6532770986074217
0.48040782461171333 -0.6068412038558013
0.48040782461171333 -0.6997129933590419
0.4580416943148592 -0.6532770986074217
0.48040782461171333 -0.4210976248493201
0.5475062155022757 -0.4210976248493201
0.592238476095984 -0.4210976248493201
0.6146046063928381 -0.2353540458428389
0.592238476095984 -0.3746617300976998
0.592238476095984 -0.4675335196009404
0.592238476095984 -0.5139694143525607
0.5027739549085675 -0.7925847828622825
0.5027739549085675 -0.6532770986074217
0.48040782461171333 -0.7461488881106623
0.48040782461171333 -0.7925847828622825
0.5027739549085675 -0.6997129933590419
0.5251400852054215 -0.6532770986074217
0.5475062155022757 -0.5139694143525607
0.592238476095984 -0.4210976248493201
0.6146046063928381 -0.4210976248493201
0.6593368669865464 -0.3746617300976998
0.6146046063928381 -0.4210976248493201
0.6369707366896923 -0.5139694143525607
0.5698723457991298 -0.5604053091041811
0.6369707366896923 -0.5604053091041811
0.6369707366896923 -0.5604053091041811
0.6817029972834004 -0.5604053091041811
0.7264352578771087 -0.3746617300976998
0.7264352578771087 -0.2353540458428389
0.8158997790645253 -0.2817899405944592
0.9053643002519418 -0.04961046683635768
0.8829981699550876 0.04326132266688292
0.9277304305487959 0.04326132266688292
0.9277304305487959 -0.0031745720847373825
0.9053643002519418 -0.0031745720847373825
0.8829981699550876 -0.0031745720847373825
0.8606320396582335 -0.1424822563395983
0.8606320396582335 -0.1424822563395983
0.8606320396582335 -0.2353540458428389
0.9277304305487959 -0.2817899405944592
0.8829981699550876 -0.2353540458428389
0.9277304305487959 -0.1889181510912186
0.9277304305487959 -0.1889181510912186
1.0171949517362124 -0.2353540458428389
1.0395610820330665 -0.3746617300976998
0.9724626911425042 -0.5139694143525607
0.9724626911425042 -0.5604053091041811
0.8606320396582335 -0.9783283618687637
0.8158997790645253 -1.024764256620384
0.7488013881739629 -1.1176360461236245
0.6817029972834004 -1.1176360461236245
0.6146046063928381 -1.024764256620384
0.6146046063928381 -0.9783283618687637
0.5475062155022757 -0.8390206776139029
0.5251400852054215 -0.6997129933590419
0.5027739549085675 -0.5139694143525607
0.43567556401800506 -0.4675335196009404
0.34621104283058857 -0.4210976248493201
0.32384491253373443 -0.3746617300976998
0.2567465216431721 -0.5139694143525607
0.2120142610494638 -0.5604053091041811
0.16728200045575553 -0.6997129933590419
0.16728200045575553 -0.6997129933590419
0.16728200045575553 -0.6997129933590419
0.14491587015890142 -0.5604053091041811
0.18964813075260967 -0.5604053091041811
0.16728200045575553 -0.4675335196009404
0.18964813075260967 -0.3282258353460795
0.2120142610494638 -0.4675335196009404
0.2120142610494638 -0.5139694143525607
0.2120142610494638 -0.5139694143525607
0.10018360956519315 -0.5604053091041811
0.10018360956519315 -0.7925847828622825
0.10018360956519315 -0.6532770986074217
0.10018360956519315 -0.6068412038558013
0.14491587015890142 -0.6532770986074217
0.18964813075260967 -0.5604053091041811
0.2120142610494638 -0.4210976248493201
0.2120142610494638 -0.3746617300976998
0.32384491253373443 -0.2817899405944592
0.32384491253373443 -0.2817899405944592
0.3014787822368803 -0.3746617300976998
0.34621104283058857 -0.3282258353460795
0.43567556401800506 -0.4210976248493201
0.592238476095984 -0.4210976248493201
0.8158997790645253 -0.4675335196009404
1.106659472923629 -0.5139694143525607
1.5316159485638574 -0.5604053091041811
2.0907692059852105 -0.5604053091041811
2.694654724000272 -0.6997129933590419
3.2761741117184795 -0.6997129933590419
3.745862847952416 -0.8854565723655231
4.058988672108374 -1.1176360461236245
4.058988672108374 -1.3962514146333465
3.701130587358708 -1.628430888391448
3.0748789390467923 -1.95348215165279
2.336796639250606 -2.2785334149141323
1.6658127303449821 -2.510712888672234
0.9277304305487959 -2.696456467678715
0.14491587015890142 -2.4642769939206133
-0.6602648205278472 -2.092789835907651
-1.3759809900271793 -1.8606103621495496
-1.7785713353705537 -1.164071940875245
-1.9351342474485325 -0.3282258353460795
-1.7785713353705537 0.6469279544379468
-1.5772761626988665 1.436338165215492
-1.3983471203240334 1.8542612179800748
-1.2417842082460546 1.761389428476834
-1.129953556761784 1.297030480960631
-0.9510245143869509 0.7862356386928078
-0.8391938629026803 0.3218766911766047
-0.7049970811215555 0.04326132266688292
-0.5708002993404308 -0.3282258353460795
-0.45896964785616007 -0.4210976248493201
-0.39187125696559766 -0.3746617300976998
-0.3695051266687435 -0.3282258353460795
-0.3247728660750353 -0.4210976248493201
-0.30240673577818117 -0.4675335196009404
-0.3471389963718894 -0.4210976248493201
-0.30240673577818117 -0.5139694143525607
-0.30240673577818117 -0.6068412038558013
-0.3695051266687435 -0.5604053091041811
-0.45896964785616007 -0.6532770986074217
-0.45896964785616007 -0.5139694143525607
-0.4142373872624518 -0.5139694143525607
-0.4142373872624518 -0.4675335196009404
-0.3695051266687435 -0.3282258353460795
-0.4142373872624518 -0.2817899405944592
-0.30240673577818117 -0.3282258353460795
-0.3471389963718894 -0.4675335196009404
-0.3247728660750353 -0.4210976248493201
-0.4142373872624518 -0.6068412038558013
-0.5037019084498683 -0.7461488881106623
-0.5260680387467225 -0.6532770986074217
-0.5708002993404308 -0.6997129933590419
-0.5931664296372848 -0.6532770986074217
-0.5484341690435766 -0.6532770986074217
-0.5037019084498683 -0.5604053091041811
-0.5708002993404308 -0.4210976248493201
-0.43660351755930593 -0.3746617300976998
-0.4813357781530142 -0.5139694143525607
-0.45896964785616007 -0.6068412038558013
-0.5037019084498683 -0.5604053091041811
-0.5484341690435766 -0.6997129933590419
-0.6155325599341389 -0.7461488881106623
-0.6826309508247014 -0.6997129933590419
-0.7049970811215555 -0.7925847828622825
-0.7273632114184095 -0.6997129933590419
-0.6155325599341389 -0.6532770986074217
-0.5931664296372848 -0.6068412038558013
-0.6602648205278472 -0.5604053091041811
-0.5931664296372848 -0.5139694143525607
-0.5484341690435766 -0.5139694143525607
-0.6155325599341389 -0.6068412038558013
-0.6378986902309931 -0.6532770986074217
-0.6826309508247014 -0.6532770986074217
-0.7049970811215555 -0.6532770986074217
-0.7273632114184095 -0.7461488881106623
-0.794461602308972 -0.6997129933590419
-0.7720954720121178 -0.6532770986074217
-0.7720954720121178 -0.6997129933590419
-0.7049970811215555 -0.7461488881106623
-0.7273632114184095 -0.5604053091041811
-0.7273632114184095 -0.5139694143525607
-0.7049970811215555 -0.4675335196009404
-0.7497293417152637 -0.6068412038558013
-0.8391938629026803 -0.6532770986074217
-0.8615599931995344 -0.7925847828622825
-0.973390644683805 -0.7925847828622825
-0.9510245143869509 -0.8854565723655231
-1.0181229052775134 -0.8854565723655231
-0.9957567749806592 -0.8854565723655231
-0.9286583840900967 -0.7461488881106623
-0.9286583840900967 -0.6532770986074217
-0.8839261234963884 -0.7461488881106623
-0.9062922537932426 -0.6532770986074217
-0.8168277326058261 -0.6532770986074217
-0.8615599931995344 -0.7461488881106623
-0.8839261234963884 -0.7925847828622825
-0.9062922537932426 -0.8390206776139029
-0.9286583840900967 -0.9783283618687637
-0.9062922537932426 -0.8854565723655231
-0.9510245143869509 -1.024764256620384
-0.8615599931995344 -0.9318924671171435
-0.8615599931995344 -0.9318924671171435
-0.7720954720121178 -0.7925847828622825
-0.7049970811215555 -0.8390206776139029
-0.5931664296372848 -0.6068412038558013
-0.5484341690435766 -0.6997129933590419
-0.5931664296372848 -0.7925847828622825
-0.5931664296372848 -0.7461488881106623
-0.5037019084498683 -0.9318924671171435
-0.5037019084498683 -0.9318924671171435
-0.43660351755930593 -1.024764256620384
-0.3247728660750353 -1.024764256620384
-0.23530834488761876 -0.9783283618687637
-0.101111563106494 -0.9318924671171435
0.010719088377776641 -0.8854565723655231
0.10018360956519315 -0.8854565723655231
0.2120142610494638 -0.7925847828622825
0.32384491253373443 -0.8854565723655231
0.413309433721151 -1.024764256620384
0.4580416943148592 -0.9783283618687637
0.5475062155022757 -0.9318924671171435
0.5698723457991298 -0.9318924671171435
0.592238476095984 -1.0712001513720044
0.592238476095984 -1.0712001513720044
0.6593368669865464 -0.9783283618687637
0.7264352578771087 -0.8854565723655231
0.7488013881739629 -0.7925847828622825
0.771167518470817 -0.7461488881106623
0.7935336487676712 -0.6068412038558013
0.7935336487676712 -0.6068412038558013
0.8382659093613793 -0.5604053091041811
0.7935336487676712 -0.6068412038558013
0.7264352578771087 -0.5604053091041811
0.6817029972834004 -0.5139694143525607
0.6146046063928381 -0.6532770986074217
0.6369707366896923 -0.6532770986074217
0.592238476095984 -0.5139694143525607
0.6146046063928381 -0.5604053091041811
0.6817029972834004 -0.3746617300976998
0.6369707366896923 -0.3746617300976998
0.6817029972834004 -0.3282258353460795
0.7264352578771087 -0.3282258353460795
0.7264352578771087 -0.2353540458428389
0.6817029972834004 -0.4210976248493201
0.6146046063928381 -0.5139694143525607
0.5698723457991298 -0.5604053091041811
0.5251400852054215 -0.5139694143525607
0.4580416943148592 -0.5604053091041811
0.413309433721151 -0.5139694143525607
0.413309433721151 -0.4675335196009404
0.4580416943148592 -0.4210976248493201
0.5251400852054215 -0.3746617300976998
0.5475062155022757 -0.2817899405944592
0.5027739549085675 -0.3746617300976998
0.5251400852054215 -0.2817899405944592
0.5027739549085675 -0.3746617300976998
0.43567556401800506 -0.4210976248493201
0.43567556401800506 -0.5604053091041811
0.413309433721151 -0.6068412038558013
0.39094330342429684 -0.5604053091041811
0.3685771731274427 -0.5604053091041811
0.3685771731274427 -0.4675335196009404
0.413309433721151 -0.4210976248493201
0.39094330342429684 -0.2353540458428389
0.39094330342429684 -0.1889181510912186
0.39094330342429684 -0.3282258353460795
0.39094330342429684 -0.2353540458428389
0.3685771731274427 -0.4675335196009404
0.39094330342429684 -0.4675335196009404
0.34621104283058857 -0.4675335196009404
0.3685771731274427 -0.6532770986074217
0.3685771731274427 -0.6068412038558013
0.3685771731274427 -0.4675335196009404
0.34621104283058857 -0.4210976248493201
0.34621104283058857 -0.4210976248493201
0.34621104283058857 -0.1889181510912186
0.3685771731274427 -0.1889181510912186
0.43567556401800506 -0.3746617300976998
0.413309433721151 -0.4210976248493201
0.39094330342429684 -0.5604053091041811
0.39094330342429684 -0.5139694143525607
0.34621104283058857 -0.5604053091041811
0.32384491253373443 -0.6068412038558013
0.32384491253373443 -0.6068412038558013
0.3685771731274427 -0.6068412038558013
0.34621104283058857 -0.5604053091041811
0.39094330342429684 -0.4675335196009404
0.4580416943148592 -0.3282258353460795
0.48040782461171333 -0.2817899405944592
0.5027739549085675 -0.4210976248493201
0.5027739549085675 -0.3282258353460795
0.43567556401800506 -0.3746617300976998
0.413309433721151 -0.4675335196009404
0.5027739549085675 -0.4210976248493201
0.5027739549085675 -0.3746617300976998
0.5475062155022757 -0.3282258353460795
0.592238476095984 -0.1889181510912186
0.6369707366896923 -0.1424822563395983
0.6593368669865464 -0.0031745720847373825
0.7264352578771087 0.13613311217012353
0.7935336487676712 0.18256900692174383
0.8158997790645253 0.18256900692174383
0.7935336487676712 0.18256900692174383
0.771167518470817 0.04326132266688292
0.7264352578771087 -0.04961046683635768
0.7488013881739629 -0.1424822563395983
0.7488013881739629 -0.2353540458428389
0.771167518470817 -0.4210976248493201
0.7488013881739629 -0.3746617300976998
0.7488013881739629 -0.4210976248493201
0.7488013881739629 -0.3282258353460795
0.8158997790645253 -0.1889181510912186
0.771167518470817 -0.2353540458428389
0.771167518470817 -0.4675335196009404
0.7264352578771087 -0.6068412038558013
0.6817029972834004 -0.7461488881106623
0.6146046063928381 -0.8390206776139029
0.5698723457991298 -0.8854565723655231
0.48040782461171333 -1.024764256620384
0.43567556401800506 -0.9783283618687637
0.32384491253373443 -0.8854565723655231
0.32384491253373443 -0.6997129933590419
0.2120142610494638 -0.6997129933590419
0.2567465216431721 -0.4675335196009404
0.2567465216431721 -0.3746617300976998
0.2120142610494638 -0.3282258353460795
0.14491587015890142 -0.2817899405944592
0.10018360956519315 -0.4210976248493201
0.010719088377776641 -0.3282258353460795
0.010719088377776641 -0.4210976248493201
-0.07874543280963987 -0.5139694143525607
-0.07874543280963987 -0.5604053091041811
-0.07874543280963987 -0.5139694143525607
-0.056379302512785744 -0.2817899405944592
-0.07874543280963987 -0.3282258353460795
0.03308521867463077 -0.3282258353460795
0.0554513489714849 -0.1889181510912186
0.07781747926833903 -0.2353540458428389
0.03308521867463077 -0.3282258353460795
0.03308521867463077 -0.3746617300976998
0.010719088377776641 -0.4210976248493201
-0.011647041919077486 -0.4210976248493201
-0.056379302512785744 -0.4675335196009404
-0.056379302512785744 -0.4675335196009404
-0.101111563106494 -0.4210976248493201
-0.07874543280963987 -0.3746617300976998
-0.034013172215931614 -0.3282258353460795
-0.056379302512785744 -0.3282258353460795
-0.011647041919077486 -0.1424822563395983
0.07781747926833903 -0.2353540458428389
0.12254973986204729 -0.1889181510912186
0.14491587015890142 -0.1889181510912186
0.18964813075260967 -0.2353540458428389
0.32384491253373443 -0.2353540458428389
0.5698723457991298 -0.4210976248493201
0.9724626911425042 -0.4210976248493201
1.5316159485638574 -0.5139694143525607
2.1802337271726273 -0.6997129933590419
2.851217636078251 -0.7925847828622825
3.4998354146870208 -1.0712001513720044
3.8353273691398324 -1.1176360461236245
3.76822897824927 -1.303379625130106
3.3209063723121877 -1.4426873093849668
2.649922463406564 -1.8141744673979292
1.8223756424229611 -1.95348215165279
1.0619272123299206 -2.1856616254108916
0.3014787822368803 -2.1856616254108916
-0.5484341690435766 -2.0463539411560308
-1.2865164688397628 -1.8141744673979292
-1.7785713353705537 -1.024764256620384
-1.9575003777453865 -0.2817899405944592
-1.9127681171516784 0.6933638491895672
-1.6891068141831371 1.7149535337252138
-1.5325439021051581 2.179312481241417
-1.3983471203240334 2.225748375993037
-1.2865164688397628 1.8078253232284545
-1.152319687058638 1.1112869019541498
-1.0628551658712215 0.6004920596863266
-0.9510245143869509 0.04326132266688292
-0.9286583840900967 -0.3282258353460795
-0.8168277326058261 -0.3746617300976998
-0.7273632114184095 -0.4675335196009404
-0.6378986902309931 -0.4210976248493201
-0.5931664296372848 -0.4675335196009404
-0.6155325599341389 -0.4210976248493201
-0.5708002993404308 -0.2817899405944592
-0.5484341690435766 -0.4210976248493201
-0.5931664296372848 -0.4675335196009404
-0.6155325599341389 -0.5604053091041811
-0.6155325599341389 -0.5604053091041811
-0.6602648205278472 -0.5604053091041811
-0.6378986902309931 -0.6068412038558013
-0.7273632114184095 -0.6068412038558013
-0.7497293417152637 -0.4675335196009404
-0.7049970811215555 -0.4210976248493201
-0.6602648205278472 -0.3282258353460795
-0.6378986902309931 -0.3746617300976998
-0.6155325599341389 -0.4210976248493201
-0.6826309508247014 -0.3282258353460795
-0.6826309508247014 -0.3746617300976998
-0.6602648205278472 -0.5604053091041811
-0.6826309508247014 -0.5139694143525607
-0.7497293417152637 -0.6997129933590419
-0.8168277326058261 -0.6532770986074217
-0.7720954720121178 -0.5604053091041811
-0.8391938629026803 -0.6532770986074217
-0.7497293417152637 -0.4675335196009404
-0.7273632114184095 -0.5139694143525607
-0.7497293417152637 -0.5604053091041811
-0.6602648205278472 -0.5139694143525607
-0.6602648205278472 -0.4675335196009404
-0.7049970811215555 -0.5604053091041811
-0.794461602308972 -0.6068412038558013
-0.8391938629026803 -0.6997129933590419
-0.8391938629026803 -0.7925847828622825
-0.8615599931995344 -0.8390206776139029
-0.9062922537932426 -0.7461488881106623
-0.8615599931995344 -0.6997129933590419
-0.8168277326058261 -0.7461488881106623
-0.8168277326058261 -0.6068412038558013
-0.8391938629026803 -0.6532770986074217
-0.8615599931995344 -0.5139694143525607
-0.8391938629026803 -0.7461488881106623
-0.9062922537932426 -0.7925847828622825
-0.9062922537932426 -0.7461488881106623
-0.9286583840900967 -0.7925847828622825
-0.9957567749806592 -0.8854565723655231
-1.0404890355743674 -0.8390206776139029
-1.0404890355743674 -0.8854565723655231
-1.0628551658712215 -0.8854565723655231
-1.0404890355743674 -0.7461488881106623
-0.973390644683805 -0.6997129933590419
-0.973390644683805 -0.7925847828622825
-0.973390644683805 -0.6997129933590419
-1.0628551658712215 -0.7925847828622825
-1.129953556761784 -0.7461488881106623
-1.152319687058638 -0.8854565723655231
-1.2417842082460546 -0.9783283618687637
-1.2417842082460546 -1.0712001513720044
-1.2641503385429087 -1.1176360461236245
-1.2641503385429087 -1.164071940875245
-1.1970519476523462 -1.1176360461236245
-1.152319687058638 -0.9783283618687637
-1.0852212961680756 -0.8390206776139029
-1.0628551658712215 -0.8390206776139029
-0.9957567749806592 -0.8390206776139029
-1.0404890355743674 -0.9318924671171435
-1.0181229052775134 -1.0712001513720044
-1.0852212961680756 -1.0712001513720044
-1.0628551658712215 -1.164071940875245
-1.1075874264649297 -1.164071940875245
-1.1075874264649297 -1.2569437303784856
-1.0181229052775134 -1.1176360461236245
-0.9957567749806592 -1.164071940875245
-0.973390644683805 -1.024764256620384
-0.9062922537932426 -1.024764256620384
-0.8391938629026803 -0.8854565723655231
-0.8168277326058261 -0.8854565723655231
-0.7273632114184095 -0.9783283618687637
-0.6378986902309931 -1.0712001513720044
-0.5708002993404308 -1.1176360461236245
-0.5260680387467225 -1.1176360461236245
-0.45896964785616007 -1.303379625130106
-0.45896964785616007 -1.2569437303784856
-0.3695051266687435 -1.2105078356268653
-0.28004060548132703 -1.2105078356268653
-0.14584382370020227 -1.164071940875245
-0.07874543280963987 -1.0712001513720044
0.0554513489714849 -1.024764256620384
0.14491587015890142 -1.1176360461236245
0.16728200045575553 -1.1176360461236245
0.2567465216431721 -1.2105078356268653
0.27911265194002616 -1.303379625130106
0.32384491253373443 -1.303379625130106
0.34621104283058857 -1.164071940875245
0.34621104283058857 -1.2105078356268653
0.34621104283058857 -1.0712001513720044
0.413309433721151 -0.9783283618687637
0.4580416943148592 -0.8390206776139029
0.48040782461171333 -0.8390206776139029
0.5027739549085675 -0.7461488881106623
0.5475062155022757 -0.6532770986074217
0.48040782461171333 -0.6532770986074217
0.39094330342429684 -0.6068412038558013
0.32384491253373443 -0.6997129933590419
0.2567465216431721 -0.7461488881106623
0.27911265194002616 -0.6997129933590419
0.27911265194002616 -0.6997129933590419
0.18964813075260967 -0.6997129933590419
0.2343803913463179 -0.5139694143525607
0.2567465216431721 -0.4210976248493201
0.2343803913463179 -0.4210976248493201
0.2120142610494638 -0.4675335196009404
0.2567465216431721 -0.4210976248493201
0.2343803913463179 -0.4675335196009404
0.16728200045575553 -0.4675335196009404
0.14491587015890142 -0.5139694143525607
0.12254973986204729 -0.7461488881106623
0.07781747926833903 -0.7461488881106623
0.03308521867463077 -0.7461488881106623
0.0554513489714849 -0.6997129933590419
0.03308521867463077 -0.6997129933590419
0.10018360956519315 -0.6532770986074217
0.10018360956519315 -0.6068412038558013
0.10018360956519315 -0.6068412038558013
0.14491587015890142 -0.5604053091041811
0.07781747926833903 -0.5604053091041811
0.0554513489714849 -0.7461488881106623
0.03308521867463077 -0.6997129933590419
-0.034013172215931614 -0.7925847828622825
-0.056379302512785744 -0.8854565723655231
-0.056379302512785744 -0.8854565723655231
-0.07874543280963987 -0.8390206776139029
-0.056379302512785744 -0.7461488881106623
-0.034013172215931614 -0.6532770986074217
-0.011647041919077486 -0.5604053091041811
-0.011647041919077486 -0.6532770986074217
-0.011647041919077486 -0.5604053091041811
-0.011647041919077486 -0.7925847828622825
0.03308521867463077 -0.7461488881106623
-0.056379302512785744 -0.7461488881106623
-0.16820995399705638 -0.7925847828622825
-0.16820995399705638 -0.7925847828622825
-0.1905760842939105 -0.9318924671171435
-0.21294221459076465 -0.7461488881106623
-0.1905760842939105 -0.8390206776139029
-0.1905760842939105 -0.7461488881106623
-0.101111563106494 -0.6532770986074217
-0.12347769340334813 -0.5604053091041811
-0.056379302512785744 -0.6068412038558013
-0.07874543280963987 -0.6068412038558013
-0.101111563106494 -0.6532770986074217
-0.14584382370020227 -0.7461488881106623
-0.14584382370020227 -0.9318924671171435
-0.1905760842939105 -0.9318924671171435
-0.14584382370020227 -0.9783283618687637
-0.14584382370020227 -0.9783283618687637
-0.14584382370020227 -0.9783283618687637
-0.12347769340334813 -0.7925847828622825
-0.07874543280963987 -0.7925847828622825
-0.056379302512785744 -0.7925847828622825
-0.034013172215931614 -0.7925847828622825
-0.056379302512785744 -0.7461488881106623
-0.011647041919077486 -0.8854565723655231
-0.034013172215931614 -0.9318924671171435
0.010719088377776641 -0.9318924671171435
0.0554513489714849 -0.9318924671171435
0.03308521867463077 -0.8854565723655231
0.03308521867463077 -0.7461488881106623
0.07781747926833903 -0.6997129933590419
0.12254973986204729 -0.6068412038558013
0.12254973986204729 -0.4210976248493201
0.2343803913463179 -0.2817899405944592
0.16728200045575553 -0.2353540458428389
0.16728200045575553 -0.3282258353460795
0.18964813075260967 -0.3746617300976998
0.14491587015890142 -0.4210976248493201
0.16728200045575553 -0.5139694143525607
0.12254973986204729 -0.5604053091041811
0.10018360956519315 -0.6997129933590419
0.12254973986204729 -0.7461488881106623
0.2120142610494638 -0.6997129933590419
0.27911265194002616 -0.5139694143525607
0.3685771731274427 -0.6068412038558013
0.3685771731274427 -0.4675335196009404
0.413309433721151 -0.5604053091041811
0.32384491253373443 -0.5604053091041811
0.3014787822368803 -0.7461488881106623
0.2343803913463179 -0.7925847828622825
0.2120142610494638 -1.024764256620384
0.12254973986204729 -0.9783283618687637
0.03308521867463077 -1.1176360461236245
-0.12347769340334813 -1.164071940875245
-0.14584382370020227 -1.0712001513720044
-0.101111563106494 -1.0712001513720044
-0.12347769340334813 -0.9783283618687637
-0.12347769340334813 -0.9318924671171435
-0.1905760842939105 -0.6997129933590419
-0.2576744751844729 -0.6532770986074217
-0.39187125696559766 -0.6532770986074217
-0.45896964785616007 -0.6997129933590419
-0.4813357781530142 -0.7461488881106623
-0.5260680387467225 -0.7925847828622825
-0.5484341690435766 -0.7461488881106623
-0.5708002993404308 -0.7925847828622825
-0.6155325599341389 -0.8854565723655231
-0.5260680387467225 -0.7461488881106623
-0.4813357781530142 -0.6532770986074217
-0.45896964785616007 -0.6068412038558013
-0.43660351755930593 -0.6997129933590419
-0.4142373872624518 -0.6997129933590419
-0.45896964785616007 -0.7925847828622825
-0.5260680387467225 -0.6997129933590419
-0.5708002993404308 -0.8854565723655231
-0.5931664296372848 -0.8854565723655231
-0.5931664296372848 -0.9318924671171435
-0.5484341690435766 -0.7925847828622825
-0.5708002993404308 -0.6997129933590419
-0.5708002993404308 -0.7461488881106623
-0.5260680387467225 -0.6068412038558013
-0.4813357781530142 -0.6068412038558013
-0.5037019084498683 -0.6532770986074217
-0.5037019084498683 -0.6532770986074217
-0.5260680387467225 -0.5604053091041811
-0.4813357781530142 -0.6532770986074217
-0.45896964785616007 -0.6068412038558013
-0.43660351755930593 -0.6532770986074217
-0.2576744751844729 -0.6068412038558013
-0.034013172215931614 -0.5139694143525607
0.2567465216431721 -0.5604053091041811
0.6593368669865464 -0.5139694143525607
1.129025603220483 -0.5604053091041811
1.7329111212355446 -0.7461488881106623
2.381528899844314 -0.8854565723655231
2.828851505781397 -1.0712001513720044
3.1867095905310627 -1.3962514146333465
3.2761741117184795 -1.6748667831430684
3.0525128087499382 -1.95348215165279
2.582824072516001 -2.092789835907651
2.001304684797794 -2.2320975201625117
1.3750530364858784 -2.371405204417373
0.7935336487676712 -2.3249693096657524
0.2120142610494638 -2.1392257306592715
-0.5037019084498683 -1.95348215165279
-1.2417842082460546 -1.5355590988882073
-1.9351342474485325 -1.024764256620384
-2.404822983682469 -0.4675335196009404
-2.51665363516674 0.3218766911766047
-2.404822983682469 1.2505945862090109
-2.203527811010782 2.2721842707446576
-2.0693310292296574 2.782979113012481
-2.0022326383390947 2.8758509025157215
-2.0245987686359492 2.4114919549995184
-2.0469648989328033 1.7149535337252138
-1.845669726261116 1.0184151124509093
-1.7114729444799912 0.4611843754314657
-1.5325439021051581 0.22900490167336413
-1.3759809900271793 -0.0031745720847373825
-1.3312487294334712 -0.2817899405944592
-1.2641503385429087 -0.3746617300976998
-1.152319687058638 -0.6068412038558013
-1.1970519476523462 -0.8390206776139029
-1.1970519476523462 -0.8854565723655231
-1.1970519476523462 -0.9783283618687637
-1.2417842082460546 -0.9318924671171435
-1.2417842082460546 -0.8390206776139029
-1.2417842082460546 -0.7925847828622825
-1.1746858173554922 -0.6997129933590419
-1.1746858173554922 -0.6068412038558013
-1.1075874264649297 -0.6532770986074217
-1.129953556761784 -0.6532770986074217
-1.152319687058638 -0.8390206776139029
-1.1746858173554922 -0.7925847828622825
-1.2417842082460546 -0.8854565723655231
-1.2641503385429087 -0.9783283618687637
-1.2865164688397628 -1.1176360461236245
-1.3088825991366169 -0.8854565723655231
-1.2865164688397628 -1.024764256620384
-1.2417842082460546 -0.8854565723655231
-1.2194180779492003 -0.8390206776139029
-1.1970519476523462 -0.6532770986074217
-1.1970519476523462 -0.7461488881106623
-1.1970519476523462 -0.6997129933590419
-1.2194180779492003 -0.8390206776139029
-1.2641503385429087 -0.9318924671171435
-1.3536148597303252 -0.9318924671171435
-1.3536148597303252 -1.164071940875245
-1.3759809900271793 -1.0712001513720044
-1.3536148597303252 -1.0712001513720044
-1.3983471203240334 -1.0712001513720044
-1.3312487294334712 -0.9783283618687637
-1.3312487294334712 -1.024764256620384
-1.3088825991366169 -0.9318924671171435
-1.3088825991366169 -0.8854565723655231
-1.3312487294334712 -0.8854565723655231
-1.3983471203240334 -0.9783283618687637
-1.3759809900271793 -1.1176360461236245
-1.4654455112145959 -1.0712001513720044
-1.4654455112145959 -1.164071940875245
-1.4430793809177418 -1.1176360461236245
-1.48781164151145 -1.024764256620384
-1.4654455112145959 -1.0712001513720044
-1.4654455112145959 -0.8854565723655231
-1.4207132506208875 -0.8854565723655231
-1.3983471203240334 -0.7461488881106623
-1.3536148597303252 -0.6997129933590419
-1.3759809900271793 -0.8854565723655231
-1.4430793809177418 -0.9783283618687637
-1.510177771808304 -1.024764256620384
-1.5996422929957206 -1.0712001513720044
-1.7114729444799912 -1.2569437303784856
-1.6891068141831371 -1.164071940875245
-1.666740683886283 -1.164071940875245
-1.5996422929957206 -1.024764256620384
-1.5772761626988665 -1.0712001513720044
-1.5325439021051581 -1.1176360461236245
-1.510177771808304 -1.024764256620384
-1.48781164151145 -1.024764256620384
-1.5772761626988665 -1.164071940875245
-1.5549100324020124 -1.2569437303784856
-1.5772761626988665 -1.2569437303784856
-1.5996422929957206 -1.349815519881726
-1.5996422929957206 -1.4426873093849668
-1.6220084232925747 -1.349815519881726
-1.6220084232925747 -1.2569437303784856
-1.6220084232925747 -1.349815519881726
-1.5549100324020124 -1.2105078356268653
-1.510177771808304 -1.1176360461236245
-1.48781164151145 -1.164071940875245
-1.4654455112145959 -1.0712001513720044
-1.4430793809177418 -1.2105078356268653
-1.4430793809177418 -1.164071940875245
-1.4207132506208875 -1.2569437303784856
-1.4430793809177418 -1.3962514146333465
-1.4654455112145959 -1.4426873093849668
-1.4430793809177418 -1.4891232041365872
-1.4654455112145959 -1.4426873093849668
-1.3759809900271793 -1.3962514146333465
-1.3759809900271793 -1.4426873093849668
-1.2641503385429087 -1.2569437303784856
-1.1970519476523462 -1.2569437303784856
-1.0628551658712215 -1.2569437303784856
-1.0181229052775134 -1.303379625130106
-0.9062922537932426 -1.303379625130106
-0.8168277326058261 -1.4426873093849668
-0.7497293417152637 -1.4891232041365872
-0.6378986902309931 -1.4891232041365872
-0.6155325599341389 -1.5819949936398277
-0.5260680387467225 -1.4891232041365872
-0.4142373872624518 -1.4891232041365872
-0.3247728660750353 -1.303379625130106
-0.23530834488761876 -1.2569437303784856
-0.07874543280963987 -1.164071940875245
0.010719088377776641 -1.1176360461236245
0.010719088377776641 -1.1176360461236245
0.010719088377776641 -1.1176360461236245
-0.011647041919077486 -1.164071940875245
-0.056379302512785744 -1.024764256620384
-0.101111563106494 -1.0712001513720044
-0.056379302512785744 -1.024764256620384
-0.07874543280963987 -0.9318924671171435
-0.056379302512785744 -0.9318924671171435
-0.034013172215931614 -0.7925847828622825
-0.056379302512785744 -0.6532770986074217
-0.034013172215931614 -0.6997129933590419
-0.07874543280963987 -0.6068412038558013
-0.07874543280963987 -0.6068412038558013
-0.16820995399705638 -0.6532770986074217
-0.23530834488761876 -0.7461488881106623
-0.28004060548132703 -0.7461488881106623
-0.3695051266687435 -0.8390206776139029
-0.3471389963718894 -0.9318924671171435
-0.4813357781530142 -0.8854565723655231
-0.39187125696559766 -0.7461488881106623
-0.30240673577818117 -0.7925847828622825
-0.2576744751844729 -0.5604053091041811
-0.28004060548132703 -0.6532770986074217
-0.23530834488761876 -0.6068412038558013
-0.2576744751844729 -0.5139694143525607
-0.28004060548132703 -0.6532770986074217
-0.3247728660750353 -0.7461488881106623
-0.3695051266687435 -0.7925847828622825
-0.39187125696559766 -0.7925847828622825
-0.4142373872624518 -0.7925847828622825
-0.43660351755930593 -0.7925847828622825
-0.45896964785616007 -0.8390206776139029
-0.45896964785616007 -0.7925847828622825
-0.43660351755930593 -0.7461488881106623
-0.3695051266687435 -0.6068412038558013
-0.39187125696559766 -0.5604053091041811
-0.39187125696559766 -0.6997129933590419
-0.45896964785616007 -0.6532770986074217
-0.4813357781530142 -0.7461488881106623
-0.4813357781530142 -0.7925847828622825
-0.5037019084498683 -0.8390206776139029
-0.4813357781530142 -0.8854565723655231
-0.45896964785616007 -0.8390206776139029
-0.4813357781530142 -0.7461488881106623
-0.4813357781530142 -0.6068412038558013
-0.43660351755930593 -0.5604053091041811
-0.4813357781530142 -0.5139694143525607
-0.39187125696559766 -0.6997129933590419
-0.4813357781530142 -0.7925847828622825
-0.4813357781530142 -0.8390206776139029
-0.5037019084498683 -0.8854565723655231
-0.5037019084498683 -0.9783283618687637
-0.5484341690435766 -0.9783283618687637
-0.5260680387467225 -1.024764256620384
-0.5260680387467225 -0.9783283618687637
-0.5484341690435766 -0.8854565723655231
-0.5484341690435766 -0.9318924671171435
-0.5484341690435766 -0.7925847828622825
-0.5708002993404308 -0.6997129933590419
-0.5484341690435766 -0.6532770986074217
-0.5931664296372848 -0.7461488881106623
-0.5708002993404308 -0.7461488881106623
-0.5931664296372848 -0.9318924671171435
-0.6826309508247014 -0.9318924671171435
-0.5931664296372848 -0.9783283618687637
-0.5931664296372848 -1.024764256620384
-0.6378986902309931 -0.8854565723655231
-0.6378986902309931 -0.8854565723655231
-0.43660351755930593 -0.7925847828622825
-0.39187125696559766 -0.7461488881106623
-0.3471389963718894 -0.6068412038558013
-0.30240673577818117 -0.6532770986074217
-0.3247728660750353 -0.6068412038558013
-0.28004060548132703 -0.5604053091041811
-0.30240673577818117 -0.6068412038558013
-0.30240673577818117 -0.5604053091041811
-0.30240673577818117 -0.5604053091041811
-0.3695051266687435 -0.4675335196009404
-0.3247728660750353 -0.4675335196009404
-0.3247728660750353 -0.5604053091041811
-0.30240673577818117 -0.3282258353460795
-0.3247728660750353 -0.4210976248493201
