0.013333444883771065 0.4714358737690432
-0.05316076671145657 0.44469509404156204
-0.03653721381264966 0.5516582129514866
0.013333444883771065 0.5783989926789678
0.0964512093778056 0.63188055213393
0.12969831517541944 0.44469509404156204
0.0632041035801918 0.3912135345865998
0.013333444883771065 0.25750963594919407
0.046580550681384884 0.3912135345865998
0.0798276564789987 0.44469509404156204
0.0632041035801918 0.3912135345865998
0.0798276564789987 0.44469509404156204
0.0632041035801918 0.3644727548591186
-0.03653721381264966 0.3109911954041564
-0.05316076671145657 0.3644727548591186
0.029956997782577974 0.44469509404156204
0.12969831517541944 0.49817665349652435
0.12969831517541944 0.3912135345865998
0.11307476227661252 0.3912135345865998
0.0632041035801918 0.3644727548591186
0.029956997782577974 0.4179543143140809
0.0798276564789987 0.49817665349652435
0.12969831517541944 0.49817665349652435
0.11307476227661252 0.4714358737690432
0.17956897387184015 0.3912135345865998
0.14632186807422634 0.3377319751316375
0.046580550681384884 0.3109911954041564
0.0964512093778056 0.3109911954041564
0.0632041035801918 0.3644727548591186
0.046580550681384884 0.3377319751316375
0.046580550681384884 0.25750963594919407
0.029956997782577974 0.2040280764942318
0.046580550681384884 0.28425041567667525
0.046580550681384884 0.3109911954041564
0.11307476227661252 0.3912135345865998
0.11307476227661252 0.3109911954041564
0.0632041035801918 0.28425041567667525
0.029956997782577974 0.3109911954041564
-0.0032901080150358445 0.3912135345865998
0.0632041035801918 0.4179543143140809
0.11307476227661252 0.49817665349652435
0.0798276564789987 0.44469509404156204
0.0964512093778056 0.44469509404156204
0.029956997782577974 0.3377319751316375
0.046580550681384884 0.3377319751316375
0.0798276564789987 0.4714358737690432
0.12969831517541944 0.5249174332240055
0.14632186807422634 0.5249174332240055
0.0632041035801918 0.44469509404156204
0.013333444883771065 0.3912135345865998
0.013333444883771065 0.44469509404156204
0.029956997782577974 0.5249174332240055
0.0798276564789987 0.5783989926789678
0.14632186807422634 0.4714358737690432
0.0798276564789987 0.44469509404156204
0.0964512093778056 0.44469509404156204
0.0632041035801918 0.4179543143140809
0.0632041035801918 0.49817665349652435
0.11307476227661252 0.5783989926789678
0.17956897387184015 0.5783989926789678
0.14632186807422634 0.5249174332240055
0.11307476227661252 0.44469509404156204
0.046580550681384884 0.49817665349652435
0.0964512093778056 0.6051397724064489
0.16294542097303324 0.6051397724064489
0.16294542097303324 0.5783989926789678
0.11307476227661252 0.49817665349652435
0.11307476227661252 0.44469509404156204
0.029956997782577974 0.49817665349652435
0.11307476227661252 0.5516582129514866
0.17956897387184015 0.6051397724064489
0.16294542097303324 0.4714358737690432
0.17956897387184015 0.4179543143140809
0.11307476227661252 0.3109911954041564
0.14632186807422634 0.3109911954041564
0.11307476227661252 0.3644727548591186
0.17956897387184015 0.3912135345865998
0.21281607966945396 0.28425041567667525
0.17956897387184015 0.25750963594919407
0.12969831517541944 0.15054651703926952
0.11307476227661252 0.17728729676675067
0.14632186807422634 0.2040280764942318
0.17956897387184015 0.23076885622171295
0.2294396325682609 0.17728729676675067
0.19619252677064705 0.07032417785682611
0.16294542097303324 0.09706495758430725
0.12969831517541944 0.12380573731178839
0.19619252677064705 0.23076885622171295
0.2294396325682609 0.28425041567667525
0.21281607966945396 0.2040280764942318
0.19619252677064705 0.15054651703926952
0.16294542097303324 0.17728729676675067
0.16294542097303324 0.23076885622171295
0.2793102912646816 0.23076885622171295
0.3291809499611023 0.17728729676675067
0.4621693731515576 0.016842618401863827
0.6284049021396266 -0.09012050050806074
0.8278875369253096 -0.1970836194179853
1.110487936205027 -0.22382439914546642
1.5094532057763927 -0.33078751805539097
2.024783345639407 -0.4377506369653156
2.606607697097649 -0.7853807734225704
3.2050556014546974 -1.1597516896073063
3.869997717406974 -1.293455588244712
4.518316280460443 -1.1864924693347874
5.033646420323458 -0.8388623328775326
5.23312905510914 -0.35752829778287215
4.9172815500318094 -0.009898161325617313
4.10272745799027 0.23076885622171295
3.1385613898594698 0.28425041567667525
2.1411482159310555 0.6051397724064489
1.276723465193096 0.9527699088637037
0.561910690544399 1.2736592655934773
0.046580550681384884 1.5410670628682888
-0.06978431961026348 1.4875855034133265
-0.0032901080150358445 1.3271408250484398
0.16294542097303324 1.1399553669560718
0.2959338441634885 0.8992883494087415
0.3291809499611023 0.7923252304988169
0.2793102912646816 0.6586213318614111
0.17956897387184015 0.4714358737690432
0.046580550681384884 0.3644727548591186
0.046580550681384884 0.4179543143140809
0.029956997782577974 0.4714358737690432
0.0798276564789987 0.4179543143140809
0.046580550681384884 0.44469509404156204
-0.0032901080150358445 0.3377319751316375
-0.0864078725090704 0.25750963594919407
-0.1030314254078773 0.3644727548591186
-0.1196549783066842 0.4179543143140809
-0.03653721381264966 0.5249174332240055
-0.05316076671145657 0.5249174332240055
-0.0864078725090704 0.4179543143140809
-0.1196549783066842 0.3377319751316375
-0.16952563700310494 0.3912135345865998
-0.1362785312054911 0.44469509404156204
-0.0864078725090704 0.44469509404156204
-0.0864078725090704 0.4179543143140809
-0.1196549783066842 0.3377319751316375
-0.18614918990191184 0.3377319751316375
-0.18614918990191184 0.3644727548591186
-0.1196549783066842 0.3912135345865998
-0.1030314254078773 0.4714358737690432
-0.06978431961026348 0.4179543143140809
-0.1196549783066842 0.3644727548591186
-0.1362785312054911 0.3377319751316375
-0.20277274280071875 0.3912135345865998
-0.1196549783066842 0.4714358737690432
-0.03653721381264966 0.49817665349652435
-0.05316076671145657 0.4179543143140809
-0.05316076671145657 0.3912135345865998
-0.1362785312054911 0.3109911954041564
-0.1196549783066842 0.3912135345865998
-0.0864078725090704 0.3644727548591186
-0.0032901080150358445 0.44469509404156204
-0.0032901080150358445 0.3912135345865998
-0.06978431961026348 0.3912135345865998
-0.1196549783066842 0.3912135345865998
-0.06978431961026348 0.3912135345865998
0.013333444883771065 0.4714358737690432
0.029956997782577974 0.49817665349652435
0.0632041035801918 0.4179543143140809
-0.019913660913842755 0.3644727548591186
-0.05316076671145657 0.25750963594919407
-0.06978431961026348 0.28425041567667525
0.013333444883771065 0.3377319751316375
0.029956997782577974 0.3912135345865998
0.0632041035801918 0.3377319751316375
0.12969831517541944 0.25750963594919407
0.0632041035801918 0.07032417785682611
0.046580550681384884 0.2040280764942318
0.0632041035801918 0.23076885622171295
0.11307476227661252 0.25750963594919407
0.14632186807422634 0.17728729676675067
0.14632186807422634 0.09706495758430725
0.12969831517541944 0.04358339812934497
0.12969831517541944 0.04358339812934497
0.16294542097303324 0.09706495758430725
0.2294396325682609 0.04358339812934497
0.21281607966945396 0.016842618401863827
0.17956897387184015 -0.11686128023554188
0.17956897387184015 -0.17034283969050415
0.17956897387184015 -0.1970836194179853
0.2626867383658747 -0.11686128023554188
0.3458045028599092 -0.17034283969050415
0.36242805575871617 -0.22382439914546642
0.3291809499611023 -0.35752829778287215
0.2793102912646816 -0.3842690775103533
0.2793102912646816 -0.4644914166927967
0.3291809499611023 -0.3842690775103533
0.39567516155633 -0.33078751805539097
0.4455458202527507 -0.4377506369653156
0.39567516155633 -0.5447137558752401
0.39567516155633 -0.6516768747851647
0.4455458202527507 -0.5714545356027213
0.5120400318479783 -0.4912321964202778
0.5452871376455921 -0.4644914166927967
0.5951577963420128 -0.517972976147759
0.5785342434432059 -0.5981953153302024
0.561910690544399 -0.7051584342401269
0.5785342434432059 -0.6784176545126458
0.6616520079372405 -0.6249360950576835
0.7115226666336613 -0.5714545356027213
0.761393325330082 -0.6516768747851647
0.761393325330082 -0.731899213967608
0.7780168782288889 -0.7586399936950893
0.7946404311276958 -0.7051584342401269
0.8611346427229234 -0.6249360950576835
0.927628854318151 -0.5714545356027213
0.9442524072169579 -0.5981953153302024
0.9442524072169579 -0.6249360950576835
0.8777581956217303 -0.6516768747851647
0.8943817485205372 -0.517972976147759
0.927628854318151 -0.4377506369653156
1.0273701717109924 -0.35752829778287215
1.0107466188121856 -0.35752829778287215
0.9941230659133786 -0.4110098572378344
0.9442524072169579 -0.4377506369653156
0.9110053014193441 -0.35752829778287215
0.927628854318151 -0.25056517887294755
0.9608759601157648 -0.11686128023554188
0.9442524072169579 -0.06337972078057959
0.8943817485205372 -0.09012050050806074
0.8112639840265027 -0.11686128023554188
0.7780168782288889 -0.009898161325617313
0.7946404311276958 0.09706495758430725
0.8112639840265027 0.17728729676675067
0.7946404311276958 0.25750963594919407
0.7281462195324682 0.12380573731178839
0.6450284550384336 0.09706495758430725
0.5951577963420128 0.15054651703926952
0.6117813492408197 0.25750963594919407
0.6284049021396266 0.3644727548591186
0.6117813492408197 0.3109911954041564
0.561910690544399 0.25750963594919407
0.4621693731515576 0.17728729676675067
0.4289222673539438 0.17728729676675067
0.4621693731515576 0.25750963594919407
0.4621693731515576 0.3109911954041564
0.4621693731515576 0.2040280764942318
0.36242805575871617 0.15054651703926952
0.3790516086575231 0.09706495758430725
0.3458045028599092 0.15054651703926952
0.36242805575871617 0.2040280764942318
0.39567516155633 0.3109911954041564
0.3458045028599092 0.2040280764942318
0.3790516086575231 0.17728729676675067
0.3291809499611023 0.17728729676675067
0.2793102912646816 0.2040280764942318
0.39567516155633 0.28425041567667525
0.4122987144551369 0.3377319751316375
0.4621693731515576 0.28425041567667525
0.4621693731515576 0.23076885622171295
0.3458045028599092 0.15054651703926952
0.3125573970622954 0.23076885622171295
0.36242805575871617 0.3377319751316375
0.4289222673539438 0.4179543143140809
0.4455458202527507 0.3644727548591186
0.4122987144551369 0.3644727548591186
0.39567516155633 0.25750963594919407
0.39567516155633 0.3109911954041564
0.4621693731515576 0.4179543143140809
0.4787929260503645 0.4714358737690432
0.4787929260503645 0.3912135345865998
0.4621693731515576 0.3109911954041564
0.39567516155633 0.28425041567667525
0.39567516155633 0.3644727548591186
0.4455458202527507 0.4179543143140809
0.4954164789491714 0.44469509404156204
0.4787929260503645 0.3377319751316375
0.4621693731515576 0.3377319751316375
0.4289222673539438 0.3109911954041564
0.4122987144551369 0.3109911954041564
0.4289222673539438 0.4179543143140809
0.4621693731515576 0.3912135345865998
0.4289222673539438 0.4179543143140809
0.4122987144551369 0.3644727548591186
0.3291809499611023 0.3109911954041564
0.36242805575871617 0.3912135345865998
0.3458045028599092 0.49817665349652435
0.4289222673539438 0.5249174332240055
0.4621693731515576 0.4714358737690432
0.4122987144551369 0.3109911954041564
0.39567516155633 0.2040280764942318
0.3458045028599092 0.2040280764942318
0.3790516086575231 0.3109911954041564
0.39567516155633 0.3912135345865998
0.3790516086575231 0.3377319751316375
0.3458045028599092 0.3109911954041564
0.2793102912646816 0.25750963594919407
0.2959338441634885 0.28425041567667525
0.3291809499611023 0.3109911954041564
0.3458045028599092 0.3644727548591186
0.36242805575871617 0.3377319751316375
0.36242805575871617 0.28425041567667525
0.2626867383658747 0.28425041567667525
0.2959338441634885 0.28425041567667525
0.3291809499611023 0.3377319751316375
0.3458045028599092 0.44469509404156204
0.3291809499611023 0.3644727548591186
0.2959338441634885 0.3109911954041564
0.2460631854670678 0.3109911954041564
0.2460631854670678 0.3377319751316375
0.2460631854670678 0.4714358737690432
0.3125573970622954 0.5249174332240055
0.2793102912646816 0.49817665349652435
0.2626867383658747 0.4714358737690432
0.2294396325682609 0.44469509404156204
0.2460631854670678 0.49817665349652435
0.2793102912646816 0.5249174332240055
0.2626867383658747 0.63188055213393
0.21281607966945396 0.5516582129514866
0.14632186807422634 0.5783989926789678
0.11307476227661252 0.49817665349652435
0.12969831517541944 0.49817665349652435
0.12969831517541944 0.5516582129514866
0.2626867383658747 0.6051397724064489
0.2460631854670678 0.5783989926789678
0.19619252677064705 0.5249174332240055
0.16294542097303324 0.49817665349652435
0.16294542097303324 0.49817665349652435
0.17956897387184015 0.5516582129514866
0.2460631854670678 0.6051397724064489
0.21281607966945396 0.63188055213393
0.19619252677064705 0.5516582129514866
0.14632186807422634 0.4714358737690432
0.17956897387184015 0.5249174332240055
0.2460631854670678 0.5783989926789678
0.2460631854670678 0.5516582129514866
0.2626867383658747 0.4179543143140809
0.19619252677064705 0.3644727548591186
0.19619252677064705 0.3377319751316375
0.12969831517541944 0.4179543143140809
0.21281607966945396 0.44469509404156204
0.2460631854670678 0.5249174332240055
0.2626867383658747 0.4714358737690432
0.19619252677064705 0.3377319751316375
0.14632186807422634 0.3377319751316375
0.14632186807422634 0.3377319751316375
0.19619252677064705 0.44469509404156204
0.2460631854670678 0.5249174332240055
0.2294396325682609 0.4714358737690432
0.16294542097303324 0.3912135345865998
0.0964512093778056 0.44469509404156204
0.11307476227661252 0.4714358737690432
0.19619252677064705 0.5783989926789678
0.16294542097303324 0.5783989926789678
0.16294542097303324 0.5516582129514866
0.14632186807422634 0.4179543143140809
0.11307476227661252 0.44469509404156204
0.11307476227661252 0.4179543143140809
0.11307476227661252 0.49817665349652435
0.14632186807422634 0.5249174332240055
0.21281607966945396 0.5249174332240055
0.16294542097303324 0.44469509404156204
0.12969831517541944 0.44469509404156204
0.12969831517541944 0.49817665349652435
0.17956897387184015 0.6051397724064489
0.21281607966945396 0.5783989926789678
0.2294396325682609 0.5516582129514866
0.19619252677064705 0.4714358737690432
0.16294542097303324 0.5249174332240055
0.14632186807422634 0.49817665349652435
0.19619252677064705 0.5783989926789678
0.2460631854670678 0.6853621115888923
0.2460631854670678 0.6586213318614111
0.2294396325682609 0.5249174332240055
0.16294542097303324 0.49817665349652435
0.16294542097303324 0.5249174332240055
0.19619252677064705 0.6051397724064489
0.2294396325682609 0.5783989926789678
0.21281607966945396 0.5516582129514866
0.17956897387184015 0.4179543143140809
0.16294542097303324 0.4714358737690432
0.16294542097303324 0.5516582129514866
0.17956897387184015 0.5783989926789678
0.2294396325682609 0.6586213318614111
0.2793102912646816 0.49817665349652435
0.19619252677064705 0.49817665349652435
0.17956897387184015 0.4179543143140809
0.12969831517541944 0.44469509404156204
0.11307476227661252 0.5516582129514866
0.16294542097303324 0.5783989926789678
0.21281607966945396 0.5516582129514866
0.19619252677064705 0.4179543143140809
0.16294542097303324 0.49817665349652435
0.16294542097303324 0.4714358737690432
0.19619252677064705 0.5516582129514866
0.2793102912646816 0.6051397724064489
0.2793102912646816 0.5249174332240055
0.2294396325682609 0.44469509404156204
0.17956897387184015 0.3912135345865998
0.17956897387184015 0.49817665349652435
0.2294396325682609 0.6051397724064489
0.2460631854670678 0.63188055213393
0.2959338441634885 0.6586213318614111
0.2294396325682609 0.6051397724064489
0.16294542097303324 0.5249174332240055
0.2294396325682609 0.5783989926789678
0.2460631854670678 0.6586213318614111
0.3125573970622954 0.7923252304988169
0.2959338441634885 0.7121028913163735
0.2626867383658747 0.6051397724064489
0.2294396325682609 0.5516582129514866
0.21281607966945396 0.5783989926789678
0.2959338441634885 0.6051397724064489
0.3291809499611023 0.63188055213393
0.3790516086575231 0.49817665349652435
0.3458045028599092 0.4179543143140809
0.3291809499611023 0.3644727548591186
0.3790516086575231 0.3912135345865998
0.3790516086575231 0.3912135345865998
0.4954164789491714 0.3377319751316375
0.5120400318479783 0.23076885622171295
0.5951577963420128 0.016842618401863827
0.6948991137348544 -0.06337972078057959
0.8777581956217303 -0.143602059963023
1.1769821478002547 -0.11686128023554188
1.5094532057763927 -0.17034283969050415
1.8751713695501449 -0.2773059586004287
2.2575130862227035 -0.517972976147759
2.6731019086928764 -0.919084672059976
3.254926260151118 -1.1864924693347874
3.820127058710553 -1.293455588244712
4.385327857269988 -1.2667148085172308
4.800916679740161 -1.1597516896073063
5.01702286742465 -0.7853807734225704
4.850787338436581 -0.33078751805539097
4.26896298697834 -0.03663894105309845
3.5209031065320286 0.17728729676675067
2.6564783557940697 0.44469509404156204
1.7920536050561102 0.7121028913163735
0.9608759601157648 0.9260291291362226
0.4122987144551369 1.0597330277736283
0.17956897387184015 1.2469184858659963
0.2294396325682609 1.220177706138515
0.3291809499611023 1.0597330277736283
0.4289222673539438 0.7655844507713357
0.2959338441634885 0.5516582129514866
0.2626867383658747 0.49817665349652435
0.21281607966945396 0.4714358737690432
0.16294542097303324 0.5783989926789678
0.19619252677064705 0.5516582129514866
0.11307476227661252 0.63188055213393
0.14632186807422634 0.5249174332240055
0.029956997782577974 0.44469509404156204
0.046580550681384884 0.49817665349652435
0.046580550681384884 0.6051397724064489
0.0798276564789987 0.63188055213393
0.0632041035801918 0.63188055213393
-0.0032901080150358445 0.49817665349652435
-0.019913660913842755 0.44469509404156204
-0.0032901080150358445 0.49817665349652435
0.013333444883771065 0.5516582129514866
0.0798276564789987 0.5783989926789678
0.046580550681384884 0.5783989926789678
0.013333444883771065 0.49817665349652435
-0.05316076671145657 0.4714358737690432
-0.03653721381264966 0.4714358737690432
0.013333444883771065 0.5783989926789678
0.046580550681384884 0.5516582129514866
0.013333444883771065 0.5516582129514866
-0.019913660913842755 0.4714358737690432
-0.0864078725090704 0.4714358737690432
-0.06978431961026348 0.49817665349652435
-0.019913660913842755 0.5516582129514866
-0.019913660913842755 0.6586213318614111
-0.019913660913842755 0.63188055213393
-0.03653721381264966 0.49817665349652435
-0.06978431961026348 0.49817665349652435
-0.0864078725090704 0.5249174332240055
-0.0032901080150358445 0.5516582129514866
0.029956997782577974 0.63188055213393
-0.0032901080150358445 0.5516582129514866
-0.0032901080150358445 0.5516582129514866
-0.06978431961026348 0.4179543143140809
-0.019913660913842755 0.5249174332240055
0.013333444883771065 0.49817665349652435
0.0632041035801918 0.5783989926789678
0.029956997782577974 0.5783989926789678
0.013333444883771065 0.4714358737690432
-0.03653721381264966 0.4179543143140809
-0.03653721381264966 0.44469509404156204
0.029956997782577974 0.5516582129514866
0.0632041035801918 0.5249174332240055
0.046580550681384884 0.44469509404156204
0.0798276564789987 0.3377319751316375
0.029956997782577974 0.28425041567667525
0.046580550681384884 0.25750963594919407
0.0632041035801918 0.3912135345865998
0.14632186807422634 0.4179543143140809
0.12969831517541944 0.28425041567667525
0.14632186807422634 0.23076885622171295
0.14632186807422634 0.12380573731178839
0.19619252677064705 0.07032417785682611
0.2294396325682609 0.15054651703926952
0.2793102912646816 0.12380573731178839
0.2626867383658747 0.07032417785682611
0.2793102912646816 -0.03663894105309845
0.2959338441634885 -0.11686128023554188
0.2959338441634885 -0.17034283969050415
0.3291809499611023 -0.03663894105309845
0.3790516086575231 -0.09012050050806074
0.4122987144551369 -0.17034283969050415
0.39567516155633 -0.22382439914546642
0.2959338441634885 -0.25056517887294755
0.3125573970622954 -0.25056517887294755
0.39567516155633 -0.143602059963023
0.4455458202527507 -0.11686128023554188
0.4954164789491714 -0.17034283969050415
0.4787929260503645 -0.30404673832790985
0.4455458202527507 -0.35752829778287215
0.4621693731515576 -0.25056517887294755
0.4954164789491714 -0.25056517887294755
0.5286635847467852 -0.22382439914546642
0.561910690544399 -0.2773059586004287
0.5785342434432059 -0.3842690775103533
0.561910690544399 -0.3842690775103533
0.5785342434432059 -0.33078751805539097
0.5951577963420128 -0.25056517887294755
0.6450284550384336 -0.25056517887294755
0.6616520079372405 -0.3842690775103533
0.6450284550384336 -0.4644914166927967
0.6450284550384336 -0.4110098572378344
0.5785342434432059 -0.3842690775103533
0.6616520079372405 -0.2773059586004287
0.7281462195324682 -0.30404673832790985
0.7447697724312751 -0.4110098572378344
0.7447697724312751 -0.3842690775103533
0.6284049021396266 -0.3842690775103533
0.6616520079372405 -0.2773059586004287
0.7281462195324682 -0.25056517887294755
0.761393325330082 -0.17034283969050415
0.7281462195324682 -0.22382439914546642
0.6284049021396266 -0.33078751805539097
0.6117813492408197 -0.25056517887294755
0.6117813492408197 -0.25056517887294755
0.6450284550384336 -0.11686128023554188
0.6616520079372405 -0.06337972078057959
0.6948991137348544 -0.09012050050806074
0.5785342434432059 -0.11686128023554188
0.5120400318479783 -0.09012050050806074
0.4787929260503645 0.04358339812934497
0.4954164789491714 0.15054651703926952
0.4787929260503645 0.17728729676675067
0.4954164789491714 0.23076885622171295
0.4455458202527507 0.23076885622171295
0.36242805575871617 0.17728729676675067
0.36242805575871617 0.25750963594919407
0.3790516086575231 0.3644727548591186
0.3790516086575231 0.4179543143140809
0.3790516086575231 0.4179543143140809
0.3458045028599092 0.3912135345865998
0.2959338441634885 0.4179543143140809
0.2626867383658747 0.44469509404156204
0.2793102912646816 0.5783989926789678
0.36242805575871617 0.63188055213393
0.39567516155633 0.5783989926789678
0.36242805575871617 0.5783989926789678
0.3458045028599092 0.5249174332240055
0.3790516086575231 0.5516582129514866
0.4787929260503645 0.6586213318614111
0.5452871376455921 0.63188055213393
0.6284049021396266 0.6051397724064489
0.6284049021396266 0.49817665349652435
0.6616520079372405 0.5249174332240055
0.7115226666336613 0.6051397724064489
0.7946404311276958 0.6853621115888923
0.9774995130145717 0.7923252304988169
1.09386438330622 0.7121028913163735
1.2268528064966755 0.4714358737690432
1.3930883354847445 0.23076885622171295
1.6424416289668482 -0.17034283969050415
1.9084184753477587 -0.517972976147759
2.1577717688298623 -0.9458254517874572
2.373877956514352 -1.4004187071546366
2.606607697097649 -1.9084935219767782
2.8559609905797525 -2.3363459976164767
3.121937836960663 -2.7909392529836556
3.40453823624038 -3.218791728623354
3.7536328471153255 -3.780348102900458
4.086103905091464 -4.448867596087487
4.352080751472374 -5.063905529819553
4.551563386258057 -5.46501722573177
4.717798915246126 -5.866128921643987
4.834163785537775 -6.16027749864628
4.900657997133002 -6.320722177011167
4.834163785537775 -6.427685295921091
4.7676695739425465 -6.4811668553760535
4.667928256549706 -6.561389194558497
4.518316280460443 -6.561389194558497
4.451822068865216 -6.5346484148310156
4.1692216695854984 -6.427685295921091
3.8866212703057808 -6.454426075648572
3.504279553633222 -6.374203736466129
3.1385613898594698 -6.187018278373761
2.6897254615916832 -5.946351260826431
2.3406308507167384 -5.571980344641695
1.9915362398417933 -5.144127869001996
1.6091945231692344 -4.849979291999704
1.326594123889517 -4.52908993526993
1.1437350420026409 -4.074496679902751
1.0772408304074133 -3.566421865080609
1.0439937246097994 -3.058347050258467
1.0606172775086062 -2.630494574618769
0.9608759601157648 -2.3630867773439577
0.927628854318151 -2.1491605395241087
0.9442524072169579 -1.855011962521816
1.1603585949014477 -1.5341226057920423
1.4097118883835513 -1.1864924693347874
1.6258180760680412 -0.9725662315149384
1.6424416289668482 -0.9458254517874572
1.3432176767883237 -0.8923438923324949
0.8611346427229234 -0.6784176545126458
0.3458045028599092 -0.35752829778287215
-0.1030314254078773 0.04358339812934497
-0.2526434014971395 0.5516582129514866
-0.4521260362828224 0.9527699088637037
-0.5186202478780501 1.193436926411034
-0.6017380123720846 1.407363164230883
-0.6682322239673122 1.6480301817782133
-0.7181028826637329 1.7015117412331757
-0.7679735413601536 1.8352156398705812
-0.8510913058541881 1.8084748601431002
-0.9342090703482228 1.8886971993255437
-1.100444599336292 1.9154379790530247
-1.067197493538678 1.9956603182354682
-1.083821046437485 2.0758826574179117
-1.083821046437485 2.209586556055317
-1.1503152580327125 2.156104996600355
-1.2833036812231677 2.156104996600355
-1.2999272341219748 2.2363273357827986
-1.3331743399195886 2.3165496749652417
-1.3664214457172024 2.4235127938751666
-1.3664214457172024 2.530475912785091
-1.2999272341219748 2.4769943533301286
-1.3996685515148162 2.4502535736026476
-1.43291565731243 2.4502535736026476
-1.4661627631100438 2.5037351330576096
-1.4661627631100438 2.6909205911499776
-1.43291565731243 2.74440215060494
-1.43291565731243 2.74440215060494
-1.4827863160088508 2.771142930332421
-1.5160334218064646 2.74440215060494
-1.5326569747052714 2.8246244897873836
-1.4994098689076576 2.958328388424789
-1.4994098689076576 3.0385507276072325
-1.4661627631100438 3.0118099478797515
-1.5659040805028852 3.0118099478797515
-1.5659040805028852 3.0118099478797515
-1.5825276334016922 3.1722546262446385
-1.5825276334016922 3.279217745154563
-1.5160334218064646 3.332699304609525
-1.5492805276040784 3.332699304609525
-1.5659040805028852 3.279217745154563
-1.615774739199306 3.279217745154563
-1.599151186300499 3.3861808640644875
-1.5326569747052714 3.493143982974412
-1.5326569747052714 3.5733663221568555
-1.449539210211237 3.5733663221568555
-1.449539210211237 3.5733663221568555
-1.5160334218064646 3.6268478816118175
-1.4994098689076576 3.653588661339299
-1.3996685515148162 3.8140333397041855
-1.3830449986160092 3.867514899159148
-1.3497978928183954 3.867514899159148
-1.3331743399195886 3.840774119431667
-1.3830449986160092 3.867514899159148
-1.3331743399195886 3.9209964586141104
-1.2999272341219748 4.054700357251516
-1.266680128324361 4.081441136978997
-1.250056575425554 4.108181916706478
-1.2168094696279401 4.081441136978997
-1.250056575425554 4.081441136978997
-1.2168094696279401 4.134922696433959
-1.1336917051339057 4.268626595071365
-1.050573940639871 4.295367374798846
-1.033950387741064 4.215145035616403
-0.9840797290446435 4.108181916706478
-1.033950387741064 4.081441136978997
-1.0007032819434503 4.081441136978997
-0.884338411651802 4.108181916706478
-0.7845970942589605 4.027959577524035
-0.7181028826637329 3.9209964586141104
-0.6848557768661191 3.7872925599767044
-0.6682322239673122 3.653588661339299
-0.6183615652708915 3.6001071018843365
-0.6017380123720846 3.519884762701893
-0.4687495891816293 3.4396624235194495
-0.4188789304852086 3.279217745154563
-0.3856318246875947 3.145513846517157
-0.4022553775864017 2.958328388424789
-0.3025140601935602 2.904846828969827
-0.20277274280071875 2.7978837100599026
-0.1196549783066842 2.717661370877459
-0.1030314254078773 2.530475912785091
-0.0864078725090704 2.3165496749652417
-0.21939629569952565 2.1293642168728737
-0.152902084104298 2.0758826574179117
-0.1196549783066842 1.968919538507987
-0.03653721381264966 1.8084748601431002
-0.019913660913842755 1.6747709615056945
0.013333444883771065 1.4341039439583643
-0.05316076671145657 1.3538816047759208
-0.0032901080150358445 1.3004000453209585
0.029956997782577974 1.220177706138515
0.0798276564789987 1.1666961466835528
0.0798276564789987 1.006251468318666
0.0798276564789987 0.819066010226298
0.029956997782577974 0.7655844507713357
0.046580550681384884 0.7655844507713357
0.0798276564789987 0.7655844507713357
0.11307476227661252 0.7655844507713357
0.0798276564789987 0.63188055213393
0.029956997782577974 0.5783989926789678
-0.019913660913842755 0.5249174332240055
0.013333444883771065 0.5249174332240055
0.013333444883771065 0.5783989926789678
0.0798276564789987 0.63188055213393
0.0632041035801918 0.5249174332240055
0.013333444883771065 0.4179543143140809
0.013333444883771065 0.44469509404156204
-0.019913660913842755 0.4714358737690432
0.013333444883771065 0.5516582129514866
0.029956997782577974 0.63188055213393
0.0632041035801918 0.5249174332240055
0.013333444883771065 0.49817665349652435
-0.05316076671145657 0.4179543143140809
-0.1030314254078773 0.4714358737690432
0.0632041035801918 0.5249174332240055
-0.019913660913842755 0.5516582129514866
0.029956997782577974 0.49817665349652435
0.029956997782577974 0.4179543143140809
0.013333444883771065 0.4179543143140809
-0.0032901080150358445 0.4179543143140809
0.046580550681384884 0.49817665349652435
0.029956997782577974 0.5249174332240055
0.0798276564789987 0.5249174332240055
0.046580550681384884 0.4714358737690432
0.046580550681384884 0.4179543143140809
-0.019913660913842755 0.4179543143140809
-0.019913660913842755 0.49817665349652435
0.029956997782577974 0.5249174332240055
0.0632041035801918 0.4714358737690432
0.0632041035801918 0.3912135345865998
0.013333444883771065 0.4179543143140809
-0.03653721381264966 0.4179543143140809
0.029956997782577974 0.5249174332240055
0.0964512093778056 0.5516582129514866
0.0798276564789987 0.49817665349652435
0.013333444883771065 0.44469509404156204
-0.03653721381264966 0.3912135345865998
0.013333444883771065 0.4179543143140809
0.0632041035801918 0.3644727548591186
0.14632186807422634 0.3644727548591186
0.14632186807422634 0.3912135345865998
0.14632186807422634 0.25750963594919407
0.11307476227661252 0.25750963594919407
0.0964512093778056 0.3377319751316375
0.11307476227661252 0.4179543143140809
0.17956897387184015 0.4179543143140809
0.0798276564789987 0.4179543143140809
0.11307476227661252 0.3109911954041564
0.0964512093778056 0.3109911954041564
0.0632041035801918 0.3377319751316375
0.0964512093778056 0.3912135345865998
0.12969831517541944 0.44469509404156204
0.12969831517541944 0.3912135345865998
0.14632186807422634 0.28425041567667525
0.0798276564789987 0.28425041567667525
0.14632186807422634 0.3377319751316375
0.12969831517541944 0.4179543143140809
0.17956897387184015 0.4179543143140809
0.11307476227661252 0.3644727548591186
0.046580550681384884 0.28425041567667525
0.013333444883771065 0.25750963594919407
0.013333444883771065 0.28425041567667525
0.0632041035801918 0.3912135345865998
0.0798276564789987 0.3377319751316375
0.11307476227661252 0.3377319751316375
0.0632041035801918 0.23076885622171295
0.0964512093778056 0.2040280764942318
0.0632041035801918 0.25750963594919407
0.0798276564789987 0.3109911954041564
0.0798276564789987 0.28425041567667525
0.12969831517541944 0.3109911954041564
0.0964512093778056 0.23076885622171295
0.013333444883771065 0.17728729676675067
0.0798276564789987 0.23076885622171295
0.0964512093778056 0.3109911954041564
0.14632186807422634 0.3644727548591186
0.12969831517541944 0.3644727548591186
0.0632041035801918 0.3377319751316375
0.013333444883771065 0.23076885622171295
-0.03653721381264966 0.28425041567667525
0.0632041035801918 0.3912135345865998
0.0632041035801918 0.4714358737690432
0.0632041035801918 0.44469509404156204
-0.019913660913842755 0.3912135345865998
-0.06978431961026348 0.3912135345865998
-0.1030314254078773 0.4179543143140809
-0.03653721381264966 0.5249174332240055
0.046580550681384884 0.4714358737690432
0.029956997782577974 0.3912135345865998
0.013333444883771065 0.3912135345865998
-0.019913660913842755 0.3109911954041564
-0.03653721381264966 0.3377319751316375
-0.03653721381264966 0.4714358737690432
0.029956997782577974 0.5249174332240055
-0.0032901080150358445 0.4714358737690432
-0.0032901080150358445 0.3912135345865998
-0.05316076671145657 0.3644727548591186
-0.05316076671145657 0.4179543143140809
-0.06978431961026348 0.49817665349652435
0.013333444883771065 0.49817665349652435
-0.019913660913842755 0.5249174332240055
-0.0864078725090704 0.3644727548591186
-0.1196549783066842 0.3644727548591186
-0.06978431961026348 0.4179543143140809
-0.05316076671145657 0.5516582129514866
0.029956997782577974 0.49817665349652435
0.029956997782577974 0.4179543143140809
-0.019913660913842755 0.3644727548591186
-0.019913660913842755 0.3109911954041564
-0.0032901080150358445 0.3644727548591186
0.029956997782577974 0.3912135345865998
0.0798276564789987 0.4714358737690432
0.013333444883771065 0.3644727548591186
-0.0032901080150358445 0.3109911954041564
-0.019913660913842755 0.25750963594919407
-0.0032901080150358445 0.3644727548591186
0.046580550681384884 0.3377319751316375
0.12969831517541944 0.3109911954041564
0.12969831517541944 0.25750963594919407
0.046580550681384884 0.2040280764942318
0.013333444883771065 0.2040280764942318
-0.019913660913842755 0.23076885622171295
0.0798276564789987 0.28425041567667525
0.0964512093778056 0.28425041567667525
0.16294542097303324 0.28425041567667525
0.12969831517541944 0.2040280764942318
0.0632041035801918 0.15054651703926952
0.0632041035801918 0.25750963594919407
0.11307476227661252 0.3109911954041564
0.17956897387184015 0.3644727548591186
0.17956897387184015 0.3377319751316375
0.0964512093778056 0.23076885622171295
-0.0032901080150358445 0.17728729676675067
-0.03653721381264966 0.25750963594919407
0.013333444883771065 0.25750963594919407
0.0964512093778056 0.3377319751316375
0.11307476227661252 0.3109911954041564
0.0964512093778056 0.23076885622171295
0.0632041035801918 0.17728729676675067
0.046580550681384884 0.25750963594919407
0.0632041035801918 0.28425041567667525
0.11307476227661252 0.3377319751316375
0.14632186807422634 0.28425041567667525
0.12969831517541944 0.2040280764942318
0.0798276564789987 0.15054651703926952
0.029956997782577974 0.23076885622171295
0.11307476227661252 0.3109911954041564
0.17956897387184015 0.4179543143140809
0.12969831517541944 0.3644727548591186
0.14632186807422634 0.28425041567667525
0.0798276564789987 0.28425041567667525
0.0964512093778056 0.28425041567667525
0.16294542097303324 0.3644727548591186
0.2626867383658747 0.3109911954041564
0.2626867383658747 0.23076885622171295
0.2793102912646816 0.016842618401863827
0.2793102912646816 -0.09012050050806074
0.4122987144551369 -0.09012050050806074
0.6616520079372405 -0.09012050050806074
0.9941230659133786 -0.22382439914546642
1.30997057099071 -0.33078751805539097
1.7421829463596896 -0.6249360950576835
2.2741366391215108 -0.919084672059976
2.8725845434785593 -1.1864924693347874
3.487656000734415 -1.4004187071546366
4.185845222484305 -1.3736779274271553
4.75104602104374 -1.1597516896073063
5.050269973222265 -0.7586399936950893
4.933905102930616 -0.22382439914546642
4.385327857269988 0.12380573731178839
3.670515082621291 0.3377319751316375
2.789466778984525 0.44469509404156204
1.7920536050561102 0.7121028913163735
0.8445110898241165 1.0597330277736283
0.013333444883771065 1.3271408250484398
-0.335761165991174 1.6212894020507322
-0.3025140601935602 1.754993300688138
-0.06978431961026348 1.56780784259577
0.0964512093778056 1.193436926411034
0.12969831517541944 0.8458067899537791
0.11307476227661252 0.5249174332240055
0.0798276564789987 0.4179543143140809
0.0632041035801918 0.3912135345865998
0.029956997782577974 0.3912135345865998
0.046580550681384884 0.2040280764942318
-0.019913660913842755 0.15054651703926952
-0.1030314254078773 0.09706495758430725
-0.0864078725090704 0.2040280764942318
-0.05316076671145657 0.2040280764942318
-0.03653721381264966 0.23076885622171295
-0.0864078725090704 0.2040280764942318
-0.1362785312054911 0.09706495758430725
-0.20277274280071875 0.07032417785682611
-0.18614918990191184 0.15054651703926952
-0.1196549783066842 0.23076885622171295
-0.152902084104298 0.23076885622171295
-0.1362785312054911 0.15054651703926952
-0.18614918990191184 0.15054651703926952
-0.3191376130923671 0.15054651703926952
-0.2692669543959464 0.2040280764942318
-0.2858905072947533 0.3377319751316375
-0.21939629569952565 0.3644727548591186
-0.18614918990191184 0.3644727548591186
-0.23601984859833255 0.17728729676675067
-0.2692669543959464 0.23076885622171295
-0.3191376130923671 0.3377319751316375
-0.2692669543959464 0.3377319751316375
-0.20277274280071875 0.3912135345865998
-0.21939629569952565 0.3109911954041564
-0.21939629569952565 0.23076885622171295
-0.2858905072947533 0.23076885622171295
-0.2692669543959464 0.3912135345865998
-0.23601984859833255 0.4179543143140809
-0.18614918990191184 0.3912135345865998
-0.1362785312054911 0.3644727548591186
-0.18614918990191184 0.28425041567667525
-0.23601984859833255 0.3109911954041564
-0.2858905072947533 0.3377319751316375
-0.20277274280071875 0.3644727548591186
-0.16952563700310494 0.3912135345865998
-0.18614918990191184 0.25750963594919407
-0.23601984859833255 0.25750963594919407
-0.2692669543959464 0.2040280764942318
-0.2692669543959464 0.2040280764942318
-0.2526434014971395 0.28425041567667525
-0.16952563700310494 0.28425041567667525
-0.152902084104298 0.2040280764942318
-0.16952563700310494 0.09706495758430725
-0.21939629569952565 0.07032417785682611
-0.20277274280071875 0.016842618401863827
-0.152902084104298 0.07032417785682611
-0.1362785312054911 0.04358339812934497
-0.1196549783066842 -0.009898161325617313
-0.18614918990191184 -0.09012050050806074
-0.20277274280071875 -0.17034283969050415
-0.18614918990191184 -0.17034283969050415
-0.1196549783066842 -0.17034283969050415
-0.019913660913842755 -0.22382439914546642
-0.0032901080150358445 -0.30404673832790985
-0.0864078725090704 -0.4912321964202778
-0.1362785312054911 -0.5447137558752401
-0.1030314254078773 -0.517972976147759
-0.0864078725090704 -0.517972976147759
-0.0032901080150358445 -0.4912321964202778
0.029956997782577974 -0.517972976147759
0.046580550681384884 -0.6784176545126458
-0.019913660913842755 -0.7051584342401269
-0.05316076671145657 -0.7586399936950893
-0.0032901080150358445 -0.6784176545126458
0.0798276564789987 -0.6516768747851647
0.12969831517541944 -0.7586399936950893
0.0798276564789987 -0.8388623328775326
0.11307476227661252 -0.8388623328775326
0.11307476227661252 -0.7853807734225704
0.16294542097303324 -0.7853807734225704
0.2460631854670678 -0.6784176545126458
0.2793102912646816 -0.7853807734225704
0.2626867383658747 -0.8656031126050138
0.21281607966945396 -0.8923438923324949
0.17956897387184015 -0.8656031126050138
0.2793102912646816 -0.7853807734225704
0.3790516086575231 -0.731899213967608
0.4455458202527507 -0.8923438923324949
0.4621693731515576 -0.919084672059976
0.39567516155633 -0.9993070112424195
0.4289222673539438 -1.0260477909699006
0.4621693731515576 -0.9993070112424195
0.5785342434432059 -0.9458254517874572
0.5951577963420128 -0.9725662315149384
0.5785342434432059 -1.1597516896073063
0.5286635847467852 -1.1597516896073063
0.6284049021396266 -1.0527885706973819
0.6117813492408197 -0.9993070112424195
0.6782755608360475 -0.919084672059976
0.7447697724312751 -0.9993070112424195
0.7115226666336613 -0.9993070112424195
0.6948991137348544 -1.0527885706973819
0.6616520079372405 -1.0260477909699006
0.6948991137348544 -0.8923438923324949
0.7447697724312751 -0.7586399936950893
0.7115226666336613 -0.7586399936950893
0.6450284550384336 -0.7586399936950893
0.5785342434432059 -0.7051584342401269
0.561910690544399 -0.5981953153302024
0.5452871376455921 -0.4110098572378344
0.6117813492408197 -0.3842690775103533
0.5951577963420128 -0.30404673832790985
0.5452871376455921 -0.3842690775103533
0.4787929260503645 -0.33078751805539097
0.4787929260503645 -0.25056517887294755
0.4787929260503645 -0.09012050050806074
0.5120400318479783 -0.009898161325617313
0.4455458202527507 -0.03663894105309845
0.39567516155633 -0.03663894105309845
0.3458045028599092 -0.009898161325617313
0.3291809499611023 0.07032417785682611
0.3458045028599092 0.15054651703926952
0.3790516086575231 0.23076885622171295
0.3458045028599092 0.15054651703926952
0.3291809499611023 0.09706495758430725
0.2294396325682609 0.09706495758430725
0.2626867383658747 0.17728729676675067
0.3125573970622954 0.25750963594919407
0.36242805575871617 0.25750963594919407
0.3291809499611023 0.2040280764942318
0.2793102912646816 0.15054651703926952
0.2294396325682609 0.09706495758430725
0.2460631854670678 0.23076885622171295
0.2294396325682609 0.28425041567667525
0.3125573970622954 0.3109911954041564
0.3291809499611023 0.23076885622171295
0.2793102912646816 0.25750963594919407
0.16294542097303324 0.17728729676675067
0.17956897387184015 0.3109911954041564
0.2460631854670678 0.3109911954041564
0.2959338441634885 0.3644727548591186
0.2460631854670678 0.3377319751316375
0.2460631854670678 0.2040280764942318
0.14632186807422634 0.2040280764942318
0.17956897387184015 0.23076885622171295
0.2294396325682609 0.23076885622171295
0.2793102912646816 0.23076885622171295
0.2294396325682609 0.25750963594919407
0.2626867383658747 0.17728729676675067
0.2626867383658747 0.12380573731178839
0.21281607966945396 0.09706495758430725
0.2294396325682609 0.15054651703926952
0.2294396325682609 0.2040280764942318
0.2460631854670678 0.2040280764942318
0.2294396325682609 0.09706495758430725
0.21281607966945396 0.09706495758430725
0.19619252677064705 0.15054651703926952
0.2793102912646816 0.3109911954041564
0.2793102912646816 0.2040280764942318
0.21281607966945396 0.15054651703926952
0.14632186807422634 0.07032417785682611
0.11307476227661252 0.016842618401863827
0.16294542097303324 0.09706495758430725
0.17956897387184015 0.2040280764942318
0.2626867383658747 0.17728729676675067
0.19619252677064705 0.17728729676675067
0.19619252677064705 0.04358339812934497
0.14632186807422634 0.07032417785682611
0.19619252677064705 0.12380573731178839
0.2460631854670678 0.23076885622171295
0.2626867383658747 0.23076885622171295
0.21281607966945396 0.2040280764942318
0.19619252677064705 0.15054651703926952
0.11307476227661252 0.15054651703926952
0.17956897387184015 0.12380573731178839
0.2294396325682609 0.2040280764942318
0.2460631854670678 0.28425041567667525
0.2460631854670678 0.28425041567667525
0.17956897387184015 0.17728729676675067
0.16294542097303324 0.23076885622171295
0.0964512093778056 0.17728729676675067
0.12969831517541944 0.3109911954041564
0.17956897387184015 0.3377319751316375
0.16294542097303324 0.3109911954041564
0.14632186807422634 0.23076885622171295
0.11307476227661252 0.3109911954041564
0.14632186807422634 0.2040280764942318
0.2294396325682609 0.28425041567667525
0.2460631854670678 0.28425041567667525
0.2626867383658747 0.2040280764942318
0.16294542097303324 0.15054651703926952
0.14632186807422634 0.15054651703926952
0.16294542097303324 0.2040280764942318
0.19619252677064705 0.25750963594919407
0.2460631854670678 0.25750963594919407
0.21281607966945396 0.23076885622171295
0.2294396325682609 0.17728729676675067
0.16294542097303324 0.15054651703926952
0.14632186807422634 0.2040280764942318
0.17956897387184015 0.28425041567667525
0.2294396325682609 0.3377319751316375
0.2294396325682609 0.25750963594919407
0.16294542097303324 0.2040280764942318
0.14632186807422634 0.17728729676675067
0.12969831517541944 0.25750963594919407
0.19619252677064705 0.3109911954041564
0.2460631854670678 0.3377319751316375
0.2626867383658747 0.28425041567667525
0.16294542097303324 0.2040280764942318
0.17956897387184015 0.17728729676675067
0.17956897387184015 0.25750963594919407
0.2460631854670678 0.3377319751316375
0.21281607966945396 0.3644727548591186
0.21281607966945396 0.28425041567667525
0.16294542097303324 0.23076885622171295
0.17956897387184015 0.23076885622171295
0.19619252677064705 0.23076885622171295
0.2294396325682609 0.3109911954041564
0.2626867383658747 0.4179543143140809
0.2460631854670678 0.3109911954041564
0.19619252677064705 0.25750963594919407
0.17956897387184015 0.2040280764942318
0.19619252677064705 0.3109911954041564
0.16294542097303324 0.3377319751316375
0.2959338441634885 0.3644727548591186
0.2294396325682609 0.3377319751316375
0.2294396325682609 0.25750963594919407
0.21281607966945396 0.28425041567667525
0.17956897387184015 0.3109911954041564
0.19619252677064705 0.3912135345865998
0.2626867383658747 0.44469509404156204
0.2294396325682609 0.3644727548591186
0.16294542097303324 0.3109911954041564
0.14632186807422634 0.2040280764942318
0.21281607966945396 0.23076885622171295
0.3125573970622954 0.15054651703926952
0.4621693731515576 0.12380573731178839
0.6284049021396266 -0.009898161325617313
0.7780168782288889 -0.143602059963023
0.9608759601157648 -0.1970836194179853
1.2933470180919031 -0.1970836194179853
1.7089358405620758 -0.25056517887294755
2.2741366391215108 -0.4644914166927967
2.8227138847821385 -0.731899213967608
3.3879146833415734 -1.0795293504248629
4.002986140597429 -1.106270130152344
4.568186939156864 -1.0260477909699006
5.116764184817492 -0.6249360950576835
5.399364584097209 -0.11686128023554188
5.2165055022103335 0.28425041567667525
4.651304703650899 0.44469509404156204
3.869997717406974 0.49817665349652435
2.9557023079725937 0.6051397724064489
2.041406898538214 0.9795106885911848
1.1271114891038339 1.3538816047759208
0.2959338441634885 1.7282525209606567
-0.3025140601935602 1.8619564195980625
-0.3856318246875947 1.9956603182354682
-0.23601984859833255 1.8619564195980625
-0.019913660913842755 1.7282525209606567
0.11307476227661252 1.380622384503402
0.16294542097303324 1.0864738075011093
0.19619252677064705 0.7655844507713357
0.16294542097303324 0.6051397724064489
0.11307476227661252 0.5249174332240055
0.12969831517541944 0.5249174332240055
0.12969831517541944 0.5516582129514866
0.12969831517541944 0.49817665349652435
0.0632041035801918 0.3377319751316375
-0.0032901080150358445 0.44469509404156204
-0.019913660913842755 0.49817665349652435
-0.03653721381264966 0.5516582129514866
0.013333444883771065 0.6051397724064489
-0.03653721381264966 0.44469509404156204
-0.03653721381264966 0.3377319751316375
-0.152902084104298 0.3377319751316375
-0.1030314254078773 0.4179543143140809
-0.06978431961026348 0.49817665349652435
-0.03653721381264966 0.5249174332240055
-0.03653721381264966 0.49817665349652435
-0.1030314254078773 0.3644727548591186
-0.1362785312054911 0.3644727548591186
-0.152902084104298 0.28425041567667525
-0.16952563700310494 0.4179543143140809
-0.1196549783066842 0.3377319751316375
-0.1030314254078773 0.3644727548591186
-0.1362785312054911 0.3109911954041564
-0.152902084104298 0.23076885622171295
-0.152902084104298 0.3377319751316375
-0.1196549783066842 0.3912135345865998
-0.03653721381264966 0.3644727548591186
-0.0032901080150358445 0.4179543143140809
-0.05316076671145657 0.25750963594919407
-0.05316076671145657 0.28425041567667525
-0.1030314254078773 0.3377319751316375
-0.1030314254078773 0.4179543143140809
-0.03653721381264966 0.4179543143140809
-0.05316076671145657 0.3377319751316375
-0.06978431961026348 0.25750963594919407
-0.06978431961026348 0.25750963594919407
-0.05316076671145657 0.28425041567667525
-0.0032901080150358445 0.3377319751316375
0.0798276564789987 0.28425041567667525
0.029956997782577974 0.25750963594919407
0.046580550681384884 0.17728729676675067
-0.019913660913842755 0.04358339812934497
-0.019913660913842755 0.2040280764942318
-0.0032901080150358445 0.25750963594919407
0.0798276564789987 0.17728729676675067
0.16294542097303324 0.12380573731178839
0.0798276564789987 -0.03663894105309845
0.12969831517541944 0.016842618401863827
0.0798276564789987 -0.009898161325617313
0.17956897387184015 -0.009898161325617313
0.21281607966945396 -0.009898161325617313
0.21281607966945396 -0.09012050050806074
0.17956897387184015 -0.22382439914546642
0.12969831517541944 -0.1970836194179853
0.19619252677064705 -0.22382439914546642
0.2793102912646816 -0.11686128023554188
0.3291809499611023 -0.143602059963023
0.3458045028599092 -0.1970836194179853
0.3125573970622954 -0.33078751805539097
0.3125573970622954 -0.3842690775103533
0.2959338441634885 -0.33078751805539097
0.3125573970622954 -0.2773059586004287
0.3458045028599092 -0.35752829778287215
0.3291809499611023 -0.4110098572378344
0.21281607966945396 -0.517972976147759
0.17956897387184015 -0.5447137558752401
0.21281607966945396 -0.4912321964202778
0.19619252677064705 -0.4912321964202778
0.2793102912646816 -0.4644914166927967
0.2460631854670678 -0.5714545356027213
0.21281607966945396 -0.5981953153302024
0.12969831517541944 -0.6249360950576835
0.14632186807422634 -0.6249360950576835
0.17956897387184015 -0.5447137558752401
0.2294396325682609 -0.5714545356027213
0.2294396325682609 -0.6516768747851647
0.21281607966945396 -0.7586399936950893
0.14632186807422634 -0.731899213967608
0.17956897387184015 -0.6516768747851647
0.19619252677064705 -0.6249360950576835
0.2959338441634885 -0.6249360950576835
0.2959338441634885 -0.6784176545126458
0.2460631854670678 -0.7051584342401269
0.2460631854670678 -0.7586399936950893
0.2793102912646816 -0.5447137558752401
0.3125573970622954 -0.35752829778287215
0.4122987144551369 -0.03663894105309845
0.4122987144551369 0.2040280764942318
0.36242805575871617 0.3109911954041564
0.39567516155633 0.15054651703926952
0.4621693731515576 -0.143602059963023
0.5286635847467852 -0.3842690775103533
0.6284049021396266 -0.4377506369653156
0.6450284550384336 -0.3842690775103533
0.561910690544399 -0.22382439914546642
0.5452871376455921 0.016842618401863827
0.5785342434432059 0.016842618401863827
0.6450284550384336 -0.06337972078057959
0.7780168782288889 -0.33078751805539097
0.8112639840265027 -0.731899213967608
0.7946404311276958 -1.106270130152344
0.761393325330082 -1.320196367972193
0.761393325330082 -1.3469371476996743
0.8278875369253096 -1.293455588244712
0.7115226666336613 -1.1330109098798251
0.7447697724312751 -1.0260477909699006
0.6450284550384336 -0.9458254517874572
0.6284049021396266 -0.8656031126050138
0.5951577963420128 -0.7051584342401269
0.5951577963420128 -0.517972976147759
0.6284049021396266 -0.4377506369653156
0.5785342434432059 -0.3842690775103533
0.5120400318479783 -0.33078751805539097
0.4621693731515576 -0.2773059586004287
0.4289222673539438 -0.06337972078057959
0.39567516155633 0.04358339812934497
0.39567516155633 0.2040280764942318
0.36242805575871617 0.17728729676675067
0.3291809499611023 0.12380573731178839
0.2460631854670678 0.2040280764942318
0.2959338441634885 0.28425041567667525
0.3458045028599092 0.3644727548591186
0.36242805575871617 0.3912135345865998
0.3790516086575231 0.3644727548591186
0.3125573970622954 0.3644727548591186
0.3291809499611023 0.25750963594919407
0.2959338441634885 0.3912135345865998
0.3125573970622954 0.4714358737690432
0.3291809499611023 0.44469509404156204
0.3125573970622954 0.3644727548591186
0.2793102912646816 0.3644727548591186
0.2626867383658747 0.3377319751316375
0.2294396325682609 0.3912135345865998
0.2626867383658747 0.4714358737690432
0.2959338441634885 0.5249174332240055
0.2793102912646816 0.44469509404156204
0.21281607966945396 0.3644727548591186
0.2626867383658747 0.4179543143140809
0.2793102912646816 0.3912135345865998
0.2626867383658747 0.4179543143140809
0.3291809499611023 0.44469509404156204
0.3291809499611023 0.3377319751316375
0.2793102912646816 0.23076885622171295
0.2959338441634885 0.2040280764942318
0.2959338441634885 0.25750963594919407
0.36242805575871617 0.3644727548591186
0.4122987144551369 0.3109911954041564
0.4289222673539438 0.28425041567667525
0.39567516155633 0.2040280764942318
0.3790516086575231 0.17728729676675067
0.3790516086575231 0.15054651703926952
0.4289222673539438 0.2040280764942318
0.4621693731515576 0.17728729676675067
0.3790516086575231 0.15054651703926952
0.39567516155633 0.12380573731178839
0.2626867383658747 0.09706495758430725
0.2793102912646816 0.17728729676675067
0.3125573970622954 0.2040280764942318
0.3458045028599092 0.23076885622171295
0.3125573970622954 0.23076885622171295
0.2793102912646816 0.17728729676675067
0.2626867383658747 0.2040280764942318
0.2460631854670678 0.28425041567667525
0.2793102912646816 0.28425041567667525
0.3291809499611023 0.3644727548591186
0.3125573970622954 0.3377319751316375
0.3125573970622954 0.3109911954041564
0.2626867383658747 0.25750963594919407
0.2959338441634885 0.3109911954041564
0.3125573970622954 0.4179543143140809
0.36242805575871617 0.4179543143140809
0.3790516086575231 0.28425041567667525
0.3291809499611023 0.28425041567667525
0.3125573970622954 0.3377319751316375
0.2793102912646816 0.3644727548591186
0.3458045028599092 0.4179543143140809
0.36242805575871617 0.3912135345865998
0.39567516155633 0.3644727548591186
0.3458045028599092 0.25750963594919407
0.3125573970622954 0.28425041567667525
0.2626867383658747 0.3109911954041564
0.2793102912646816 0.3912135345865998
0.3125573970622954 0.3912135345865998
0.36242805575871617 0.3109911954041564
0.2959338441634885 0.28425041567667525
0.21281607966945396 0.25750963594919407
0.2793102912646816 0.3912135345865998
0.2959338441634885 0.3912135345865998
0.3291809499611023 0.3912135345865998
0.3458045028599092 0.3109911954041564
0.2294396325682609 0.25750963594919407
0.2294396325682609 0.3109911954041564
0.21281607966945396 0.3109911954041564
0.2460631854670678 0.3644727548591186
0.2626867383658747 0.3109911954041564
0.2626867383658747 0.28425041567667525
0.19619252677064705 0.2040280764942318
0.16294542097303324 0.17728729676675067
0.12969831517541944 0.23076885622171295
0.17956897387184015 0.28425041567667525
0.2626867383658747 0.28425041567667525
0.21281607966945396 0.25750963594919407
0.16294542097303324 0.09706495758430725
0.11307476227661252 0.17728729676675067
0.0964512093778056 0.3109911954041564
0.14632186807422634 0.3377319751316375
0.2294396325682609 0.3644727548591186
0.17956897387184015 0.28425041567667525
0.0964512093778056 0.23076885622171295
0.0964512093778056 0.3377319751316375
0.0798276564789987 0.28425041567667525
0.14632186807422634 0.4179543143140809
0.17956897387184015 0.44469509404156204
0.21281607966945396 0.4714358737690432
0.17956897387184015 0.5249174332240055
0.12969831517541944 0.3644727548591186
0.12969831517541944 0.3644727548591186
0.14632186807422634 0.25750963594919407
0.17956897387184015 0.25750963594919407
0.19619252677064705 0.12380573731178839
0.12969831517541944 0.12380573731178839
0.11307476227661252 0.15054651703926952
0.14632186807422634 0.17728729676675067
0.14632186807422634 0.3377319751316375
0.2626867383658747 0.3377319751316375
0.2460631854670678 0.28425041567667525
0.21281607966945396 0.23076885622171295
0.16294542097303324 0.23076885622171295
0.21281607966945396 0.25750963594919407
0.21281607966945396 0.3109911954041564
0.2959338441634885 0.3377319751316375
0.3125573970622954 0.3109911954041564
0.2626867383658747 0.2040280764942318
0.21281607966945396 0.25750963594919407
0.2460631854670678 0.28425041567667525
0.2793102912646816 0.28425041567667525
0.3291809499611023 0.3377319751316375
0.2793102912646816 0.25750963594919407
0.2626867383658747 0.17728729676675067
0.19619252677064705 0.15054651703926952
0.14632186807422634 0.23076885622171295
0.21281607966945396 0.3109911954041564
0.2626867383658747 0.3377319751316375
0.2626867383658747 0.25750963594919407
0.2294396325682609 0.25750963594919407
0.21281607966945396 0.17728729676675067
0.14632186807422634 0.15054651703926952
0.17956897387184015 0.28425041567667525
0.21281607966945396 0.25750963594919407
0.19619252677064705 0.17728729676675067
0.17956897387184015 0.23076885622171295
0.0632041035801918 0.2040280764942318
0.0964512093778056 0.17728729676675067
0.0964512093778056 0.28425041567667525
0.17956897387184015 0.3644727548591186
0.19619252677064705 0.3109911954041564
0.17956897387184015 0.23076885622171295
0.12969831517541944 0.28425041567667525
0.11307476227661252 0.3377319751316375
0.16294542097303324 0.3912135345865998
0.19619252677064705 0.3377319751316375
0.21281607966945396 0.3377319751316375
0.16294542097303324 0.28425041567667525
0.11307476227661252 0.3109911954041564
0.0964512093778056 0.3912135345865998
0.17956897387184015 0.44469509404156204
0.21281607966945396 0.4179543143140809
0.19619252677064705 0.3644727548591186
0.21281607966945396 0.3109911954041564
0.16294542097303324 0.23076885622171295
0.17956897387184015 0.28425041567667525
0.21281607966945396 0.3644727548591186
0.2626867383658747 0.3377319751316375
0.2793102912646816 0.3377319751316375
0.2793102912646816 0.28425041567667525
0.2626867383658747 0.17728729676675067
0.19619252677064705 0.3109911954041564
0.2626867383658747 0.3377319751316375
0.36242805575871617 0.25750963594919407
0.36242805575871617 0.28425041567667525
0.3125573970622954 0.17728729676675067
0.3458045028599092 0.12380573731178839
0.3291809499611023 0.09706495758430725
0.5951577963420128 -0.009898161325617313
0.8278875369253096 -0.03663894105309845
1.0107466188121856 -0.22382439914546642
1.2268528064966755 -0.3842690775103533
1.5260767586751998 -0.4377506369653156
1.9084184753477587 -0.5447137558752401
2.390501509413159 -0.6249360950576835
2.939078755073787 -0.919084672059976
3.487656000734415 -1.293455588244712
3.9531154819010084 -1.5876041652470045
4.518316280460443 -1.667826504429448
5.0668935261210715 -1.5341226057920423
5.548976560186472 -1.1330109098798251
5.731835642073348 -0.6784176545126458
5.399364584097209 -0.22382439914546642
4.634681150752091 -0.06337972078057959
3.653891529722484 0.09706495758430725
2.6564783557940697 0.3377319751316375
1.7754300521573034 0.6853621115888923
0.9110053014193441 1.006251468318666
0.2294396325682609 1.1399553669560718
-0.1196549783066842 1.1666961466835528
-0.1196549783066842 1.1666961466835528
0.046580550681384884 1.1132145872285906
0.2460631854670678 0.9527699088637037
0.36242805575871617 0.6051397724064489
0.3291809499611023 0.3377319751316375
0.2460631854670678 0.17728729676675067
0.17956897387184015 0.2040280764942318
0.12969831517541944 0.23076885622171295
0.11307476227661252 0.3109911954041564
0.12969831517541944 0.25750963594919407
0.0798276564789987 0.3109911954041564
-0.0032901080150358445 0.2040280764942318
-0.06978431961026348 0.25750963594919407
-0.1030314254078773 0.3109911954041564
-0.1030314254078773 0.3377319751316375
-0.05316076671145657 0.3377319751316375
-0.1362785312054911 0.3377319751316375
-0.152902084104298 0.25750963594919407
-0.20277274280071875 0.3644727548591186
-0.16952563700310494 0.44469509404156204
-0.1196549783066842 0.49817665349652435
-0.1030314254078773 0.3644727548591186
-0.1362785312054911 0.3109911954041564
-0.152902084104298 0.2040280764942318
-0.21939629569952565 0.25750963594919407
-0.21939629569952565 0.3377319751316375
-0.20277274280071875 0.49817665349652435
-0.16952563700310494 0.44469509404156204
-0.20277274280071875 0.4179543143140809
-0.2526434014971395 0.3377319751316375
-0.2692669543959464 0.3644727548591186
-0.2526434014971395 0.3912135345865998
-0.18614918990191184 0.4714358737690432
-0.1030314254078773 0.5516582129514866
-0.16952563700310494 0.4179543143140809
-0.23601984859833255 0.3644727548591186
-0.2692669543959464 0.3109911954041564
-0.21939629569952565 0.44469509404156204
-0.18614918990191184 0.49817665349652435
-0.1196549783066842 0.4714358737690432
-0.1362785312054911 0.3644727548591186
-0.16952563700310494 0.3109911954041564
-0.21939629569952565 0.3644727548591186
-0.21939629569952565 0.4179543143140809
-0.18614918990191184 0.4714358737690432
-0.1030314254078773 0.44469509404156204
-0.152902084104298 0.3912135345865998
-0.20277274280071875 0.3377319751316375
-0.20277274280071875 0.25750963594919407
-0.21939629569952565 0.3109911954041564
-0.152902084104298 0.3644727548591186
-0.1030314254078773 0.44469509404156204
-0.1030314254078773 0.3644727548591186
-0.0864078725090704 0.25750963594919407
-0.152902084104298 0.23076885622171295
-0.1030314254078773 0.17728729676675067
-0.019913660913842755 0.23076885622171295
0.046580550681384884 0.25750963594919407
0.046580550681384884 0.12380573731178839
-0.0032901080150358445 0.04358339812934497
-0.0032901080150358445 0.016842618401863827
0.029956997782577974 0.04358339812934497
0.0798276564789987 0.04358339812934497
0.14632186807422634 0.04358339812934497
0.11307476227661252 -0.009898161325617313
0.0964512093778056 -0.06337972078057959
0.0798276564789987 -0.11686128023554188
0.0964512093778056 -0.143602059963023
0.14632186807422634 -0.11686128023554188
0.19619252677064705 -0.17034283969050415
0.17956897387184015 -0.25056517887294755
0.16294542097303324 -0.35752829778287215
0.11307476227661252 -0.3842690775103533
0.0964512093778056 -0.3842690775103533
0.17956897387184015 -0.35752829778287215
0.2626867383658747 -0.3842690775103533
0.2793102912646816 -0.4644914166927967
0.2626867383658747 -0.517972976147759
0.2294396325682609 -0.517972976147759
0.2793102912646816 -0.5447137558752401
0.3125573970622954 -0.5714545356027213
0.3790516086575231 -0.517972976147759
0.39567516155633 -0.5714545356027213
0.3790516086575231 -0.6249360950576835
0.36242805575871617 -0.6784176545126458
0.3790516086575231 -0.6249360950576835
0.4621693731515576 -0.5981953153302024
0.5286635847467852 -0.6249360950576835
0.5452871376455921 -0.6784176545126458
0.5452871376455921 -0.8121215531500515
0.4954164789491714 -0.7586399936950893
0.5452871376455921 -0.731899213967608
0.5452871376455921 -0.6784176545126458
0.6616520079372405 -0.6784176545126458
0.6450284550384336 -0.7051584342401269
0.6284049021396266 -0.7586399936950893
0.5785342434432059 -0.8388623328775326
0.5951577963420128 -0.7586399936950893
0.6450284550384336 -0.6516768747851647
0.6450284550384336 -0.5714545356027213
0.6616520079372405 -0.6249360950576835
0.5951577963420128 -0.6516768747851647
0.5785342434432059 -0.6516768747851647
0.6117813492408197 -0.517972976147759
0.6284049021396266 -0.4377506369653156
0.7115226666336613 -0.4377506369653156
0.6450284550384336 -0.4377506369653156
0.6117813492408197 -0.3842690775103533
0.5951577963420128 -0.3842690775103533
0.5785342434432059 -0.25056517887294755
0.6284049021396266 -0.11686128023554188
0.6117813492408197 -0.09012050050806074
0.5452871376455921 -0.06337972078057959
0.4621693731515576 -0.09012050050806074
0.3458045028599092 0.04358339812934497
0.3291809499611023 0.07032417785682611
0.3790516086575231 0.15054651703926952
0.39567516155633 0.2040280764942318
0.36242805575871617 0.25750963594919407
0.2793102912646816 0.15054651703926952
0.2460631854670678 0.17728729676675067
0.2294396325682609 0.25750963594919407
0.2460631854670678 0.3109911954041564
0.2959338441634885 0.3377319751316375
0.2460631854670678 0.28425041567667525
0.16294542097303324 0.2040280764942318
0.14632186807422634 0.17728729676675067
0.14632186807422634 0.15054651703926952
0.17956897387184015 0.28425041567667525
0.19619252677064705 0.15054651703926952
0.19619252677064705 0.2040280764942318
0.11307476227661252 0.17728729676675067
0.16294542097303324 0.23076885622171295
0.21281607966945396 0.3109911954041564
0.2793102912646816 0.4179543143140809
0.2626867383658747 0.3912135345865998
0.3291809499611023 0.3109911954041564
0.3458045028599092 0.23076885622171295
0.4122987144551369 0.25750963594919407
0.4954164789491714 0.3109911954041564
0.6450284550384336 0.4179543143140809
0.7115226666336613 0.44469509404156204
0.7281462195324682 0.44469509404156204
0.7281462195324682 0.44469509404156204
0.761393325330082 0.3912135345865998
0.8943817485205372 0.4179543143140809
1.1769821478002547 0.4179543143140809
1.4097118883835513 0.12380573731178839
1.5925709702704274 -0.22382439914546642
1.7255593934608826 -0.7051584342401269
1.9084184753477587 -1.0527885706973819
2.207642427526283 -1.3736779274271553
2.4403721681095796 -1.667826504429448
2.7229725673892973 -2.0421974206141837
2.972325860871401 -2.443309116526401
3.171808495657084 -3.031606270530986
3.3879146833415734 -3.4861995258981655
3.687138635520098 -4.074496679902751
3.9863625876986224 -4.502349155542449
4.285586539877147 -5.090646309547034
4.518316280460443 -5.491758005459251
4.651304703650899 -5.866128921643987
4.7676695739425465 -6.16027749864628
4.734422468144933 -6.213759058101242
4.701175362347319 -6.240499837828723
4.634681150752091 -6.320722177011167
4.601434044954478 -6.374203736466129
4.435198515966409 -6.4811668553760535
4.26896298697834 -6.454426075648572
4.05285679929385 -6.347462956738648
3.7037621884189047 -6.267240617556204
3.4377853420379942 -6.16027749864628
3.0388200724666286 -6.106795939191318
2.573360591300035 -5.999832820281393
2.1079011101334415 -5.678943463551619
1.675688734764462 -5.277831767639402
1.3598412296871307 -4.930201631182147
1.1437350420026409 -4.582571494724892
0.9941230659133786 -4.261682137995119
0.8611346427229234 -3.8873112218103825
0.8278875369253096 -3.4861995258981655
0.7946404311276958 -3.058347050258467
0.7447697724312751 -2.7107169138012126
0.6948991137348544 -2.496790675981363
0.6284049021396266 -2.1491605395241087
0.7115226666336613 -1.9887158611592217
0.8943817485205372 -1.694567284156929
1.2102292535978685 -1.3736779274271553
1.492829652877586 -1.1597516896073063
1.6091945231692344 -1.106270130152344
1.3930883354847445 -0.9458254517874572
0.8943817485205372 -0.8388623328775326
0.3291809499611023 -0.5447137558752401
-0.2526434014971395 -0.22382439914546642
-0.535243800776857 0.17728729676675067
-0.6349851181696984 0.5516582129514866
-0.7181028826637329 0.8992883494087415
-0.8344677529553812 1.193436926411034
-0.9840797290446435 1.4875855034133265
-1.0007032819434503 1.7015117412331757
-0.9674561761458366 1.781734080415619
-1.033950387741064 1.781734080415619
-1.083821046437485 1.8352156398705812
-1.2001859167291333 1.8352156398705812
-1.2833036812231677 1.9154379790530247
-1.3664214457172024 1.9956603182354682
-1.3497978928183954 2.1293642168728737
-1.3664214457172024 2.1293642168728737
-1.416292104413623 2.0758826574179117
-1.4661627631100438 2.0758826574179117
-1.5492805276040784 2.1026234371453927
-1.6490218449969198 2.2363273357827986
-1.5160334218064646 2.3165496749652417
-1.4994098689076576 2.2898088952377607
-1.5825276334016922 2.182845776327836
-1.6323982920981128 2.182845776327836
-1.6988925036933404 2.2630681155102796
-1.6656453978957266 2.396772014147685
-1.6822689507945336 2.4769943533301286
-1.6323982920981128 2.530475912785091
-1.6988925036933404 2.4769943533301286
-1.798633821086182 2.4769943533301286
-1.8485044797826027 2.530475912785091
-1.831880926883796 2.6641798114224966
-1.8817515855802165 2.74440215060494
-1.782010268187375 2.7978837100599026
-1.8152573739849889 2.771142930332421
-1.831880926883796 2.771142930332421
-1.9316222442766373 2.8246244897873836
-1.9316222442766373 2.9850691681522705
-1.8983751384790235 3.0652915073347136
-1.8152573739849889 3.118773066789676
-1.8152573739849889 3.145513846517157
-1.8485044797826027 3.092032287062195
-1.9316222442766373 3.118773066789676
-1.9149986913778303 3.279217745154563
-1.8817515855802165 3.4129216437919685
-1.782010268187375 3.3594400843370065
-1.765386715288568 3.332699304609525
-1.8485044797826027 3.332699304609525
-1.8485044797826027 3.3594400843370065
-1.831880926883796 3.493143982974412
-1.798633821086182 3.5733663221568555
-1.6988925036933404 3.6268478816118175
-1.6988925036933404 3.6001071018843365
-1.7487631623897613 3.5733663221568555
-1.7487631623897613 3.653588661339299
-1.7487631623897613 3.68032944106678
-1.6656453978957266 3.867514899159148
-1.5825276334016922 3.9209964586141104
-1.5825276334016922 4.001218797796554
-1.599151186300499 3.9744780180690724
-1.615774739199306 3.9477372383415914
-1.5492805276040784 4.027959577524035
-1.416292104413623 4.054700357251516
-1.3996685515148162 3.9744780180690724
-1.3497978928183954 3.894255678886629
-1.3830449986160092 3.7605517802492234
-1.3497978928183954 3.7605517802492234
-1.2833036812231677 3.7338110005217424
-1.1669388109315195 3.7605517802492234
-1.100444599336292 3.68032944106678
-1.067197493538678 3.519884762701893
-1.033950387741064 3.466403203246931
-1.033950387741064 3.4129216437919685
-1.0007032819434503 3.279217745154563
-0.8677148587529951 3.3594400843370065
-0.7845970942589605 3.1722546262446385
-0.701479329764926 3.0118099478797515
-0.6848557768661191 2.8781060492423456
-0.6682322239673122 2.717661370877459
-0.5851144594732777 2.6641798114224966
-0.5019966949792432 2.583957472240053
-0.4188789304852086 2.4769943533301286
-0.4188789304852086 2.2898088952377607
-0.4687495891816293 2.156104996600355
-0.4853731420804362 1.9956603182354682
-0.4853731420804362 1.942178758780506
-0.3856318246875947 1.8619564195980625
-0.3523847188899809 1.7015117412331757
-0.3690082717887878 1.5410670628682888
-0.4022553775864017 1.380622384503402
-0.3690082717887878 1.2469184858659963
-0.3856318246875947 1.1399553669560718
-0.3191376130923671 1.1399553669560718
-0.23601984859833255 1.006251468318666
-0.23601984859833255 0.9527699088637037
-0.2858905072947533 0.7923252304988169
-0.3191376130923671 0.6586213318614111
-0.2858905072947533 0.7388436710438546
-0.21939629569952565 0.7121028913163735
-0.21939629569952565 0.6586213318614111
-0.3191376130923671 0.5516582129514866
-0.3690082717887878 0.49817665349652435
-0.3690082717887878 0.4179543143140809
-0.3025140601935602 0.5249174332240055
-0.2526434014971395 0.5783989926789678
-0.20277274280071875 0.5249174332240055
-0.23601984859833255 0.44469509404156204
-0.23601984859833255 0.4179543143140809
-0.2858905072947533 0.3644727548591186
-0.2692669543959464 0.4179543143140809
-0.21939629569952565 0.49817665349652435
-0.21939629569952565 0.4714358737690432
-0.2526434014971395 0.4179543143140809
-0.2858905072947533 0.3912135345865998
-0.335761165991174 0.3109911954041564
-0.2692669543959464 0.44469509404156204
-0.2526434014971395 0.5249174332240055
-0.18614918990191184 0.5249174332240055
-0.18614918990191184 0.4179543143140809
-0.2692669543959464 0.3644727548591186
-0.3025140601935602 0.3377319751316375
-0.20277274280071875 0.3912135345865998
-0.16952563700310494 0.4714358737690432
-0.1362785312054911 0.4714358737690432
-0.1362785312054911 0.3912135345865998
-0.21939629569952565 0.3377319751316375
-0.3523847188899809 0.3109911954041564
-0.2692669543959464 0.4179543143140809
-0.21939629569952565 0.44469509404156204
-0.152902084104298 0.3644727548591186
-0.18614918990191184 0.3912135345865998
-0.20277274280071875 0.23076885622171295
-0.21939629569952565 0.25750963594919407
-0.2858905072947533 0.3377319751316375
-0.21939629569952565 0.3644727548591186
-0.1362785312054911 0.3109911954041564
-0.152902084104298 0.28425041567667525
-0.18614918990191184 0.23076885622171295
-0.20277274280071875 0.17728729676675067
-0.16952563700310494 0.23076885622171295
-0.152902084104298 0.3377319751316375
-0.1362785312054911 0.3109911954041564
-0.20277274280071875 0.3377319751316375
-0.18614918990191184 0.17728729676675067
-0.21939629569952565 0.25750963594919407
-0.21939629569952565 0.3377319751316375
-0.1196549783066842 0.4179543143140809
-0.1030314254078773 0.4179543143140809
-0.152902084104298 0.3644727548591186
-0.2526434014971395 0.3109911954041564
-0.23601984859833255 0.3109911954041564
-0.21939629569952565 0.28425041567667525
-0.20277274280071875 0.3109911954041564
-0.1196549783066842 0.25750963594919407
-0.1196549783066842 0.25750963594919407
-0.152902084104298 0.15054651703926952
-0.16952563700310494 0.17728729676675067
-0.20277274280071875 0.28425041567667525
-0.152902084104298 0.3377319751316375
-0.1196549783066842 0.3109911954041564
-0.18614918990191184 0.25750963594919407
-0.2692669543959464 0.2040280764942318
-0.335761165991174 0.17728729676675067
-0.2526434014971395 0.23076885622171295
-0.18614918990191184 0.3912135345865998
-0.1362785312054911 0.3644727548591186
-0.18614918990191184 0.28425041567667525
-0.20277274280071875 0.2040280764942318
-0.2526434014971395 0.23076885622171295
-0.23601984859833255 0.28425041567667525
-0.23601984859833255 0.3644727548591186
-0.16952563700310494 0.3644727548591186
-0.16952563700310494 0.3109911954041564
-0.16952563700310494 0.17728729676675067
-0.16952563700310494 0.2040280764942318
-0.152902084104298 0.2040280764942318
-0.1196549783066842 0.3377319751316375
-0.0864078725090704 0.3109911954041564
-0.0864078725090704 0.23076885622171295
-0.152902084104298 0.28425041567667525
-0.20277274280071875 0.3109911954041564
-0.21939629569952565 0.23076885622171295
-0.20277274280071875 0.3644727548591186
-0.152902084104298 0.3109911954041564
-0.152902084104298 0.28425041567667525
-0.20277274280071875 0.23076885622171295
-0.23601984859833255 0.23076885622171295
-0.2526434014971395 0.28425041567667525
-0.18614918990191184 0.3109911954041564
-0.1362785312054911 0.28425041567667525
-0.18614918990191184 0.3109911954041564
-0.20277274280071875 0.23076885622171295
-0.2526434014971395 0.2040280764942318
-0.23601984859833255 0.28425041567667525
-0.18614918990191184 0.3109911954041564
-0.152902084104298 0.2040280764942318
-0.18614918990191184 0.23076885622171295
-0.23601984859833255 0.12380573731178839
-0.3025140601935602 0.15054651703926952
-0.3025140601935602 0.2040280764942318
-0.23601984859833255 0.28425041567667525
-0.18614918990191184 0.3109911954041564
-0.16952563700310494 0.25750963594919407
-0.2526434014971395 0.2040280764942318
-0.2526434014971395 0.17728729676675067
-0.2526434014971395 0.2040280764942318
-0.2526434014971395 0.3644727548591186
-0.23601984859833255 0.28425041567667525
-0.16952563700310494 0.25750963594919407
-0.20277274280071875 0.28425041567667525
-0.2526434014971395 0.25750963594919407
-0.2526434014971395 0.3377319751316375
-0.18614918990191184 0.3377319751316375
-0.152902084104298 0.3912135345865998
-0.152902084104298 0.3377319751316375
-0.23601984859833255 0.25750963594919407
-0.2692669543959464 0.28425041567667525
-0.2526434014971395 0.28425041567667525
-0.16952563700310494 0.3109911954041564
-0.1030314254078773 0.28425041567667525
-0.1196549783066842 0.23076885622171295
-0.18614918990191184 0.2040280764942318
-0.18614918990191184 0.25750963594919407
-0.18614918990191184 0.28425041567667525
-0.152902084104298 0.3109911954041564
-0.1196549783066842 0.3377319751316375
-0.16952563700310494 0.3109911954041564
-0.18614918990191184 0.23076885622171295
-0.20277274280071875 0.2040280764942318
-0.18614918990191184 0.28425041567667525
-0.16952563700310494 0.3644727548591186
-0.0864078725090704 0.3912135345865998
-0.1030314254078773 0.25750963594919407
-0.1362785312054911 0.15054651703926952
-0.1196549783066842 0.2040280764942318
-0.1196549783066842 0.28425041567667525
-0.06978431961026348 0.3912135345865998
-0.0032901080150358445 0.3377319751316375
-0.0864078725090704 0.3109911954041564
-0.1196549783066842 0.15054651703926952
-0.1362785312054911 0.17728729676675067
-0.1030314254078773 0.2040280764942318
-0.03653721381264966 0.28425041567667525
0.013333444883771065 0.23076885622171295
0.013333444883771065 0.2040280764942318
-0.05316076671145657 0.15054651703926952
-0.06978431961026348 0.15054651703926952
-0.05316076671145657 0.15054651703926952
-0.0032901080150358445 0.25750963594919407
0.013333444883771065 0.2040280764942318
0.013333444883771065 0.2040280764942318
-0.05316076671145657 0.17728729676675067
-0.0864078725090704 0.09706495758430725
-0.03653721381264966 0.2040280764942318
0.013333444883771065 0.28425041567667525
0.0798276564789987 0.23076885622171295
-0.0032901080150358445 0.07032417785682611
0.0632041035801918 -0.06337972078057959
0.16294542097303324 -0.11686128023554188
0.3790516086575231 -0.09012050050806074
0.5951577963420128 -0.17034283969050415
0.9110053014193441 -0.2773059586004287
1.3432176767883237 -0.4644914166927967
1.7421829463596896 -0.731899213967608
2.2907601920203176 -1.1330109098798251
2.9058316492761733 -1.320196367972193
3.6040208710260635 -1.4271594868821178
4.3188336456747605 -1.3469371476996743
4.817540232638968 -1.106270130152344
5.033646420323458 -0.5447137558752401
4.684551809448513 -0.09012050050806074
3.919868376103395 0.15054651703926952
2.92245520217498 0.3912135345865998
1.8917949224489516 0.6853621115888923
0.8777581956217303 0.9527699088637037
-0.03653721381264966 1.193436926411034
-0.5518673536756639 1.4608447236858453
-0.6017380123720846 1.4875855034133265
-0.3690082717887878 1.4341039439583643
-0.152902084104298 1.1132145872285906
-0.03653721381264966 0.7923252304988169
-0.019913660913842755 0.5783989926789678
-0.0864078725090704 0.3912135345865998
-0.1362785312054911 0.3644727548591186
-0.16952563700310494 0.44469509404156204
-0.1362785312054911 0.4179543143140809
-0.23601984859833255 0.3644727548591186
-0.2692669543959464 0.3109911954041564
-0.3025140601935602 0.3109911954041564
-0.2692669543959464 0.3109911954041564
-0.2858905072947533 0.4179543143140809
-0.2526434014971395 0.3109911954041564
-0.2692669543959464 0.3377319751316375
-0.3025140601935602 0.23076885622171295
-0.3523847188899809 0.25750963594919407
-0.3523847188899809 0.3377319751316375
-0.3191376130923671 0.3912135345865998
-0.2692669543959464 0.4179543143140809
-0.2692669543959464 0.3109911954041564
-0.3523847188899809 0.23076885622171295
-0.4188789304852086 0.3377319751316375
-0.335761165991174 0.3644727548591186
-0.3025140601935602 0.3912135345865998
-0.2858905072947533 0.3644727548591186
-0.3191376130923671 0.4179543143140809
-0.3690082717887878 0.3644727548591186
-0.4188789304852086 0.3109911954041564
-0.3523847188899809 0.28425041567667525
-0.3191376130923671 0.3912135345865998
-0.2692669543959464 0.3644727548591186
-0.3025140601935602 0.28425041567667525
-0.3523847188899809 0.23076885622171295
-0.4022553775864017 0.17728729676675067
-0.4022553775864017 0.25750963594919407
-0.335761165991174 0.3109911954041564
-0.3523847188899809 0.25750963594919407
-0.3523847188899809 0.15054651703926952
-0.4355024833840155 0.09706495758430725
-0.4355024833840155 0.04358339812934497
-0.335761165991174 0.12380573731178839
-0.3191376130923671 0.15054651703926952
-0.23601984859833255 0.17728729676675067
-0.2692669543959464 0.12380573731178839
-0.335761165991174 0.07032417785682611
-0.335761165991174 0.12380573731178839
-0.3191376130923671 0.17728729676675067
-0.2858905072947533 0.23076885622171295
-0.23601984859833255 0.2040280764942318
-0.21939629569952565 0.15054651703926952
-0.3025140601935602 0.07032417785682611
-0.2858905072947533 0.09706495758430725
-0.2858905072947533 0.07032417785682611
-0.20277274280071875 0.2040280764942318
-0.16952563700310494 0.09706495758430725
-0.16952563700310494 0.016842618401863827
-0.21939629569952565 -0.009898161325617313
-0.21939629569952565 -0.03663894105309845
-0.152902084104298 0.016842618401863827
-0.05316076671145657 -0.009898161325617313
-0.06978431961026348 -0.03663894105309845
-0.05316076671145657 -0.11686128023554188
-0.1030314254078773 -0.22382439914546642
-0.0864078725090704 -0.22382439914546642
-0.06978431961026348 -0.1970836194179853
0.013333444883771065 -0.1970836194179853
0.0632041035801918 -0.22382439914546642
0.0632041035801918 -0.35752829778287215
0.029956997782577974 -0.4377506369653156
-0.0032901080150358445 -0.517972976147759
-0.0032901080150358445 -0.517972976147759
-0.0032901080150358445 -0.4912321964202778
0.0964512093778056 -0.5447137558752401
0.0798276564789987 -0.6249360950576835
0.013333444883771065 -0.6516768747851647
-0.0032901080150358445 -0.6784176545126458
-0.019913660913842755 -0.6516768747851647
0.0964512093778056 -0.5981953153302024
0.14632186807422634 -0.6784176545126458
0.11307476227661252 -0.7051584342401269
0.14632186807422634 -0.8388623328775326
0.19619252677064705 -0.8388623328775326
0.2294396325682609 -0.8121215531500515
0.2793102912646816 -0.8121215531500515
0.3458045028599092 -0.8388623328775326
0.3291809499611023 -0.9458254517874572
0.3458045028599092 -0.9993070112424195
0.3458045028599092 -0.9725662315149384
0.39567516155633 -0.9725662315149384
0.4787929260503645 -0.8656031126050138
0.5452871376455921 -0.8923438923324949
0.5286635847467852 -0.9725662315149384
0.5286635847467852 -1.0795293504248629
0.5452871376455921 -0.9993070112424195
0.5452871376455921 -0.919084672059976
0.6450284550384336 -0.731899213967608
0.6616520079372405 -0.731899213967608
0.6782755608360475 -0.731899213967608
0.5951577963420128 -0.7853807734225704
0.6284049021396266 -0.6784176545126458
0.6284049021396266 -0.517972976147759
0.6782755608360475 -0.4110098572378344
0.7115226666336613 -0.33078751805539097
0.6284049021396266 -0.3842690775103533
0.6117813492408197 -0.33078751805539097
0.5452871376455921 -0.35752829778287215
0.5785342434432059 -0.22382439914546642
0.5452871376455921 -0.09012050050806074
0.5452871376455921 -0.09012050050806074
0.5120400318479783 -0.06337972078057959
0.4954164789491714 -0.09012050050806074
0.4621693731515576 0.04358339812934497
0.39567516155633 0.09706495758430725
0.39567516155633 0.2040280764942318
0.39567516155633 0.12380573731178839
0.36242805575871617 0.07032417785682611
0.2626867383658747 0.04358339812934497
0.2294396325682609 0.04358339812934497
0.2460631854670678 0.15054651703926952
0.2626867383658747 0.28425041567667525
0.2626867383658747 0.2040280764942318
0.2294396325682609 0.17728729676675067
0.16294542097303324 0.15054651703926952
0.16294542097303324 0.15054651703926952
0.14632186807422634 0.15054651703926952
0.19619252677064705 0.2040280764942318
0.2294396325682609 0.2040280764942318
0.14632186807422634 0.2040280764942318
0.11307476227661252 0.12380573731178839
0.12969831517541944 0.15054651703926952
0.0964512093778056 0.2040280764942318
0.14632186807422634 0.25750963594919407
0.21281607966945396 0.28425041567667525
0.14632186807422634 0.17728729676675067
0.0964512093778056 0.17728729676675067
0.0798276564789987 0.12380573731178839
0.0632041035801918 0.17728729676675067
0.0964512093778056 0.2040280764942318
0.14632186807422634 0.3109911954041564
0.11307476227661252 0.2040280764942318
0.0798276564789987 0.09706495758430725
0.046580550681384884 0.09706495758430725
0.0632041035801918 0.15054651703926952
0.0798276564789987 0.2040280764942318
0.11307476227661252 0.17728729676675067
0.12969831517541944 0.2040280764942318
0.0798276564789987 0.04358339812934497
0.029956997782577974 0.09706495758430725
0.013333444883771065 0.12380573731178839
0.12969831517541944 0.2040280764942318
0.11307476227661252 0.15054651703926952
0.12969831517541944 0.12380573731178839
0.0798276564789987 0.016842618401863827
0.029956997782577974 0.07032417785682611
0.0798276564789987 0.15054651703926952
0.11307476227661252 0.25750963594919407
0.12969831517541944 0.17728729676675067
0.0964512093778056 0.17728729676675067
0.0632041035801918 0.07032417785682611
0.046580550681384884 0.12380573731178839
0.0632041035801918 0.23076885622171295
0.11307476227661252 0.23076885622171295
0.14632186807422634 0.2040280764942318
0.12969831517541944 0.17728729676675067
0.0798276564789987 0.07032417785682611
-0.019913660913842755 0.07032417785682611
-0.0032901080150358445 0.12380573731178839
0.046580550681384884 0.25750963594919407
0.11307476227661252 0.28425041567667525
0.0798276564789987 0.23076885622171295
-0.0032901080150358445 0.15054651703926952
0.029956997782577974 0.12380573731178839
0.029956997782577974 0.2040280764942318
0.046580550681384884 0.23076885622171295
0.12969831517541944 0.25750963594919407
0.0964512093778056 0.2040280764942318
0.013333444883771065 0.17728729676675067
-0.05316076671145657 0.15054651703926952
-0.03653721381264966 0.2040280764942318
0.013333444883771065 0.28425041567667525
0.029956997782577974 0.28425041567667525
0.013333444883771065 0.25750963594919407
-0.03653721381264966 0.2040280764942318
-0.0864078725090704 0.15054651703926952
-0.06978431961026348 0.28425041567667525
-0.0864078725090704 0.3644727548591186
0.013333444883771065 0.28425041567667525
-0.05316076671145657 0.23076885622171295
-0.1030314254078773 0.17728729676675067
-0.1362785312054911 0.28425041567667525
-0.0864078725090704 0.3377319751316375
-0.019913660913842755 0.3377319751316375
-0.05316076671145657 0.3109911954041564
-0.03653721381264966 0.25750963594919407
-0.1196549783066842 0.28425041567667525
-0.1030314254078773 0.25750963594919407
-0.1196549783066842 0.28425041567667525
-0.1030314254078773 0.3109911954041564
-0.019913660913842755 0.3377319751316375
-0.019913660913842755 0.3377319751316375
-0.05316076671145657 0.25750963594919407
-0.06978431961026348 0.23076885622171295
-0.03653721381264966 0.28425041567667525
-0.019913660913842755 0.3644727548591186
0.029956997782577974 0.3912135345865998
0.029956997782577974 0.3109911954041564
0.013333444883771065 0.28425041567667525
-0.03653721381264966 0.3377319751316375
-0.05316076671145657 0.44469509404156204
0.029956997782577974 0.4179543143140809
0.0632041035801918 0.44469509404156204
0.046580550681384884 0.3644727548591186
-0.019913660913842755 0.3109911954041564
-0.05316076671145657 0.28425041567667525
-0.019913660913842755 0.3912135345865998
0.013333444883771065 0.49817665349652435
0.046580550681384884 0.4179543143140809
-0.05316076671145657 0.3377319751316375
-0.06978431961026348 0.28425041567667525
-0.06978431961026348 0.28425041567667525
-0.019913660913842755 0.3644727548591186
0.013333444883771065 0.44469509404156204
0.046580550681384884 0.3109911954041564
0.013333444883771065 0.3109911954041564
-0.03653721381264966 0.2040280764942318
-0.019913660913842755 0.23076885622171295
0.013333444883771065 0.3109911954041564
0.029956997782577974 0.3377319751316375
0.0964512093778056 0.3109911954041564
0.013333444883771065 0.2040280764942318
-0.0032901080150358445 0.17728729676675067
-0.06978431961026348 0.12380573731178839
-0.05316076671145657 0.15054651703926952
0.029956997782577974 0.17728729676675067
0.0798276564789987 0.12380573731178839
0.0798276564789987 0.016842618401863827
0.14632186807422634 -0.11686128023554188
0.2460631854670678 -0.17034283969050415
0.4621693731515576 -0.143602059963023
0.7780168782288889 -0.11686128023554188
1.110487936205027 -0.30404673832790985
1.659065181865655 -0.4644914166927967
2.191018874627476 -0.8121215531500515
2.8060903318833317 -1.106270130152344
3.504279553633222 -1.320196367972193
4.1692216695854984 -1.3469371476996743
4.850787338436581 -1.2667148085172308
5.266376160906754 -0.9725662315149384
5.266376160906754 -0.5447137558752401
4.7676695739425465 -0.22382439914546642
3.869997717406974 -0.009898161325617313
2.739596120288104 0.3377319751316375
1.6258180760680412 0.7121028913163735
0.4621693731515576 1.0864738075011093
-0.4188789304852086 1.407363164230883
-0.6516086710685053 1.4875855034133265
-0.4188789304852086 1.5410670628682888
-0.1362785312054911 1.3004000453209585
0.11307476227661252 0.9795106885911848
0.12969831517541944 0.6853621115888923
0.11307476227661252 0.4179543143140809
-0.0032901080150358445 0.3912135345865998
0.013333444883771065 0.4179543143140809
-0.019913660913842755 0.4714358737690432
-0.019913660913842755 0.4714358737690432
-0.0864078725090704 0.3644727548591186
-0.1362785312054911 0.25750963594919407
-0.18614918990191184 0.25750963594919407
-0.18614918990191184 0.28425041567667525
-0.21939629569952565 0.4179543143140809
-0.18614918990191184 0.3912135345865998
-0.2526434014971395 0.3109911954041564
-0.3025140601935602 0.25750963594919407
-0.3523847188899809 0.3377319751316375
-0.4355024833840155 0.3644727548591186
-0.335761165991174 0.44469509404156204
-0.335761165991174 0.3644727548591186
-0.4022553775864017 0.3377319751316375
-0.4022553775864017 0.2040280764942318
-0.4687495891816293 0.2040280764942318
-0.4521260362828224 0.25750963594919407
-0.4687495891816293 0.3912135345865998
-0.4521260362828224 0.3912135345865998
-0.4853731420804362 0.28425041567667525
-0.5019966949792432 0.17728729676675067
-0.535243800776857 0.2040280764942318
-0.5019966949792432 0.3109911954041564
-0.4521260362828224 0.3644727548591186
-0.4188789304852086 0.4179543143140809
-0.4022553775864017 0.3377319751316375
-0.4355024833840155 0.23076885622171295
-0.4188789304852086 0.3912135345865998
-0.3523847188899809 0.4179543143140809
-0.3191376130923671 0.44469509404156204
-0.2858905072947533 0.44469509404156204
-0.2692669543959464 0.4714358737690432
-0.335761165991174 0.3377319751316375
-0.3025140601935602 0.3644727548591186
-0.2526434014971395 0.3912135345865998
-0.21939629569952565 0.4179543143140809
-0.152902084104298 0.4179543143140809
-0.152902084104298 0.3109911954041564
-0.2526434014971395 0.23076885622171295
-0.20277274280071875 0.25750963594919407
-0.18614918990191184 0.28425041567667525
-0.0864078725090704 0.3377319751316375
-0.05316076671145657 0.23076885622171295
-0.03653721381264966 0.09706495758430725
-0.03653721381264966 0.016842618401863827
-0.06978431961026348 -0.009898161325617313
-0.019913660913842755 -0.03663894105309845
0.013333444883771065 0.016842618401863827
0.046580550681384884 -0.03663894105309845
0.0964512093778056 -0.17034283969050415
0.0798276564789987 -0.2773059586004287
-0.019913660913842755 -0.30404673832790985
-0.0032901080150358445 -0.30404673832790985
0.029956997782577974 -0.33078751805539097
0.0632041035801918 -0.2773059586004287
0.046580550681384884 -0.35752829778287215
-0.019913660913842755 -0.4377506369653156
-0.05316076671145657 -0.4644914166927967
-0.0032901080150358445 -0.4912321964202778
0.046580550681384884 -0.4110098572378344
0.11307476227661252 -0.517972976147759
0.013333444883771065 -0.517972976147759
0.013333444883771065 -0.6249360950576835
-0.019913660913842755 -0.6249360950576835
0.013333444883771065 -0.5447137558752401
0.029956997782577974 -0.5714545356027213
0.0798276564789987 -0.4912321964202778
0.046580550681384884 -0.5981953153302024
0.029956997782577974 -0.6784176545126458
0.029956997782577974 -0.6516768747851647
0.029956997782577974 -0.6249360950576835
0.0798276564789987 -0.5981953153302024
0.16294542097303324 -0.5981953153302024
0.17956897387184015 -0.6516768747851647
0.17956897387184015 -0.7051584342401269
0.17956897387184015 -0.7051584342401269
0.2294396325682609 -0.6784176545126458
0.2959338441634885 -0.5981953153302024
0.3291809499611023 -0.5981953153302024
0.3125573970622954 -0.6249360950576835
0.3458045028599092 -0.6784176545126458
0.2793102912646816 -0.5981953153302024
0.3458045028599092 -0.517972976147759
0.4122987144551369 -0.517972976147759
0.4289222673539438 -0.4644914166927967
0.4122987144551369 -0.4377506369653156
0.39567516155633 -0.4644914166927967
0.36242805575871617 -0.4110098572378344
0.3790516086575231 -0.33078751805539097
0.3790516086575231 -0.22382439914546642
0.4122987144551369 -0.17034283969050415
0.3291809499611023 -0.1970836194179853
0.2793102912646816 -0.17034283969050415
0.2626867383658747 -0.09012050050806074
0.2460631854670678 0.016842618401863827
0.2626867383658747 0.15054651703926952
0.2959338441634885 0.016842618401863827
0.2626867383658747 0.09706495758430725
0.19619252677064705 0.09706495758430725
0.14632186807422634 0.15054651703926952
0.11307476227661252 0.2040280764942318
0.19619252677064705 0.28425041567667525
0.19619252677064705 0.23076885622171295
0.16294542097303324 0.2040280764942318
0.11307476227661252 0.2040280764942318
0.0632041035801918 0.17728729676675067
0.0632041035801918 0.25750963594919407
0.0632041035801918 0.3644727548591186
0.029956997782577974 0.3377319751316375
0.0632041035801918 0.3109911954041564
-0.019913660913842755 0.25750963594919407
-0.019913660913842755 0.25750963594919407
-0.0032901080150358445 0.28425041567667525
0.029956997782577974 0.3377319751316375
0.046580550681384884 0.28425041567667525
0.046580550681384884 0.2040280764942318
0.013333444883771065 0.17728729676675067
-0.0032901080150358445 0.2040280764942318
0.0632041035801918 0.2040280764942318
0.21281607966945396 0.28425041567667525
0.2959338441634885 0.25750963594919407
0.2959338441634885 0.2040280764942318
0.36242805575871617 0.15054651703926952
0.4122987144551369 0.17728729676675067
0.4954164789491714 0.28425041567667525
0.5452871376455921 0.3912135345865998
0.6616520079372405 0.44469509404156204
0.7447697724312751 0.3644727548591186
0.9110053014193441 0.09706495758430725
1.0772408304074133 -0.09012050050806074
1.3930883354847445 -0.4912321964202778
1.5759474173716204 -0.8656031126050138
1.9084184753477587 -1.293455588244712
2.1411482159310555 -1.6410857247019668
2.407125062311966 -2.1224197597966272
2.6398548028952624 -2.496790675981363
2.9058316492761733 -2.9781247110760236
3.254926260151118 -3.379236406988241
3.653891529722484 -4.021015120447788
3.9364919290022016 -4.636053054179855
4.1692216695854984 -5.063905529819553
4.385327857269988 -5.438276446004289
4.5349398333592505 -5.678943463551619
4.568186939156864 -5.785906582461544
4.601434044954478 -5.839388141916506
4.501692727561636 -5.973092040553912
4.368704304371181 -6.080055159463836
4.219092328281919 -6.053314379736355
4.036233246395043 -5.946351260826431
3.853374164508167 -5.91961048109895
3.5541502123296427 -5.892869701371468
3.1884320485558906 -5.839388141916506
2.8227138847821385 -5.759165802734063
2.357254403615545 -5.491758005459251
1.9915362398417933 -5.22435020818444
1.6091945231692344 -4.876720071727185
1.30997057099071 -4.555830714997411
1.0606172775086062 -4.234941358267637
0.8445110898241165 -3.8605704420829015
0.8112639840265027 -3.405977186715722
0.8112639840265027 -2.9513839313485426
0.8112639840265027 -2.496790675981363
0.7946404311276958 -2.282864438161514
0.7447697724312751 -2.1491605395241087
0.761393325330082 -2.0154566408867027
0.8611346427229234 -1.7480488436118915
1.2102292535978685 -1.5341226057920423
1.5759474173716204 -1.2399740287897498
1.825300710853724 -1.2399740287897498
1.7754300521573034 -1.2132332490622686
1.30997057099071 -1.1864924693347874
0.7115226666336613 -0.9458254517874572
0.0632041035801918 -0.4644914166927967
-0.3856318246875947 -0.06337972078057959
-0.6349851181696984 0.3644727548591186
-0.7679735413601536 0.7388436710438546
-0.884338411651802 1.006251468318666
-0.9674561761458366 1.3004000453209585
-1.0007032819434503 1.5143262831408077
-1.0173268348422573 1.6212894020507322
-1.0173268348422573 1.7282525209606567
-1.067197493538678 1.8084748601431002
-1.1669388109315195 1.7282525209606567
-1.266680128324361 1.8619564195980625
-1.250056575425554 2.022401097962949
-1.250056575425554 2.1026234371453927
-1.266680128324361 2.156104996600355
-1.2999272341219748 2.182845776327836
-1.3664214457172024 2.156104996600355
-1.449539210211237 2.209586556055317
-1.449539210211237 2.343290454692723
-1.3996685515148162 2.4502535736026476
-1.416292104413623 2.4769943533301286
-1.4661627631100438 2.5037351330576096
-1.5326569747052714 2.5037351330576096
-1.615774739199306 2.530475912785091
-1.5825276334016922 2.583957472240053
-1.5825276334016922 2.6909205911499776
-1.5659040805028852 2.717661370877459
-1.599151186300499 2.6909205911499776
-1.6323982920981128 2.6909205911499776
-1.7155160565921475 2.74440215060494
-1.6656453978957266 2.8513652695148646
-1.6323982920981128 2.9850691681522705
-1.615774739199306 3.0118099478797515
-1.615774739199306 2.958328388424789
-1.6822689507945336 2.958328388424789
-1.6988925036933404 3.0385507276072325
-1.7155160565921475 3.1989954059721195
-1.6490218449969198 3.305958524882044
-1.6656453978957266 3.3861808640644875
-1.6988925036933404 3.4396624235194495
-1.798633821086182 3.4129216437919685
-1.782010268187375 3.519884762701893
-1.6988925036933404 3.6001071018843365
-1.6822689507945336 3.8140333397041855
-1.6323982920981128 3.840774119431667
-1.6988925036933404 3.7605517802492234
-1.6822689507945336 3.8140333397041855
-1.6988925036933404 3.867514899159148
-1.6490218449969198 4.027959577524035
-1.5659040805028852 4.161663476161441
-1.4994098689076576 4.081441136978997
-1.5160334218064646 4.161663476161441
-1.5492805276040784 4.161663476161441
-1.5659040805028852 4.241885815343884
-1.4827863160088508 4.322108154526327
-1.416292104413623 4.455812053163733
-1.3664214457172024 4.455812053163733
-1.3830449986160092 4.348848934253809
-1.3497978928183954 4.295367374798846
-1.3331743399195886 4.348848934253809
-1.3165507870207815 4.402330493708771
-1.250056575425554 4.509293612618695
-1.1669388109315195 4.429071273436252
-1.1170681522350987 4.348848934253809
-1.1503152580327125 4.241885815343884
-1.1503152580327125 4.215145035616403
-1.050573940639871 4.241885815343884
-0.9674561761458366 4.134922696433959
-0.900961964550609 4.001218797796554
-0.8677148587529951 3.867514899159148
-0.884338411651802 3.6001071018843365
-0.8677148587529951 3.5466255424293744
-0.7679735413601536 3.519884762701893
-0.6349851181696984 3.466403203246931
-0.5851144594732777 3.1989954059721195
-0.5684909065744708 3.0385507276072325
-0.6017380123720846 2.8513652695148646
-0.535243800776857 2.6909205911499776
-0.5019966949792432 2.6641798114224966
-0.4853731420804362 2.6106982519675346
-0.4022553775864017 2.4502535736026476
-0.4022553775864017 2.209586556055317
-0.3523847188899809 2.0758826574179117
-0.3690082717887878 1.9956603182354682
-0.3523847188899809 1.9154379790530247
-0.2526434014971395 1.8352156398705812
-0.20277274280071875 1.7015117412331757
-0.20277274280071875 1.4875855034133265
-0.21939629569952565 1.380622384503402
-0.2692669543959464 1.3004000453209585
-0.23601984859833255 1.193436926411034
-0.20277274280071875 1.1399553669560718
-0.16952563700310494 1.006251468318666
-0.16952563700310494 0.9260291291362226
-0.20277274280071875 0.7923252304988169
-0.2526434014971395 0.7655844507713357
-0.18614918990191184 0.7121028913163735
-0.18614918990191184 0.7655844507713357
-0.1196549783066842 0.6586213318614111
-0.0864078725090704 0.63188055213393
-0.1362785312054911 0.5516582129514866
-0.16952563700310494 0.49817665349652435
-0.1030314254078773 0.4714358737690432
-0.06978431961026348 0.5249174332240055
-0.03653721381264966 0.4714358737690432
-0.03653721381264966 0.3377319751316375
-0.06978431961026348 0.23076885622171295
-0.152902084104298 0.2040280764942318
-0.1362785312054911 0.2040280764942318
-0.1196549783066842 0.3377319751316375
-0.05316076671145657 0.3109911954041564
-0.05316076671145657 0.2040280764942318
-0.1362785312054911 0.2040280764942318
-0.18614918990191184 0.12380573731178839
-0.20277274280071875 0.2040280764942318
-0.152902084104298 0.3377319751316375
-0.1362785312054911 0.28425041567667525
-0.152902084104298 0.2040280764942318
-0.23601984859833255 0.15054651703926952
-0.2692669543959464 0.12380573731178839
-0.21939629569952565 0.2040280764942318
-0.1362785312054911 0.3377319751316375
-0.152902084104298 0.3109911954041564
-0.20277274280071875 0.2040280764942318
-0.2692669543959464 0.09706495758430725
-0.21939629569952565 0.09706495758430725
-0.18614918990191184 0.25750963594919407
-0.1362785312054911 0.3377319751316375
-0.06978431961026348 0.2040280764942318
-0.0864078725090704 0.2040280764942318
-0.1362785312054911 0.12380573731178839
-0.1362785312054911 0.2040280764942318
-0.1196549783066842 0.23076885622171295
-0.05316076671145657 0.28425041567667525
-0.0864078725090704 0.28425041567667525
-0.0864078725090704 0.25750963594919407
-0.1362785312054911 0.23076885622171295
-0.1362785312054911 0.17728729676675067
-0.1362785312054911 0.28425041567667525
-0.05316076671145657 0.3377319751316375
-0.05316076671145657 0.3377319751316375
-0.05316076671145657 0.3109911954041564
-0.0864078725090704 0.2040280764942318
-0.152902084104298 0.23076885622171295
-0.1030314254078773 0.25750963594919407
-0.0032901080150358445 0.3377319751316375
-0.03653721381264966 0.2040280764942318
-0.019913660913842755 0.2040280764942318
-0.05316076671145657 0.07032417785682611
-0.0864078725090704 0.15054651703926952
-0.06978431961026348 0.15054651703926952
0.013333444883771065 0.23076885622171295
0.013333444883771065 0.2040280764942318
-0.0032901080150358445 0.15054651703926952
-0.05316076671145657 0.07032417785682611
-0.05316076671145657 0.12380573731178839
-0.1196549783066842 0.12380573731178839
-0.06978431961026348 0.23076885622171295
0.029956997782577974 0.17728729676675067
0.013333444883771065 0.09706495758430725
-0.03653721381264966 0.016842618401863827
-0.06978431961026348 0.07032417785682611
-0.06978431961026348 0.17728729676675067
-0.06978431961026348 0.28425041567667525
-0.0864078725090704 0.23076885622171295
-0.06978431961026348 0.17728729676675067
-0.1196549783066842 0.12380573731178839
-0.1196549783066842 0.15054651703926952
-0.1196549783066842 0.23076885622171295
-0.05316076671145657 0.28425041567667525
-0.03653721381264966 0.23076885622171295
-0.0864078725090704 0.15054651703926952
-0.1196549783066842 0.09706495758430725
-0.21939629569952565 0.12380573731178839
-0.16952563700310494 0.09706495758430725
-0.1196549783066842 0.23076885622171295
-0.1196549783066842 0.17728729676675067
-0.1030314254078773 0.09706495758430725
-0.152902084104298 0.016842618401863827
-0.16952563700310494 0.07032417785682611
-0.152902084104298 0.15054651703926952
-0.06978431961026348 0.2040280764942318
-0.0864078725090704 0.15054651703926952
-0.1362785312054911 0.17728729676675067
-0.16952563700310494 0.07032417785682611
-0.20277274280071875 0.09706495758430725
-0.1030314254078773 0.15054651703926952
-0.0864078725090704 0.17728729676675067
-0.019913660913842755 0.15054651703926952
-0.03653721381264966 0.04358339812934497
-0.05316076671145657 0.04358339812934497
-0.06978431961026348 0.09706495758430725
-0.05316076671145657 0.09706495758430725
0.029956997782577974 0.17728729676675067
0.046580550681384884 0.09706495758430725
0.013333444883771065 0.04358339812934497
-0.03653721381264966 0.016842618401863827
-0.019913660913842755 0.04358339812934497
0.029956997782577974 0.09706495758430725
0.0632041035801918 0.09706495758430725
0.11307476227661252 0.15054651703926952
0.046580550681384884 0.09706495758430725
0.029956997782577974 0.04358339812934497
-0.0032901080150358445 0.016842618401863827
0.0632041035801918 0.07032417785682611
-0.019913660913842755 0.17728729676675067
-0.03653721381264966 0.12380573731178839
-0.0864078725090704 0.04358339812934497
-0.05316076671145657 0.016842618401863827
-0.05316076671145657 0.04358339812934497
-0.0032901080150358445 0.09706495758430725
0.029956997782577974 0.2040280764942318
0.046580550681384884 0.2040280764942318
-0.0032901080150358445 0.09706495758430725
-0.06978431961026348 0.04358339812934497
-0.1030314254078773 0.09706495758430725
-0.0864078725090704 0.17728729676675067
-0.06978431961026348 0.25750963594919407
-0.03653721381264966 0.23076885622171295
-0.06978431961026348 0.15054651703926952
-0.152902084104298 0.04358339812934497
-0.16952563700310494 0.04358339812934497
-0.152902084104298 0.07032417785682611
-0.05316076671145657 0.09706495758430725
-0.05316076671145657 0.09706495758430725
-0.03653721381264966 0.07032417785682611
-0.1196549783066842 0.016842618401863827
-0.1196549783066842 0.04358339812934497
-0.0864078725090704 0.07032417785682611
-0.05316076671145657 0.17728729676675067
-0.03653721381264966 0.17728729676675067
-0.019913660913842755 0.04358339812934497
-0.019913660913842755 -0.009898161325617313
-0.06978431961026348 0.04358339812934497
-0.1030314254078773 0.15054651703926952
-0.05316076671145657 0.2040280764942318
-0.0032901080150358445 0.17728729676675067
-0.019913660913842755 0.12380573731178839
-0.05316076671145657 0.07032417785682611
-0.1030314254078773 0.04358339812934497
-0.03653721381264966 0.17728729676675067
0.0632041035801918 0.17728729676675067
0.0798276564789987 0.15054651703926952
0.0632041035801918 0.07032417785682611
0.029956997782577974 -0.009898161325617313
-0.0032901080150358445 0.04358339812934497
0.029956997782577974 0.12380573731178839
0.029956997782577974 0.12380573731178839
0.0964512093778056 0.07032417785682611
0.12969831517541944 0.07032417785682611
0.0798276564789987 0.07032417785682611
-0.0032901080150358445 0.09706495758430725
0.029956997782577974 0.12380573731178839
0.0798276564789987 0.25750963594919407
0.12969831517541944 0.25750963594919407
0.0964512093778056 0.17728729676675067
0.0632041035801918 0.04358339812934497
-0.019913660913842755 0.09706495758430725
-0.0032901080150358445 0.15054651703926952
0.0632041035801918 0.25750963594919407
0.046580550681384884 0.3109911954041564
0.046580550681384884 0.17728729676675067
0.013333444883771065 0.12380573731178839
-0.0864078725090704 0.12380573731178839
-0.019913660913842755 0.17728729676675067
0.013333444883771065 0.15054651703926952
0.0632041035801918 0.15054651703926952
0.013333444883771065 0.07032417785682611
-0.03653721381264966 -0.06337972078057959
-0.0864078725090704 -0.03663894105309845
-0.0032901080150358445 0.07032417785682611
0.0632041035801918 0.09706495758430725
0.11307476227661252 0.04358339812934497
0.029956997782577974 -0.03663894105309845
0.013333444883771065 -0.09012050050806074
-0.0032901080150358445 -0.009898161325617313
0.046580550681384884 0.016842618401863827
0.0632041035801918 0.12380573731178839
0.0964512093778056 0.04358339812934497
0.0798276564789987 -0.03663894105309845
0.013333444883771065 -0.06337972078057959
-0.019913660913842755 -0.143602059963023
0.046580550681384884 -0.1970836194179853
0.2294396325682609 -0.17034283969050415
0.3790516086575231 -0.25056517887294755
0.6616520079372405 -0.4377506369653156
0.8611346427229234 -0.5981953153302024
1.1769821478002547 -0.7586399936950893
1.7255593934608826 -0.919084672059976
2.3073837449191243 -1.1330109098798251
2.92245520217498 -1.5876041652470045
3.5209031065320286 -1.8015304030668537
4.069480352192657 -1.9619750814317405
4.651304703650899 -1.8015304030668537
5.116764184817492 -1.3736779274271553
5.166634843513913 -0.7586399936950893
4.784293126841354 -0.4110098572378344
3.9364919290022016 -0.25056517887294755
2.9058316492761733 -0.143602059963023
1.9084184753477587 0.2040280764942318
0.9941230659133786 0.6853621115888923
0.2294396325682609 1.0597330277736283
-0.18614918990191184 1.220177706138515
-0.3191376130923671 1.1399553669560718
-0.2692669543959464 1.0597330277736283
-0.0864078725090704 0.7923252304988169
0.0798276564789987 0.6051397724064489
0.16294542097303324 0.4714358737690432
0.0964512093778056 0.28425041567667525
-0.019913660913842755 0.17728729676675067
-0.1362785312054911 0.07032417785682611
-0.152902084104298 0.15054651703926952
-0.1196549783066842 0.15054651703926952
-0.152902084104298 0.17728729676675067
-0.2858905072947533 0.15054651703926952
-0.335761165991174 0.09706495758430725
-0.3856318246875947 0.09706495758430725
-0.4022553775864017 0.04358339812934497
-0.335761165991174 0.15054651703926952
-0.3191376130923671 0.2040280764942318
-0.3025140601935602 0.15054651703926952
-0.335761165991174 0.07032417785682611
-0.4355024833840155 0.04358339812934497
-0.4355024833840155 0.04358339812934497
-0.4022553775864017 0.09706495758430725
-0.3523847188899809 0.17728729676675067
-0.3025140601935602 0.17728729676675067
-0.4188789304852086 0.09706495758430725
-0.4355024833840155 0.04358339812934497
-0.4188789304852086 -0.009898161325617313
-0.4022553775864017 0.07032417785682611
-0.3856318246875947 0.12380573731178839
-0.3856318246875947 0.09706495758430725
-0.3690082717887878 0.04358339812934497
-0.4188789304852086 -0.09012050050806074
-0.4355024833840155 -0.009898161325617313
-0.4687495891816293 0.016842618401863827
-0.4188789304852086 0.09706495758430725
-0.4022553775864017 0.07032417785682611
-0.4188789304852086 -0.009898161325617313
-0.4687495891816293 -0.03663894105309845
-0.4687495891816293 0.016842618401863827
-0.4188789304852086 0.09706495758430725
-0.3523847188899809 0.09706495758430725
-0.3523847188899809 0.15054651703926952
-0.3856318246875947 0.07032417785682611
-0.4355024833840155 0.016842618401863827
-0.4687495891816293 0.12380573731178839
-0.335761165991174 0.2040280764942318
-0.2858905072947533 0.28425041567667525
-0.335761165991174 0.23076885622171295
-0.3191376130923671 0.17728729676675067
-0.3523847188899809 0.09706495758430725
-0.3690082717887878 0.09706495758430725
-0.3523847188899809 0.07032417785682611
-0.2858905072947533 0.12380573731178839
-0.2692669543959464 0.04358339812934497
-0.3191376130923671 -0.03663894105309845
-0.3191376130923671 -0.143602059963023
-0.3690082717887878 -0.22382439914546642
-0.3523847188899809 -0.09012050050806074
-0.2858905072947533 -0.09012050050806074
-0.21939629569952565 -0.143602059963023
-0.2858905072947533 -0.1970836194179853
-0.3191376130923671 -0.30404673832790985
-0.335761165991174 -0.30404673832790985
-0.3191376130923671 -0.33078751805539097
-0.23601984859833255 -0.1970836194179853
-0.18614918990191184 -0.30404673832790985
-0.18614918990191184 -0.35752829778287215
-0.21939629569952565 -0.4912321964202778
-0.2526434014971395 -0.5447137558752401
-0.18614918990191184 -0.517972976147759
-0.1030314254078773 -0.4912321964202778
-0.03653721381264966 -0.5447137558752401
-0.06978431961026348 -0.6249360950576835
-0.1030314254078773 -0.731899213967608
-0.1196549783066842 -0.8121215531500515
-0.1196549783066842 -0.7853807734225704
-0.0864078725090704 -0.6516768747851647
-0.0032901080150358445 -0.731899213967608
-0.0032901080150358445 -0.8388623328775326
-0.05316076671145657 -0.919084672059976
-0.03653721381264966 -0.8923438923324949
0.029956997782577974 -0.8388623328775326
0.14632186807422634 -0.731899213967608
0.16294542097303324 -0.7586399936950893
0.16294542097303324 -0.8388623328775326
0.16294542097303324 -0.9458254517874572
0.14632186807422634 -0.919084672059976
0.2460631854670678 -0.8923438923324949
0.3125573970622954 -0.8121215531500515
0.3458045028599092 -0.919084672059976
0.3458045028599092 -0.9458254517874572
0.36242805575871617 -1.0527885706973819
0.36242805575871617 -0.9725662315149384
0.4122987144551369 -0.919084672059976
0.5286635847467852 -0.8121215531500515
0.5785342434432059 -0.8923438923324949
0.5951577963420128 -0.9725662315149384
0.5286635847467852 -1.0795293504248629
0.5452871376455921 -1.106270130152344
0.5452871376455921 -1.0260477909699006
0.6117813492408197 -0.8656031126050138
0.6450284550384336 -0.8923438923324949
0.6117813492408197 -0.9725662315149384
0.5452871376455921 -0.8923438923324949
0.5286635847467852 -0.8923438923324949
0.5286635847467852 -0.8656031126050138
0.5785342434432059 -0.6784176545126458
0.6117813492408197 -0.6516768747851647
0.5452871376455921 -0.6784176545126458
0.4621693731515576 -0.6249360950576835
0.4122987144551369 -0.5714545356027213
0.4289222673539438 -0.3842690775103533
0.4122987144551369 -0.33078751805539097
0.4289222673539438 -0.25056517887294755
0.39567516155633 -0.25056517887294755
0.2959338441634885 -0.30404673832790985
0.2460631854670678 -0.22382439914546642
0.16294542097303324 -0.11686128023554188
0.2460631854670678 -0.03663894105309845
0.2294396325682609 -0.06337972078057959
0.21281607966945396 -0.09012050050806074
0.16294542097303324 -0.143602059963023
0.11307476227661252 -0.06337972078057959
0.0798276564789987 0.016842618401863827
0.12969831517541944 0.07032417785682611
0.0798276564789987 0.07032417785682611
0.11307476227661252 0.04358339812934497
0.046580550681384884 0.07032417785682611
0.0798276564789987 0.07032417785682611
0.0798276564789987 0.17728729676675067
0.0964512093778056 0.25750963594919407
0.0964512093778056 0.28425041567667525
0.0632041035801918 0.25750963594919407
-0.019913660913842755 0.2040280764942318
-0.019913660913842755 0.25750963594919407
-0.0032901080150358445 0.28425041567667525
0.013333444883771065 0.4179543143140809
0.029956997782577974 0.3377319751316375
0.013333444883771065 0.23076885622171295
0.046580550681384884 0.2040280764942318
0.029956997782577974 0.2040280764942318
0.0798276564789987 0.17728729676675067
0.11307476227661252 0.23076885622171295
0.12969831517541944 0.25750963594919407
0.12969831517541944 0.23076885622171295
0.0632041035801918 0.15054651703926952
0.0632041035801918 0.12380573731178839
0.0964512093778056 0.2040280764942318
0.12969831517541944 0.2040280764942318
0.11307476227661252 0.17728729676675067
0.0632041035801918 0.09706495758430725
0.046580550681384884 0.016842618401863827
-0.0032901080150358445 0.04358339812934497
0.029956997782577974 0.12380573731178839
0.0798276564789987 0.15054651703926952
0.0964512093778056 0.12380573731178839
0.046580550681384884 0.04358339812934497
0.046580550681384884 0.04358339812934497
0.013333444883771065 0.04358339812934497
0.013333444883771065 0.15054651703926952
0.0632041035801918 0.15054651703926952
0.0964512093778056 0.09706495758430725
0.0632041035801918 0.07032417785682611
0.013333444883771065 -0.009898161325617313
0.013333444883771065 0.016842618401863827
0.0798276564789987 0.09706495758430725
0.0798276564789987 0.15054651703926952
0.11307476227661252 0.15054651703926952
0.0798276564789987 0.04358339812934497
0.013333444883771065 0.07032417785682611
-0.0032901080150358445 0.04358339812934497
0.0632041035801918 0.2040280764942318
0.11307476227661252 0.2040280764942318
0.12969831517541944 0.28425041567667525
0.0632041035801918 0.12380573731178839
-0.0032901080150358445 0.12380573731178839
-0.019913660913842755 0.23076885622171295
-0.0032901080150358445 0.23076885622171295
0.0632041035801918 0.3377319751316375
0.0632041035801918 0.25750963594919407
-0.0032901080150358445 0.2040280764942318
0.013333444883771065 0.25750963594919407
-0.03653721381264966 0.23076885622171295
-0.0032901080150358445 0.28425041567667525
-0.0032901080150358445 0.3109911954041564
0.029956997782577974 0.23076885622171295
-0.019913660913842755 0.17728729676675067
-0.019913660913842755 0.17728729676675067
-0.06978431961026348 0.17728729676675067
-0.03653721381264966 0.28425041567667525
-0.05316076671145657 0.28425041567667525
-0.0032901080150358445 0.25750963594919407
0.013333444883771065 0.23076885622171295
-0.03653721381264966 0.23076885622171295
-0.0864078725090704 0.28425041567667525
-0.06978431961026348 0.3109911954041564
-0.05316076671145657 0.3377319751316375
-0.019913660913842755 0.3109911954041564
-0.019913660913842755 0.3377319751316375
-0.1196549783066842 0.2040280764942318
-0.1362785312054911 0.25750963594919407
-0.1030314254078773 0.3377319751316375
-0.06978431961026348 0.3644727548591186
0.013333444883771065 0.3377319751316375
-0.03653721381264966 0.3912135345865998
-0.0864078725090704 0.3109911954041564
-0.0864078725090704 0.3109911954041564
-0.1030314254078773 0.4179543143140809
-0.03653721381264966 0.44469509404156204
-0.03653721381264966 0.3377319751316375
-0.0864078725090704 0.3377319751316375
-0.1030314254078773 0.28425041567667525
-0.1196549783066842 0.28425041567667525
-0.06978431961026348 0.3912135345865998
-0.03653721381264966 0.4714358737690432
0.046580550681384884 0.4179543143140809
0.029956997782577974 0.3644727548591186
-0.05316076671145657 0.28425041567667525
-0.0864078725090704 0.3109911954041564
-0.05316076671145657 0.3912135345865998
0.013333444883771065 0.4714358737690432
0.0632041035801918 0.49817665349652435
-0.019913660913842755 0.44469509404156204
-0.03653721381264966 0.3377319751316375
-0.06978431961026348 0.3912135345865998
-0.03653721381264966 0.3377319751316375
0.046580550681384884 0.4179543143140809
0.11307476227661252 0.4179543143140809
0.0964512093778056 0.3912135345865998
-0.019913660913842755 0.3912135345865998
0.013333444883771065 0.3912135345865998
-0.019913660913842755 0.5249174332240055
-0.0032901080150358445 0.6051397724064489
0.029956997782577974 0.6051397724064489
-0.0032901080150358445 0.6051397724064489
-0.0032901080150358445 0.5249174332240055
0.013333444883771065 0.5516582129514866
0.046580550681384884 0.63188055213393
0.0964512093778056 0.6853621115888923
0.11307476227661252 0.63188055213393
0.11307476227661252 0.5516582129514866
0.029956997782577974 0.4179543143140809
0.029956997782577974 0.4714358737690432
0.029956997782577974 0.5249174332240055
0.0632041035801918 0.63188055213393
0.0964512093778056 0.5783989926789678
0.14632186807422634 0.5249174332240055
0.14632186807422634 0.44469509404156204
0.12969831517541944 0.3912135345865998
0.17956897387184015 0.3644727548591186
0.12969831517541944 0.49817665349652435
-0.019913660913842755 0.4714358737690432
0.029956997782577974 0.4179543143140809
0.0798276564789987 0.28425041567667525
0.19619252677064705 0.17728729676675067
0.39567516155633 0.2040280764942318
0.6948991137348544 0.2040280764942318
0.9941230659133786 -0.009898161325617313
1.3930883354847445 -0.1970836194179853
1.841924263752531 -0.3842690775103533
2.456995721008387 -0.7051584342401269
3.171808495657084 -0.9993070112424195
3.83675061160936 -1.106270130152344
4.501692727561636 -1.1864924693347874
5.0668935261210715 -1.0260477909699006
5.332870372501982 -0.7051584342401269
5.266376160906754 -0.143602059963023
4.784293126841354 0.17728729676675067
4.019609693496236 0.4179543143140809
3.0554436253654353 0.49817665349652435
2.0081597927406003 0.7923252304988169
0.9110053014193441 1.193436926411034
-0.03653721381264966 1.6480301817782133
-0.5019966949792432 1.8084748601431002
-0.6017380123720846 1.968919538507987
-0.3690082717887878 1.7015117412331757
-0.20277274280071875 1.3538816047759208
-0.1030314254078773 0.9795106885911848
-0.0032901080150358445 0.7923252304988169
0.0632041035801918 0.7121028913163735
0.0632041035801918 0.6853621115888923
0.029956997782577974 0.6051397724064489
-0.019913660913842755 0.5249174332240055
-0.152902084104298 0.4714358737690432
-0.20277274280071875 0.4714358737690432
-0.20277274280071875 0.5249174332240055
-0.20277274280071875 0.6051397724064489
-0.20277274280071875 0.5783989926789678
-0.21939629569952565 0.5249174332240055
-0.2526434014971395 0.44469509404156204
-0.2858905072947533 0.5249174332240055
-0.3025140601935602 0.6586213318614111
-0.2858905072947533 0.6853621115888923
-0.2526434014971395 0.6853621115888923
-0.2692669543959464 0.6051397724064489
-0.335761165991174 0.6051397724064489
-0.3523847188899809 0.5249174332240055
-0.3025140601935602 0.6051397724064489
-0.23601984859833255 0.6586213318614111
-0.21939629569952565 0.6853621115888923
-0.2692669543959464 0.6051397724064489
-0.3191376130923671 0.49817665349652435
-0.3690082717887878 0.5516582129514866
-0.335761165991174 0.6051397724064489
-0.2858905072947533 0.63188055213393
-0.2858905072947533 0.6051397724064489
-0.3191376130923671 0.49817665349652435
-0.3523847188899809 0.4714358737690432
-0.4188789304852086 0.5516582129514866
-0.2858905072947533 0.5249174332240055
-0.2692669543959464 0.5783989926789678
-0.23601984859833255 0.5249174332240055
-0.3690082717887878 0.49817665349652435
-0.3523847188899809 0.3644727548591186
-0.3523847188899809 0.3377319751316375
-0.3191376130923671 0.4714358737690432
-0.23601984859833255 0.5516582129514866
-0.152902084104298 0.49817665349652435
-0.21939629569952565 0.44469509404156204
-0.2692669543959464 0.3912135345865998
-0.3523847188899809 0.4714358737690432
-0.335761165991174 0.4714358737690432
-0.335761165991174 0.6051397724064489
-0.2526434014971395 0.5516582129514866
-0.2692669543959464 0.49817665349652435
-0.2692669543959464 0.4714358737690432
-0.21939629569952565 0.4179543143140809
-0.20277274280071875 0.44469509404156204
-0.16952563700310494 0.49817665349652435
-0.18614918990191184 0.4714358737690432
-0.20277274280071875 0.3912135345865998
-0.2858905072947533 0.3912135345865998
-0.2858905072947533 0.3644727548591186
-0.2858905072947533 0.49817665349652435
-0.18614918990191184 0.4714358737690432
-0.152902084104298 0.44469509404156204
-0.1196549783066842 0.3377319751316375
-0.152902084104298 0.23076885622171295
-0.1362785312054911 0.2040280764942318
-0.05316076671145657 0.2040280764942318
-0.05316076671145657 0.2040280764942318
-0.03653721381264966 0.17728729676675067
-0.05316076671145657 0.07032417785682611
-0.06978431961026348 -0.009898161325617313
-0.03653721381264966 0.016842618401863827
-0.03653721381264966 0.04358339812934497
0.029956997782577974 0.016842618401863827
0.013333444883771065 -0.06337972078057959
0.013333444883771065 -0.143602059963023
-0.019913660913842755 -0.2773059586004287
-0.0032901080150358445 -0.30404673832790985
0.013333444883771065 -0.2773059586004287
0.046580550681384884 -0.22382439914546642
0.0632041035801918 -0.25056517887294755
0.0632041035801918 -0.35752829778287215
0.013333444883771065 -0.4912321964202778
-0.019913660913842755 -0.4644914166927967
0.11307476227661252 -0.4110098572378344
0.17956897387184015 -0.4377506369653156
0.19619252677064705 -0.4377506369653156
0.12969831517541944 -0.5981953153302024
0.16294542097303324 -0.6249360950576835
0.16294542097303324 -0.5714545356027213
0.17956897387184015 -0.4912321964202778
0.2294396325682609 -0.4377506369653156
0.21281607966945396 -0.4912321964202778
0.2959338441634885 -0.5714545356027213
0.2460631854670678 -0.5447137558752401
0.2959338441634885 -0.517972976147759
0.2626867383658747 -0.4377506369653156
0.36242805575871617 -0.4110098572378344
0.3291809499611023 -0.30404673832790985
0.3458045028599092 -0.33078751805539097
0.2793102912646816 -0.33078751805539097
0.3291809499611023 -0.22382439914546642
0.36242805575871617 -0.11686128023554188
0.3790516086575231 -0.09012050050806074
0.3458045028599092 -0.009898161325617313
0.3125573970622954 -0.06337972078057959
0.2626867383658747 0.016842618401863827
