-0.8354605728684376 1.2657684315119302
-0.8617087777059085 1.2745134457198397
-0.9404533922183212 1.2832584599277492
-0.8879569825433794 1.3094935025514776
-0.7829641631934957 1.3488460664870705
-0.7042195486810829 1.3619635877989347
-0.7042195486810829 1.3794536162147537
-0.7829641631934957 1.4013161517345276
-0.7042195486810829 1.4100611659424371
-0.6779713438436119 1.4406687156701203
-0.6254749341686701 1.4537862369819845
-0.5992267293311991 1.4712762653978035
-0.5204821148187864 1.480021279605713
-0.6254749341686701 1.480021279605713
-0.651723139006141 1.480021279605713
-0.5992267293311991 1.497511308021532
-0.5204821148187864 1.5150013364373511
-0.3629928857939609 1.519373843541306
-0.3629928857939609 1.5106288293333965
-0.31049647611901904 1.497511308021532
-0.3629928857939609 1.4887662938136226
-0.33674468095648996 1.4756487725017584
-0.31049647611901904 1.480021279605713
-0.1792554519316644 1.4494137298780299
-0.1792554519316644 1.4362962085661655
-0.1792554519316644 1.3969436446305727
-0.10051083741925163 1.3488460664870705
-0.12675904225672255 1.3269835309672966
0.004481981930632078 1.300748488343568
0.08322659644304485 1.2526509102000658
0.10947480128051577 1.2176708533684277
0.10947480128051577 1.1739457823288801
0.1357230061179867 1.1171031899774684
0.18821941579292856 1.0952406544576947
0.2669640303053413 1.0471430763141922
0.29321223514281225 0.9946729910667352
0.3194604399802832 0.9422029058192782
0.2407158254678704 0.8766152992599568
0.18821941579292856 0.8154001998045903
0.18821941579292856 0.7760476358689975
0.2669640303053413 0.7366950719334047
0.29321223514281225 0.6929700008938572
0.2669640303053413 0.6536174369582644
0.21446762063039948 0.5967748446068525
0.21446762063039948 0.553049773567305
0.18821941579292856 0.5224422238396217
0.2407158254678704 0.49620718121589313
0.2407158254678704 0.4655996314882099
0.21446762063039948 0.42187456044866234
0.16197121095545763 0.37814948940911475
0.004481981930632078 0.34316943257747673
0.05697839160557393 0.3256794041616577
0.16197121095545763 0.30818937574583866
0.10947480128051577 0.2863268402260649
0.05697839160557393 0.24697427629047208
0.004481981930632078 0.2163667265627888
-0.0742626325817807 0.2076217123548793
-0.021766222906838845 0.19450419104301503
-0.0742626325817807 0.17264165552324126
-0.04801442774430977 0.15515162710742222
-0.021766222906838845 0.15077912000346747
-0.0742626325817807 0.1289165844836937
-0.15300724709419347 0.11142655606787467
-0.12675904225672255 0.11142655606787467
-0.15300724709419347 0.10705404896391993
-0.12675904225672255 0.10268154185996517
-0.12675904225672255 0.09393652765205565
-0.1792554519316644 0.0895640205481009
-0.23175186160660624 0.08081900634019139
-0.2842482712815481 0.07207399213228188
-0.15300724709419347 0.08081900634019139
-0.12675904225672255 0.08519151344414615
-0.20550365676913532 0.06332897792437236
-0.2580000664440772 0.06770148502832712
-0.31049647611901904 0.06332897792437236
-0.2842482712815481 0.07207399213228188
-0.2580000664440772 0.08519151344414615
-0.23175186160660624 0.07644649923623663
-0.2842482712815481 0.06770148502832712
-0.2842482712815481 0.05895647082041761
-0.31049647611901904 0.0502114566125081
-0.2580000664440772 0.054583963716462854
-0.23175186160660624 0.07207399213228188
-0.20550365676913532 0.07207399213228188
-0.20550365676913532 0.07644649923623663
-0.2580000664440772 0.06770148502832712
-0.31049647611901904 0.06332897792437236
-0.31049647611901904 0.06332897792437236
-0.31049647611901904 0.08081900634019139
-0.23175186160660624 0.06770148502832712
-0.23175186160660624 0.08081900634019139
-0.3629928857939609 0.06770148502832712
-0.33674468095648996 0.05895647082041761
-0.33674468095648996 0.06770148502832712
-0.31049647611901904 0.08081900634019139
-0.2580000664440772 0.08519151344414615
-0.2842482712815481 0.07644649923623663
-0.33674468095648996 0.054583963716462854
-0.41548929546890273 0.06332897792437236
-0.41548929546890273 0.06770148502832712
-0.3629928857939609 0.07644649923623663
-0.31049647611901904 0.06770148502832712
-0.3629928857939609 0.06770148502832712
-0.44173750030637365 0.05895647082041761
-0.44173750030637365 0.0502114566125081
-0.3892410906314318 0.05895647082041761
-0.3892410906314318 0.06332897792437236
-0.3892410906314318 0.06770148502832712
-0.3892410906314318 0.05895647082041761
-0.44173750030637365 0.04146644240459859
-0.5204821148187864 0.03709393530064384
-0.5204821148187864 0.04146644240459859
-0.44173750030637365 0.0502114566125081
-0.44173750030637365 0.054583963716462854
-0.4679857051438446 0.04146644240459859
-0.5204821148187864 0.03709393530064384
-0.5467303196562573 0.02397641398877957
-0.5729785244937282 0.03272142819668908
-0.5467303196562573 0.03709393530064384
-0.4942339099813155 0.02397641398877957
-0.4942339099813155 0.02397641398877957
-0.5729785244937282 0.010858892676915304
-0.5729785244937282 -0.006631135738903719
-0.6254749341686701 0.0021138784690057917
-0.5992267293311991 0.010858892676915304
-0.4942339099813155 0.0021138784690057917
-0.5467303196562573 0.0021138784690057917
-0.651723139006141 -0.0022586286349489636
-0.651723139006141 -0.011003642842858475
-0.6779713438436119 -0.011003642842858475
-0.6254749341686701 0.0021138784690057917
-0.5729785244937282 -0.011003642842858475
-0.5729785244937282 -0.011003642842858475
-0.5729785244937282 -0.028493671258677498
-0.6779713438436119 -0.028493671258677498
-0.651723139006141 -0.024121164154722742
-0.6254749341686701 -0.024121164154722742
-0.5729785244937282 -0.028493671258677498
-0.651723139006141 -0.028493671258677498
-0.6779713438436119 -0.04598369967449652
-0.7042195486810829 -0.050356206778451276
-0.7042195486810829 -0.050356206778451276
-0.6779713438436119 -0.04598369967449652
-0.651723139006141 -0.041611192570541765
-0.6779713438436119 -0.050356206778451276
-0.7304677535185539 -0.04598369967449652
-0.7567159583560248 -0.0678462351942703
-0.7567159583560248 -0.050356206778451276
-0.7042195486810829 -0.04598369967449652
-0.651723139006141 -0.04598369967449652
-0.6779713438436119 -0.05472871388240603
-0.7042195486810829 -0.0678462351942703
-0.8354605728684376 -0.06347372809031554
-0.7567159583560248 -0.0678462351942703
-0.7304677535185539 -0.050356206778451276
-0.7304677535185539 -0.050356206778451276
-0.7304677535185539 -0.06347372809031554
-0.7567159583560248 -0.0765912494021798
-0.7829641631934957 -0.06347372809031554
-0.7567159583560248 -0.06347372809031554
-0.7829641631934957 -0.05910122098636078
-0.7829641631934957 -0.06347372809031554
-0.7829641631934957 -0.07221874229822504
-0.7829641631934957 -0.0765912494021798
-0.8092123680309666 -0.07221874229822504
-0.8092123680309666 -0.0678462351942703
-0.7567159583560248 -0.05910122098636078
-0.7567159583560248 -0.06347372809031554
-0.7304677535185539 -0.06347372809031554
-0.8617087777059085 -0.0678462351942703
-0.8354605728684376 -0.07221874229822504
-0.8354605728684376 -0.0765912494021798
-0.7829641631934957 -0.0678462351942703
-0.7567159583560248 -0.05472871388240603
-0.7829641631934957 -0.07221874229822504
-0.7829641631934957 -0.07221874229822504
-0.8354605728684376 -0.08096375650613456
-0.8354605728684376 -0.07221874229822504
-0.7829641631934957 -0.0678462351942703
-0.7567159583560248 -0.06347372809031554
-0.7567159583560248 -0.0765912494021798
-0.7567159583560248 -0.08096375650613456
-0.8354605728684376 -0.08970877071404407
-0.8092123680309666 -0.0765912494021798
-0.7829641631934957 -0.08533626361008932
-0.7304677535185539 -0.08096375650613456
-0.7304677535185539 -0.08096375650613456
-0.7304677535185539 -0.08533626361008932
-0.8092123680309666 -0.08970877071404407
-0.7304677535185539 -0.07221874229822504
-0.7042195486810829 -0.0678462351942703
-0.6779713438436119 -0.0678462351942703
-0.7304677535185539 -0.0765912494021798
-0.7567159583560248 -0.08096375650613456
-0.7567159583560248 -0.08533626361008932
-0.7304677535185539 -0.0765912494021798
-0.7042195486810829 -0.0765912494021798
-0.6779713438436119 -0.07221874229822504
-0.6779713438436119 -0.08096375650613456
-0.651723139006141 -0.08533626361008932
-0.7042195486810829 -0.08533626361008932
-0.7304677535185539 -0.07221874229822504
-0.7304677535185539 -0.06347372809031554
-0.6779713438436119 -0.05472871388240603
-0.5992267293311991 -0.06347372809031554
-0.6779713438436119 -0.05910122098636078
-0.7304677535185539 -0.04598369967449652
-0.7042195486810829 -0.011003642842858475
-0.5729785244937282 0.04583894950855335
-0.44173750030637365 0.1988766981469698
-0.3629928857939609 0.48746216700798367
-0.20550365676913532 0.8154001998045903
0.004481981930632078 0.8941053276757759
0.42445325933016687 0.714832536413631
1.3956368383165911 0.5093247025277574
3.2330111769395558 0.40001202492888854
5.096633720399992 0.36940447520120523
5.752838841336764 0.32130689705770293
4.676662443000457 0.28195433312211016
2.9442809237273755 0.25134678339442684
1.9206009350660096 0.22511174077069832
1.6581188866913004 0.1682691484192865
1.7106152963662422 0.07644649923623663
1.736863501203713 -0.04598369967449652
1.7106152963662422 -0.20776646252082248
1.736863501203713 -0.3564317040552841
1.815608115716126 -0.5269594811095196
1.8681045253910677 -0.7237223007874836
1.9468491399034804 -0.9073675991535833
2.104338368928306 -1.073522869103864
2.025593754415893 -1.2134430964304161
2.0518419592533643 -1.340245802445104
2.1305865737657768 -1.4451859729400183
2.0518419592533643 -1.5894787073705252
2.025593754415893 -1.7512614702168512
1.9993455495784223 -1.9349067685829509
1.8943527302285386 -2.0791995030134576
1.763111706041184 -2.1928846877162815
1.6843670915287712 -2.2628448013795577
1.6056224770163585 -2.3502949434586524
1.448133247991533 -2.415882550017974
1.2381476092917656 -2.4989601849931145
0.9231691512421144 -2.555802777344526
0.7394317173798179 -2.6039003554880282
0.5819424883549924 -2.608272862591983
0.29321223514281225 -2.630135398111757
0.05697839160557393 -2.66074294783944
-0.3629928857939609 -2.6782329762552592
-0.7042195486810829 -2.686977990463169
-1.1766872357555596 -2.682605483359214
-1.5441621034801525 -2.682605483359214
-1.8853887663672746 -2.6782329762552592
-1.9641333808796873 -2.682605483359214
-1.9378851760422164 -2.6782329762552592
-1.7278995373424488 -2.6782329762552592
-1.5441621034801525 -2.6563704407354853
-1.334176464780385 -2.6039003554880282
-1.2029354405930304 -2.542685256032662
-1.1504390309180885 -2.4639801281614764
-1.1766872357555596 -2.376529986082381
-1.2554318502679722 -2.267217308483512
-1.2554318502679722 -2.1316695882609147
-1.2029354405930304 -2.000494375142272
-1.1241908260806177 -1.8518291336078105
-1.019198006730734 -1.6900463707614846
-0.9404533922183212 -1.537008622123068
-0.9142051873808503 -1.3664808450688326
-0.7567159583560248 -1.1740905324948234
-0.7042195486810829 -0.9948177412326784
-0.6779713438436119 -0.8024274286586692
-0.8092123680309666 -0.6493896800202528
-0.9667015970557922 -0.5007244384857911
-1.0454462115682048 -0.34768668984737466
-1.1241908260806177 -0.1946489412089582
-1.2291836454305014 -0.05472871388240603
-1.2291836454305014 0.07207399213228188
-1.307928259942914 0.18138666973115075
-1.386672874455327 0.29944436153792914
-1.5179138986426814 0.40875703913679806
-1.4391692841302688 0.48746216700798367
-1.360424669617856 0.5574222806712598
-1.2816800551054432 0.5967748446068525
-1.307928259942914 0.6361274085424453
-1.334176464780385 0.6492449298543096
-1.4391692841302688 0.6842249866859477
-1.386672874455327 0.714832536413631
-1.360424669617856 0.7410675790373594
-1.2816800551054432 0.7716751287650427
-1.307928259942914 0.784792650076907
-1.386672874455327 0.7891651571808618
-1.334176464780385 0.8110276927006356
-1.334176464780385 0.8328902282204094
-1.334176464780385 0.8634977779480926
-1.2554318502679722 0.8853603134678664
-1.334176464780385 0.8897328205718211
-1.360424669617856 0.9028503418836854
-1.386672874455327 0.9159678631955497
-1.360424669617856 0.9422029058192782
-1.360424669617856 0.9728104555469615
-1.334176464780385 0.9946729910667352
-1.334176464780385 1.0034180052746449
-1.360424669617856 1.020908033690464
-1.4391692841302688 1.038398062106283
-1.360424669617856 1.0733781189379208
-1.386672874455327 1.0908681473537398
-1.307928259942914 1.1214756970814233
-1.334176464780385 1.1389657254972423
-1.334176464780385 1.160828261017016
-1.4391692841302688 1.1695732752249255
-1.386672874455327 1.2001808249526087
-1.4129210792927978 1.2307883746802921
-1.2816800551054432 1.2439058959921563
-1.360424669617856 1.2701409386158848
-1.360424669617856 1.2876309670317039
-1.4129210792927978 1.3138660096554324
-1.386672874455327 1.3313560380712515
-1.334176464780385 1.3707086020068442
-1.307928259942914 1.3881986304226632
-1.307928259942914 1.4056886588384823
-1.2816800551054432 1.4231786872543013
-1.360424669617856 1.4494137298780299
-1.2816800551054432 1.466903758293849
-1.2291836454305014 1.501883815125487
-1.2029354405930304 1.5324913648531702
-1.2291836454305014 1.536863871957125
-1.2029354405930304 1.5499813932689892
-1.2291836454305014 1.5630989145808534
-1.1241908260806177 1.589333957204582
-1.0979426212431467 1.606823985620401
-0.9929498018932631 1.6199415069322654
-0.9929498018932631 1.6286865211401749
-0.9667015970557922 1.62431401403622
-1.019198006730734 1.6155689998283105
-0.9404533922183212 1.6199415069322654
-0.8092123680309666 1.6286865211401749
-0.6779713438436119 1.606823985620401
-0.6779713438436119 1.589333957204582
-0.651723139006141 1.5630989145808534
-0.7042195486810829 1.5456088861650346
-0.5467303196562573 1.5150013364373511
-0.5467303196562573 1.497511308021532
-0.4679857051438446 1.462531251189894
-0.3892410906314318 1.4231786872543013
-0.33674468095648996 1.3794536162147537
-0.41548929546890273 1.3313560380712515
-0.33674468095648996 1.2832584599277492
-0.23175186160660624 1.2351608817842468
-0.1792554519316644 1.1870633036407445
-0.20550365676913532 1.125848204185378
-0.15300724709419347 1.0646331047300113
-0.1792554519316644 1.016535526586509
-0.20550365676913532 0.964065441339052
-0.021766222906838845 0.9203403702995044
0.004481981930632078 0.8722427921560021
0.004481981930632078 0.8110276927006356
0.004481981930632078 0.7541851003492237
-0.0742626325817807 0.6929700008938572
-0.021766222906838845 0.6536174369582644
-0.04801442774430977 0.6142648730226715
0.030730186768103 0.570539801983124
-0.021766222906838845 0.5311872380475312
-0.021766222906838845 0.48746216700798367
-0.12675904225672255 0.4393645888644813
-0.12675904225672255 0.42624706755261704
-0.04801442774430977 0.4043845320328433
-0.0742626325817807 0.36503196809725047
-0.0742626325817807 0.33005191126561245
-0.15300724709419347 0.30818937574583866
-0.1792554519316644 0.27320931891420064
-0.1792554519316644 0.26009179760233636
-0.15300724709419347 0.2382292620825626
-0.12675904225672255 0.22073923366674356
-0.1792554519316644 0.19450419104301503
-0.31049647611901904 0.17701416262719602
-0.31049647611901904 0.15952413421137698
-0.31049647611901904 0.14640661289951273
-0.23175186160660624 0.14640661289951273
-0.20550365676913532 0.14203410579555797
-0.23175186160660624 0.12454407737973894
-0.2842482712815481 0.10268154185996517
-0.3892410906314318 0.09830903475601041
-0.31049647611901904 0.09393652765205565
-0.2580000664440772 0.10268154185996517
-0.2842482712815481 0.09393652765205565
-0.2580000664440772 0.09830903475601041
-0.33674468095648996 0.07644649923623663
-0.4679857051438446 0.07644649923623663
-0.4679857051438446 0.08081900634019139
-0.3629928857939609 0.08081900634019139
-0.3629928857939609 0.08519151344414615
-0.31049647611901904 0.07644649923623663
-0.3629928857939609 0.07644649923623663
-0.44173750030637365 0.07207399213228188
-0.3629928857939609 0.07207399213228188
-0.3892410906314318 0.08519151344414615
-0.31049647611901904 0.08081900634019139
-0.2842482712815481 0.07644649923623663
-0.3629928857939609 0.07207399213228188
-0.41548929546890273 0.07207399213228188
-0.41548929546890273 0.07207399213228188
-0.3629928857939609 0.0895640205481009
-0.33674468095648996 0.08519151344414615
-0.3629928857939609 0.07644649923623663
-0.41548929546890273 0.07207399213228188
-0.44173750030637365 0.06770148502832712
-0.3892410906314318 0.07644649923623663
-0.3629928857939609 0.08519151344414615
-0.3892410906314318 0.0895640205481009
-0.33674468095648996 0.07644649923623663
-0.3892410906314318 0.07207399213228188
-0.44173750030637365 0.06770148502832712
-0.41548929546890273 0.07207399213228188
-0.44173750030637365 0.08519151344414615
-0.33674468095648996 0.08519151344414615
-0.3892410906314318 0.08081900634019139
-0.41548929546890273 0.06332897792437236
-0.4679857051438446 0.06332897792437236
-0.5204821148187864 0.06332897792437236
-0.4679857051438446 0.06332897792437236
-0.3892410906314318 0.05895647082041761
-0.44173750030637365 0.0502114566125081
-0.5204821148187864 0.054583963716462854
-0.5467303196562573 0.0502114566125081
-0.5467303196562573 0.05895647082041761
-0.5467303196562573 0.054583963716462854
-0.4942339099813155 0.0502114566125081
-0.5204821148187864 0.054583963716462854
-0.5992267293311991 0.03272142819668908
-0.5992267293311991 0.028348921092734323
-0.6779713438436119 0.03272142819668908
-0.5992267293311991 0.04146644240459859
-0.5729785244937282 0.03272142819668908
-0.5467303196562573 0.03272142819668908
-0.5992267293311991 0.006486385572960547
-0.651723139006141 -0.0022586286349489636
-0.651723139006141 0.010858892676915304
-0.5992267293311991 0.019603906884824815
-0.5467303196562573 0.015231399780870057
-0.5992267293311991 0.0021138784690057917
-0.651723139006141 -0.006631135738903719
-0.6779713438436119 -0.006631135738903719
-0.6779713438436119 -0.01537614994681323
-0.6254749341686701 -0.006631135738903719
-0.651723139006141 -0.0022586286349489636
-0.6254749341686701 -0.011003642842858475
-0.651723139006141 -0.019748657050767986
-0.7042195486810829 -0.028493671258677498
-0.6779713438436119 -0.024121164154722742
-0.7042195486810829 -0.01537614994681323
-0.6779713438436119 -0.024121164154722742
-0.6254749341686701 -0.024121164154722742
-0.6779713438436119 -0.037238685466587006
-0.7567159583560248 -0.050356206778451276
-0.7567159583560248 -0.04598369967449652
-0.6779713438436119 -0.03286617836263225
-0.651723139006141 -0.04598369967449652
-0.7042195486810829 -0.041611192570541765
-0.7042195486810829 -0.05472871388240603
-0.8092123680309666 -0.05910122098636078
-0.7304677535185539 -0.050356206778451276
-0.7304677535185539 -0.04598369967449652
-0.651723139006141 -0.050356206778451276
-0.6779713438436119 -0.05910122098636078
-0.7304677535185539 -0.05910122098636078
-0.7304677535185539 -0.06347372809031554
-0.7829641631934957 -0.06347372809031554
-0.7042195486810829 -0.04598369967449652
-0.651723139006141 -0.05910122098636078
-0.651723139006141 -0.06347372809031554
-0.7042195486810829 -0.0678462351942703
-0.7567159583560248 -0.06347372809031554
-0.7304677535185539 -0.06347372809031554
-0.7567159583560248 -0.050356206778451276
-0.6779713438436119 -0.050356206778451276
-0.651723139006141 -0.06347372809031554
-0.7042195486810829 -0.07221874229822504
-0.8092123680309666 -0.0678462351942703
-0.7567159583560248 -0.07221874229822504
-0.6779713438436119 -0.0678462351942703
-0.651723139006141 -0.06347372809031554
-0.651723139006141 -0.0765912494021798
-0.7304677535185539 -0.08533626361008932
-0.7829641631934957 -0.08970877071404407
-0.7567159583560248 -0.08096375650613456
-0.6254749341686701 -0.0678462351942703
-0.651723139006141 -0.07221874229822504
-0.651723139006141 -0.0765912494021798
-0.651723139006141 -0.08533626361008932
-0.7567159583560248 -0.08096375650613456
-0.7304677535185539 -0.08533626361008932
-0.7042195486810829 -0.0678462351942703
-0.6779713438436119 -0.07221874229822504
-0.651723139006141 -0.0765912494021798
-0.651723139006141 -0.08096375650613456
-0.7567159583560248 -0.08096375650613456
-0.6779713438436119 -0.08096375650613456
-0.6779713438436119 -0.07221874229822504
-0.5467303196562573 -0.0765912494021798
-0.5992267293311991 -0.0765912494021798
-0.5992267293311991 -0.08533626361008932
-0.651723139006141 -0.09408127781799883
-0.6254749341686701 -0.08533626361008932
-0.5729785244937282 -0.0765912494021798
-0.5204821148187864 -0.08096375650613456
-0.5992267293311991 -0.08096375650613456
-0.651723139006141 -0.08970877071404407
-0.651723139006141 -0.08533626361008932
-0.5992267293311991 -0.08533626361008932
-0.5729785244937282 -0.07221874229822504
-0.5204821148187864 -0.07221874229822504
-0.5204821148187864 -0.07221874229822504
-0.5729785244937282 -0.0765912494021798
-0.5992267293311991 -0.08096375650613456
-0.5204821148187864 -0.0765912494021798
-0.5204821148187864 -0.050356206778451276
-0.44173750030637365 -0.028493671258677498
-0.41548929546890273 0.015231399780870057
-0.3892410906314318 0.14203410579555797
-0.2842482712815481 0.4655996314882099
-0.04801442774430977 0.7585576074531785
0.21446762063039948 0.7498125932452689
0.8969209464046435 0.5180697167356669
2.156834778603248 0.3475419396814315
4.125450141413567 0.27320931891420064
5.385363973612171 0.24260176918651735
4.8866480817002245 0.22073923366674356
3.442996815639323 0.17264165552324126
2.2093311882781896 0.11142655606787467
1.8418563205535967 0.028348921092734323
1.7893599108786549 -0.08533626361008932
1.8418563205535967 -0.22088398383268673
1.8681045253910677 -0.3520591969513294
1.9730973447409514 -0.5138419597976553
2.025593754415893 -0.6799972297479361
1.9730973447409514 -0.8680150352179905
1.9730973447409514 -1.0516603335840902
1.9468491399034804 -1.200325575118552
1.9730973447409514 -1.340245802445104
1.9993455495784223 -1.4583034942518824
1.9730973447409514 -1.5982237215784347
1.815608115716126 -1.7556339773208058
1.8681045253910677 -1.9174167401671318
1.7893599108786549 -2.0966895314292766
1.8943527302285386 -2.2060022090281457
1.7893599108786549 -2.289079844003286
1.6843670915287712 -2.3721574789784263
1.5268778625039456 -2.4421175926417025
1.2643958141292364 -2.525195227616843
0.9756655609170563 -2.5864103270722096
0.6869353077048761 -2.617017876799893
0.5294460786800506 -2.630135398111757
0.21446762063039948 -2.643252919423621
-0.04801442774430977 -2.665115454943395
-0.41548929546890273 -2.6913504975671234
-0.7567159583560248 -2.686977990463169
-1.1766872357555596 -2.6957230046710783
-1.5441621034801525 -2.686977990463169
-1.701651332504978 -2.700095511775033
-1.780395947017391 -2.6957230046710783
-1.7278995373424488 -2.704468018878988
-1.5179138986426814 -2.686977990463169
-1.360424669617856 -2.6563704407354853
-1.2291836454305014 -2.625762891007802
-1.1766872357555596 -2.5820378199682548
-1.1766872357555596 -2.503332692097069
-1.307928259942914 -2.4071375358100644
-1.334176464780385 -2.293452351107241
-1.334176464780385 -2.1447871095727793
-1.2291836454305014 -1.987376853830408
-0.9929498018932631 -1.8168490767761725
-0.8879569825433794 -1.6244587642021633
-0.8092123680309666 -1.4320684516281539
-0.7304677535185539 -1.2134430964304161
-0.5992267293311991 -0.9860727270247689
-0.5467303196562573 -0.7936824144507597
-0.6254749341686701 -0.6100371160846599
-0.6779713438436119 -0.4395093390304245
-0.7304677535185539 -0.2777265761840986
-0.8617087777059085 -0.12906133464963687
-0.8354605728684376 0.019603906884824815
-0.8354605728684376 0.14640661289951273
-0.8092123680309666 0.2688368118102459
-0.7829641631934957 0.37377698230516
-0.8879569825433794 0.4437370959684361
-0.8354605728684376 0.5049521954238027
-0.7829641631934957 0.5661672948791693
-0.7567159583560248 0.5967748446068525
-0.651723139006141 0.6361274085424453
-0.651723139006141 0.6842249866859477
-0.6779713438436119 0.714832536413631
-0.7829641631934957 0.7323225648294499
-0.7829641631934957 0.767302621661088
-0.7829641631934957 0.7935376642848165
-0.7042195486810829 0.8154001998045903
-0.8092123680309666 0.8241452140124998
-0.8879569825433794 0.8416352424283189
-0.9404533922183212 0.8460077495322735
-0.9667015970557922 0.8722427921560021
-0.8879569825433794 0.9028503418836854
-0.9142051873808503 0.9115953560915949
-0.8879569825433794 0.9247128774034592
-0.9929498018932631 0.9334578916113687
-1.0979426212431467 0.9422029058192782
-1.0716944164056759 0.9684379484430068
-1.0454462115682048 0.9859279768588257
-1.0716944164056759 0.9946729910667352
-1.0716944164056759 1.0121630194825544
-1.1504390309180885 1.020908033690464
-1.2554318502679722 1.038398062106283
-1.2291836454305014 1.0602605976260566
-1.2291836454305014 1.0996131615616493
-1.1241908260806177 1.1127306828735137
-1.1504390309180885 1.1345932183932874
-1.1766872357555596 1.1345932183932874
-1.2554318502679722 1.1652007681209708
-1.307928259942914 1.1914358107446992
-1.2029354405930304 1.2307883746802921
-1.1766872357555596 1.2526509102000658
-1.2816800551054432 1.2701409386158848
-1.307928259942914 1.2963759812396134
-1.2554318502679722 1.318238516759387
-1.2816800551054432 1.3444735593831156
-1.1241908260806177 1.3794536162147537
-1.0979426212431467 1.4144336730463918
-1.0979426212431467 1.4319237014622108
-1.0979426212431467 1.4537862369819845
-1.2029354405930304 1.462531251189894
-1.2554318502679722 1.4931388009175774
-1.0979426212431467 1.519373843541306
-1.019198006730734 1.5456088861650346
-0.9142051873808503 1.571843928788763
-0.9142051873808503 1.571843928788763
-0.9142051873808503 1.5937064643085368
-0.7829641631934957 1.5937064643085368
-0.7304677535185539 1.6111964927243558
-0.651723139006141 1.6199415069322654
-0.5992267293311991 1.6155689998283105
-0.5992267293311991 1.589333957204582
-0.5992267293311991 1.5762164358927178
-0.5467303196562573 1.5630989145808534
-0.44173750030637365 1.5630989145808534
-0.31049647611901904 1.5412363790610797
-0.2580000664440772 1.5062563222294416
-0.20550365676913532 1.4712762653978035
-0.2580000664440772 1.4231786872543013
-0.12675904225672255 1.3881986304226632
-0.04801442774430977 1.35759108069498
0.10947480128051577 1.3094935025514776
0.2407158254678704 1.2526509102000658
0.1357230061179867 1.1870633036407445
0.1357230061179867 1.1302207112893328
0.2407158254678704 1.0864956402497852
0.3194604399802832 1.0471430763141922
0.3194604399802832 0.981555469754871
0.42445325933016687 0.929085384507414
0.371956849655225 0.8416352424283189
0.29321223514281225 0.7979101713887713
0.371956849655225 0.7585576074531785
0.42445325933016687 0.7060875222057215
0.4507014641676378 0.6579899440622191
0.42445325933016687 0.6011473517108072
0.2669640303053413 0.553049773567305
0.2407158254678704 0.5049521954238027
0.3194604399802832 0.4743446456961194
0.3194604399802832 0.43499208176052656
0.371956849655225 0.391267010720979
0.42445325933016687 0.3606594609932957
0.3194604399802832 0.3256794041616577
0.2669640303053413 0.2863268402260649
0.2669640303053413 0.2688368118102459
0.3194604399802832 0.26009179760233636
0.3194604399802832 0.22511174077069832
0.21446762063039948 0.2163667265627888
0.16197121095545763 0.1857591768351055
0.08322659644304485 0.1682691484192865
0.08322659644304485 0.15077912000346747
0.08322659644304485 0.15515162710742222
0.05697839160557393 0.14203410579555797
0.05697839160557393 0.13766159869160322
0.004481981930632078 0.11142655606787467
-0.12675904225672255 0.10705404896391993
-0.04801442774430977 0.11142655606787467
-0.021766222906838845 0.11142655606787467
-0.10051083741925163 0.10268154185996517
-0.0742626325817807 0.09830903475601041
-0.1792554519316644 0.0895640205481009
-0.1792554519316644 0.08081900634019139
-0.15300724709419347 0.0895640205481009
-0.04801442774430977 0.10268154185996517
-0.021766222906838845 0.0895640205481009
0.030730186768103 0.0895640205481009
0.004481981930632078 0.07207399213228188
-0.021766222906838845 0.07207399213228188
-0.021766222906838845 0.0895640205481009
0.030730186768103 0.09830903475601041
0.004481981930632078 0.0895640205481009
-0.04801442774430977 0.0895640205481009
-0.10051083741925163 0.08519151344414615
-0.20550365676913532 0.08081900634019139
-0.1792554519316644 0.08081900634019139
-0.10051083741925163 0.09393652765205565
-0.021766222906838845 0.0895640205481009
0.004481981930632078 0.08519151344414615
-0.0742626325817807 0.07644649923623663
-0.1792554519316644 0.07207399213228188
-0.23175186160660624 0.07644649923623663
-0.1792554519316644 0.08519151344414615
-0.20550365676913532 0.0895640205481009
-0.23175186160660624 0.07207399213228188
-0.20550365676913532 0.06332897792437236
-0.2842482712815481 0.05895647082041761
-0.23175186160660624 0.07644649923623663
-0.12675904225672255 0.08081900634019139
-0.12675904225672255 0.07644649923623663
-0.0742626325817807 0.06770148502832712
-0.1792554519316644 0.06332897792437236
-0.23175186160660624 0.06332897792437236
-0.23175186160660624 0.054583963716462854
-0.23175186160660624 0.06332897792437236
-0.12675904225672255 0.06770148502832712
-0.20550365676913532 0.054583963716462854
-0.2580000664440772 0.0502114566125081
-0.23175186160660624 0.03272142819668908
-0.20550365676913532 0.0502114566125081
-0.20550365676913532 0.04146644240459859
-0.1792554519316644 0.03709393530064384
-0.23175186160660624 0.03709393530064384
-0.2580000664440772 0.010858892676915304
-0.31049647611901904 0.010858892676915304
-0.33674468095648996 0.019603906884824815
-0.33674468095648996 0.03272142819668908
-0.33674468095648996 0.015231399780870057
-0.31049647611901904 0.006486385572960547
-0.33674468095648996 -0.0022586286349489636
-0.3629928857939609 -0.006631135738903719
-0.31049647611901904 -0.0022586286349489636
-0.31049647611901904 0.0021138784690057917
-0.23175186160660624 -0.006631135738903719
-0.20550365676913532 -0.01537614994681323
-0.2842482712815481 -0.019748657050767986
-0.3892410906314318 -0.028493671258677498
-0.3892410906314318 -0.024121164154722742
-0.3629928857939609 -0.01537614994681323
-0.3629928857939609 -0.024121164154722742
-0.3629928857939609 -0.037238685466587006
-0.31049647611901904 -0.050356206778451276
-0.3892410906314318 -0.04598369967449652
-0.4679857051438446 -0.04598369967449652
-0.3892410906314318 -0.03286617836263225
-0.3892410906314318 -0.03286617836263225
-0.41548929546890273 -0.041611192570541765
-0.44173750030637365 -0.05910122098636078
-0.4679857051438446 -0.06347372809031554
-0.5467303196562573 -0.050356206778451276
-0.44173750030637365 -0.05472871388240603
-0.3629928857939609 -0.05472871388240603
-0.41548929546890273 -0.05472871388240603
-0.41548929546890273 -0.06347372809031554
-0.41548929546890273 -0.07221874229822504
-0.3892410906314318 -0.0678462351942703
-0.3892410906314318 -0.06347372809031554
-0.33674468095648996 -0.07221874229822504
-0.3629928857939609 -0.0678462351942703
-0.4942339099813155 -0.07221874229822504
-0.651723139006141 -0.0765912494021798
-0.7042195486810829 -0.0765912494021798
-0.651723139006141 -0.07221874229822504
-0.44173750030637365 -0.07221874229822504
-0.33674468095648996 -0.0765912494021798
-0.2580000664440772 -0.08533626361008932
-0.2842482712815481 -0.08096375650613456
-0.33674468095648996 -0.08096375650613456
-0.33674468095648996 -0.0678462351942703
-0.31049647611901904 -0.0765912494021798
-0.3629928857939609 -0.08096375650613456
-0.44173750030637365 -0.09408127781799883
-0.5729785244937282 -0.08970877071404407
-0.4942339099813155 -0.08533626361008932
-0.4679857051438446 -0.08096375650613456
-0.3629928857939609 -0.09408127781799883
-0.3629928857939609 -0.08970877071404407
-0.3629928857939609 -0.09845378492195359
-0.5204821148187864 -0.09845378492195359
-0.41548929546890273 -0.10282629202590834
-0.3629928857939609 -0.08533626361008932
-0.20550365676913532 -0.08533626361008932
-0.20550365676913532 -0.08970877071404407
-0.2580000664440772 -0.09408127781799883
-0.2842482712815481 -0.09408127781799883
-0.31049647611901904 -0.08533626361008932
-0.33674468095648996 -0.08096375650613456
-0.31049647611901904 -0.08533626361008932
-0.3892410906314318 -0.08970877071404407
-0.41548929546890273 -0.10282629202590834
-0.3892410906314318 -0.10282629202590834
-0.33674468095648996 -0.09845378492195359
-0.2842482712815481 -0.08970877071404407
-0.2842482712815481 -0.10282629202590834
-0.2842482712815481 -0.09845378492195359
-0.3629928857939609 -0.09845378492195359
-0.4679857051438446 -0.10719879912986309
-0.5204821148187864 -0.10282629202590834
-0.5729785244937282 -0.08970877071404407
-0.44173750030637365 -0.08970877071404407
-0.2842482712815481 -0.10282629202590834
-0.23175186160660624 -0.09845378492195359
-0.0742626325817807 -0.09845378492195359
-0.04801442774430977 -0.08970877071404407
-0.0742626325817807 -0.08096375650613456
-0.12675904225672255 -0.08096375650613456
-0.20550365676913532 -0.07221874229822504
-0.2580000664440772 -0.0678462351942703
-0.2580000664440772 -0.037238685466587006
-0.15300724709419347 0.04583894950855335
-0.10051083741925163 0.2688368118102459
-0.021766222906838845 0.605519858814762
0.1357230061179867 0.8197727069085451
0.39820505449269594 0.6842249866859477
0.9756655609170563 0.4393645888644813
2.6817988753526665 0.29944436153792914
4.834151672025282 0.2688368118102459
5.647846021986881 0.22511174077069832
4.597917828488044 0.17701416262719602
2.891784514052434 0.10268154185996517
1.9730973447409514 0.0021138784690057917
1.9206009350660096 -0.10282629202590834
2.078090164090835 -0.234001505144551
2.2355793931156605 -0.39578426799087696
2.2093311882781896 -0.5706845521490672
2.156834778603248 -0.7718198789309859
2.104338368928306 -0.9554651772970857
2.104338368928306 -1.1128754330394568
2.183082983440719 -1.2440506461580996
2.2618275979531317 -1.379598366380697
2.3143240076280733 -1.5107735794993395
2.2355793931156605 -1.6769288494496204
2.1305865737657768 -1.8474566265038557
2.078090164090835 -2.0311019248699553
1.9993455495784223 -2.1491596166767337
1.8681045253910677 -2.249727280067693
1.6318706818538293 -2.328432407938879
1.36938863347912 -2.4202550571219286
1.08065838026694 -2.5077051992010237
0.7919281270547598 -2.5689202986563906
0.5819424883549924 -2.590782834176164
0.371956849655225 -2.612645369695938
0.1357230061179867 -2.643252919423621
-0.1792554519316644 -2.6782329762552592
-0.5467303196562573 -2.6957230046710783
-0.9929498018932631 -2.700095511775033
-1.4391692841302688 -2.6957230046710783
-1.8591405615298036 -2.700095511775033
-2.147870814741984 -2.7088405259829424
-2.3316082486042804 -2.704468018878988
-2.2528636340918675 -2.704468018878988
-2.121622609904513 -2.6738604691513044
-1.9116369712047454 -2.6388804123196663
-1.780395947017391 -2.5689202986563906
-1.780395947017391 -2.4989601849931145
-1.8328923566923327 -2.398392521602155
-1.8591405615298036 -2.275962322691422
-1.701651332504978 -2.1185520669490505
-1.4391692841302688 -1.9567693041027245
-1.1766872357555596 -1.7600064844247607
-1.019198006730734 -1.5544986505388871
-0.9142051873808503 -1.340245802445104
-0.8354605728684376 -1.1259929543513212
-0.7567159583560248 -0.8942500778417191
-0.7567159583560248 -0.6843697368518908
-0.6779713438436119 -0.5007244384857911
-0.6779713438436119 -0.3127066330157366
-0.7042195486810829 -0.14655136306545588
-0.8617087777059085 -0.011003642842858475
-0.8617087777059085 0.14640661289951273
-0.7829641631934957 0.2906993473300197
-0.7304677535185539 0.4043845320328433
-0.5992267293311991 0.4918346741119384
-0.5467303196562573 0.553049773567305
-0.4679857051438446 0.5967748446068525
-0.33674468095648996 0.6492449298543096
-0.2580000664440772 0.6798524795819929
-0.20550365676913532 0.7192050435175856
-0.33674468095648996 0.7454400861413142
-0.3892410906314318 0.7541851003492237
-0.3892410906314318 0.7716751287650427
-0.23175186160660624 0.802282678492726
-0.10051083741925163 0.8154001998045903
-0.021766222906838845 0.8197727069085451
-0.0742626325817807 0.8328902282204094
-0.20550365676913532 0.8416352424283189
-0.2580000664440772 0.8503802566362283
-0.1792554519316644 0.8766152992599568
-0.15300724709419347 0.8809878063639116
-0.021766222906838845 0.8853603134678664
0.004481981930632078 0.8984778347797306
-0.021766222906838845 0.9028503418836854
-0.0742626325817807 0.9072228489876402
-0.10051083741925163 0.9203403702995044
-0.12675904225672255 0.9422029058192782
-0.15300724709419347 0.9553204271311425
-0.04801442774430977 0.9684379484430068
-0.0742626325817807 0.9859279768588257
-0.0742626325817807 1.0077905123785995
-0.021766222906838845 1.051515583418147
0.004481981930632078 1.0864956402497852
-0.0742626325817807 1.0908681473537398
-0.12675904225672255 1.1083581757695589
-0.33674468095648996 1.1171031899774684
-0.3629928857939609 1.1389657254972423
-0.3892410906314318 1.1739457823288801
-0.3892410906314318 1.195808317848654
-0.41548929546890273 1.2264158675763372
-0.41548929546890273 1.2395333888882016
-0.3892410906314318 1.2395333888882016
-0.3892410906314318 1.2745134457198397
-0.3892410906314318 1.300748488343568
-0.3629928857939609 1.3357285451752061
-0.3892410906314318 1.35759108069498
-0.3629928857939609 1.375081109110799
-0.41548929546890273 1.3794536162147537
-0.4942339099813155 1.392571137526618
-0.41548929546890273 1.4056886588384823
-0.31049647611901904 1.4362962085661655
-0.2580000664440772 1.4494137298780299
-0.1792554519316644 1.4537862369819845
-0.12675904225672255 1.4494137298780299
-0.12675904225672255 1.462531251189894
-0.12675904225672255 1.462531251189894
-0.04801442774430977 1.4712762653978035
0.030730186768103 1.462531251189894
0.08322659644304485 1.4581587440859394
0.004481981930632078 1.4406687156701203
-0.021766222906838845 1.4100611659424371
0.08322659644304485 1.3969436446305727
0.21446762063039948 1.3794536162147537
0.3194604399802832 1.35759108069498
0.3457086448177541 1.318238516759387
0.42445325933016687 1.2657684315119302
0.42445325933016687 1.2264158675763372
0.5294460786800506 1.1870633036407445
0.6606871028674052 1.1389657254972423
0.7394317173798179 1.0864956402497852
0.7919281270547598 1.038398062106283
0.6869353077048761 0.981555469754871
0.6869353077048761 0.929085384507414
0.713183512542347 0.8809878063639116
0.8444245367297016 0.8372627353243641
0.8181763318922307 0.784792650076907
0.8444245367297016 0.7366950719334047
0.8444245367297016 0.6798524795819929
0.6869353077048761 0.6273823943345358
0.7656799222172889 0.588029830398943
0.7394317173798179 0.5574222806712598
0.713183512542347 0.5136972096317122
0.6869353077048761 0.4655996314882099
0.713183512542347 0.4306195746565718
0.5819424883549924 0.3825219965130695
0.6869353077048761 0.3606594609932957
0.713183512542347 0.34316943257747673
0.6344388980299343 0.3125618828497934
0.6081906931924633 0.2906993473300197
0.5556942835175215 0.2644643047062911
0.39820505449269594 0.23385675497860783
0.371956849655225 0.2163667265627888
0.4507014641676378 0.1988766981469698
0.4769496690051087 0.19013168393906027
0.5031978738425796 0.17264165552324126
0.39820505449269594 0.14640661289951273
0.3457086448177541 0.13766159869160322
0.3194604399802832 0.12454407737973894
0.3194604399802832 0.13766159869160322
0.3457086448177541 0.13328909158764846
0.29321223514281225 0.12454407737973894
0.2407158254678704 0.10705404896391993
0.2407158254678704 0.10705404896391993
0.21446762063039948 0.10268154185996517
0.29321223514281225 0.11142655606787467
0.3194604399802832 0.11142655606787467
0.2669640303053413 0.10705404896391993
0.2407158254678704 0.0895640205481009
0.16197121095545763 0.0895640205481009
0.18821941579292856 0.10268154185996517
0.21446762063039948 0.10268154185996517
0.21446762063039948 0.09393652765205565
0.21446762063039948 0.0895640205481009
0.18821941579292856 0.08519151344414615
0.10947480128051577 0.07644649923623663
0.1357230061179867 0.08519151344414615
0.16197121095545763 0.10705404896391993
0.21446762063039948 0.09830903475601041
0.16197121095545763 0.09830903475601041
0.08322659644304485 0.09393652765205565
0.10947480128051577 0.08519151344414615
0.10947480128051577 0.09393652765205565
0.18821941579292856 0.10705404896391993
0.16197121095545763 0.09830903475601041
0.16197121095545763 0.0895640205481009
0.08322659644304485 0.08519151344414615
0.05697839160557393 0.07644649923623663
0.030730186768103 0.09393652765205565
0.08322659644304485 0.09830903475601041
0.10947480128051577 0.0895640205481009
0.16197121095545763 0.09393652765205565
0.08322659644304485 0.07644649923623663
-0.021766222906838845 0.06770148502832712
-0.021766222906838845 0.08081900634019139
0.05697839160557393 0.08081900634019139
0.030730186768103 0.08081900634019139
0.004481981930632078 0.08081900634019139
-0.021766222906838845 0.08081900634019139
-0.0742626325817807 0.06770148502832712
-0.04801442774430977 0.07644649923623663
-0.021766222906838845 0.08519151344414615
-0.021766222906838845 0.08081900634019139
-0.0742626325817807 0.08081900634019139
-0.10051083741925163 0.05895647082041761
-0.15300724709419347 0.05895647082041761
-0.15300724709419347 0.05895647082041761
-0.04801442774430977 0.07644649923623663
-0.04801442774430977 0.06770148502832712
-0.04801442774430977 0.054583963716462854
-0.10051083741925163 0.04146644240459859
-0.1792554519316644 0.03709393530064384
-0.15300724709419347 0.03709393530064384
-0.12675904225672255 0.04583894950855335
-0.0742626325817807 0.04146644240459859
-0.12675904225672255 0.04146644240459859
-0.12675904225672255 0.015231399780870057
-0.15300724709419347 0.010858892676915304
-0.20550365676913532 0.019603906884824815
-0.1792554519316644 0.03272142819668908
-0.15300724709419347 0.019603906884824815
-0.23175186160660624 0.015231399780870057
-0.31049647611901904 -0.0022586286349489636
-0.2842482712815481 -0.0022586286349489636
-0.31049647611901904 -0.0022586286349489636
-0.2842482712815481 0.006486385572960547
-0.2580000664440772 0.006486385572960547
-0.2580000664440772 -0.011003642842858475
-0.2842482712815481 -0.01537614994681323
-0.31049647611901904 -0.019748657050767986
-0.33674468095648996 -0.01537614994681323
-0.31049647611901904 -0.011003642842858475
-0.2842482712815481 -0.01537614994681323
-0.2842482712815481 -0.019748657050767986
-0.3629928857939609 -0.03286617836263225
-0.41548929546890273 -0.028493671258677498
-0.41548929546890273 -0.03286617836263225
-0.3629928857939609 -0.01537614994681323
-0.33674468095648996 -0.024121164154722742
-0.31049647611901904 -0.028493671258677498
-0.3892410906314318 -0.041611192570541765
-0.3892410906314318 -0.041611192570541765
-0.44173750030637365 -0.03286617836263225
-0.3629928857939609 -0.03286617836263225
-0.33674468095648996 -0.028493671258677498
-0.33674468095648996 -0.050356206778451276
-0.3892410906314318 -0.05472871388240603
-0.44173750030637365 -0.050356206778451276
-0.44173750030637365 -0.04598369967449652
-0.41548929546890273 -0.037238685466587006
-0.31049647611901904 -0.041611192570541765
-0.3629928857939609 -0.05472871388240603
-0.3892410906314318 -0.05910122098636078
-0.4679857051438446 -0.05910122098636078
-0.4679857051438446 -0.05910122098636078
-0.44173750030637365 -0.04598369967449652
-0.3892410906314318 -0.04598369967449652
-0.3892410906314318 -0.05472871388240603
-0.44173750030637365 -0.05472871388240603
-0.4942339099813155 -0.05472871388240603
-0.4679857051438446 -0.050356206778451276
-0.41548929546890273 -0.04598369967449652
-0.3892410906314318 -0.04598369967449652
-0.3892410906314318 -0.050356206778451276
-0.4679857051438446 -0.05910122098636078
-0.5204821148187864 -0.06347372809031554
-0.5204821148187864 -0.05910122098636078
-0.44173750030637365 -0.050356206778451276
-0.3892410906314318 -0.05910122098636078
-0.3892410906314318 -0.05910122098636078
-0.44173750030637365 -0.05472871388240603
-0.4942339099813155 -0.06347372809031554
-0.4942339099813155 -0.05910122098636078
-0.41548929546890273 -0.041611192570541765
-0.41548929546890273 -0.05910122098636078
-0.3629928857939609 -0.05910122098636078
-0.3892410906314318 -0.05910122098636078
-0.41548929546890273 -0.0678462351942703
-0.41548929546890273 -0.05910122098636078
-0.41548929546890273 -0.050356206778451276
-0.41548929546890273 -0.05472871388240603
-0.33674468095648996 -0.05472871388240603
-0.5204821148187864 -0.06347372809031554
-0.4679857051438446 -0.08533626361008932
-0.44173750030637365 -0.07221874229822504
-0.44173750030637365 -0.05472871388240603
-0.41548929546890273 -0.05910122098636078
-0.3629928857939609 -0.05910122098636078
-0.44173750030637365 -0.07221874229822504
-0.44173750030637365 -0.0678462351942703
-0.41548929546890273 -0.06347372809031554
-0.3892410906314318 -0.04598369967449652
-0.3892410906314318 -0.05910122098636078
-0.3629928857939609 -0.05472871388240603
-0.33674468095648996 -0.06347372809031554
-0.41548929546890273 -0.05910122098636078
-0.3629928857939609 -0.03286617836263225
-0.2842482712815481 0.010858892676915304
-0.15300724709419347 0.10268154185996517
-0.15300724709419347 0.30818937574583866
0.004481981930632078 0.6404999156464001
0.10947480128051577 0.854752763740183
0.371956849655225 0.7629301145571332
1.0019137657545272 0.5311872380475312
2.393068622140486 0.38689450361702427
4.282939370438393 0.33005191126561245
5.464108588124584 0.3038168686418839
4.860399876862753 0.2644643047062911
3.285507586614498 0.21199421945883407
2.104338368928306 0.1682691484192865
1.8418563205535967 0.0895640205481009
1.9730973447409514 -0.01537614994681323
2.0518419592533643 -0.15966888437732016
2.078090164090835 -0.31707914011969135
2.104338368928306 -0.4963519313818363
2.2093311882781896 -0.6799972297479361
2.2618275979531317 -0.841779992594262
2.340572212465544 -1.0123077696484974
2.340572212465544 -1.1609730111829593
2.2618275979531317 -1.305265745613466
2.183082983440719 -1.4233234374202446
2.156834778603248 -1.5676161718507513
2.2093311882781896 -1.7468889631128963
2.2355793931156605 -1.9261617543750413
2.156834778603248 -2.0835720101174124
2.0518419592533643 -2.1885121806123267
1.9206009350660096 -2.275962322691422
1.7893599108786549 -2.3546674505626073
1.6056224770163585 -2.4377450855377476
1.36938863347912 -2.520822720512888
1.1069065851044109 -2.5820378199682548
0.713183512542347 -2.617017876799893
0.4769496690051087 -2.630135398111757
0.29321223514281225 -2.643252919423621
0.05697839160557393 -2.665115454943395
-0.31049647611901904 -2.682605483359214
-0.7829641631934957 -2.686977990463169
-1.334176464780385 -2.6957230046710783
-1.5966585131550943 -2.700095511775033
-1.6491549228300362 -2.6782329762552592
-1.5179138986426814 -2.6738604691513044
-1.360424669617856 -2.66074294783944
-1.2291836454305014 -2.651997933631531
-1.1504390309180885 -2.617017876799893
-1.1504390309180885 -2.542685256032662
-1.0716944164056759 -2.4596076210575215
-1.0454462115682048 -2.3502949434586524
-1.1241908260806177 -2.2234922374439647
-1.1241908260806177 -2.1054345456371863
-1.1241908260806177 -1.948024289894815
-1.0716944164056759 -1.7556339773208058
-0.8879569825433794 -1.537008622123068
-0.6779713438436119 -1.3140107598213755
-0.5729785244937282 -1.1041304188315473
-0.5204821148187864 -0.9292301346733571
-0.5992267293311991 -0.7280948078914383
-0.6254749341686701 -0.5357044953174291
-0.7304677535185539 -0.36517671826319364
-0.7304677535185539 -0.19902144831291296
-0.7567159583560248 -0.05910122098636078
-0.8879569825433794 0.06332897792437236
-0.9929498018932631 0.20324920525092455
-0.9929498018932631 0.3475419396814315
-0.9142051873808503 0.45685461728030036
-0.8617087777059085 0.5311872380475312
-0.8354605728684376 0.588029830398943
-0.8617087777059085 0.6317549014384906
-0.8617087777059085 0.6448724227503548
-0.8617087777059085 0.697342507997812
-0.8092123680309666 0.7366950719334047
-0.7567159583560248 0.7629301145571332
-0.7567159583560248 0.784792650076907
-0.7829641631934957 0.802282678492726
-0.8354605728684376 0.8154001998045903
-0.7829641631934957 0.8460077495322735
-0.7829641631934957 0.8722427921560021
-0.7829641631934957 0.8897328205718211
-0.7829641631934957 0.9028503418836854
-0.8092123680309666 0.9203403702995044
-0.9142051873808503 0.9334578916113687
-0.8354605728684376 0.9596929342350973
-0.7829641631934957 0.981555469754871
-0.7304677535185539 0.9946729910667352
-0.8092123680309666 1.0121630194825544
-0.8092123680309666 1.0121630194825544
-0.8617087777059085 1.034025555002328
-0.9404533922183212 1.0690056118339661
-0.8879569825433794 1.0952406544576947
-0.8354605728684376 1.1039856686656042
-0.8092123680309666 1.1302207112893328
-0.8879569825433794 1.143338232601197
-0.9142051873808503 1.1652007681209708
-0.8879569825433794 1.2001808249526087
-0.8879569825433794 1.2395333888882016
-0.8617087777059085 1.2657684315119302
-0.8879569825433794 1.2788859528237944
-0.9142051873808503 1.3094935025514776
-0.9929498018932631 1.3357285451752061
-1.0454462115682048 1.3619635877989347
-0.8879569825433794 1.4056886588384823
-0.9404533922183212 1.4275511943582562
-0.9404533922183212 1.4494137298780299
-0.9667015970557922 1.466903758293849
-0.9929498018932631 1.4931388009175774
-0.9142051873808503 1.5324913648531702
-0.8092123680309666 1.5587264074768987
-0.7567159583560248 1.5674714216848082
-0.6254749341686701 1.5849614501006273
-0.6779713438436119 1.5805889429966724
-0.7042195486810829 1.6024514785164463
-0.6779713438436119 1.62431401403622
-0.5729785244937282 1.6330590282441295
-0.5204821148187864 1.6374315353480844
-0.4942339099813155 1.6374315353480844
-0.3629928857939609 1.6330590282441295
-0.3892410906314318 1.6330590282441295
-0.2842482712815481 1.6330590282441295
-0.2580000664440772 1.6286865211401749
-0.10051083741925163 1.6199415069322654
-0.12675904225672255 1.589333957204582
-0.10051083741925163 1.5587264074768987
-0.12675904225672255 1.536863871957125
-0.0742626325817807 1.5150013364373511
0.08322659644304485 1.497511308021532
0.10947480128051577 1.4581587440859394
0.10947480128051577 1.4275511943582562
0.1357230061179867 1.375081109110799
0.030730186768103 1.3269835309672966
0.10947480128051577 1.2788859528237944
0.10947480128051577 1.2351608817842468
0.10947480128051577 1.178318289432835
0.1357230061179867 1.1214756970814233
0.16197121095545763 1.0558880905221018
0.16197121095545763 0.99904549817069
0.18821941579292856 0.9509479200271878
0.21446762063039948 0.9028503418836854
0.2669640303053413 0.8372627353243641
0.29321223514281225 0.784792650076907
0.2407158254678704 0.7235775506215404
0.21446762063039948 0.6623624511661739
0.29321223514281225 0.6273823943345358
0.2407158254678704 0.5836573232949883
0.2669640303053413 0.5443047593593955
0.29321223514281225 0.4918346741119384
0.21446762063039948 0.44810960307239084
0.10947480128051577 0.40001202492888854
0.05697839160557393 0.37814948940911475
0.08322659644304485 0.35191444678538625
0.10947480128051577 0.3169343899537482
0.10947480128051577 0.29944436153792914
0.030730186768103 0.2644643047062911
-0.021766222906838845 0.24697427629047208
-0.0742626325817807 0.22948424787465307
0.030730186768103 0.22511174077069832
0.030730186768103 0.20324920525092455
0.004481981930632078 0.18138666973115075
-0.0742626325817807 0.1682691484192865
-0.10051083741925163 0.15077912000346747
-0.15300724709419347 0.14640661289951273
-0.10051083741925163 0.15515162710742222
-0.021766222906838845 0.14640661289951273
-0.10051083741925163 0.1289165844836937
-0.1792554519316644 0.11579906317182943
-0.2580000664440772 0.11142655606787467
-0.20550365676913532 0.10705404896391993
-0.1792554519316644 0.11579906317182943
-0.15300724709419347 0.11142655606787467
-0.1792554519316644 0.11142655606787467
-0.1792554519316644 0.10268154185996517
-0.2580000664440772 0.09830903475601041
-0.23175186160660624 0.09830903475601041
-0.1792554519316644 0.11579906317182943
-0.1792554519316644 0.11142655606787467
-0.20550365676913532 0.11142655606787467
-0.20550365676913532 0.10268154185996517
-0.2842482712815481 0.09830903475601041
-0.31049647611901904 0.10705404896391993
-0.23175186160660624 0.11142655606787467
-0.20550365676913532 0.11142655606787467
-0.2580000664440772 0.1289165844836937
-0.2842482712815481 0.10705404896391993
-0.3629928857939609 0.11142655606787467
-0.31049647611901904 0.11579906317182943
-0.2580000664440772 0.1289165844836937
-0.23175186160660624 0.12017157027578419
-0.2580000664440772 0.12454407737973894
-0.33674468095648996 0.11142655606787467
-0.31049647611901904 0.11142655606787467
-0.31049647611901904 0.11579906317182943
-0.31049647611901904 0.1289165844836937
-0.2580000664440772 0.12454407737973894
-0.31049647611901904 0.12454407737973894
-0.33674468095648996 0.11142655606787467
-0.41548929546890273 0.10705404896391993
-0.3892410906314318 0.10705404896391993
-0.3892410906314318 0.12017157027578419
-0.31049647611901904 0.11579906317182943
-0.3629928857939609 0.10268154185996517
-0.41548929546890273 0.08519151344414615
-0.4942339099813155 0.08081900634019139
-0.4679857051438446 0.08081900634019139
-0.41548929546890273 0.0895640205481009
-0.41548929546890273 0.0895640205481009
-0.41548929546890273 0.08519151344414615
-0.44173750030637365 0.07207399213228188
-0.4942339099813155 0.05895647082041761
-0.44173750030637365 0.07644649923623663
-0.4679857051438446 0.06770148502832712
-0.44173750030637365 0.06770148502832712
-0.4679857051438446 0.0502114566125081
-0.4942339099813155 0.0502114566125081
-0.5467303196562573 0.03272142819668908
-0.5467303196562573 0.0502114566125081
-0.5204821148187864 0.0502114566125081
-0.4679857051438446 0.04583894950855335
-0.4679857051438446 0.028348921092734323
-0.5467303196562573 0.010858892676915304
-0.5467303196562573 0.010858892676915304
-0.5729785244937282 0.015231399780870057
-0.5992267293311991 0.015231399780870057
-0.5467303196562573 0.015231399780870057
-0.5204821148187864 0.0021138784690057917
-0.5729785244937282 -0.0022586286349489636
-0.5992267293311991 -0.0022586286349489636
-0.5467303196562573 -0.0022586286349489636
-0.5467303196562573 0.006486385572960547
-0.5204821148187864 0.010858892676915304
-0.4942339099813155 -0.006631135738903719
-0.5204821148187864 -0.01537614994681323
-0.5992267293311991 -0.019748657050767986
-0.5992267293311991 -0.019748657050767986
-0.5204821148187864 -0.0022586286349489636
-0.5204821148187864 -0.019748657050767986
-0.5204821148187864 -0.024121164154722742
-0.5992267293311991 -0.041611192570541765
-0.6254749341686701 -0.041611192570541765
-0.5992267293311991 -0.041611192570541765
-0.5204821148187864 -0.037238685466587006
-0.5729785244937282 -0.037238685466587006
-0.5467303196562573 -0.037238685466587006
-0.5467303196562573 -0.050356206778451276
-0.6254749341686701 -0.04598369967449652
-0.6254749341686701 -0.041611192570541765
-0.5729785244937282 -0.041611192570541765
-0.4679857051438446 -0.037238685466587006
-0.5729785244937282 -0.04598369967449652
-0.5467303196562573 -0.05472871388240603
-0.651723139006141 -0.05472871388240603
-0.651723139006141 -0.050356206778451276
-0.5204821148187864 -0.041611192570541765
-0.4679857051438446 -0.050356206778451276
-0.4942339099813155 -0.04598369967449652
-0.5992267293311991 -0.06347372809031554
-0.6254749341686701 -0.05910122098636078
-0.5729785244937282 -0.06347372809031554
-0.5467303196562573 -0.04598369967449652
-0.44173750030637365 -0.04598369967449652
-0.44173750030637365 -0.050356206778451276
-0.4942339099813155 -0.0678462351942703
-0.5467303196562573 -0.07221874229822504
-0.5467303196562573 -0.06347372809031554
-0.4942339099813155 -0.04598369967449652
-0.3892410906314318 -0.05910122098636078
-0.4679857051438446 -0.05910122098636078
-0.4679857051438446 -0.07221874229822504
-0.5467303196562573 -0.06347372809031554
-0.5204821148187864 -0.06347372809031554
-0.4679857051438446 -0.05472871388240603
-0.41548929546890273 -0.05910122098636078
-0.41548929546890273 -0.0678462351942703
-0.4942339099813155 -0.08096375650613456
-0.5467303196562573 -0.0765912494021798
-0.4942339099813155 -0.07221874229822504
-0.4679857051438446 -0.06347372809031554
-0.3892410906314318 -0.07221874229822504
-0.3629928857939609 -0.07221874229822504
-0.4942339099813155 -0.08533626361008932
-0.4679857051438446 -0.07221874229822504
-0.4679857051438446 -0.0678462351942703
-0.44173750030637365 -0.05910122098636078
-0.3892410906314318 -0.05472871388240603
-0.33674468095648996 -0.05910122098636078
-0.31049647611901904 -0.0678462351942703
-0.3892410906314318 -0.0678462351942703
-0.41548929546890273 -0.06347372809031554
-0.33674468095648996 -0.041611192570541765
-0.23175186160660624 -0.03286617836263225
-0.2842482712815481 -0.019748657050767986
-0.23175186160660624 0.019603906884824815
-0.20550365676913532 0.22948424787465307
-0.021766222906838845 0.5836573232949883
0.2669640303053413 0.7935376642848165
0.6344388980299343 0.6798524795819929
1.4743814528290038 0.4437370959684361
3.2330111769395558 0.29944436153792914
5.254122949424817 0.24260176918651735
5.700342431661823 0.1988766981469698
4.440428599463218 0.15952413421137698
2.78679169470255 0.08081900634019139
1.8943527302285386 -0.011003642842858475
1.736863501203713 -0.14217885596150115
1.736863501203713 -0.2733540690801438
1.8418563205535967 -0.42201931061460546
1.8681045253910677 -0.5794295663569767
1.8418563205535967 -0.7674473718270312
1.8943527302285386 -0.9554651772970857
1.8943527302285386 -1.1041304188315473
1.8681045253910677 -1.2440506461580996
1.8943527302285386 -1.362108337964878
1.8681045253910677 -1.4932835510835205
1.8418563205535967 -1.6594388210338014
1.8418563205535967 -1.8562016407117652
1.8418563205535967 -2.057336967493684
1.8681045253910677 -2.1972571948202364
1.736863501203713 -2.293452351107241
1.6843670915287712 -2.3677849718744715
1.5006296576664748 -2.4639801281614764
1.3168922238041783 -2.555802777344526
1.0281619705919982 -2.6213903839038473
0.713183512542347 -2.66074294783944
0.42445325933016687 -2.6782329762552592
0.10947480128051577 -2.6913504975671234
-0.1792554519316644 -2.7088405259829424
-0.5467303196562573 -2.7263305543987615
-1.019198006730734 -2.7307030615027164
-1.4391692841302688 -2.7350755686066712
-1.7278995373424488 -2.7263305543987615
-1.6229067179925651 -2.7263305543987615
-1.4129210792927978 -2.7132130330868973
-1.2554318502679722 -2.7088405259829424
-1.0979426212431467 -2.6957230046710783
-0.9667015970557922 -2.66074294783944
-0.9142051873808503 -2.590782834176164
-0.8879569825433794 -2.5077051992010237
-0.8617087777059085 -2.415882550017974
-0.9142051873808503 -2.30219736531515
-0.9667015970557922 -2.1666496450925528
-0.9667015970557922 -2.000494375142272
-0.9142051873808503 -1.7862415270484893
-0.7567159583560248 -1.5807336931626157
-0.5729785244937282 -1.3489908166530136
-0.44173750030637365 -1.1216204472473663
-0.3892410906314318 -0.9117401062575381
-0.4679857051438446 -0.7106047794756194
-0.5729785244937282 -0.5138419597976553
-0.5992267293311991 -0.34768668984737466
-0.6779713438436119 -0.17278640568918444
-0.6779713438436119 -0.011003642842858475
-0.7829641631934957 0.13328909158764846
-0.8617087777059085 0.28195433312211016
-0.8354605728684376 0.40875703913679806
-0.7567159583560248 0.5005796883198479
-0.7042195486810829 0.570539801983124
-0.6779713438436119 0.6186373801266263
-0.7042195486810829 0.6579899440622191
-0.7042195486810829 0.6754799724780381
-0.7042195486810829 0.7192050435175856
-0.651723139006141 0.767302621661088
-0.6254749341686701 0.7935376642848165
-0.6254749341686701 0.8197727069085451
-0.6779713438436119 0.8241452140124998
-0.6779713438436119 0.8503802566362283
-0.6779713438436119 0.8722427921560021
-0.651723139006141 0.8941053276757759
-0.6254749341686701 0.9334578916113687
-0.651723139006141 0.9334578916113687
-0.7042195486810829 0.9553204271311425
-0.7304677535185539 0.9684379484430068
-0.7567159583560248 0.9903004839627805
-0.7304677535185539 1.020908033690464
-0.651723139006141 1.034025555002328
-0.6779713438436119 1.0471430763141922
-0.7042195486810829 1.051515583418147
-0.8092123680309666 1.0777506260418757
-0.7829641631934957 1.0996131615616493
-0.7567159583560248 1.1389657254972423
-0.651723139006141 1.1477107397051518
-0.7042195486810829 1.1652007681209708
-0.7567159583560248 1.1870633036407445
-0.8354605728684376 1.1914358107446992
-0.8354605728684376 1.2264158675763372
-0.8617087777059085 1.2570234173040207
-0.7829641631934957 1.2788859528237944
-0.7304677535185539 1.305120995447523
-0.7567159583560248 1.305120995447523
-0.8617087777059085 1.3357285451752061
-0.8092123680309666 1.3663360949028895
-0.7567159583560248 1.3969436446305727
-0.7042195486810829 1.4144336730463918
-0.6779713438436119 1.445041222774075
-0.7567159583560248 1.466903758293849
-0.8092123680309666 1.484393786709668
-0.8354605728684376 1.5106288293333965
-0.7042195486810829 1.5456088861650346
-0.651723139006141 1.5674714216848082
-0.6779713438436119 1.5762164358927178
-0.6779713438436119 1.5805889429966724
-0.7042195486810829 1.6024514785164463
-0.6254749341686701 1.6286865211401749
-0.5204821148187864 1.6330590282441295
-0.44173750030637365 1.641804042452039
-0.3629928857939609 1.6374315353480844
-0.3629928857939609 1.6286865211401749
-0.3892410906314318 1.6155689998283105
-0.31049647611901904 1.6111964927243558
-0.20550365676913532 1.6111964927243558
-0.0742626325817807 1.589333957204582
0.004481981930632078 1.554353900372944
0.004481981930632078 1.519373843541306
0.030730186768103 1.4756487725017584
0.030730186768103 1.4406687156701203
0.1357230061179867 1.4188061801503467
0.18821941579292856 1.3707086020068442
0.16197121095545763 1.322611023863342
0.16197121095545763 1.2526509102000658
0.18821941579292856 1.2089258391605182
0.21446762063039948 1.160828261017016
0.3194604399802832 1.1083581757695589
0.3457086448177541 1.0471430763141922
0.371956849655225 0.9903004839627805
0.29321223514281225 0.9115953560915949
0.2669640303053413 0.854752763740183
0.29321223514281225 0.8066551855966808
0.42445325933016687 0.7585576074531785
0.4769496690051087 0.7060875222057215
0.5819424883549924 0.6404999156464001
0.5819424883549924 0.5924023375028977
0.5294460786800506 0.535559745151486
0.4769496690051087 0.5005796883198479
0.42445325933016687 0.4612271243842551
0.39820505449269594 0.40875703913679806
0.3457086448177541 0.3606594609932957
0.371956849655225 0.30818937574583866
0.371956849655225 0.2688368118102459
0.4507014641676378 0.24697427629047208
0.5031978738425796 0.23385675497860783
0.5031978738425796 0.20324920525092455
0.39820505449269594 0.17701416262719602
0.2669640303053413 0.14203410579555797
0.2407158254678704 0.12017157027578419
0.18821941579292856 0.10705404896391993
0.21446762063039948 0.11142655606787467
0.21446762063039948 0.09393652765205565
0.16197121095545763 0.09393652765205565
0.08322659644304485 0.0895640205481009
-0.021766222906838845 0.08519151344414615
-0.021766222906838845 0.08519151344414615
-0.0742626325817807 0.0895640205481009
-0.20550365676913532 0.08081900634019139
-0.20550365676913532 0.07207399213228188
-0.31049647611901904 0.06332897792437236
-0.2842482712815481 0.06770148502832712
-0.2842482712815481 0.06332897792437236
-0.15300724709419347 0.07644649923623663
-0.10051083741925163 0.06332897792437236
-0.12675904225672255 0.06770148502832712
-0.1792554519316644 0.05895647082041761
-0.2842482712815481 0.0502114566125081
-0.2580000664440772 0.06770148502832712
-0.2580000664440772 0.06770148502832712
-0.23175186160660624 0.06770148502832712
-0.31049647611901904 0.05895647082041761
-0.3629928857939609 0.054583963716462854
-0.41548929546890273 0.05895647082041761
-0.44173750030637365 0.06332897792437236
-0.33674468095648996 0.08081900634019139
-0.31049647611901904 0.06770148502832712
-0.2842482712815481 0.07207399213228188
-0.31049647611901904 0.06332897792437236
-0.41548929546890273 0.054583963716462854
-0.3629928857939609 0.06770148502832712
-0.3629928857939609 0.07644649923623663
-0.3892410906314318 0.06770148502832712
-0.4679857051438446 0.06770148502832712
-0.44173750030637365 0.06332897792437236
-0.41548929546890273 0.054583963716462854
-0.3629928857939609 0.06770148502832712
-0.2842482712815481 0.07644649923623663
-0.2842482712815481 0.05895647082041761
-0.31049647611901904 0.06332897792437236
-0.41548929546890273 0.0502114566125081
-0.5204821148187864 0.03709393530064384
-0.44173750030637365 0.0502114566125081
-0.5204821148187864 0.054583963716462854
-0.4942339099813155 0.04146644240459859
-0.4942339099813155 0.04146644240459859
-0.5467303196562573 0.03709393530064384
-0.5467303196562573 0.015231399780870057
-0.5204821148187864 0.019603906884824815
-0.4942339099813155 0.02397641398877957
-0.3892410906314318 0.010858892676915304
-0.3892410906314318 0.006486385572960547
-0.44173750030637365 0.0021138784690057917
-0.5467303196562573 -0.011003642842858475
-0.5467303196562573 0.0021138784690057917
-0.4942339099813155 -0.011003642842858475
-0.4679857051438446 -0.006631135738903719
-0.5204821148187864 -0.01537614994681323
-0.5992267293311991 -0.024121164154722742
-0.6779713438436119 -0.037238685466587006
-0.6254749341686701 -0.037238685466587006
-0.5992267293311991 -0.024121164154722742
-0.5992267293311991 -0.01537614994681323
-0.6254749341686701 -0.03286617836263225
-0.7042195486810829 -0.037238685466587006
-0.6779713438436119 -0.050356206778451276
-0.7304677535185539 -0.04598369967449652
-0.5729785244937282 -0.037238685466587006
-0.5204821148187864 -0.03286617836263225
-0.5729785244937282 -0.041611192570541765
-0.5729785244937282 -0.050356206778451276
-0.651723139006141 -0.05472871388240603
-0.5992267293311991 -0.05910122098636078
-0.5467303196562573 -0.041611192570541765
-0.5992267293311991 -0.05472871388240603
-0.6254749341686701 -0.050356206778451276
-0.651723139006141 -0.0678462351942703
-0.7042195486810829 -0.0678462351942703
-0.6254749341686701 -0.05910122098636078
-0.5204821148187864 -0.05472871388240603
-0.5204821148187864 -0.050356206778451276
-0.5729785244937282 -0.05910122098636078
-0.5992267293311991 -0.06347372809031554
-0.6779713438436119 -0.0678462351942703
-0.651723139006141 -0.06347372809031554
-0.651723139006141 -0.06347372809031554
-0.5729785244937282 -0.06347372809031554
-0.651723139006141 -0.07221874229822504
-0.7042195486810829 -0.0765912494021798
-0.7042195486810829 -0.0765912494021798
-0.6254749341686701 -0.0765912494021798
-0.5204821148187864 -0.05910122098636078
-0.5729785244937282 -0.07221874229822504
-0.6779713438436119 -0.08970877071404407
-0.7042195486810829 -0.08096375650613456
-0.7829641631934957 -0.08096375650613456
-0.651723139006141 -0.0765912494021798
-0.5992267293311991 -0.0678462351942703
-0.4942339099813155 -0.0765912494021798
-0.4679857051438446 -0.0765912494021798
-0.5467303196562573 -0.08533626361008932
-0.5992267293311991 -0.08970877071404407
-0.651723139006141 -0.0765912494021798
-0.5729785244937282 -0.0678462351942703
-0.4679857051438446 -0.08096375650613456
-0.4679857051438446 -0.08970877071404407
-0.4679857051438446 -0.08533626361008932
-0.5992267293311991 -0.08096375650613456
-0.6254749341686701 -0.08096375650613456
-0.651723139006141 -0.08096375650613456
-0.5992267293311991 -0.07221874229822504
-0.6254749341686701 -0.08096375650613456
-0.5729785244937282 -0.09408127781799883
-0.5467303196562573 -0.09408127781799883
-0.4942339099813155 -0.08533626361008932
-0.4679857051438446 -0.07221874229822504
-0.4942339099813155 -0.08533626361008932
-0.5204821148187864 -0.08533626361008932
-0.4679857051438446 -0.08533626361008932
-0.5204821148187864 -0.09408127781799883
-0.4679857051438446 -0.08970877071404407
-0.41548929546890273 -0.08970877071404407
-0.33674468095648996 -0.08970877071404407
-0.41548929546890273 -0.0765912494021798
-0.4942339099813155 -0.09408127781799883
-0.5992267293311991 -0.09845378492195359
-0.5992267293311991 -0.08096375650613456
-0.5729785244937282 -0.08096375650613456
-0.41548929546890273 -0.08096375650613456
-0.2842482712815481 -0.0765912494021798
-0.33674468095648996 -0.0678462351942703
-0.44173750030637365 -0.037238685466587006
-0.3892410906314318 0.0502114566125081
-0.23175186160660624 0.2906993473300197
-0.04801442774430977 0.6579899440622191
0.10947480128051577 0.8591252708441378
0.3457086448177541 0.7323225648294499
0.8706727415671726 0.4655996314882099
2.2880758027906025 0.3169343899537482
4.309187575275864 0.29944436153792914
5.201626539749875 0.26009179760233636
4.387932189788277 0.1857591768351055
2.865536309214963 0.10268154185996517
1.9730973447409514 0.0021138784690057917
1.9468491399034804 -0.12031632044172735
2.104338368928306 -0.2558640406643248
2.156834778603248 -0.4263918177185602
2.0518419592533643 -0.6100371160846599
2.0518419592533643 -0.7936824144507597
1.9730973447409514 -0.9860727270247689
2.078090164090835 -1.1478554898710949
2.1305865737657768 -1.2746581958857828
2.025593754415893 -1.4102059161083802
1.8943527302285386 -1.541381129227023
1.736863501203713 -1.6856738636575297
1.815608115716126 -1.8474566265038557
1.9206009350660096 -2.017984403558091
2.0518419592533643 -2.1491596166767337
2.104338368928306 -2.2628448013795577
1.9993455495784223 -2.345922436354698
1.815608115716126 -2.4421175926417025
1.448133247991533 -2.5164502134089335
1.2381476092917656 -2.5864103270722096
1.08065838026694 -2.625762891007802
0.8181763318922307 -2.66074294783944
0.5294460786800506 -2.686977990463169
0.16197121095545763 -2.7219580472948066
-0.2842482712815481 -2.7438205828145805
-0.8354605728684376 -2.7569381041264447
-1.2291836454305014 -2.7569381041264447
-1.5966585131550943 -2.7438205828145805
-1.780395947017391 -2.7481930899185354
-1.701651332504978 -2.7613106112303996
-1.5441621034801525 -2.7569381041264447
-1.360424669617856 -2.7350755686066712
-1.2291836454305014 -2.700095511775033
-1.2291836454305014 -2.6388804123196663
-1.4391692841302688 -2.5864103270722096
-1.5966585131550943 -2.5077051992010237
-1.7278995373424488 -2.3940200144982002
-1.780395947017391 -2.254099787171648
-1.701651332504978 -2.1141795598450956
-1.4391692841302688 -1.948024289894815
-1.1504390309180885 -1.7556339773208058
-1.0454462115682048 -1.5632436647467967
-0.9404533922183212 -1.3489908166530136
-0.8092123680309666 -1.1259929543513212
-0.7304677535185539 -0.9204851204654476
-0.7304677535185539 -0.7368398220993478
-0.8617087777059085 -0.5531945237332482
-0.9142051873808503 -0.38703925378296744
-0.9404533922183212 -0.22962899804059625
-0.8354605728684376 -0.0765912494021798
-0.651723139006141 0.06332897792437236
-0.6254749341686701 0.1857591768351055
-0.7304677535185539 0.32130689705770293
-0.9667015970557922 0.42187456044866234
-1.0979426212431467 0.4918346741119384
-0.9667015970557922 0.5661672948791693
-0.7042195486810829 0.623009887230581
-0.4942339099813155 0.6492449298543096
-0.41548929546890273 0.6798524795819929
-0.4942339099813155 0.697342507997812
-0.651723139006141 0.7279500577254951
-0.7042195486810829 0.767302621661088
-0.651723139006141 0.7935376642848165
-0.5992267293311991 0.8154001998045903
-0.4942339099813155 0.8285177211164546
-0.41548929546890273 0.8416352424283189
-0.41548929546890273 0.8634977779480926
-0.4679857051438446 0.8809878063639116
-0.3892410906314318 0.9115953560915949
-0.3629928857939609 0.9378303987153235
-0.44173750030637365 0.9334578916113687
-0.4942339099813155 0.946575412923233
-0.5729785244937282 0.9596929342350973
-0.5729785244937282 1.0034180052746449
-0.5729785244937282 1.0296530478983734
-0.4942339099813155 1.0471430763141922
-0.44173750030637365 1.0690056118339661
-0.44173750030637365 1.0777506260418757
-0.41548929546890273 1.0996131615616493
-0.41548929546890273 1.125848204185378
-0.3892410906314318 1.1564557539130613
-0.4942339099813155 1.1826907965367897
-0.5729785244937282 1.2045533320565636
-0.6254749341686701 1.2264158675763372
-0.6254749341686701 1.2395333888882016
-0.5204821148187864 1.2657684315119302
-0.41548929546890273 1.305120995447523
-0.3629928857939609 1.322611023863342
-0.33674468095648996 1.3619635877989347
-0.33674468095648996 1.3838261233187086
-0.41548929546890273 1.3969436446305727
-0.3892410906314318 1.4275511943582562
-0.33674468095648996 1.466903758293849
-0.20550365676913532 1.4887662938136226
-0.20550365676913532 1.501883815125487
-0.1792554519316644 1.5237463506452606
-0.33674468095648996 1.5412363790610797
-0.2842482712815481 1.5674714216848082
-0.20550365676913532 1.5937064643085368
-0.10051083741925163 1.5937064643085368
0.004481981930632078 1.6024514785164463
0.030730186768103 1.606823985620401
0.05697839160557393 1.606823985620401
0.05697839160557393 1.6111964927243558
0.1357230061179867 1.606823985620401
0.18821941579292856 1.606823985620401
0.21446762063039948 1.5805889429966724
0.2407158254678704 1.5630989145808534
0.29321223514281225 1.5324913648531702
0.2669640303053413 1.5150013364373511
0.3194604399802832 1.501883815125487
0.39820505449269594 1.4581587440859394
0.4507014641676378 1.4188061801503467
0.4769496690051087 1.375081109110799
0.4769496690051087 1.322611023863342
0.6081906931924633 1.2745134457198397
0.7919281270547598 1.2395333888882016
0.8969209464046435 1.1826907965367897
0.8444245367297016 1.1302207112893328
0.8181763318922307 1.0602605976260566
0.6606871028674052 1.016535526586509
0.6344388980299343 0.9596929342350973
0.7394317173798179 0.9203403702995044
0.8969209464046435 0.8591252708441378
0.9494173560795853 0.802282678492726
0.9494173560795853 0.7454400861413142
0.8969209464046435 0.6929700008938572
0.7919281270547598 0.6404999156464001
0.8444245367297016 0.6098923659187168
0.8181763318922307 0.5617947877752145
0.7919281270547598 0.5136972096317122
0.713183512542347 0.4743446456961194
0.6081906931924633 0.44810960307239084
0.5556942835175215 0.4175020533447076
0.6344388980299343 0.4043845320328433
0.6344388980299343 0.37814948940911475
0.5294460786800506 0.3475419396814315
0.5294460786800506 0.3169343899537482
0.4769496690051087 0.2950718544339744
0.5031978738425796 0.2644643047062911
0.5556942835175215 0.2382292620825626
0.5819424883549924 0.21199421945883407
0.6081906931924633 0.18138666973115075
0.5031978738425796 0.16389664131533174
0.4507014641676378 0.14203410579555797
0.39820505449269594 0.14640661289951273
0.39820505449269594 0.13328909158764846
0.5031978738425796 0.11579906317182943
0.4507014641676378 0.0895640205481009
0.39820505449269594 0.06770148502832712
0.3194604399802832 0.054583963716462854
0.3194604399802832 0.03709393530064384
0.3194604399802832 0.0502114566125081
0.371956849655225 0.03272142819668908
0.3194604399802832 0.028348921092734323
0.2669640303053413 0.019603906884824815
0.2407158254678704 0.015231399780870057
0.29321223514281225 0.019603906884824815
0.29321223514281225 0.03272142819668908
0.3194604399802832 0.054583963716462854
0.29321223514281225 0.0502114566125081
0.21446762063039948 0.03709393530064384
0.08322659644304485 0.03272142819668908
0.08322659644304485 0.03709393530064384
0.1357230061179867 0.04146644240459859
0.10947480128051577 0.04146644240459859
0.1357230061179867 0.03709393530064384
0.08322659644304485 0.019603906884824815
-0.021766222906838845 0.02397641398877957
-0.021766222906838845 0.03709393530064384
0.004481981930632078 0.03709393530064384
0.08322659644304485 0.04146644240459859
0.05697839160557393 0.04583894950855335
-0.04801442774430977 0.03709393530064384
-0.04801442774430977 0.03272142819668908
-0.04801442774430977 0.04583894950855335
0.08322659644304485 0.054583963716462854
0.05697839160557393 0.04583894950855335
0.05697839160557393 0.0502114566125081
-0.021766222906838845 0.0502114566125081
-0.04801442774430977 0.04146644240459859
-0.021766222906838845 0.05895647082041761
-0.04801442774430977 0.06332897792437236
-0.021766222906838845 0.05895647082041761
-0.04801442774430977 0.05895647082041761
-0.0742626325817807 0.04146644240459859
-0.15300724709419347 0.03709393530064384
-0.15300724709419347 0.03709393530064384
-0.10051083741925163 0.04583894950855335
-0.0742626325817807 0.054583963716462854
-0.15300724709419347 0.03709393530064384
-0.20550365676913532 0.03709393530064384
-0.2842482712815481 0.02397641398877957
-0.20550365676913532 0.03272142819668908
-0.20550365676913532 0.04583894950855335
-0.12675904225672255 0.028348921092734323
-0.20550365676913532 0.02397641398877957
-0.2842482712815481 0.015231399780870057
-0.31049647611901904 0.010858892676915304
-0.2580000664440772 0.015231399780870057
-0.23175186160660624 0.02397641398877957
-0.12675904225672255 0.010858892676915304
-0.20550365676913532 0.0021138784690057917
-0.20550365676913532 -0.006631135738903719
-0.31049647611901904 -0.019748657050767986
-0.2580000664440772 -0.0022586286349489636
-0.2580000664440772 -0.006631135738903719
-0.1792554519316644 -0.011003642842858475
-0.20550365676913532 -0.011003642842858475
-0.2842482712815481 -0.01537614994681323
-0.33674468095648996 -0.028493671258677498
-0.3629928857939609 -0.019748657050767986
-0.2842482712815481 -0.011003642842858475
-0.2580000664440772 -0.024121164154722742
-0.31049647611901904 -0.024121164154722742
-0.3629928857939609 -0.037238685466587006
-0.33674468095648996 -0.037238685466587006
-0.33674468095648996 -0.037238685466587006
-0.3629928857939609 -0.028493671258677498
-0.33674468095648996 -0.03286617836263225
-0.41548929546890273 -0.04598369967449652
-0.41548929546890273 -0.050356206778451276
-0.4942339099813155 -0.050356206778451276
-0.44173750030637365 -0.041611192570541765
-0.3892410906314318 -0.04598369967449652
-0.3892410906314318 -0.050356206778451276
-0.41548929546890273 -0.05472871388240603
-0.3892410906314318 -0.06347372809031554
-0.44173750030637365 -0.05910122098636078
-0.4942339099813155 -0.050356206778451276
-0.3892410906314318 -0.05472871388240603
-0.3629928857939609 -0.041611192570541765
-0.41548929546890273 -0.050356206778451276
-0.4679857051438446 -0.050356206778451276
-0.4942339099813155 -0.06347372809031554
-0.44173750030637365 -0.06347372809031554
-0.41548929546890273 -0.041611192570541765
-0.4679857051438446 -0.037238685466587006
-0.41548929546890273 -0.05472871388240603
-0.44173750030637365 -0.05910122098636078
-0.4942339099813155 -0.06347372809031554
-0.4679857051438446 -0.05910122098636078
-0.44173750030637365 -0.06347372809031554
-0.3892410906314318 -0.05910122098636078
-0.41548929546890273 -0.06347372809031554
-0.41548929546890273 -0.0678462351942703
-0.4942339099813155 -0.07221874229822504
-0.4679857051438446 -0.0678462351942703
-0.44173750030637365 -0.05910122098636078
-0.3629928857939609 -0.05910122098636078
-0.44173750030637365 -0.05910122098636078
-0.41548929546890273 -0.0765912494021798
-0.4942339099813155 -0.0765912494021798
-0.4942339099813155 -0.05910122098636078
-0.41548929546890273 -0.05910122098636078
-0.33674468095648996 -0.06347372809031554
-0.44173750030637365 -0.05472871388240603
-0.41548929546890273 -0.0678462351942703
-0.4942339099813155 -0.07221874229822504
-0.4679857051438446 -0.05910122098636078
-0.3892410906314318 -0.05910122098636078
-0.33674468095648996 -0.05910122098636078
-0.33674468095648996 -0.05472871388240603
-0.44173750030637365 -0.07221874229822504
-0.44173750030637365 -0.08096375650613456
-0.44173750030637365 -0.06347372809031554
-0.4942339099813155 -0.05910122098636078
-0.3629928857939609 -0.05472871388240603
-0.3629928857939609 -0.07221874229822504
-0.4679857051438446 -0.0765912494021798
-0.4942339099813155 -0.08096375650613456
-0.41548929546890273 -0.0678462351942703
-0.4679857051438446 -0.05472871388240603
-0.3892410906314318 -0.07221874229822504
-0.3629928857939609 -0.06347372809031554
-0.41548929546890273 -0.07221874229822504
-0.41548929546890273 -0.08533626361008932
-0.41548929546890273 -0.08096375650613456
-0.33674468095648996 -0.0678462351942703
-0.3629928857939609 -0.05910122098636078
-0.31049647611901904 -0.05910122098636078
-0.3629928857939609 -0.06347372809031554
-0.3892410906314318 -0.05910122098636078
-0.33674468095648996 -0.041611192570541765
-0.20550365676913532 0.0021138784690057917
-0.1792554519316644 0.06770148502832712
-0.0742626325817807 0.2644643047062911
-0.021766222906838845 0.5749123090870788
0.18821941579292856 0.7935376642848165
0.5031978738425796 0.7454400861413142
1.1594029947793527 0.5574222806712598
2.4455650318154283 0.391267010720979
4.46667680430069 0.34316943257747673
5.779087046174236 0.3169343899537482
5.516604997799527 0.28195433312211016
3.9679609123887416 0.2644643047062911
2.6293024656777244 0.24697427629047208
2.0518419592533643 0.2076217123548793
2.078090164090835 0.15077912000346747
2.104338368928306 0.08519151344414615
2.1305865737657768 -0.01537614994681323
2.1305865737657768 -0.12906133464963687
2.2093311882781896 -0.28209908328805333
2.419316826977957 -0.4788619029660173
2.471813236652899 -0.6843697368518908
2.6030542608402536 -0.8811325565298548
2.550557851165312 -1.0866403904157282
2.6030542608402536 -1.2965207314055565
2.6555506705151957 -1.484538536875611
2.6030542608402536 -1.6550663139298465
2.550557851165312 -1.808104062568263
2.471813236652899 -1.948024289894815
2.419316826977957 -2.061709474597639
2.576806056002783 -2.1447871095727793
2.550557851165312 -2.2060022090281457
2.5243096463278407 -2.31094237952306
2.419316826977957 -2.415882550017974
2.3143240076280733 -2.5120777063049786
2.1305865737657768 -2.5776653128643
1.815608115716126 -2.625762891007802
1.5793742721788875 -2.6388804123196663
1.3168922238041783 -2.66074294783944
1.08065838026694 -2.686977990463169
0.8181763318922307 -2.7088405259829424
0.371956849655225 -2.7307030615027164
-0.0742626325817807 -2.7350755686066712
-0.5204821148187864 -2.7263305543987615
-0.7829641631934957 -2.7350755686066712
-0.9404533922183212 -2.7350755686066712
-0.8617087777059085 -2.7438205828145805
-0.7304677535185539 -2.7350755686066712
-0.6254749341686701 -2.7132130330868973
-0.5467303196562573 -2.66948796204735
-0.5729785244937282 -2.630135398111757
-0.7304677535185539 -2.5689202986563906
-0.9142051873808503 -2.48584266368125
-0.9929498018932631 -2.3852750002902905
-1.0454462115682048 -2.258472294275603
-1.0454462115682048 -2.1316695882609147
-1.019198006730734 -2.000494375142272
-0.9404533922183212 -1.8387116122959462
-0.9142051873808503 -1.6681838352417109
-0.8617087777059085 -1.467048508459792
-0.8879569825433794 -1.2746581958857828
-0.8879569825433794 -1.0778953762078187
-0.8354605728684376 -0.9029950920496286
-0.8617087777059085 -0.714977286579574
-0.8617087777059085 -0.5663120450451125
-0.9404533922183212 -0.3782942395750579
-0.9929498018932631 -0.23837401224850577
-0.9667015970557922 -0.09408127781799883
-1.0454462115682048 0.02397641398877957
-1.0716944164056759 0.14203410579555797
-1.2029354405930304 0.2382292620825626
-1.2554318502679722 0.3344244183695672
-1.2029354405930304 0.44810960307239084
-1.1241908260806177 0.5399322522554407
-1.019198006730734 0.5967748446068525
-1.0716944164056759 0.6361274085424453
-1.0716944164056759 0.6842249866859477
-1.1504390309180885 0.7060875222057215
-1.0979426212431467 0.7410675790373594
-1.0454462115682048 0.7804201429729523
-0.9929498018932631 0.8110276927006356
-0.9667015970557922 0.8285177211164546
-1.0454462115682048 0.8460077495322735
-1.0454462115682048 0.8678702850520473
-1.019198006730734 0.8897328205718211
-1.019198006730734 0.9159678631955497
-0.9929498018932631 0.929085384507414
-1.019198006730734 0.946575412923233
-1.019198006730734 0.9684379484430068
-1.1241908260806177 0.9859279768588257
-1.1504390309180885 1.0077905123785995
-1.0454462115682048 1.0427705692102376
-0.9929498018932631 1.0602605976260566
-1.019198006730734 1.0777506260418757
-1.0716944164056759 1.0864956402497852
-1.0716944164056759 1.1127306828735137
-1.1504390309180885 1.143338232601197
-1.0979426212431467 1.1739457823288801
-1.0716944164056759 1.2001808249526087
-1.0979426212431467 1.2176708533684277
-1.1241908260806177 1.2395333888882016
-1.2029354405930304 1.2657684315119302
-1.2029354405930304 1.300748488343568
-1.1766872357555596 1.340101052279161
-1.1241908260806177 1.3707086020068442
-1.0979426212431467 1.392571137526618
-1.1766872357555596 1.4100611659424371
-1.2291836454305014 1.4494137298780299
-1.1766872357555596 1.466903758293849
-1.0979426212431467 1.5106288293333965
-1.0454462115682048 1.5324913648531702
-1.0454462115682048 1.5674714216848082
-1.0454462115682048 1.5805889429966724
-1.1241908260806177 1.6024514785164463
-1.019198006730734 1.6374315353480844
-0.9667015970557922 1.6680390850757676
-0.9142051873808503 1.676784099283677
-0.8617087777059085 1.6942741276994961
-0.8617087777059085 1.7030191419074057
-0.8617087777059085 1.7205091703232247
-0.8092123680309666 1.7336266916350889
-0.6779713438436119 1.7467442129469533
-0.6254749341686701 1.7467442129469533
-0.5992267293311991 1.7467442129469533
-0.5204821148187864 1.7292541845311342
-0.5467303196562573 1.7161366632192698
-0.44173750030637365 1.7161366632192698
-0.3629928857939609 1.7073916490113603
-0.31049647611901904 1.681156606387632
-0.2842482712815481 1.646176549555994
-0.23175186160660624 1.606823985620401
-0.15300724709419347 1.5630989145808534
-0.10051083741925163 1.5456088861650346
0.030730186768103 1.501883815125487
0.10947480128051577 1.4537862369819845
0.08322659644304485 1.392571137526618
0.08322659644304485 1.3357285451752061
0.10947480128051577 1.2701409386158848
0.18821941579292856 1.2307883746802921
0.2669640303053413 1.1826907965367897
0.371956849655225 1.1171031899774684
0.3194604399802832 1.0558880905221018
0.3194604399802832 0.9946729910667352
0.3194604399802832 0.9378303987153235
0.3457086448177541 0.8984778347797306
0.371956849655225 0.8416352424283189
0.4507014641676378 0.7804201429729523
0.42445325933016687 0.7323225648294499
0.3194604399802832 0.6623624511661739
0.2669640303053413 0.6142648730226715
0.29321223514281225 0.588029830398943
0.3457086448177541 0.5617947877752145
0.3457086448177541 0.5093247025277574
0.371956849655225 0.47871715280007415
0.3457086448177541 0.4393645888644813
0.29321223514281225 0.4131295462407528
0.2669640303053413 0.3956395178249338
0.29321223514281225 0.3825219965130695
0.2669640303053413 0.34316943257747673
0.29321223514281225 0.33005191126561245
0.18821941579292856 0.29944436153792914
0.1357230061179867 0.2688368118102459
0.16197121095545763 0.24260176918651735
0.16197121095545763 0.22948424787465307
0.16197121095545763 0.21199421945883407
0.1357230061179867 0.17701416262719602
0.16197121095545763 0.16389664131533174
0.1357230061179867 0.15515162710742222
0.1357230061179867 0.14203410579555797
0.2407158254678704 0.1289165844836937
0.2669640303053413 0.12017157027578419
0.29321223514281225 0.09830903475601041
0.18821941579292856 0.06770148502832712
0.1357230061179867 0.05895647082041761
0.08322659644304485 0.05895647082041761
0.1357230061179867 0.07207399213228188
0.16197121095545763 0.054583963716462854
0.1357230061179867 0.054583963716462854
0.08322659644304485 0.04146644240459859
0.05697839160557393 0.04146644240459859
0.030730186768103 0.05895647082041761
0.05697839160557393 0.08519151344414615
0.05697839160557393 0.08519151344414615
0.004481981930632078 0.07644649923623663
-0.021766222906838845 0.07644649923623663
-0.1792554519316644 0.06332897792437236
-0.15300724709419347 0.07207399213228188
-0.12675904225672255 0.07644649923623663
-0.0742626325817807 0.07207399213228188
-0.0742626325817807 0.07207399213228188
-0.10051083741925163 0.06770148502832712
-0.1792554519316644 0.06332897792437236
-0.15300724709419347 0.08081900634019139
-0.23175186160660624 0.07644649923623663
-0.12675904225672255 0.07207399213228188
-0.12675904225672255 0.07207399213228188
-0.12675904225672255 0.05895647082041761
-0.23175186160660624 0.07207399213228188
-0.2580000664440772 0.07644649923623663
-0.23175186160660624 0.07644649923623663
-0.23175186160660624 0.07207399213228188
-0.20550365676913532 0.0895640205481009
-0.20550365676913532 0.06770148502832712
-0.31049647611901904 0.07207399213228188
-0.2580000664440772 0.07644649923623663
-0.2580000664440772 0.08081900634019139
-0.23175186160660624 0.07644649923623663
-0.2580000664440772 0.08081900634019139
-0.2842482712815481 0.054583963716462854
-0.3629928857939609 0.05895647082041761
-0.3892410906314318 0.06332897792437236
-0.31049647611901904 0.06770148502832712
-0.31049647611901904 0.06332897792437236
-0.3892410906314318 0.06332897792437236
-0.3629928857939609 0.054583963716462854
-0.41548929546890273 0.04583894950855335
-0.44173750030637365 0.0502114566125081
-0.3629928857939609 0.054583963716462854
-0.31049647611901904 0.04146644240459859
-0.31049647611901904 0.028348921092734323
-0.3892410906314318 0.028348921092734323
-0.4679857051438446 0.015231399780870057
-0.4942339099813155 0.019603906884824815
-0.4679857051438446 0.028348921092734323
-0.3892410906314318 0.02397641398877957
-0.3892410906314318 0.019603906884824815
-0.3629928857939609 0.0021138784690057917
-0.4679857051438446 -0.0022586286349489636
-0.5204821148187864 -0.0022586286349489636
-0.4679857051438446 0.006486385572960547
-0.44173750030637365 -0.0022586286349489636
-0.4679857051438446 -0.01537614994681323
-0.4679857051438446 -0.024121164154722742
-0.5992267293311991 -0.024121164154722742
-0.6254749341686701 -0.019748657050767986
-0.5204821148187864 -0.011003642842858475
-0.4679857051438446 -0.019748657050767986
-0.4679857051438446 -0.024121164154722742
-0.4942339099813155 -0.019748657050767986
-0.5729785244937282 -0.024121164154722742
-0.5467303196562573 -0.03286617836263225
-0.5467303196562573 -0.024121164154722742
-0.4679857051438446 -0.03286617836263225
-0.4942339099813155 -0.028493671258677498
-0.5204821148187864 -0.04598369967449652
-0.5467303196562573 -0.04598369967449652
-0.5729785244937282 -0.03286617836263225
-0.5204821148187864 -0.024121164154722742
-0.44173750030637365 -0.024121164154722742
-0.5204821148187864 -0.041611192570541765
-0.5992267293311991 -0.041611192570541765
-0.6254749341686701 -0.050356206778451276
-0.5729785244937282 -0.050356206778451276
-0.5992267293311991 -0.028493671258677498
-0.5204821148187864 -0.028493671258677498
-0.5467303196562573 -0.041611192570541765
-0.6779713438436119 -0.04598369967449652
-0.6779713438436119 -0.04598369967449652
-0.7567159583560248 -0.037238685466587006
-0.5729785244937282 -0.028493671258677498
-0.5992267293311991 -0.037238685466587006
-0.5467303196562573 -0.037238685466587006
-0.6254749341686701 -0.050356206778451276
-0.6254749341686701 -0.04598369967449652
-0.6254749341686701 -0.050356206778451276
-0.5467303196562573 -0.03286617836263225
-0.6254749341686701 -0.041611192570541765
-0.5729785244937282 -0.04598369967449652
-0.6254749341686701 -0.06347372809031554
-0.6779713438436119 -0.05472871388240603
-0.6779713438436119 -0.03286617836263225
-0.5729785244937282 -0.037238685466587006
-0.5467303196562573 -0.037238685466587006
-0.5992267293311991 -0.05910122098636078
-0.5992267293311991 -0.050356206778451276
-0.6779713438436119 -0.050356206778451276
-0.651723139006141 -0.04598369967449652
-0.5992267293311991 -0.04598369967449652
-0.5467303196562573 -0.037238685466587006
-0.5467303196562573 -0.05472871388240603
-0.5729785244937282 -0.05472871388240603
-0.5992267293311991 -0.05472871388240603
-0.5992267293311991 -0.050356206778451276
-0.5729785244937282 -0.03286617836263225
-0.4942339099813155 -0.04598369967449652
-0.5467303196562573 -0.041611192570541765
-0.5467303196562573 -0.05910122098636078
-0.5467303196562573 -0.06347372809031554
-0.5729785244937282 -0.050356206778451276
-0.5729785244937282 -0.050356206778451276
-0.4942339099813155 -0.050356206778451276
-0.4942339099813155 -0.05910122098636078
-0.5467303196562573 -0.06347372809031554
-0.5992267293311991 -0.0678462351942703
-0.5204821148187864 -0.05472871388240603
-0.44173750030637365 -0.05472871388240603
-0.3892410906314318 -0.050356206778451276
-0.3892410906314318 -0.050356206778451276
-0.4942339099813155 -0.06347372809031554
-0.4679857051438446 -0.05910122098636078
-0.44173750030637365 -0.041611192570541765
-0.3892410906314318 -0.028493671258677498
-0.31049647611901904 -0.037238685466587006
-0.3892410906314318 -0.03286617836263225
-0.3629928857939609 -0.03286617836263225
-0.3892410906314318 -0.019748657050767986
-0.33674468095648996 0.054583963716462854
-0.20550365676913532 0.22073923366674356
-0.0742626325817807 0.5180697167356669
0.1357230061179867 0.7629301145571332
0.29321223514281225 0.7585576074531785
0.6081906931924633 0.5617947877752145
1.5793742721788875 0.40001202492888854
3.3905004059643815 0.34316943257747673
5.044137310725049 0.3169343899537482
5.437860383287114 0.27320931891420064
4.125450141413567 0.22511174077069832
2.6030542608402536 0.1682691484192865
1.9730973447409514 0.11142655606787467
1.8681045253910677 0.04146644240459859
2.0518419592533643 -0.08533626361008932
1.9993455495784223 -0.2427465193524605
1.9993455495784223 -0.4045292821987865
1.9468491399034804 -0.5794295663569767
1.9730973447409514 -0.7543298505151669
2.0518419592533643 -0.9161126133614929
2.1305865737657768 -1.0910128975196831
2.1305865737657768 -1.252795660366009
2.1305865737657768 -1.397088394796516
1.9993455495784223 -1.5151460866032944
1.9730973447409514 -1.6332037784100728
1.9468491399034804 -1.7425164560089417
2.025593754415893 -1.8911816975434033
2.025593754415893 -2.039846939077865
2.078090164090835 -2.1535321237806886
2.025593754415893 -2.249727280067693
1.9730973447409514 -2.306569872419105
1.9206009350660096 -2.363412464770517
1.8418563205535967 -2.450862606849612
1.6843670915287712 -2.5295677347207977
1.3956368383165911 -2.590782834176164
1.08065838026694 -2.6213903839038473
0.7919281270547598 -2.643252919423621
0.5819424883549924 -2.651997933631531
0.42445325933016687 -2.6738604691513044
0.08322659644304485 -2.6957230046710783
-0.3892410906314318 -2.7132130330868973
-0.8092123680309666 -2.7219580472948066
-1.1766872357555596 -2.7088405259829424
-1.2816800551054432 -2.7088405259829424
-1.1504390309180885 -2.700095511775033
-1.0454462115682048 -2.700095511775033
-0.8617087777059085 -2.7088405259829424
-0.8617087777059085 -2.6782329762552592
-0.7567159583560248 -2.634507905215712
-0.8092123680309666 -2.573292805760345
-0.8092123680309666 -2.4945876778891596
-0.8617087777059085 -2.4202550571219286
-0.9142051873808503 -2.328432407938879
-0.9929498018932631 -2.214747223236055
-1.0716944164056759 -2.0966895314292766
-1.019198006730734 -1.948024289894815
-0.8617087777059085 -1.7818690199445344
-0.8617087777059085 -1.6025962286823894
-0.7829641631934957 -1.414578423212335
-0.7042195486810829 -1.2265606177422805
-0.651723139006141 -1.0166802767524523
-0.5992267293311991 -0.824289964178443
-0.651723139006141 -0.6537621871242075
-0.7304677535185539 -0.4788619029660173
-0.7829641631934957 -0.30396161880782707
-0.9404533922183212 -0.14217885596150115
-0.8617087777059085 0.010858892676915304
-0.9404533922183212 0.14203410579555797
-0.9142051873808503 0.2688368118102459
-0.9667015970557922 0.38689450361702427
-0.9667015970557922 0.4830896599040289
-1.0454462115682048 0.5749123090870788
-0.9404533922183212 0.6492449298543096
-0.8354605728684376 0.6929700008938572
-0.8354605728684376 0.7192050435175856
-0.8354605728684376 0.7585576074531785
-0.8617087777059085 0.7716751287650427
-0.9142051873808503 0.8066551855966808
-0.8879569825433794 0.8328902282204094
-0.8617087777059085 0.8722427921560021
-0.8617087777059085 0.8853603134678664
-0.8617087777059085 0.8984778347797306
-0.8879569825433794 0.9115953560915949
-0.9142051873808503 0.9553204271311425
-0.8879569825433794 0.9684379484430068
-0.8354605728684376 0.99904549817069
-0.8354605728684376 1.020908033690464
-0.9142051873808503 1.038398062106283
-0.9142051873808503 1.051515583418147
-0.9667015970557922 1.0864956402497852
-0.9667015970557922 1.1127306828735137
-0.9667015970557922 1.125848204185378
-0.8879569825433794 1.160828261017016
-0.9142051873808503 1.1652007681209708
-0.9142051873808503 1.178318289432835
-0.9667015970557922 1.2089258391605182
-0.9667015970557922 1.2439058959921563
-0.9667015970557922 1.2745134457198397
-0.9142051873808503 1.2876309670317039
-0.9404533922183212 1.3269835309672966
-1.0454462115682048 1.3313560380712515
-1.0716944164056759 1.35759108069498
-1.0454462115682048 1.4013161517345276
-0.9667015970557922 1.4319237014622108
-0.9404533922183212 1.4537862369819845
-0.9929498018932631 1.4756487725017584
-1.019198006730734 1.484393786709668
-1.0979426212431467 1.5150013364373511
-1.0979426212431467 1.5587264074768987
-1.0716944164056759 1.589333957204582
-1.0454462115682048 1.6155689998283105
-1.019198006730734 1.6330590282441295
-0.9667015970557922 1.6549215637639034
-0.9667015970557922 1.676784099283677
-0.8879569825433794 1.6986466348034508
-0.8354605728684376 1.7336266916350889
-0.7567159583560248 1.7379991987390437
-0.7304677535185539 1.7554892271548628
-0.7567159583560248 1.7554892271548628
-0.8354605728684376 1.768606748466727
-0.7567159583560248 1.7729792555706818
-0.651723139006141 1.786096776882546
-0.6254749341686701 1.786096776882546
-0.5729785244937282 1.7817242697785913
-0.5204821148187864 1.7598617342588174
-0.4942339099813155 1.751116720050908
-0.33674468095648996 1.7379991987390437
-0.31049647611901904 1.7292541845311342
-0.20550365676913532 1.7030191419074057
-0.15300724709419347 1.6680390850757676
-0.20550365676913532 1.62431401403622
-0.20550365676913532 1.5849614501006273
-0.10051083741925163 1.5456088861650346
-0.12675904225672255 1.5150013364373511
0.004481981930632078 1.462531251189894
0.030730186768103 1.4056886588384823
0.08322659644304485 1.3444735593831156
0.1357230061179867 1.2920034741356587
0.21446762063039948 1.2526509102000658
0.29321223514281225 1.2045533320565636
0.3194604399802832 1.1389657254972423
0.29321223514281225 1.0777506260418757
0.2669640303053413 1.0252805407944185
0.2407158254678704 0.9684379484430068
0.2669640303053413 0.9247128774034592
0.2669640303053413 0.8766152992599568
0.39820505449269594 0.8328902282204094
0.42445325933016687 0.7716751287650427
0.3457086448177541 0.7192050435175856
0.29321223514281225 0.6623624511661739
0.2669640303053413 0.6317549014384906
0.2407158254678704 0.6098923659187168
0.29321223514281225 0.5486772664633502
0.1357230061179867 0.5136972096317122
0.1357230061179867 0.4743446456961194
0.18821941579292856 0.4393645888644813
0.18821941579292856 0.4175020533447076
0.2669640303053413 0.391267010720979
0.21446762063039948 0.3606594609932957
0.18821941579292856 0.3256794041616577
0.10947480128051577 0.2950718544339744
0.004481981930632078 0.2688368118102459
0.05697839160557393 0.2557192904983816
0.004481981930632078 0.25134678339442684
0.1357230061179867 0.23385675497860783
0.08322659644304485 0.21199421945883407
-0.04801442774430977 0.19013168393906027
-0.04801442774430977 0.1682691484192865
-0.04801442774430977 0.16389664131533174
-0.0742626325817807 0.1682691484192865
-0.04801442774430977 0.15952413421137698
-0.021766222906838845 0.14640661289951273
0.004481981930632078 0.1289165844836937
0.004481981930632078 0.11579906317182943
0.030730186768103 0.12017157027578419
0.05697839160557393 0.1289165844836937
0.004481981930632078 0.12454407737973894
-0.04801442774430977 0.11142655606787467
-0.10051083741925163 0.09393652765205565
-0.23175186160660624 0.10268154185996517
-0.1792554519316644 0.10705404896391993
-0.10051083741925163 0.10705404896391993
0.004481981930632078 0.09830903475601041
-0.021766222906838845 0.10268154185996517
-0.15300724709419347 0.0895640205481009
-0.20550365676913532 0.08519151344414615
-0.12675904225672255 0.10268154185996517
-0.12675904225672255 0.11142655606787467
-0.0742626325817807 0.11142655606787467
-0.0742626325817807 0.09830903475601041
-0.0742626325817807 0.08519151344414615
-0.12675904225672255 0.0895640205481009
-0.04801442774430977 0.09393652765205565
-0.021766222906838845 0.10705404896391993
-0.021766222906838845 0.09830903475601041
-0.10051083741925163 0.09830903475601041
-0.12675904225672255 0.09393652765205565
-0.20550365676913532 0.10268154185996517
-0.20550365676913532 0.11142655606787467
-0.15300724709419347 0.12454407737973894
-0.0742626325817807 0.1289165844836937
-0.10051083741925163 0.12454407737973894
-0.23175186160660624 0.12017157027578419
-0.2842482712815481 0.13766159869160322
-0.23175186160660624 0.13766159869160322
-0.1792554519316644 0.14640661289951273
-0.15300724709419347 0.14203410579555797
-0.1792554519316644 0.14203410579555797
-0.20550365676913532 0.13766159869160322
-0.2580000664440772 0.1289165844836937
-0.2842482712815481 0.14640661289951273
-0.20550365676913532 0.15077912000346747
-0.1792554519316644 0.14640661289951273
-0.1792554519316644 0.13328909158764846
-0.2842482712815481 0.12017157027578419
-0.3629928857939609 0.12017157027578419
-0.31049647611901904 0.11142655606787467
-0.23175186160660624 0.12017157027578419
-0.15300724709419347 0.10705404896391993
-0.15300724709419347 0.08519151344414615
-0.23175186160660624 0.06770148502832712
-0.2580000664440772 0.054583963716462854
-0.1792554519316644 0.04583894950855335
-0.15300724709419347 0.054583963716462854
-0.10051083741925163 0.04583894950855335
-0.04801442774430977 0.02397641398877957
-0.12675904225672255 0.015231399780870057
-0.23175186160660624 0.015231399780870057
-0.23175186160660624 0.015231399780870057
-0.23175186160660624 0.006486385572960547
-0.2580000664440772 -0.0022586286349489636
-0.20550365676913532 -0.011003642842858475
-0.23175186160660624 -0.006631135738903719
-0.23175186160660624 0.0021138784690057917
-0.20550365676913532 0.010858892676915304
-0.1792554519316644 0.019603906884824815
-0.23175186160660624 0.0021138784690057917
-0.2580000664440772 0.0021138784690057917
-0.41548929546890273 -0.011003642842858475
-0.5467303196562573 -0.01537614994681323
-0.4942339099813155 -0.011003642842858475
-0.41548929546890273 -0.006631135738903719
-0.3629928857939609 -0.01537614994681323
-0.41548929546890273 -0.024121164154722742
-0.4679857051438446 -0.028493671258677498
-0.5992267293311991 -0.04598369967449652
-0.5729785244937282 -0.028493671258677498
-0.4679857051438446 -0.019748657050767986
-0.4679857051438446 -0.028493671258677498
-0.4679857051438446 -0.028493671258677498
-0.5467303196562573 -0.037238685466587006
-0.5729785244937282 -0.037238685466587006
-0.6254749341686701 -0.03286617836263225
-0.5204821148187864 -0.028493671258677498
-0.4942339099813155 -0.03286617836263225
-0.4942339099813155 -0.04598369967449652
-0.5992267293311991 -0.050356206778451276
-0.6779713438436119 -0.04598369967449652
-0.7042195486810829 -0.04598369967449652
-0.651723139006141 -0.04598369967449652
-0.5992267293311991 -0.04598369967449652
-0.5992267293311991 -0.050356206778451276
-0.5467303196562573 -0.050356206778451276
-0.5729785244937282 -0.05910122098636078
-0.5992267293311991 -0.05472871388240603
-0.5467303196562573 -0.041611192570541765
-0.4679857051438446 -0.050356206778451276
-0.5467303196562573 -0.05472871388240603
-0.5467303196562573 -0.05472871388240603
-0.5729785244937282 -0.06347372809031554
-0.5729785244937282 -0.05472871388240603
-0.5204821148187864 -0.04598369967449652
-0.4679857051438446 -0.050356206778451276
-0.4942339099813155 -0.06347372809031554
-0.4942339099813155 -0.05910122098636078
-0.5992267293311991 -0.0678462351942703
-0.651723139006141 -0.05910122098636078
-0.5467303196562573 -0.05472871388240603
-0.5204821148187864 -0.05910122098636078
-0.5204821148187864 -0.06347372809031554
-0.5729785244937282 -0.08533626361008932
-0.7042195486810829 -0.0765912494021798
-0.6779713438436119 -0.0678462351942703
-0.7567159583560248 -0.05910122098636078
-0.7304677535185539 -0.05910122098636078
-0.8092123680309666 -0.06347372809031554
-0.7567159583560248 -0.07221874229822504
-0.7567159583560248 -0.07221874229822504
-0.6254749341686701 -0.06347372809031554
-0.4942339099813155 -0.05472871388240603
-0.33674468095648996 -0.04598369967449652
-0.2842482712815481 -0.05910122098636078
-0.31049647611901904 -0.05910122098636078
-0.44173750030637365 -0.05472871388240603
-0.5204821148187864 -0.05472871388240603
-0.5204821148187864 -0.050356206778451276
-0.4942339099813155 -0.06347372809031554
-0.5204821148187864 -0.06347372809031554
-0.4942339099813155 -0.07221874229822504
-0.5467303196562573 -0.0765912494021798
-0.4942339099813155 -0.07221874229822504
-0.4942339099813155 -0.05910122098636078
-0.44173750030637365 -0.05472871388240603
-0.41548929546890273 -0.0678462351942703
-0.4679857051438446 -0.07221874229822504
-0.4679857051438446 -0.0678462351942703
-0.5204821148187864 -0.06347372809031554
-0.4942339099813155 -0.050356206778451276
-0.4942339099813155 -0.050356206778451276
-0.44173750030637365 -0.050356206778451276
-0.3629928857939609 -0.04598369967449652
-0.31049647611901904 -0.04598369967449652
-0.12675904225672255 0.0021138784690057917
-0.0742626325817807 0.08519151344414615
-0.0742626325817807 0.27320931891420064
-0.04801442774430977 0.605519858814762
0.030730186768103 0.8766152992599568
0.2669640303053413 0.8766152992599568
0.8181763318922307 0.6623624511661739
2.025593754415893 0.4655996314882099
3.9942091172262124 0.3825219965130695
5.700342431661823 0.33879692547352197
5.752838841336764 0.3038168686418839
4.414180394625747 0.2557192904983816
2.813039899540021 0.22511174077069832
2.104338368928306 0.1988766981469698
2.104338368928306 0.13766159869160322
2.183082983440719 0.05895647082041761
2.2618275979531317 -0.050356206778451276
2.2355793931156605 -0.19027643410500344
2.2618275979531317 -0.3564317040552841
2.3668204173030154 -0.5444495095253387
2.4455650318154283 -0.7630748647230764
2.419316826977957 -0.9598376844010404
2.3668204173030154 -1.1697180253908686
2.2880758027906025 -1.379598366380697
2.1305865737657768 -1.5938512144744799
2.025593754415893 -1.7556339773208058
1.8943527302285386 -1.9086717259592223
1.8681045253910677 -2.0311019248699553
1.9730973447409514 -2.1404146024688244
2.104338368928306 -2.232237251651874
2.2618275979531317 -2.267217308483512
2.2618275979531317 -2.31094237952306
2.2093311882781896 -2.3852750002902905
2.104338368928306 -2.450862606849612
1.9206009350660096 -2.525195227616843
1.7106152963662422 -2.590782834176164
1.421885043154062 -2.612645369695938
1.2118994044542946 -2.625762891007802
0.9494173560795853 -2.643252919423621
0.7656799222172889 -2.66948796204735
0.42445325933016687 -2.700095511775033
0.030730186768103 -2.7088405259829424
-0.4942339099813155 -2.7132130330868973
-1.019198006730734 -2.7088405259829424
-1.386672874455327 -2.7219580472948066
-1.4391692841302688 -2.7219580472948066
-1.4391692841302688 -2.717585540190852
-1.2029354405930304 -2.7132130330868973
-0.9929498018932631 -2.700095511775033
-0.8879569825433794 -2.6738604691513044
-0.8092123680309666 -2.643252919423621
-0.8879569825433794 -2.595155341280119
-1.0454462115682048 -2.5470577631366167
-1.2554318502679722 -2.4639801281614764
-1.4654174889677396 -2.359039957666562
-1.4916656938052106 -2.254099787171648
-1.4916656938052106 -2.1491596166767337
-1.4654174889677396 -2.0311019248699553
-1.386672874455327 -1.9305342614789962
-1.360424669617856 -1.7818690199445344
-1.2554318502679722 -1.6244587642021633
-1.2029354405930304 -1.449558480043973
-1.2291836454305014 -1.2834032100936923
-1.1766872357555596 -1.1259929543513212
-1.1504390309180885 -0.9642101915049952
-1.1766872357555596 -0.8024274286586692
-1.0454462115682048 -0.6187821302925695
-0.9404533922183212 -0.4395093390304245
-0.8092123680309666 -0.2864715903920081
-0.8617087777059085 -0.13343384175359163
-0.9667015970557922 -0.01537614994681323
-1.019198006730734 0.1289165844836937
-1.0716944164056759 0.24697427629047208
-1.0979426212431467 0.36503196809725047
-1.0716944164056759 0.4743446456961194
-0.9142051873808503 0.553049773567305
-0.8092123680309666 0.6142648730226715
-0.8354605728684376 0.6754799724780381
-0.8354605728684376 0.7192050435175856
-0.8879569825433794 0.7585576074531785
-0.8879569825433794 0.7935376642848165
-0.7042195486810829 0.8197727069085451
-0.6779713438436119 0.8416352424283189
-0.6779713438436119 0.8634977779480926
-0.651723139006141 0.8941053276757759
-0.7829641631934957 0.9247128774034592
-0.7304677535185539 0.9553204271311425
-0.6779713438436119 0.981555469754871
-0.6779713438436119 1.0034180052746449
-0.651723139006141 1.020908033690464
-0.5992267293311991 1.0558880905221018
-0.4679857051438446 1.0908681473537398
-0.5204821148187864 1.1214756970814233
-0.5204821148187864 1.143338232601197
-0.4942339099813155 1.1695732752249255
-0.5992267293311991 1.1826907965367897
-0.5729785244937282 1.2307883746802921
-0.5467303196562573 1.2570234173040207
-0.5467303196562573 1.2920034741356587
-0.5204821148187864 1.322611023863342
-0.5992267293311991 1.3444735593831156
-0.6254749341686701 1.3707086020068442
-0.5467303196562573 1.4188061801503467
-0.44173750030637365 1.4494137298780299
-0.3629928857939609 1.4712762653978035
-0.2580000664440772 1.501883815125487
-0.2842482712815481 1.5150013364373511
-0.3892410906314318 1.554353900372944
-0.3892410906314318 1.589333957204582
-0.41548929546890273 1.6286865211401749
-0.33674468095648996 1.659294070867858
-0.23175186160660624 1.6724115921797225
-0.1792554519316644 1.6855291134915866
-0.10051083741925163 1.7205091703232247
-0.15300724709419347 1.7467442129469533
-0.15300724709419347 1.7729792555706818
-0.12675904225672255 1.7904692839865008
-0.1792554519316644 1.803586805298365
-0.15300724709419347 1.7992142981944104
-0.10051083741925163 1.8167043266102294
0.030730186768103 1.8341943550260482
0.18821941579292856 1.8473118763379126
0.39820505449269594 1.8341943550260482
0.371956849655225 1.821076833714184
0.3194604399802832 1.7992142981944104
0.29321223514281225 1.7817242697785913
0.4769496690051087 1.7773517626746365
0.4769496690051087 1.7642342413627723
0.5031978738425796 1.7248816774271793
0.42445325933016687 1.6986466348034508
0.42445325933016687 1.6505490566599486
0.5294460786800506 1.6111964927243558
0.7394317173798179 1.5805889429966724
0.9494173560795853 1.5499813932689892
1.054410175429469 1.4887662938136226
1.054410175429469 1.4362962085661655
0.9231691512421144 1.375081109110799
0.7919281270547598 1.3269835309672966
0.7656799222172889 1.2788859528237944
0.8444245367297016 1.2176708533684277
0.8969209464046435 1.160828261017016
0.9494173560795853 1.0908681473537398
1.0019137657545272 1.034025555002328
1.054410175429469 0.9771829626509162
1.1069065851044109 0.9247128774034592
1.1069065851044109 0.8853603134678664
1.0281619705919982 0.8154001998045903
0.7656799222172889 0.7716751287650427
0.6869353077048761 0.697342507997812
0.6606871028674052 0.6492449298543096
0.7394317173798179 0.6142648730226715
0.8444245367297016 0.5749123090870788
0.7919281270547598 0.5268147309435764
0.6869353077048761 0.4830896599040289
0.6344388980299343 0.43499208176052656
0.5819424883549924 0.3956395178249338
0.6344388980299343 0.38689450361702427
0.6344388980299343 0.36940447520120523
0.6344388980299343 0.34316943257747673
0.5819424883549924 0.29944436153792914
0.5556942835175215 0.28195433312211016
0.5031978738425796 0.2688368118102459
0.4769496690051087 0.24697427629047208
0.5294460786800506 0.24260176918651735
0.5556942835175215 0.23385675497860783
0.4769496690051087 0.1988766981469698
0.4769496690051087 0.1857591768351055
0.3194604399802832 0.1682691484192865
0.3457086448177541 0.16389664131533174
0.39820505449269594 0.16389664131533174
0.39820505449269594 0.14640661289951273
0.371956849655225 0.13328909158764846
0.2669640303053413 0.12017157027578419
0.29321223514281225 0.11579906317182943
0.39820505449269594 0.11579906317182943
0.42445325933016687 0.11579906317182943
0.39820505449269594 0.10705404896391993
0.2669640303053413 0.10705404896391993
0.2669640303053413 0.09393652765205565
0.2407158254678704 0.08519151344414615
0.2407158254678704 0.0895640205481009
0.29321223514281225 0.09393652765205565
0.3194604399802832 0.08519151344414615
0.3457086448177541 0.08081900634019139
0.2669640303053413 0.07644649923623663
0.21446762063039948 0.06770148502832712
0.29321223514281225 0.07207399213228188
0.29321223514281225 0.07644649923623663
0.3194604399802832 0.07207399213228188
0.2407158254678704 0.06332897792437236
0.2407158254678704 0.054583963716462854
0.2407158254678704 0.06770148502832712
0.2669640303053413 0.07644649923623663
0.2669640303053413 0.08519151344414615
0.3457086448177541 0.07644649923623663
0.2669640303053413 0.07207399213228188
0.21446762063039948 0.06332897792437236
0.08322659644304485 0.06332897792437236
0.1357230061179867 0.07207399213228188
0.16197121095545763 0.0895640205481009
0.21446762063039948 0.08519151344414615
0.2407158254678704 0.07644649923623663
0.2407158254678704 0.06332897792437236
0.16197121095545763 0.07644649923623663
0.16197121095545763 0.07644649923623663
0.21446762063039948 0.08081900634019139
0.18821941579292856 0.08081900634019139
0.21446762063039948 0.07644649923623663
0.1357230061179867 0.06770148502832712
0.004481981930632078 0.07207399213228188
0.10947480128051577 0.08081900634019139
0.10947480128051577 0.0895640205481009
0.10947480128051577 0.0895640205481009
0.1357230061179867 0.08519151344414615
0.05697839160557393 0.06770148502832712
0.030730186768103 0.07644649923623663
0.05697839160557393 0.08519151344414615
0.08322659644304485 0.0895640205481009
0.10947480128051577 0.07644649923623663
0.05697839160557393 0.07644649923623663
0.004481981930632078 0.06770148502832712
-0.04801442774430977 0.06770148502832712
-0.0742626325817807 0.06770148502832712
0.030730186768103 0.07207399213228188
0.004481981930632078 0.06332897792437236
0.004481981930632078 0.06332897792437236
-0.04801442774430977 0.0502114566125081
-0.10051083741925163 0.04583894950855335
-0.0742626325817807 0.04583894950855335
-0.10051083741925163 0.06332897792437236
0.004481981930632078 0.054583963716462854
-0.0742626325817807 0.05895647082041761
-0.04801442774430977 0.0502114566125081
-0.12675904225672255 0.0502114566125081
-0.1792554519316644 0.06332897792437236
-0.1792554519316644 0.06770148502832712
-0.1792554519316644 0.07207399213228188
-0.12675904225672255 0.06332897792437236
-0.23175186160660624 0.054583963716462854
-0.2580000664440772 0.05895647082041761
-0.23175186160660624 0.06770148502832712
-0.20550365676913532 0.05895647082041761
-0.15300724709419347 0.054583963716462854
-0.12675904225672255 0.054583963716462854
-0.20550365676913532 0.054583963716462854
-0.23175186160660624 0.04583894950855335
-0.1792554519316644 0.04583894950855335
-0.0742626325817807 0.04146644240459859
-0.021766222906838845 0.028348921092734323
-0.0742626325817807 0.015231399780870057
-0.0742626325817807 -0.0022586286349489636
-0.15300724709419347 -0.0022586286349489636
-0.12675904225672255 -0.006631135738903719
-0.0742626325817807 -0.011003642842858475
-0.04801442774430977 -0.019748657050767986
0.030730186768103 -0.037238685466587006
0.030730186768103 -0.04598369967449652
-0.04801442774430977 -0.0678462351942703
-0.10051083741925163 -0.05910122098636078
-0.04801442774430977 -0.05472871388240603
-0.0742626325817807 -0.05910122098636078
-0.12675904225672255 -0.0765912494021798
-0.1792554519316644 -0.08096375650613456
-0.20550365676913532 -0.0678462351942703
-0.15300724709419347 -0.05910122098636078
-0.0742626325817807 -0.037238685466587006
-0.04801442774430977 -0.041611192570541765
-0.10051083741925163 -0.04598369967449652
-0.23175186160660624 -0.05472871388240603
-0.2842482712815481 -0.06347372809031554
-0.33674468095648996 -0.05472871388240603
-0.3629928857939609 -0.041611192570541765
-0.31049647611901904 -0.050356206778451276
-0.31049647611901904 -0.05910122098636078
-0.41548929546890273 -0.06347372809031554
-0.41548929546890273 -0.0678462351942703
-0.3629928857939609 -0.05472871388240603
-0.3629928857939609 -0.04598369967449652
-0.31049647611901904 -0.037238685466587006
-0.2842482712815481 -0.05472871388240603
-0.3892410906314318 -0.0678462351942703
-0.4679857051438446 -0.05910122098636078
-0.44173750030637365 -0.041611192570541765
-0.44173750030637365 -0.04598369967449652
-0.33674468095648996 -0.041611192570541765
-0.33674468095648996 -0.05472871388240603
-0.3892410906314318 -0.05472871388240603
-0.44173750030637365 -0.06347372809031554
-0.4679857051438446 -0.050356206778451276
-0.3892410906314318 -0.037238685466587006
-0.3892410906314318 -0.05910122098636078
-0.3892410906314318 -0.06347372809031554
-0.44173750030637365 -0.0678462351942703
-0.4942339099813155 -0.05910122098636078
-0.44173750030637365 -0.050356206778451276
-0.44173750030637365 -0.050356206778451276
-0.3629928857939609 -0.050356206778451276
-0.33674468095648996 -0.06347372809031554
-0.3892410906314318 -0.06347372809031554
-0.3892410906314318 -0.05910122098636078
-0.3629928857939609 -0.041611192570541765
-0.33674468095648996 -0.037238685466587006
-0.3629928857939609 -0.024121164154722742
-0.31049647611901904 -0.03286617836263225
-0.2842482712815481 -0.019748657050767986
-0.33674468095648996 0.0021138784690057917
-0.23175186160660624 0.09830903475601041
-0.10051083741925163 0.3344244183695672
-0.021766222906838845 0.6929700008938572
0.1357230061179867 0.8678702850520473
0.39820505449269594 0.7323225648294499
1.0281619705919982 0.49620718121589313
2.6817988753526665 0.37377698230516
4.7029106478379274 0.3606594609932957
5.306619359099759 0.33879692547352197
4.20419475592598 0.32130689705770293
2.6293024656777244 0.2950718544339744
1.815608115716126 0.2688368118102459
1.763111706041184 0.2557192904983816
1.9468491399034804 0.22073923366674356
2.025593754415893 0.14203410579555797
2.156834778603248 0.02397641398877957
2.2618275979531317 -0.13343384175359163
2.393068622140486 -0.3127066330157366
2.576806056002783 -0.49197942427788155
2.734295285027608 -0.6581346942281623
2.839288104377492 -0.8505250068021715
2.9705291285648467 -1.0647778548959546
2.9442809237273755 -1.2834032100936923
2.891784514052434 -1.449558480043973
3.0230255382397884 -1.5851062002665703
3.0755219479147304 -1.6856738636575297
3.285507586614498 -1.8168490767761725
3.3642522011269103 -1.9305342614789962
3.3117557914519686 -2.017984403558091
3.2330111769395558 -2.1316695882609147
3.128018357589672 -2.2409822658597838
3.154266562427143 -2.3328049150428334
3.049273743077259 -2.4246275642258834
2.78679169470255 -2.4945876778891596
2.393068622140486 -2.5470577631366167
1.9730973447409514 -2.5820378199682548
1.815608115716126 -2.6039003554880282
1.5531260673414167 -2.625762891007802
1.2643958141292364 -2.651997933631531
0.713183512542347 -2.6782329762552592
0.1357230061179867 -2.686977990463169
-0.41548929546890273 -2.6913504975671234
-0.6779713438436119 -2.6957230046710783
-0.5992267293311991 -2.6913504975671234
-0.5729785244937282 -2.700095511775033
-0.5204821148187864 -2.682605483359214
-0.4942339099813155 -2.665115454943395
-0.5992267293311991 -2.608272862591983
-0.651723139006141 -2.538312748928707
-0.7567159583560248 -2.450862606849612
-0.9142051873808503 -2.345922436354698
-1.0979426212431467 -2.236609758755829
-1.2816800551054432 -2.1272970811569603
-1.386672874455327 -1.9961218680383175
-1.334176464780385 -1.825594090984082
-1.2554318502679722 -1.646321299721937
-1.1504390309180885 -1.4539309871479278
-1.2554318502679722 -1.2484231532620542
-1.2816800551054432 -1.0647778548959546
-1.2816800551054432 -0.8680150352179905
-1.2554318502679722 -0.6843697368518908
-1.2816800551054432 -0.4788619029660173
-1.2816800551054432 -0.2995891117038723
-1.307928259942914 -0.15092387016941064
-1.4391692841302688 -0.0022586286349489636
-1.4654174889677396 0.1289165844836937
-1.5179138986426814 0.2557192904983816
-1.5441621034801525 0.37814948940911475
-1.4916656938052106 0.4918346741119384
-1.4391692841302688 0.5661672948791693
-1.386672874455327 0.6273823943345358
-1.4129210792927978 0.6754799724780381
-1.334176464780385 0.7235775506215404
-1.2816800551054432 0.767302621661088
-1.360424669617856 0.7891651571808618
-1.2554318502679722 0.8197727069085451
-1.386672874455327 0.8416352424283189
-1.4391692841302688 0.8766152992599568
-1.360424669617856 0.9159678631955497
-1.360424669617856 0.946575412923233
-1.2816800551054432 0.9728104555469615
-1.2816800551054432 1.0034180052746449
-1.307928259942914 1.0034180052746449
-1.386672874455327 1.034025555002328
-1.334176464780385 1.0690056118339661
-1.334176464780385 1.1083581757695589
-1.334176464780385 1.1302207112893328
-1.386672874455327 1.1564557539130613
-1.386672874455327 1.1739457823288801
-1.4916656938052106 1.2001808249526087
-1.5441621034801525 1.2439058959921563
-1.4129210792927978 1.2832584599277492
-1.4654174889677396 1.3094935025514776
-1.5179138986426814 1.3357285451752061
-1.5704103083176233 1.35759108069498
-1.5704103083176233 1.3881986304226632
-1.5179138986426814 1.4362962085661655
-1.5179138986426814 1.4756487725017584
-1.4916656938052106 1.497511308021532
-1.5441621034801525 1.5281188577492155
-1.4916656938052106 1.5499813932689892
-1.6229067179925651 1.5937064643085368
-1.5441621034801525 1.62431401403622
-1.4916656938052106 1.6549215637639034
-1.4391692841302688 1.6724115921797225
-1.360424669617856 1.6986466348034508
-1.386672874455327 1.7117641561153152
-1.4129210792927978 1.7423717058429984
-1.360424669617856 1.768606748466727
-1.2816800551054432 1.7904692839865008
-1.2029354405930304 1.7948417910904555
-1.2029354405930304 1.7948417910904555
