0.1357230061179867 -0.08533626361008932
0.16197121095545763 -0.08096375650613456
0.21446762063039948 -0.09408127781799883
0.08322659644304485 -0.08096375650613456
0.05697839160557393 -0.08096375650613456
0.030730186768103 -0.08533626361008932
0.05697839160557393 -0.08970877071404407
0.10947480128051577 -0.08970877071404407
0.10947480128051577 -0.10719879912986309
0.1357230061179867 -0.12468882754568211
0.16197121095545763 -0.12031632044172735
0.18821941579292856 -0.12031632044172735
0.2407158254678704 -0.11157130623381785
0.371956849655225 -0.11594381333777261
0.371956849655225 -0.12031632044172735
0.3194604399802832 -0.1378063488575464
0.2407158254678704 -0.15092387016941064
0.3194604399802832 -0.12906133464963687
0.3457086448177541 -0.13343384175359163
0.29321223514281225 -0.13343384175359163
0.29321223514281225 -0.1552963772733654
0.3457086448177541 -0.14655136306545588
0.371956849655225 -0.09845378492195359
0.371956849655225 0.028348921092734323
0.5819424883549924 0.2950718544339744
0.8181763318922307 0.6317549014384906
1.0281619705919982 0.767302621661088
1.3431404286416493 0.6361274085424453
1.9993455495784223 0.42187456044866234
3.6267342495016197 0.30818937574583866
5.516604997799527 0.27320931891420064
6.277802938086183 0.23385675497860783
5.464108588124584 0.19450419104301503
4.020457322063684 0.13766159869160322
2.9442809237273755 0.0895640205481009
2.4455650318154283 0.02397641398877957
2.5243096463278407 -0.0678462351942703
2.5243096463278407 -0.19027643410500344
2.5243096463278407 -0.3345691685355104
2.5243096463278407 -0.4963519313818363
2.5243096463278407 -0.6756247226439813
2.550557851165312 -0.8548975139061262
2.6293024656777244 -1.0079352625445428
2.7080470801901373 -1.1609730111829593
2.7080470801901373 -1.2965207314055565
2.6817988753526665 -1.4276959445241992
2.550557851165312 -1.5544986505388871
2.576806056002783 -1.7031638920733487
2.6293024656777244 -1.8343391051919915
2.734295285027608 -2.000494375142272
2.78679169470255 -2.1316695882609147
2.6817988753526665 -2.249727280067693
2.6555506705151957 -2.3371774221467883
2.6030542608402536 -2.4027650287061095
2.576806056002783 -2.4552351139535666
2.4455650318154283 -2.538312748928707
2.2618275979531317 -2.5864103270722096
2.1305865737657768 -2.6388804123196663
1.8681045253910677 -2.6738604691513044
1.6843670915287712 -2.6957230046710783
1.5531260673414167 -2.717585540190852
1.3431404286416493 -2.7438205828145805
0.9756655609170563 -2.7525655970224903
0.4507014641676378 -2.7700556254383093
-0.021766222906838845 -2.7788006396462186
-0.3892410906314318 -2.7831731467501735
-0.5204821148187864 -2.7656831183343544
-0.44173750030637365 -2.7656831183343544
-0.3892410906314318 -2.7656831183343544
-0.31049647611901904 -2.7394480757106257
-0.33674468095648996 -2.700095511775033
-0.2580000664440772 -2.647625426527576
-0.2842482712815481 -2.560175284448481
-0.3892410906314318 -2.4552351139535666
-0.44173750030637365 -2.3502949434586524
-0.5204821148187864 -2.21911973034001
-0.651723139006141 -2.0791995030134576
-0.6254749341686701 -1.9042992188552677
-0.5204821148187864 -1.7119089062812582
-0.33674468095648996 -1.5282636079151586
-0.15300724709419347 -1.3358732953411494
-0.10051083741925163 -1.1347379685592307
-0.1792554519316644 -0.9423476559852214
-0.2580000664440772 -0.7499573434112121
-0.33674468095648996 -0.575057059253022
-0.3892410906314318 -0.38703925378296744
-0.5467303196562573 -0.234001505144551
-0.6254749341686701 -0.09408127781799883
-0.651723139006141 0.04146644240459859
-0.6254749341686701 0.17264165552324126
-0.6254749341686701 0.3125618828497934
-0.5992267293311991 0.42187456044866234
-0.651723139006141 0.48746216700798367
-0.651723139006141 0.5443047593593955
-0.7042195486810829 0.588029830398943
-0.7567159583560248 0.6317549014384906
-0.651723139006141 0.6754799724780381
-0.5467303196562573 0.7017150151017667
-0.5992267293311991 0.7323225648294499
-0.5729785244937282 0.7410675790373594
-0.651723139006141 0.7716751287650427
-0.6254749341686701 0.7979101713887713
-0.6254749341686701 0.8285177211164546
-0.5204821148187864 0.8460077495322735
-0.5204821148187864 0.8722427921560021
-0.5992267293311991 0.8853603134678664
-0.6254749341686701 0.9028503418836854
-0.6254749341686701 0.929085384507414
-0.5729785244937282 0.946575412923233
-0.5467303196562573 0.981555469754871
-0.5467303196562573 0.9859279768588257
-0.5467303196562573 1.0121630194825544
-0.6254749341686701 1.034025555002328
-0.5992267293311991 1.0602605976260566
-0.4942339099813155 1.0908681473537398
-0.5467303196562573 1.1127306828735137
-0.4942339099813155 1.1389657254972423
-0.5204821148187864 1.1520832468091065
-0.5729785244937282 1.178318289432835
-0.5729785244937282 1.2045533320565636
-0.5204821148187864 1.2395333888882016
-0.5204821148187864 1.2701409386158848
-0.5467303196562573 1.300748488343568
-0.5467303196562573 1.3094935025514776
-0.5467303196562573 1.3269835309672966
-0.5467303196562573 1.3794536162147537
-0.4942339099813155 1.4013161517345276
-0.5204821148187864 1.4362962085661655
-0.44173750030637365 1.4537862369819845
-0.5204821148187864 1.466903758293849
-0.5729785244937282 1.4931388009175774
-0.4679857051438446 1.5281188577492155
-0.33674468095648996 1.5587264074768987
-0.31049647611901904 1.5762164358927178
-0.31049647611901904 1.5937064643085368
-0.33674468095648996 1.6024514785164463
-0.3629928857939609 1.6199415069322654
-0.2580000664440772 1.646176549555994
-0.2580000664440772 1.6549215637639034
-0.1792554519316644 1.663666577971813
-0.12675904225672255 1.663666577971813
-0.12675904225672255 1.659294070867858
-0.15300724709419347 1.6549215637639034
-0.12675904225672255 1.6549215637639034
-0.021766222906838845 1.646176549555994
0.10947480128051577 1.62431401403622
0.21446762063039948 1.5980789714124914
0.18821941579292856 1.5630989145808534
0.16197121095545763 1.5281188577492155
0.16197121095545763 1.5106288293333965
0.2407158254678704 1.4712762653978035
0.371956849655225 1.4275511943582562
0.42445325933016687 1.3881986304226632
0.371956849655225 1.318238516759387
0.29321223514281225 1.2788859528237944
0.39820505449269594 1.2264158675763372
0.4507014641676378 1.1870633036407445
0.5556942835175215 1.1345932183932874
0.5556942835175215 1.0646331047300113
0.5294460786800506 0.99904549817069
0.4507014641676378 0.946575412923233
0.5031978738425796 0.8984778347797306
0.5294460786800506 0.854752763740183
0.6081906931924633 0.7979101713887713
0.5819424883549924 0.7454400861413142
0.5556942835175215 0.697342507997812
0.4769496690051087 0.6404999156464001
0.5031978738425796 0.6011473517108072
0.5556942835175215 0.5574222806712598
0.5556942835175215 0.5224422238396217
0.5294460786800506 0.47871715280007415
0.5031978738425796 0.4306195746565718
0.39820505449269594 0.391267010720979
0.39820505449269594 0.3606594609932957
0.42445325933016687 0.35191444678538625
0.4769496690051087 0.3169343899537482
0.39820505449269594 0.2863268402260649
0.371956849655225 0.24697427629047208
0.29321223514281225 0.22948424787465307
0.29321223514281225 0.21199421945883407
0.371956849655225 0.20324920525092455
0.371956849655225 0.17264165552324126
0.39820505449269594 0.15515162710742222
0.29321223514281225 0.1289165844836937
0.21446762063039948 0.11142655606787467
0.18821941579292856 0.10705404896391993
0.18821941579292856 0.10268154185996517
0.2407158254678704 0.09393652765205565
0.2407158254678704 0.0895640205481009
0.21446762063039948 0.07207399213228188
0.18821941579292856 0.054583963716462854
0.16197121095545763 0.04146644240459859
0.18821941579292856 0.054583963716462854
0.18821941579292856 0.0502114566125081
0.21446762063039948 0.04146644240459859
0.18821941579292856 0.03272142819668908
0.05697839160557393 0.019603906884824815
0.1357230061179867 0.028348921092734323
0.10947480128051577 0.03709393530064384
0.16197121095545763 0.03272142819668908
0.1357230061179867 0.03272142819668908
0.10947480128051577 0.015231399780870057
0.10947480128051577 0.02397641398877957
0.10947480128051577 0.019603906884824815
0.10947480128051577 0.03272142819668908
0.16197121095545763 0.03709393530064384
0.21446762063039948 0.02397641398877957
0.10947480128051577 0.019603906884824815
0.10947480128051577 0.019603906884824815
0.10947480128051577 0.04146644240459859
0.16197121095545763 0.03272142819668908
0.21446762063039948 0.03272142819668908
0.18821941579292856 0.03272142819668908
0.16197121095545763 0.019603906884824815
0.10947480128051577 0.03272142819668908
0.08322659644304485 0.03709393530064384
0.16197121095545763 0.04583894950855335
0.21446762063039948 0.03709393530064384
0.21446762063039948 0.04146644240459859
0.10947480128051577 0.028348921092734323
0.05697839160557393 0.03709393530064384
0.05697839160557393 0.04583894950855335
0.16197121095545763 0.054583963716462854
0.1357230061179867 0.04583894950855335
0.1357230061179867 0.0502114566125081
0.05697839160557393 0.03709393530064384
0.030730186768103 0.03272142819668908
0.004481981930632078 0.04146644240459859
0.05697839160557393 0.05895647082041761
0.05697839160557393 0.03709393530064384
0.08322659644304485 0.03709393530064384
0.004481981930632078 0.03272142819668908
-0.0742626325817807 0.015231399780870057
-0.10051083741925163 0.02397641398877957
0.004481981930632078 0.03709393530064384
0.05697839160557393 0.04146644240459859
0.030730186768103 0.03272142819668908
-0.021766222906838845 0.015231399780870057
-0.0742626325817807 0.006486385572960547
-0.04801442774430977 0.019603906884824815
-0.021766222906838845 0.02397641398877957
0.030730186768103 0.0021138784690057917
-0.10051083741925163 0.006486385572960547
-0.12675904225672255 -0.011003642842858475
-0.15300724709419347 -0.01537614994681323
-0.12675904225672255 -0.011003642842858475
-0.021766222906838845 -0.006631135738903719
-0.021766222906838845 -0.01537614994681323
-0.04801442774430977 -0.028493671258677498
-0.10051083741925163 -0.028493671258677498
-0.1792554519316644 -0.037238685466587006
-0.15300724709419347 -0.019748657050767986
-0.12675904225672255 -0.011003642842858475
-0.10051083741925163 -0.028493671258677498
-0.15300724709419347 -0.037238685466587006
-0.15300724709419347 -0.050356206778451276
-0.1792554519316644 -0.050356206778451276
-0.20550365676913532 -0.04598369967449652
-0.12675904225672255 -0.041611192570541765
-0.15300724709419347 -0.041611192570541765
-0.15300724709419347 -0.04598369967449652
-0.20550365676913532 -0.05910122098636078
-0.20550365676913532 -0.05472871388240603
-0.23175186160660624 -0.05472871388240603
-0.20550365676913532 -0.050356206778451276
-0.12675904225672255 -0.05472871388240603
-0.1792554519316644 -0.05472871388240603
-0.23175186160660624 -0.0678462351942703
-0.2580000664440772 -0.07221874229822504
-0.2580000664440772 -0.06347372809031554
-0.2842482712815481 -0.05910122098636078
-0.2580000664440772 -0.0678462351942703
-0.20550365676913532 -0.07221874229822504
-0.1792554519316644 -0.08533626361008932
-0.23175186160660624 -0.08970877071404407
-0.23175186160660624 -0.0678462351942703
-0.20550365676913532 -0.0678462351942703
-0.20550365676913532 -0.0765912494021798
-0.2842482712815481 -0.08096375650613456
-0.33674468095648996 -0.08533626361008932
-0.33674468095648996 -0.09408127781799883
-0.2842482712815481 -0.08533626361008932
-0.2842482712815481 -0.07221874229822504
-0.20550365676913532 -0.07221874229822504
-0.2580000664440772 -0.08096375650613456
-0.2842482712815481 -0.09408127781799883
-0.2842482712815481 -0.09408127781799883
-0.31049647611901904 -0.08970877071404407
-0.23175186160660624 -0.08096375650613456
-0.20550365676913532 -0.08533626361008932
-0.20550365676913532 -0.08096375650613456
-0.23175186160660624 -0.08096375650613456
-0.2842482712815481 -0.09408127781799883
-0.2842482712815481 -0.09845378492195359
-0.2580000664440772 -0.08533626361008932
-0.23175186160660624 -0.08970877071404407
-0.2842482712815481 -0.08096375650613456
-0.2842482712815481 -0.09408127781799883
-0.31049647611901904 -0.09408127781799883
-0.2580000664440772 -0.08096375650613456
-0.23175186160660624 -0.08096375650613456
-0.1792554519316644 -0.08970877071404407
-0.20550365676913532 -0.08970877071404407
-0.2842482712815481 -0.09845378492195359
-0.33674468095648996 -0.08970877071404407
-0.2842482712815481 -0.09408127781799883
-0.23175186160660624 -0.08533626361008932
-0.23175186160660624 -0.08533626361008932
-0.20550365676913532 -0.08970877071404407
-0.1792554519316644 -0.10719879912986309
-0.23175186160660624 -0.10282629202590834
-0.2580000664440772 -0.09408127781799883
-0.20550365676913532 -0.08970877071404407
-0.12675904225672255 -0.09408127781799883
-0.20550365676913532 -0.08970877071404407
-0.1792554519316644 -0.10719879912986309
-0.2580000664440772 -0.09845378492195359
-0.1792554519316644 -0.09408127781799883
-0.20550365676913532 -0.08970877071404407
-0.10051083741925163 -0.0765912494021798
-0.10051083741925163 -0.07221874229822504
-0.12675904225672255 -0.0765912494021798
-0.15300724709419347 -0.06347372809031554
-0.12675904225672255 -0.011003642842858475
0.004481981930632078 0.12017157027578419
0.05697839160557393 0.36503196809725047
0.18821941579292856 0.6929700008938572
0.3194604399802832 0.8503802566362283
0.4769496690051087 0.7498125932452689
0.8706727415671726 0.5268147309435764
1.9468491399034804 0.36503196809725047
3.7317270688515034 0.2906993473300197
5.280371154262288 0.25134678339442684
5.227874744587346 0.19450419104301503
3.7317270688515034 0.12454407737973894
2.49806144149037 0.06770148502832712
2.0518419592533643 -0.024121164154722742
2.183082983440719 -0.14217885596150115
2.156834778603248 -0.2777265761840986
2.104338368928306 -0.4395093390304245
2.025593754415893 -0.627527144500479
2.078090164090835 -0.8111724428665787
2.078090164090835 -0.96858269860895
2.0518419592533643 -1.1259929543513212
2.104338368928306 -1.2615406745739186
2.078090164090835 -1.4102059161083802
1.9730973447409514 -1.5326361150191135
1.8681045253910677 -1.6681838352417109
1.8681045253910677 -1.8168490767761725
1.8943527302285386 -1.9917493609343626
1.8418563205535967 -2.1666496450925528
1.815608115716126 -2.2978248582111958
1.736863501203713 -2.398392521602155
1.6581188866913004 -2.468352635265431
1.5793742721788875 -2.542685256032662
1.421885043154062 -2.617017876799893
1.2643958141292364 -2.6738604691513044
0.8969209464046435 -2.704468018878988
0.5819424883549924 -2.7394480757106257
0.2669640303053413 -2.7481930899185354
0.05697839160557393 -2.7525655970224903
-0.1792554519316644 -2.7656831183343544
-0.5204821148187864 -2.7744281325422637
-1.019198006730734 -2.7788006396462186
-1.4129210792927978 -2.7875456538541283
-1.6229067179925651 -2.7788006396462186
-1.5441621034801525 -2.7656831183343544
-1.360424669617856 -2.7569381041264447
-1.0716944164056759 -2.7481930899185354
-0.8879569825433794 -2.7350755686066712
-0.7829641631934957 -2.700095511775033
-0.7042195486810829 -2.6388804123196663
-0.651723139006141 -2.538312748928707
-0.5992267293311991 -2.4421175926417025
-0.6254749341686701 -2.315314886627015
-0.7567159583560248 -2.1797671664044174
-0.7304677535185539 -2.004866882246227
-0.7567159583560248 -1.8037315554643083
-0.6254749341686701 -1.5894787073705252
-0.4679857051438446 -1.379598366380697
-0.23175186160660624 -1.1434829827671402
-0.20550365676913532 -0.9379751488812667
-0.31049647611901904 -0.7587023576191216
-0.3892410906314318 -0.5706845521490672
-0.41548929546890273 -0.3914117608869222
-0.44173750030637365 -0.2252564909366415
-0.5204821148187864 -0.0678462351942703
-0.6254749341686701 0.06770148502832712
-0.7829641631934957 0.21199421945883407
-0.7304677535185539 0.3475419396814315
-0.7304677535185539 0.4393645888644813
-0.7829641631934957 0.5224422238396217
-0.7042195486810829 0.5661672948791693
-0.7829641631934957 0.605519858814762
-0.8879569825433794 0.6361274085424453
-0.8354605728684376 0.6842249866859477
-0.8092123680309666 0.7279500577254951
-0.8092123680309666 0.7454400861413142
-0.7829641631934957 0.7716751287650427
-0.8354605728684376 0.7891651571808618
-0.8354605728684376 0.8066551855966808
-0.9142051873808503 0.8416352424283189
-0.8354605728684376 0.8591252708441378
-0.7829641631934957 0.8853603134678664
-0.7042195486810829 0.8984778347797306
-0.7829641631934957 0.9072228489876402
-0.8354605728684376 0.929085384507414
-0.8092123680309666 0.946575412923233
-0.7829641631934957 0.9771829626509162
-0.7567159583560248 0.99904549817069
-0.8617087777059085 1.016535526586509
-0.9142051873808503 1.0252805407944185
-0.9667015970557922 1.051515583418147
-0.9142051873808503 1.0821231331458303
-0.8879569825433794 1.1083581757695589
-0.8617087777059085 1.1302207112893328
-0.8879569825433794 1.1477107397051518
-0.8092123680309666 1.160828261017016
-0.8617087777059085 1.1914358107446992
-0.8354605728684376 1.213298346264473
-0.7567159583560248 1.2395333888882016
-0.7042195486810829 1.2570234173040207
-0.7304677535185539 1.2920034741356587
-0.7829641631934957 1.2963759812396134
-0.8354605728684376 1.322611023863342
-0.8354605728684376 1.35759108069498
-0.8092123680309666 1.3881986304226632
-0.7829641631934957 1.4188061801503467
-0.7304677535185539 1.445041222774075
-0.7042195486810829 1.4537862369819845
-0.7829641631934957 1.480021279605713
-0.7567159583560248 1.5062563222294416
-0.651723139006141 1.5412363790610797
-0.5467303196562573 1.554353900372944
-0.4942339099813155 1.5849614501006273
-0.4942339099813155 1.589333957204582
-0.4942339099813155 1.5980789714124914
-0.44173750030637365 1.6286865211401749
-0.3892410906314318 1.641804042452039
-0.31049647611901904 1.6374315353480844
-0.2580000664440772 1.641804042452039
-0.2580000664440772 1.6374315353480844
-0.2842482712815481 1.6330590282441295
-0.20550365676913532 1.6330590282441295
-0.021766222906838845 1.6199415069322654
0.10947480128051577 1.6111964927243558
0.16197121095545763 1.5762164358927178
0.10947480128051577 1.5412363790610797
0.10947480128051577 1.5062563222294416
0.21446762063039948 1.4712762653978035
0.2669640303053413 1.4406687156701203
0.29321223514281225 1.3969436446305727
0.3457086448177541 1.3313560380712515
0.39820505449269594 1.2745134457198397
0.3457086448177541 1.2176708533684277
0.4507014641676378 1.1652007681209708
0.5556942835175215 1.1214756970814233
0.4769496690051087 1.0558880905221018
0.5819424883549924 0.9859279768588257
0.5031978738425796 0.9203403702995044
0.5294460786800506 0.8591252708441378
0.5031978738425796 0.8066551855966808
0.6081906931924633 0.7585576074531785
0.6606871028674052 0.7060875222057215
0.6344388980299343 0.6492449298543096
0.6606871028674052 0.6011473517108072
0.5294460786800506 0.5486772664633502
0.5294460786800506 0.5049521954238027
0.5294460786800506 0.47871715280007415
0.5294460786800506 0.4306195746565718
0.4769496690051087 0.3956395178249338
0.4507014641676378 0.356286953889341
0.3194604399802832 0.32130689705770293
0.3194604399802832 0.2906993473300197
0.3457086448177541 0.2775818260181554
0.3457086448177541 0.2688368118102459
0.3194604399802832 0.23385675497860783
0.2407158254678704 0.2076217123548793
0.21446762063039948 0.1857591768351055
0.21446762063039948 0.18138666973115075
0.29321223514281225 0.17701416262719602
0.29321223514281225 0.15952413421137698
0.2669640303053413 0.15077912000346747
0.21446762063039948 0.11142655606787467
0.1357230061179867 0.10705404896391993
0.1357230061179867 0.1289165844836937
0.1357230061179867 0.12017157027578419
0.1357230061179867 0.11579906317182943
0.10947480128051577 0.11142655606787467
0.030730186768103 0.10268154185996517
-0.021766222906838845 0.0895640205481009
0.08322659644304485 0.09830903475601041
0.08322659644304485 0.09830903475601041
0.10947480128051577 0.10268154185996517
0.10947480128051577 0.09830903475601041
0.10947480128051577 0.08519151344414615
0.05697839160557393 0.08519151344414615
0.030730186768103 0.10268154185996517
0.030730186768103 0.10705404896391993
0.030730186768103 0.09393652765205565
0.08322659644304485 0.09393652765205565
0.05697839160557393 0.08519151344414615
0.030730186768103 0.07644649923623663
0.05697839160557393 0.08519151344414615
0.05697839160557393 0.09393652765205565
0.05697839160557393 0.08519151344414615
0.004481981930632078 0.08081900634019139
-0.0742626325817807 0.08519151344414615
-0.12675904225672255 0.07644649923623663
-0.15300724709419347 0.0895640205481009
-0.04801442774430977 0.09393652765205565
0.030730186768103 0.09393652765205565
0.05697839160557393 0.09393652765205565
0.004481981930632078 0.07644649923623663
-0.04801442774430977 0.07644649923623663
-0.04801442774430977 0.08519151344414615
0.004481981930632078 0.09830903475601041
0.030730186768103 0.09830903475601041
-0.04801442774430977 0.08519151344414615
-0.04801442774430977 0.07207399213228188
-0.12675904225672255 0.07207399213228188
-0.10051083741925163 0.07207399213228188
-0.12675904225672255 0.07644649923623663
-0.021766222906838845 0.07644649923623663
-0.0742626325817807 0.06770148502832712
-0.20550365676913532 0.0502114566125081
-0.1792554519316644 0.0502114566125081
-0.20550365676913532 0.054583963716462854
-0.10051083741925163 0.05895647082041761
-0.10051083741925163 0.06770148502832712
-0.10051083741925163 0.0502114566125081
-0.12675904225672255 0.03272142819668908
-0.20550365676913532 0.04146644240459859
-0.12675904225672255 0.04146644240459859
-0.20550365676913532 0.04146644240459859
-0.15300724709419347 0.04583894950855335
-0.15300724709419347 0.04146644240459859
-0.20550365676913532 0.019603906884824815
-0.20550365676913532 0.019603906884824815
-0.15300724709419347 0.015231399780870057
-0.04801442774430977 0.028348921092734323
-0.12675904225672255 0.019603906884824815
-0.15300724709419347 0.010858892676915304
-0.1792554519316644 0.010858892676915304
-0.31049647611901904 -0.0022586286349489636
-0.20550365676913532 0.006486385572960547
-0.2580000664440772 0.006486385572960547
-0.2580000664440772 -0.0022586286349489636
-0.3629928857939609 -0.006631135738903719
-0.3892410906314318 -0.019748657050767986
-0.3892410906314318 -0.019748657050767986
-0.33674468095648996 -0.019748657050767986
-0.2580000664440772 -0.0022586286349489636
-0.1792554519316644 -0.0022586286349489636
-0.2842482712815481 -0.024121164154722742
-0.33674468095648996 -0.037238685466587006
-0.33674468095648996 -0.037238685466587006
-0.3629928857939609 -0.037238685466587006
-0.31049647611901904 -0.028493671258677498
-0.33674468095648996 -0.024121164154722742
-0.31049647611901904 -0.03286617836263225
-0.3629928857939609 -0.041611192570541765
-0.41548929546890273 -0.04598369967449652
-0.3892410906314318 -0.037238685466587006
-0.31049647611901904 -0.037238685466587006
-0.31049647611901904 -0.04598369967449652
-0.33674468095648996 -0.04598369967449652
-0.41548929546890273 -0.05910122098636078
-0.44173750030637365 -0.0678462351942703
-0.3629928857939609 -0.05910122098636078
-0.3629928857939609 -0.06347372809031554
-0.2580000664440772 -0.05472871388240603
-0.2842482712815481 -0.06347372809031554
-0.3892410906314318 -0.07221874229822504
-0.4942339099813155 -0.0678462351942703
-0.5204821148187864 -0.06347372809031554
-0.4942339099813155 -0.05472871388240603
-0.3629928857939609 -0.05910122098636078
-0.2842482712815481 -0.07221874229822504
-0.2842482712815481 -0.0765912494021798
-0.33674468095648996 -0.0765912494021798
-0.3629928857939609 -0.07221874229822504
-0.3629928857939609 -0.05910122098636078
-0.3629928857939609 -0.06347372809031554
-0.44173750030637365 -0.07221874229822504
-0.41548929546890273 -0.0765912494021798
-0.41548929546890273 -0.0765912494021798
-0.3629928857939609 -0.08096375650613456
-0.31049647611901904 -0.07221874229822504
-0.2580000664440772 -0.0765912494021798
-0.31049647611901904 -0.0678462351942703
-0.3892410906314318 -0.08096375650613456
-0.4942339099813155 -0.08533626361008932
-0.41548929546890273 -0.0765912494021798
-0.3892410906314318 -0.0765912494021798
-0.2580000664440772 -0.0765912494021798
-0.2580000664440772 -0.08096375650613456
-0.31049647611901904 -0.09845378492195359
-0.3629928857939609 -0.08533626361008932
-0.3892410906314318 -0.09408127781799883
-0.44173750030637365 -0.0765912494021798
-0.3892410906314318 -0.0765912494021798
-0.4942339099813155 -0.08970877071404407
-0.4942339099813155 -0.08970877071404407
-0.4942339099813155 -0.09845378492195359
-0.44173750030637365 -0.08096375650613456
-0.31049647611901904 -0.07221874229822504
-0.31049647611901904 -0.0765912494021798
-0.2842482712815481 -0.0765912494021798
-0.20550365676913532 -0.09408127781799883
-0.31049647611901904 -0.08970877071404407
-0.33674468095648996 -0.09408127781799883
-0.2580000664440772 -0.08096375650613456
-0.23175186160660624 -0.08970877071404407
-0.2580000664440772 -0.08970877071404407
-0.33674468095648996 -0.08096375650613456
-0.44173750030637365 -0.09408127781799883
-0.41548929546890273 -0.08533626361008932
-0.44173750030637365 -0.07221874229822504
-0.3892410906314318 -0.0765912494021798
-0.31049647611901904 -0.07221874229822504
-0.2580000664440772 -0.08970877071404407
-0.2842482712815481 -0.08533626361008932
-0.20550365676913532 -0.0765912494021798
-0.15300724709419347 -0.05910122098636078
-0.0742626325817807 -0.06347372809031554
-0.04801442774430977 -0.037238685466587006
-0.0742626325817807 0.0021138784690057917
-0.0742626325817807 0.11142655606787467
0.030730186768103 0.37814948940911475
0.2669640303053413 0.7192050435175856
0.5556942835175215 0.8460077495322735
1.0019137657545272 0.7017150151017667
1.815608115716126 0.47871715280007415
3.442996815639323 0.356286953889341
5.4116121784496425 0.3038168686418839
6.19905832357377 0.2688368118102459
5.201626539749875 0.2163667265627888
3.547989634989207 0.15077912000346747
2.419316826977957 0.07644649923623663
2.078090164090835 -0.024121164154722742
2.078090164090835 -0.14217885596150115
2.156834778603248 -0.2558640406643248
2.1305865737657768 -0.42201931061460546
2.104338368928306 -0.6187821302925695
2.0518419592533643 -0.8286624712823978
2.156834778603248 -1.0254252909603618
2.2355793931156605 -1.200325575118552
2.2093311882781896 -1.3489908166530136
2.2880758027906025 -1.484538536875611
2.156834778603248 -1.6244587642021633
1.9993455495784223 -1.7774965128405797
1.8943527302285386 -1.948024289894815
1.9468491399034804 -2.1272970811569603
1.9468491399034804 -2.258472294275603
1.9730973447409514 -2.363412464770517
1.7893599108786549 -2.450862606849612
1.5268778625039456 -2.5295677347207977
1.2906440189667074 -2.6039003554880282
1.08065838026694 -2.665115454943395
0.8706727415671726 -2.6738604691513044
0.6081906931924633 -2.7088405259829424
0.21446762063039948 -2.7307030615027164
-0.2580000664440772 -2.7525655970224903
-0.651723139006141 -2.7569381041264447
-1.0979426212431467 -2.7613106112303996
-1.4391692841302688 -2.7569381041264447
-1.8066441518548617 -2.7525655970224903
-2.0428779953921 -2.7700556254383093
-2.121622609904513 -2.7569381041264447
-2.0428779953921 -2.7525655970224903
-1.8066441518548617 -2.7307030615027164
-1.6229067179925651 -2.686977990463169
-1.5441621034801525 -2.6388804123196663
-1.4916656938052106 -2.560175284448481
-1.5966585131550943 -2.4596076210575215
-1.5966585131550943 -2.328432407938879
-1.4916656938052106 -2.1622771379885983
-1.2816800551054432 -1.983004346726453
-0.9667015970557922 -1.790614034152444
-0.8354605728684376 -1.5851062002665703
-0.5729785244937282 -1.379598366380697
-0.4942339099813155 -1.1434829827671402
-0.41548929546890273 -0.9423476559852214
-0.31049647611901904 -0.7368398220993478
-0.3629928857939609 -0.5488220166292934
-0.3892410906314318 -0.37392173247110316
-0.4942339099813155 -0.2121389696247772
-0.651723139006141 -0.07221874229822504
-0.651723139006141 0.07207399213228188
-0.6254749341686701 0.22948424787465307
-0.5204821148187864 0.356286953889341
-0.4942339099813155 0.44810960307239084
-0.4679857051438446 0.5049521954238027
-0.4942339099813155 0.570539801983124
-0.4679857051438446 0.605519858814762
-0.3629928857939609 0.6623624511661739
-0.31049647611901904 0.6885974937899024
-0.2842482712815481 0.7366950719334047
-0.2842482712815481 0.7629301145571332
-0.31049647611901904 0.7891651571808618
-0.33674468095648996 0.8110276927006356
-0.33674468095648996 0.8372627353243641
-0.33674468095648996 0.854752763740183
-0.3892410906314318 0.8678702850520473
-0.4679857051438446 0.8766152992599568
-0.5729785244937282 0.8984778347797306
-0.6779713438436119 0.929085384507414
-0.7567159583560248 0.9509479200271878
-0.7567159583560248 0.9596929342350973
-0.6779713438436119 0.9771829626509162
-0.6779713438436119 0.9771829626509162
-0.5729785244937282 0.9946729910667352
-0.5467303196562573 1.0296530478983734
-0.5467303196562573 1.0558880905221018
-0.5729785244937282 1.0690056118339661
-0.5729785244937282 1.0908681473537398
-0.5992267293311991 1.0952406544576947
-0.7042195486810829 1.1214756970814233
-0.7304677535185539 1.143338232601197
-0.6779713438436119 1.1739457823288801
-0.6779713438436119 1.1914358107446992
-0.7567159583560248 1.2089258391605182
-0.8354605728684376 1.2264158675763372
-0.8879569825433794 1.2351608817842468
-0.8617087777059085 1.2876309670317039
-0.7829641631934957 1.3269835309672966
-0.7042195486810829 1.3313560380712515
-0.7567159583560248 1.3444735593831156
-0.8617087777059085 1.375081109110799
-0.8617087777059085 1.4056886588384823
-0.651723139006141 1.4275511943582562
-0.44173750030637365 1.466903758293849
-0.3629928857939609 1.480021279605713
-0.3892410906314318 1.4931388009175774
-0.44173750030637365 1.5062563222294416
-0.5204821148187864 1.5237463506452606
-0.44173750030637365 1.5456088861650346
-0.3892410906314318 1.5674714216848082
-0.23175186160660624 1.571843928788763
-0.20550365676913532 1.5805889429966724
-0.15300724709419347 1.5674714216848082
-0.1792554519316644 1.5674714216848082
-0.10051083741925163 1.5587264074768987
-0.04801442774430977 1.5499813932689892
0.10947480128051577 1.5412363790610797
0.16197121095545763 1.501883815125487
0.3194604399802832 1.480021279605713
0.2407158254678704 1.4319237014622108
0.3457086448177541 1.4144336730463918
0.3194604399802832 1.375081109110799
0.39820505449269594 1.318238516759387
0.42445325933016687 1.2570234173040207
0.5294460786800506 1.2089258391605182
0.6081906931924633 1.1389657254972423
0.7394317173798179 1.0952406544576947
0.8181763318922307 1.0427705692102376
0.8969209464046435 0.9859279768588257
0.8706727415671726 0.9159678631955497
0.8181763318922307 0.8591252708441378
0.7919281270547598 0.7935376642848165
0.8181763318922307 0.7410675790373594
0.8706727415671726 0.6929700008938572
0.8181763318922307 0.6404999156464001
0.8181763318922307 0.5792848161910336
0.7656799222172889 0.5311872380475312
0.6869353077048761 0.4830896599040289
0.713183512542347 0.43499208176052656
0.713183512542347 0.4131295462407528
0.6869353077048761 0.37814948940911475
0.6606871028674052 0.3344244183695672
0.5819424883549924 0.2906993473300197
0.5031978738425796 0.2775818260181554
0.5031978738425796 0.2557192904983816
0.4507014641676378 0.2382292620825626
0.4507014641676378 0.22073923366674356
0.42445325933016687 0.19450419104301503
0.39820505449269594 0.17701416262719602
0.3194604399802832 0.15952413421137698
0.2669640303053413 0.14640661289951273
0.3457086448177541 0.15077912000346747
0.371956849655225 0.13328909158764846
0.3457086448177541 0.13766159869160322
0.3194604399802832 0.11579906317182943
0.21446762063039948 0.11579906317182943
0.08322659644304485 0.10705404896391993
0.10947480128051577 0.11579906317182943
0.16197121095545763 0.10705404896391993
0.21446762063039948 0.11142655606787467
0.1357230061179867 0.09393652765205565
0.1357230061179867 0.0895640205481009
0.16197121095545763 0.10268154185996517
0.1357230061179867 0.09393652765205565
0.16197121095545763 0.0895640205481009
0.1357230061179867 0.09393652765205565
0.08322659644304485 0.08081900634019139
0.05697839160557393 0.08519151344414615
0.1357230061179867 0.09830903475601041
0.16197121095545763 0.0895640205481009
0.18821941579292856 0.0895640205481009
0.10947480128051577 0.0895640205481009
0.10947480128051577 0.0895640205481009
-0.021766222906838845 0.08081900634019139
0.004481981930632078 0.08519151344414615
0.10947480128051577 0.0895640205481009
0.08322659644304485 0.10705404896391993
0.030730186768103 0.09830903475601041
0.08322659644304485 0.08519151344414615
0.004481981930632078 0.07644649923623663
0.004481981930632078 0.08519151344414615
0.004481981930632078 0.08519151344414615
0.08322659644304485 0.0895640205481009
0.030730186768103 0.08519151344414615
0.05697839160557393 0.07207399213228188
0.004481981930632078 0.07207399213228188
-0.04801442774430977 0.07644649923623663
0.030730186768103 0.08519151344414615
0.030730186768103 0.08081900634019139
0.004481981930632078 0.07644649923623663
-0.021766222906838845 0.06770148502832712
-0.10051083741925163 0.07207399213228188
-0.04801442774430977 0.06770148502832712
-0.04801442774430977 0.07207399213228188
-0.04801442774430977 0.06332897792437236
-0.021766222906838845 0.054583963716462854
-0.12675904225672255 0.0502114566125081
-0.12675904225672255 0.04146644240459859
-0.12675904225672255 0.04583894950855335
-0.0742626325817807 0.05895647082041761
0.004481981930632078 0.054583963716462854
-0.0742626325817807 0.03709393530064384
-0.20550365676913532 0.03709393530064384
-0.1792554519316644 0.02397641398877957
-0.15300724709419347 0.028348921092734323
-0.12675904225672255 0.028348921092734323
-0.15300724709419347 0.03272142819668908
-0.12675904225672255 0.028348921092734323
-0.20550365676913532 0.015231399780870057
-0.2580000664440772 0.0021138784690057917
-0.23175186160660624 0.006486385572960547
-0.15300724709419347 0.015231399780870057
-0.12675904225672255 0.015231399780870057
-0.15300724709419347 -0.0022586286349489636
-0.23175186160660624 -0.011003642842858475
-0.2580000664440772 -0.011003642842858475
-0.2580000664440772 -0.011003642842858475
-0.20550365676913532 -0.006631135738903719
-0.20550365676913532 -0.006631135738903719
-0.20550365676913532 -0.011003642842858475
-0.2580000664440772 -0.024121164154722742
-0.2842482712815481 -0.028493671258677498
-0.20550365676913532 -0.019748657050767986
-0.20550365676913532 -0.019748657050767986
-0.15300724709419347 -0.019748657050767986
-0.20550365676913532 -0.037238685466587006
-0.2580000664440772 -0.037238685466587006
-0.33674468095648996 -0.037238685466587006
-0.31049647611901904 -0.041611192570541765
-0.2580000664440772 -0.037238685466587006
-0.31049647611901904 -0.037238685466587006
-0.2580000664440772 -0.041611192570541765
-0.2842482712815481 -0.05910122098636078
-0.2842482712815481 -0.05472871388240603
-0.23175186160660624 -0.041611192570541765
-0.31049647611901904 -0.037238685466587006
-0.2580000664440772 -0.05472871388240603
-0.31049647611901904 -0.04598369967449652
-0.33674468095648996 -0.0678462351942703
-0.3629928857939609 -0.05910122098636078
-0.3892410906314318 -0.06347372809031554
-0.3629928857939609 -0.05472871388240603
-0.33674468095648996 -0.050356206778451276
-0.2842482712815481 -0.05910122098636078
-0.31049647611901904 -0.07221874229822504
-0.33674468095648996 -0.07221874229822504
-0.31049647611901904 -0.06347372809031554
-0.2842482712815481 -0.05472871388240603
-0.2842482712815481 -0.06347372809031554
-0.3892410906314318 -0.05472871388240603
-0.3629928857939609 -0.0765912494021798
-0.4679857051438446 -0.08096375650613456
-0.3892410906314318 -0.0678462351942703
-0.33674468095648996 -0.05910122098636078
-0.31049647611901904 -0.05472871388240603
-0.33674468095648996 -0.0678462351942703
-0.3629928857939609 -0.07221874229822504
-0.44173750030637365 -0.07221874229822504
-0.3892410906314318 -0.07221874229822504
-0.2842482712815481 -0.05910122098636078
-0.23175186160660624 -0.0678462351942703
-0.2842482712815481 -0.06347372809031554
-0.31049647611901904 -0.07221874229822504
-0.3892410906314318 -0.07221874229822504
-0.3892410906314318 -0.07221874229822504
-0.2580000664440772 -0.0678462351942703
-0.33674468095648996 -0.0678462351942703
-0.33674468095648996 -0.06347372809031554
-0.3892410906314318 -0.07221874229822504
-0.3892410906314318 -0.08096375650613456
-0.3629928857939609 -0.0678462351942703
-0.33674468095648996 -0.06347372809031554
-0.33674468095648996 -0.0678462351942703
-0.2842482712815481 -0.0765912494021798
-0.3629928857939609 -0.08970877071404407
-0.44173750030637365 -0.08096375650613456
-0.3892410906314318 -0.08096375650613456
-0.33674468095648996 -0.06347372809031554
-0.3629928857939609 -0.0765912494021798
-0.31049647611901904 -0.0765912494021798
-0.33674468095648996 -0.08096375650613456
-0.3629928857939609 -0.0765912494021798
-0.31049647611901904 -0.07221874229822504
-0.31049647611901904 -0.06347372809031554
-0.2580000664440772 -0.06347372809031554
-0.23175186160660624 -0.0765912494021798
-0.2842482712815481 -0.07221874229822504
-0.33674468095648996 -0.07221874229822504
-0.33674468095648996 -0.0678462351942703
-0.2580000664440772 -0.037238685466587006
-0.1792554519316644 -0.037238685466587006
-0.23175186160660624 -0.01537614994681323
-0.15300724709419347 0.019603906884824815
-0.15300724709419347 0.1682691484192865
0.004481981930632078 0.46997213859216463
0.2407158254678704 0.7935376642848165
0.4769496690051087 0.8328902282204094
1.0281619705919982 0.6186373801266263
2.104338368928306 0.40875703913679806
4.0992019365760965 0.3256794041616577
5.779087046174236 0.3038168686418839
5.595349612311939 0.27320931891420064
4.020457322063684 0.23385675497860783
2.4455650318154283 0.1682691484192865
1.9206009350660096 0.0895640205481009
1.8943527302285386 -0.019748657050767986
2.025593754415893 -0.1552963772733654
2.156834778603248 -0.30396161880782707
2.2880758027906025 -0.4788619029660173
2.2355793931156605 -0.6712522155400266
2.2093311882781896 -0.8767600494259
2.2618275979531317 -1.0910128975196831
2.340572212465544 -1.2484231532620542
2.340572212465544 -1.3883433805886065
2.3143240076280733 -1.519518593707249
2.2093311882781896 -1.6944188778654392
2.078090164090835 -1.8868091904394486
2.0518419592533643 -2.074826995909503
2.025593754415893 -2.2060022090281457
1.9468491399034804 -2.30219736531515
1.8943527302285386 -2.3896475073942454
1.6581188866913004 -2.4727251423693857
1.3168922238041783 -2.5689202986563906
0.9756655609170563 -2.630135398111757
0.7394317173798179 -2.651997933631531
0.5031978738425796 -2.66074294783944
0.21446762063039948 -2.6782329762552592
-0.12675904225672255 -2.704468018878988
-0.5204821148187864 -2.7132130330868973
-1.019198006730734 -2.7307030615027164
-1.386672874455327 -2.7263305543987615
-1.675403127667507 -2.7088405259829424
-1.6229067179925651 -2.7132130330868973
-1.4654174889677396 -2.7088405259829424
-1.2554318502679722 -2.704468018878988
-1.1504390309180885 -2.6738604691513044
-1.1504390309180885 -2.608272862591983
-1.0716944164056759 -2.525195227616843
-1.0716944164056759 -2.4115100429140193
-1.019198006730734 -2.284707336899331
-1.019198006730734 -2.1579046308846435
-0.9929498018932631 -1.9917493609343626
-0.9667015970557922 -1.790614034152444
-0.7042195486810829 -1.5763611860586608
-0.5729785244937282 -1.344618309549059
-0.3629928857939609 -1.1172479401434117
-0.2842482712815481 -0.9029950920496286
-0.3629928857939609 -0.7106047794756194
-0.4942339099813155 -0.5138419597976553
-0.5729785244937282 -0.3301966614315556
-0.5467303196562573 -0.15966888437732016
-0.6779713438436119 -0.01537614994681323
-0.7567159583560248 0.1289165844836937
-0.7829641631934957 0.28195433312211016
-0.7304677535185539 0.4175020533447076
-0.7304677535185539 0.5268147309435764
-0.651723139006141 0.5836573232949883
-0.5992267293311991 0.6404999156464001
-0.5992267293311991 0.6798524795819929
-0.7042195486810829 0.714832536413631
-0.5992267293311991 0.767302621661088
-0.5729785244937282 0.8110276927006356
-0.5992267293311991 0.8460077495322735
-0.6254749341686701 0.8678702850520473
-0.651723139006141 0.8853603134678664
-0.7304677535185539 0.9203403702995044
-0.651723139006141 0.9509479200271878
-0.6254749341686701 0.9859279768588257
-0.5992267293311991 0.9946729910667352
-0.6254749341686701 1.0296530478983734
-0.7042195486810829 1.0427705692102376
-0.7304677535185539 1.0602605976260566
-0.7042195486810829 1.0821231331458303
-0.6254749341686701 1.1127306828735137
-0.5204821148187864 1.1171031899774684
-0.5467303196562573 1.125848204185378
-0.6254749341686701 1.1345932183932874
-0.7042195486810829 1.1477107397051518
-0.651723139006141 1.178318289432835
-0.6254749341686701 1.1914358107446992
-0.5729785244937282 1.2089258391605182
-0.5729785244937282 1.2307883746802921
-0.5992267293311991 1.2220433604723826
-0.5992267293311991 1.2351608817842468
-0.5729785244937282 1.2613959244079753
-0.5992267293311991 1.2920034741356587
-0.4942339099813155 1.3138660096554324
-0.5204821148187864 1.3313560380712515
-0.5729785244937282 1.3532185735910252
-0.6254749341686701 1.3881986304226632
-0.651723139006141 1.4144336730463918
-0.5729785244937282 1.4494137298780299
-0.5729785244937282 1.4887662938136226
-0.651723139006141 1.5062563222294416
-0.7042195486810829 1.5150013364373511
-0.8092123680309666 1.5412363790610797
-0.8354605728684376 1.5630989145808534
-0.7829641631934957 1.5937064643085368
-0.6779713438436119 1.6024514785164463
-0.651723139006141 1.6024514785164463
-0.6254749341686701 1.6024514785164463
-0.7304677535185539 1.6155689998283105
-0.7042195486810829 1.62431401403622
-0.651723139006141 1.646176549555994
-0.651723139006141 1.641804042452039
-0.5992267293311991 1.6155689998283105
-0.5204821148187864 1.6155689998283105
-0.5729785244937282 1.5980789714124914
-0.5467303196562573 1.5849614501006273
-0.44173750030637365 1.5630989145808534
-0.41548929546890273 1.536863871957125
-0.3629928857939609 1.497511308021532
-0.33674468095648996 1.4494137298780299
-0.33674468095648996 1.4144336730463918
-0.23175186160660624 1.375081109110799
-0.10051083741925163 1.3313560380712515
0.004481981930632078 1.2788859528237944
0.030730186768103 1.213298346264473
0.004481981930632078 1.1564557539130613
-0.021766222906838845 1.1083581757695589
0.08322659644304485 1.051515583418147
0.1357230061179867 1.0121630194825544
0.2407158254678704 0.9378303987153235
0.3194604399802832 0.8853603134678664
0.2669640303053413 0.8197727069085451
0.21446762063039948 0.767302621661088
0.3457086448177541 0.7192050435175856
0.371956849655225 0.6711074653740834
0.3457086448177541 0.6273823943345358
0.371956849655225 0.5749123090870788
0.29321223514281225 0.5093247025277574
0.2407158254678704 0.4655996314882099
0.2407158254678704 0.4393645888644813
0.2669640303053413 0.4131295462407528
0.371956849655225 0.37814948940911475
0.3194604399802832 0.33005191126561245
0.2669640303053413 0.3038168686418839
0.21446762063039948 0.2688368118102459
0.21446762063039948 0.2557192904983816
0.21446762063039948 0.24260176918651735
0.2669640303053413 0.2163667265627888
0.2407158254678704 0.1988766981469698
0.1357230061179867 0.17701416262719602
0.10947480128051577 0.15952413421137698
0.08322659644304485 0.16389664131533174
0.10947480128051577 0.15515162710742222
0.10947480128051577 0.14640661289951273
0.10947480128051577 0.13328909158764846
0.05697839160557393 0.12454407737973894
-0.04801442774430977 0.11142655606787467
0.004481981930632078 0.12454407737973894
0.030730186768103 0.13328909158764846
0.08322659644304485 0.11579906317182943
-0.021766222906838845 0.11142655606787467
-0.0742626325817807 0.10705404896391993
-0.10051083741925163 0.10268154185996517
-0.10051083741925163 0.09830903475601041
-0.0742626325817807 0.12017157027578419
-0.0742626325817807 0.11579906317182943
-0.04801442774430977 0.10705404896391993
-0.10051083741925163 0.10268154185996517
-0.15300724709419347 0.10268154185996517
-0.12675904225672255 0.10705404896391993
-0.1792554519316644 0.1289165844836937
-0.15300724709419347 0.12017157027578419
-0.15300724709419347 0.11142655606787467
-0.15300724709419347 0.10268154185996517
-0.20550365676913532 0.11579906317182943
-0.20550365676913532 0.12454407737973894
-0.15300724709419347 0.12017157027578419
-0.0742626325817807 0.12454407737973894
-0.15300724709419347 0.12454407737973894
-0.10051083741925163 0.10705404896391993
-0.1792554519316644 0.11579906317182943
-0.20550365676913532 0.11579906317182943
-0.1792554519316644 0.12017157027578419
-0.12675904225672255 0.12017157027578419
-0.10051083741925163 0.11142655606787467
-0.20550365676913532 0.10705404896391993
-0.23175186160660624 0.10705404896391993
-0.23175186160660624 0.11142655606787467
-0.15300724709419347 0.12017157027578419
-0.15300724709419347 0.11579906317182943
-0.1792554519316644 0.10705404896391993
-0.23175186160660624 0.0895640205481009
-0.2842482712815481 0.0895640205481009
-0.23175186160660624 0.09393652765205565
-0.2580000664440772 0.10705404896391993
-0.2580000664440772 0.09830903475601041
-0.23175186160660624 0.09393652765205565
-0.31049647611901904 0.08081900634019139
-0.3892410906314318 0.07207399213228188
-0.33674468095648996 0.08519151344414615
-0.33674468095648996 0.0895640205481009
-0.2842482712815481 0.08081900634019139
-0.33674468095648996 0.07207399213228188
-0.3629928857939609 0.05895647082041761
-0.41548929546890273 0.054583963716462854
-0.3629928857939609 0.05895647082041761
-0.3629928857939609 0.06332897792437236
-0.31049647611901904 0.0502114566125081
-0.3629928857939609 0.054583963716462854
-0.3892410906314318 0.03272142819668908
-0.4679857051438446 0.028348921092734323
-0.44173750030637365 0.03709393530064384
-0.41548929546890273 0.054583963716462854
-0.3892410906314318 0.04146644240459859
-0.3892410906314318 0.028348921092734323
-0.44173750030637365 0.010858892676915304
-0.4942339099813155 0.006486385572960547
-0.4679857051438446 0.0021138784690057917
-0.41548929546890273 0.02397641398877957
-0.4679857051438446 0.015231399780870057
-0.5204821148187864 0.0021138784690057917
-0.4679857051438446 -0.011003642842858475
-0.5729785244937282 -0.011003642842858475
-0.5467303196562573 -0.0022586286349489636
-0.4942339099813155 0.0021138784690057917
-0.44173750030637365 -0.011003642842858475
-0.4679857051438446 -0.011003642842858475
-0.4679857051438446 -0.01537614994681323
-0.5467303196562573 -0.028493671258677498
-0.5204821148187864 -0.019748657050767986
-0.4679857051438446 -0.019748657050767986
-0.4679857051438446 -0.019748657050767986
-0.4679857051438446 -0.03286617836263225
-0.5204821148187864 -0.041611192570541765
-0.5729785244937282 -0.037238685466587006
-0.5992267293311991 -0.037238685466587006
-0.5204821148187864 -0.024121164154722742
-0.4679857051438446 -0.028493671258677498
-0.5467303196562573 -0.03286617836263225
-0.5467303196562573 -0.04598369967449652
-0.5992267293311991 -0.037238685466587006
-0.5467303196562573 -0.037238685466587006
-0.4679857051438446 -0.041611192570541765
-0.5204821148187864 -0.037238685466587006
-0.5204821148187864 -0.041611192570541765
-0.5467303196562573 -0.05472871388240603
-0.5729785244937282 -0.04598369967449652
-0.5729785244937282 -0.050356206778451276
-0.4942339099813155 -0.037238685466587006
-0.5467303196562573 -0.037238685466587006
-0.44173750030637365 -0.050356206778451276
-0.4679857051438446 -0.06347372809031554
-0.5467303196562573 -0.05472871388240603
-0.5204821148187864 -0.04598369967449652
-0.4679857051438446 -0.050356206778451276
-0.44173750030637365 -0.041611192570541765
-0.4679857051438446 -0.05472871388240603
-0.5204821148187864 -0.05910122098636078
-0.6254749341686701 -0.0678462351942703
-0.5204821148187864 -0.05910122098636078
-0.4942339099813155 -0.04598369967449652
-0.4942339099813155 -0.05472871388240603
-0.4679857051438446 -0.050356206778451276
-0.5204821148187864 -0.06347372809031554
-0.5729785244937282 -0.06347372809031554
-0.5729785244937282 -0.06347372809031554
-0.4942339099813155 -0.050356206778451276
-0.41548929546890273 -0.05910122098636078
-0.4942339099813155 -0.05910122098636078
-0.5467303196562573 -0.07221874229822504
-0.5992267293311991 -0.08096375650613456
-0.5204821148187864 -0.06347372809031554
-0.4942339099813155 -0.05910122098636078
-0.4679857051438446 -0.06347372809031554
-0.5204821148187864 -0.05472871388240603
-0.4942339099813155 -0.07221874229822504
-0.5204821148187864 -0.07221874229822504
-0.5204821148187864 -0.06347372809031554
-0.44173750030637365 -0.05910122098636078
-0.41548929546890273 -0.05910122098636078
-0.44173750030637365 -0.07221874229822504
-0.41548929546890273 -0.08096375650613456
-0.4942339099813155 -0.08096375650613456
-0.44173750030637365 -0.0678462351942703
-0.41548929546890273 -0.05910122098636078
-0.3892410906314318 -0.06347372809031554
-0.3892410906314318 -0.05910122098636078
-0.41548929546890273 -0.06347372809031554
-0.41548929546890273 -0.06347372809031554
-0.3892410906314318 -0.037238685466587006
-0.31049647611901904 -0.019748657050767986
-0.2580000664440772 0.02397641398877957
-0.23175186160660624 0.14203410579555797
-0.20550365676913532 0.4131295462407528
-0.10051083741925163 0.7410675790373594
0.21446762063039948 0.8154001998045903
0.6344388980299343 0.6186373801266263
1.6318706818538293 0.40001202492888854
3.547989634989207 0.2906993473300197
5.227874744587346 0.24260176918651735
5.201626539749875 0.19013168393906027
3.6792306591765613 0.13328909158764846
2.2880758027906025 0.07207399213228188
1.736863501203713 -0.037238685466587006
1.7893599108786549 -0.17715891279313917
1.8681045253910677 -0.3345691685355104
1.8418563205535967 -0.4963519313818363
1.8681045253910677 -0.6712522155400266
1.8418563205535967 -0.8636425281140357
1.8943527302285386 -1.038542812272226
1.9206009350660096 -1.200325575118552
1.9206009350660096 -1.3315007882371945
1.8943527302285386 -1.484538536875611
1.7893599108786549 -1.6332037784100728
1.6581188866913004 -1.8037315554643083
1.763111706041184 -1.9917493609343626
1.7893599108786549 -2.1666496450925528
1.6581188866913004 -2.2978248582111958
1.448133247991533 -2.3940200144982002
1.3168922238041783 -2.4639801281614764
1.2118994044542946 -2.538312748928707
1.0019137657545272 -2.595155341280119
0.6869353077048761 -2.643252919423621
0.3457086448177541 -2.6738604691513044
-0.021766222906838845 -2.700095511775033
-0.2842482712815481 -2.6913504975671234
-0.5729785244937282 -2.6957230046710783
-1.0454462115682048 -2.7088405259829424
-1.5179138986426814 -2.7219580472948066
-1.7541477421799199 -2.7350755686066712
-1.780395947017391 -2.7219580472948066
-1.5441621034801525 -2.700095511775033
-1.2816800551054432 -2.682605483359214
-1.0454462115682048 -2.665115454943395
-0.9667015970557922 -2.612645369695938
-1.019198006730734 -2.5514302702405716
-1.019198006730734 -2.4596076210575215
-1.0979426212431467 -2.319687393730969
-1.0454462115682048 -2.1535321237806886
-1.019198006730734 -1.9917493609343626
-0.8879569825433794 -1.7862415270484893
-0.7829641631934957 -1.5763611860586608
-0.651723139006141 -1.344618309549059
-0.4942339099813155 -1.0866403904157282
-0.41548929546890273 -0.859270021010081
-0.4679857051438446 -0.6581346942281623
-0.5729785244937282 -0.4788619029660173
-0.651723139006141 -0.3214516472236461
-0.7829641631934957 -0.1552963772733654
-0.8354605728684376 0.0021138784690057917
-0.8092123680309666 0.1682691484192865
-0.7304677535185539 0.29944436153792914
-0.7567159583560248 0.42187456044866234
-0.7567159583560248 0.5093247025277574
-0.7567159583560248 0.5836573232949883
-0.7304677535185539 0.6448724227503548
-0.6779713438436119 0.6842249866859477
-0.6254749341686701 0.7235775506215404
-0.6254749341686701 0.7541851003492237
-0.7042195486810829 0.7760476358689975
-0.7304677535185539 0.7979101713887713
-0.6779713438436119 0.8372627353243641
-0.651723139006141 0.8678702850520473
-0.5729785244937282 0.8984778347797306
-0.6779713438436119 0.9203403702995044
-0.7042195486810829 0.9334578916113687
-0.7829641631934957 0.9553204271311425
-0.8354605728684376 0.9771829626509162
-0.7042195486810829 1.020908033690464
-0.6779713438436119 1.034025555002328
-0.6779713438436119 1.051515583418147
-0.7304677535185539 1.0646331047300113
-0.8092123680309666 1.0864956402497852
-0.7304677535185539 1.1127306828735137
-0.7304677535185539 1.1520832468091065
-0.651723139006141 1.160828261017016
-0.7304677535185539 1.1870633036407445
-0.7829641631934957 1.2001808249526087
-0.8354605728684376 1.2264158675763372
-0.7304677535185539 1.2657684315119302
-0.7567159583560248 1.2963759812396134
-0.7304677535185539 1.322611023863342
-0.7042195486810829 1.3444735593831156
-0.7567159583560248 1.3663360949028895
-0.7829641631934957 1.4013161517345276
-0.7304677535185539 1.4406687156701203
-0.6779713438436119 1.480021279605713
-0.7304677535185539 1.5062563222294416
-0.7042195486810829 1.5281188577492155
-0.7042195486810829 1.5499813932689892
-0.7567159583560248 1.5805889429966724
-0.7567159583560248 1.606823985620401
-0.7567159583560248 1.646176549555994
-0.7304677535185539 1.663666577971813
-0.651723139006141 1.676784099283677
-0.5467303196562573 1.6899016205955413
-0.5467303196562573 1.7030191419074057
-0.44173750030637365 1.7248816774271793
-0.33674468095648996 1.7292541845311342
-0.2580000664440772 1.7336266916350889
-0.2580000664440772 1.7161366632192698
-0.2580000664440772 1.6986466348034508
-0.23175186160660624 1.6855291134915866
-0.15300724709419347 1.676784099283677
-0.021766222906838845 1.6549215637639034
0.08322659644304485 1.6374315353480844
0.05697839160557393 1.5849614501006273
0.16197121095545763 1.5412363790610797
0.10947480128051577 1.5062563222294416
0.1357230061179867 1.466903758293849
0.2407158254678704 1.4275511943582562
0.29321223514281225 1.3619635877989347
0.3194604399802832 1.305120995447523
0.3194604399802832 1.2439058959921563
0.2669640303053413 1.2045533320565636
0.2669640303053413 1.160828261017016
0.29321223514281225 1.1083581757695589
0.3457086448177541 1.051515583418147
0.3194604399802832 0.9684379484430068
0.2669640303053413 0.9028503418836854
0.18821941579292856 0.8460077495322735
0.18821941579292856 0.7935376642848165
0.16197121095545763 0.7541851003492237
0.18821941579292856 0.6842249866859477
0.2407158254678704 0.6317549014384906
0.16197121095545763 0.5792848161910336
0.08322659644304485 0.535559745151486
0.05697839160557393 0.4830896599040289
0.10947480128051577 0.44810960307239084
0.1357230061179867 0.4043845320328433
0.08322659644304485 0.37814948940911475
0.10947480128051577 0.33005191126561245
0.004481981930632078 0.29944436153792914
0.030730186768103 0.2775818260181554
0.004481981930632078 0.24260176918651735
0.030730186768103 0.22073923366674356
-0.04801442774430977 0.19450419104301503
-0.021766222906838845 0.17264165552324126
-0.12675904225672255 0.15515162710742222
-0.1792554519316644 0.14640661289951273
-0.1792554519316644 0.14203410579555797
-0.15300724709419347 0.12454407737973894
-0.23175186160660624 0.10268154185996517
-0.2842482712815481 0.09393652765205565
-0.3892410906314318 0.08081900634019139
-0.31049647611901904 0.08081900634019139
-0.2842482712815481 0.07644649923623663
-0.2842482712815481 0.08519151344414615
-0.31049647611901904 0.07644649923623663
-0.2842482712815481 0.05895647082041761
-0.3892410906314318 0.06332897792437236
-0.33674468095648996 0.06770148502832712
-0.2842482712815481 0.08081900634019139
-0.31049647611901904 0.07207399213228188
-0.33674468095648996 0.07207399213228188
-0.3892410906314318 0.054583963716462854
-0.4942339099813155 0.054583963716462854
-0.3892410906314318 0.07207399213228188
-0.33674468095648996 0.07207399213228188
-0.3892410906314318 0.07207399213228188
-0.3629928857939609 0.06770148502832712
-0.4942339099813155 0.06770148502832712
-0.5729785244937282 0.05895647082041761
-0.5204821148187864 0.07644649923623663
-0.44173750030637365 0.08519151344414615
-0.3892410906314318 0.08081900634019139
-0.41548929546890273 0.07644649923623663
-0.41548929546890273 0.07207399213228188
-0.44173750030637365 0.08081900634019139
-0.44173750030637365 0.08081900634019139
-0.41548929546890273 0.07644649923623663
-0.41548929546890273 0.08519151344414615
-0.4679857051438446 0.07644649923623663
-0.4942339099813155 0.07207399213228188
-0.5204821148187864 0.07207399213228188
-0.44173750030637365 0.07207399213228188
-0.3892410906314318 0.08519151344414615
-0.41548929546890273 0.07644649923623663
-0.44173750030637365 0.07207399213228188
-0.4942339099813155 0.054583963716462854
-0.4942339099813155 0.07207399213228188
-0.5467303196562573 0.06332897792437236
-0.5467303196562573 0.06332897792437236
-0.5467303196562573 0.06332897792437236
-0.5729785244937282 0.05895647082041761
-0.5992267293311991 0.0502114566125081
-0.5992267293311991 0.03709393530064384
-0.5992267293311991 0.04146644240459859
-0.5729785244937282 0.05895647082041761
-0.5467303196562573 0.04583894950855335
-0.5467303196562573 0.03709393530064384
-0.6254749341686701 0.02397641398877957
-0.651723139006141 0.010858892676915304
-0.6779713438436119 0.015231399780870057
-0.5992267293311991 0.03272142819668908
-0.6254749341686701 0.019603906884824815
-0.6779713438436119 0.015231399780870057
-0.6779713438436119 0.010858892676915304
-0.7042195486810829 -0.006631135738903719
-0.6254749341686701 -0.006631135738903719
-0.6254749341686701 0.0021138784690057917
-0.651723139006141 -0.011003642842858475
-0.651723139006141 -0.006631135738903719
-0.7304677535185539 -0.019748657050767986
-0.7304677535185539 -0.024121164154722742
-0.7829641631934957 -0.028493671258677498
-0.7042195486810829 -0.024121164154722742
-0.5992267293311991 -0.019748657050767986
-0.5729785244937282 -0.028493671258677498
-0.6254749341686701 -0.04598369967449652
-0.6779713438436119 -0.041611192570541765
-0.6779713438436119 -0.041611192570541765
-0.7042195486810829 -0.037238685466587006
-0.7042195486810829 -0.041611192570541765
-0.7042195486810829 -0.050356206778451276
-0.7042195486810829 -0.05472871388240603
-0.6779713438436119 -0.05910122098636078
-0.6254749341686701 -0.050356206778451276
-0.5992267293311991 -0.050356206778451276
-0.5992267293311991 -0.05910122098636078
-0.6254749341686701 -0.05910122098636078
-0.6254749341686701 -0.0678462351942703
-0.6779713438436119 -0.0678462351942703
-0.6254749341686701 -0.0678462351942703
-0.5992267293311991 -0.05472871388240603
-0.651723139006141 -0.05910122098636078
-0.6779713438436119 -0.07221874229822504
-0.7042195486810829 -0.0765912494021798
-0.7042195486810829 -0.08096375650613456
-0.7567159583560248 -0.0765912494021798
-0.7042195486810829 -0.0678462351942703
-0.7042195486810829 -0.0678462351942703
-0.6779713438436119 -0.0765912494021798
-0.7042195486810829 -0.08096375650613456
-0.6779713438436119 -0.09408127781799883
-0.6779713438436119 -0.09408127781799883
-0.6254749341686701 -0.0765912494021798
-0.5992267293311991 -0.07221874229822504
-0.6254749341686701 -0.08096375650613456
-0.7042195486810829 -0.08533626361008932
-0.7567159583560248 -0.08096375650613456
-0.7829641631934957 -0.08096375650613456
-0.7042195486810829 -0.0765912494021798
-0.5467303196562573 -0.0765912494021798
-0.5204821148187864 -0.08970877071404407
-0.4942339099813155 -0.08970877071404407
-0.5204821148187864 -0.09408127781799883
-0.5467303196562573 -0.08096375650613456
-0.5467303196562573 -0.0765912494021798
-0.44173750030637365 -0.08533626361008932
-0.4942339099813155 -0.08970877071404407
-0.5729785244937282 -0.10282629202590834
-0.6254749341686701 -0.09845378492195359
-0.7042195486810829 -0.09408127781799883
-0.651723139006141 -0.08970877071404407
-0.5729785244937282 -0.08970877071404407
-0.5992267293311991 -0.09408127781799883
-0.6254749341686701 -0.09408127781799883
-0.651723139006141 -0.10282629202590834
-0.6254749341686701 -0.10282629202590834
-0.4942339099813155 -0.08533626361008932
-0.44173750030637365 -0.09845378492195359
-0.3892410906314318 -0.10282629202590834
-0.4679857051438446 -0.10282629202590834
-0.5729785244937282 -0.11157130623381785
-0.5729785244937282 -0.10719879912986309
-0.4942339099813155 -0.08533626361008932
-0.3892410906314318 -0.09845378492195359
-0.41548929546890273 -0.09845378492195359
-0.4679857051438446 -0.10282629202590834
-0.4679857051438446 -0.11157130623381785
-0.41548929546890273 -0.09845378492195359
-0.3629928857939609 -0.08970877071404407
-0.3629928857939609 -0.08096375650613456
-0.3892410906314318 -0.0765912494021798
-0.33674468095648996 -0.0678462351942703
-0.3629928857939609 -0.03286617836263225
-0.2842482712815481 0.06770148502832712
-0.1792554519316644 0.2906993473300197
0.004481981930632078 0.6317549014384906
0.18821941579292856 0.8372627353243641
0.42445325933016687 0.7104600293096762
1.2906440189667074 0.45685461728030036
3.0230255382397884 0.3125618828497934
5.070385515562521 0.2688368118102459
5.779087046174236 0.22948424787465307
4.571669623650573 0.1682691484192865
2.839288104377492 0.08081900634019139
1.8943527302285386 -0.01537614994681323
1.815608115716126 -0.1378063488575464
1.9730973447409514 -0.2777265761840986
2.025593754415893 -0.43513683192646974
1.9730973447409514 -0.6231546373965242
1.8418563205535967 -0.8199174570744883
1.7893599108786549 -1.021052783856407
1.8943527302285386 -1.1872080538066876
1.9993455495784223 -1.3315007882371945
2.0518419592533643 -1.484538536875611
2.0518419592533643 -1.6244587642021633
1.9206009350660096 -1.7731240057366249
1.763111706041184 -1.9611418112066794
1.7106152963662422 -2.1404146024688244
1.7893599108786549 -2.2803348297953767
1.736863501203713 -2.3896475073942454
1.6056224770163585 -2.468352635265431
1.36938863347912 -2.542685256032662
1.2118994044542946 -2.617017876799893
0.9494173560795853 -2.651997933631531
0.6606871028674052 -2.6782329762552592
0.29321223514281225 -2.700095511775033
-0.021766222906838845 -2.7088405259829424
-0.33674468095648996 -2.7394480757106257
-0.7567159583560248 -2.7394480757106257
-1.2029354405930304 -2.7481930899185354
-1.7278995373424488 -2.7438205828145805
-1.9903815857171583 -2.7438205828145805
-2.0428779953921 -2.7394480757106257
-1.8853887663672746 -2.7438205828145805
-1.675403127667507 -2.7307030615027164
-1.4391692841302688 -2.6913504975671234
-1.360424669617856 -2.634507905215712
-1.2554318502679722 -2.555802777344526
-1.307928259942914 -2.468352635265431
-1.360424669617856 -2.3502949434586524
-1.4129210792927978 -2.201629701924191
-1.360424669617856 -2.009239389350182
-1.0979426212431467 -1.808104062568263
-0.9404533922183212 -1.5676161718507513
-0.7829641631934957 -1.3315007882371945
-0.5992267293311991 -1.1085029259355021
-0.5992267293311991 -0.8723875423219453
-0.5992267293311991 -0.6756247226439813
-0.6254749341686701 -0.4832344100699721
-0.7042195486810829 -0.31707914011969135
-0.6779713438436119 -0.16841389858522968
-0.7829641631934957 -0.028493671258677498
-0.8354605728684376 0.12017157027578419
-0.7567159583560248 0.2644643047062911
-0.7042195486810829 0.38689450361702427
-0.5467303196562573 0.47871715280007415
-0.4942339099813155 0.5399322522554407
-0.4679857051438446 0.5749123090870788
-0.5204821148187864 0.6186373801266263
-0.5204821148187864 0.6579899440622191
-0.5204821148187864 0.6929700008938572
-0.4679857051438446 0.7235775506215404
-0.4679857051438446 0.7454400861413142
-0.5204821148187864 0.7716751287650427
-0.5729785244937282 0.7979101713887713
-0.5204821148187864 0.8285177211164546
-0.5204821148187864 0.8591252708441378
-0.5204821148187864 0.8722427921560021
-0.4942339099813155 0.8853603134678664
-0.4942339099813155 0.9028503418836854
-0.5204821148187864 0.9203403702995044
-0.44173750030637365 0.9334578916113687
-0.3629928857939609 0.964065441339052
-0.3892410906314318 0.9771829626509162
-0.4942339099813155 0.9903004839627805
-0.4942339099813155 1.0121630194825544
-0.5467303196562573 1.020908033690464
-0.4942339099813155 1.0602605976260566
-0.4679857051438446 1.0908681473537398
-0.3629928857939609 1.1127306828735137
-0.3892410906314318 1.125848204185378
-0.4679857051438446 1.1477107397051518
-0.4679857051438446 1.1826907965367897
-0.3892410906314318 1.1914358107446992
-0.3629928857939609 1.2395333888882016
-0.2580000664440772 1.2570234173040207
-0.33674468095648996 1.2832584599277492
-0.3629928857939609 1.300748488343568
-0.4942339099813155 1.318238516759387
-0.4679857051438446 1.35759108069498
-0.3892410906314318 1.3881986304226632
-0.2842482712815481 1.4188061801503467
-0.20550365676913532 1.445041222774075
-0.23175186160660624 1.466903758293849
-0.2842482712815481 1.4931388009175774
-0.23175186160660624 1.5237463506452606
-0.20550365676913532 1.5587264074768987
-0.15300724709419347 1.5849614501006273
-0.04801442774430977 1.589333957204582
-0.04801442774430977 1.6024514785164463
-0.04801442774430977 1.606823985620401
-0.021766222906838845 1.6286865211401749
0.08322659644304485 1.6286865211401749
0.08322659644304485 1.6286865211401749
0.21446762063039948 1.6155689998283105
0.3194604399802832 1.5980789714124914
0.3457086448177541 1.5849614501006273
0.3457086448177541 1.5805889429966724
0.39820505449269594 1.571843928788763
0.5031978738425796 1.5324913648531702
0.4769496690051087 1.4931388009175774
0.5031978738425796 1.445041222774075
0.42445325933016687 1.4100611659424371
0.5031978738425796 1.3619635877989347
0.5819424883549924 1.3269835309672966
0.7919281270547598 1.2745134457198397
0.9494173560795853 1.2089258391605182
1.08065838026694 1.1652007681209708
1.054410175429469 1.0952406544576947
1.0281619705919982 1.0558880905221018
1.08065838026694 1.0034180052746449
1.0281619705919982 0.946575412923233
0.9494173560795853 0.8941053276757759
0.8969209464046435 0.8241452140124998
0.7919281270547598 0.7716751287650427
0.7656799222172889 0.7192050435175856
0.7656799222172889 0.6754799724780381
0.7656799222172889 0.6142648730226715
0.7919281270547598 0.5749123090870788
0.713183512542347 0.5093247025277574
0.6869353077048761 0.4655996314882099
0.6869353077048761 0.4306195746565718
0.6606871028674052 0.3956395178249338
0.6081906931924633 0.356286953889341
0.5294460786800506 0.3038168686418839
0.4507014641676378 0.2775818260181554
0.42445325933016687 0.2382292620825626
0.5031978738425796 0.22511174077069832
0.5819424883549924 0.1988766981469698
0.6344388980299343 0.18138666973115075
0.6081906931924633 0.15515162710742222
0.4507014641676378 0.1289165844836937
0.2669640303053413 0.11579906317182943
0.2407158254678704 0.10705404896391993
0.2669640303053413 0.10268154185996517
0.29321223514281225 0.09830903475601041
0.3457086448177541 0.06770148502832712
0.2407158254678704 0.06332897792437236
0.1357230061179867 0.054583963716462854
0.16197121095545763 0.054583963716462854
0.18821941579292856 0.05895647082041761
0.2407158254678704 0.04583894950855335
0.2669640303053413 0.04146644240459859
0.18821941579292856 0.03272142819668908
0.1357230061179867 0.03709393530064384
0.004481981930632078 0.04146644240459859
-0.0742626325817807 0.04146644240459859
-0.021766222906838845 0.04146644240459859
-0.021766222906838845 0.04146644240459859
-0.04801442774430977 0.028348921092734323
-0.1792554519316644 0.03272142819668908
-0.0742626325817807 0.03709393530064384
0.05697839160557393 0.0502114566125081
0.16197121095545763 0.04583894950855335
0.10947480128051577 0.04146644240459859
0.16197121095545763 0.03272142819668908
0.08322659644304485 0.03709393530064384
0.08322659644304485 0.0502114566125081
0.030730186768103 0.054583963716462854
0.004481981930632078 0.054583963716462854
0.004481981930632078 0.04583894950855335
-0.021766222906838845 0.04583894950855335
0.004481981930632078 0.04583894950855335
0.004481981930632078 0.054583963716462854
0.030730186768103 0.07207399213228188
-0.021766222906838845 0.05895647082041761
-0.021766222906838845 0.06332897792437236
-0.10051083741925163 0.04583894950855335
-0.12675904225672255 0.04583894950855335
-0.1792554519316644 0.0502114566125081
-0.1792554519316644 0.05895647082041761
-0.0742626325817807 0.054583963716462854
0.030730186768103 0.0502114566125081
0.10947480128051577 0.03709393530064384
0.05697839160557393 0.04146644240459859
0.030730186768103 0.04146644240459859
-0.021766222906838845 0.04583894950855335
-0.04801442774430977 0.054583963716462854
-0.1792554519316644 0.028348921092734323
-0.1792554519316644 0.028348921092734323
-0.20550365676913532 0.02397641398877957
-0.1792554519316644 0.02397641398877957
-0.0742626325817807 0.04146644240459859
-0.0742626325817807 0.02397641398877957
-0.04801442774430977 0.02397641398877957
-0.0742626325817807 0.010858892676915304
-0.12675904225672255 0.015231399780870057
-0.12675904225672255 0.015231399780870057
-0.04801442774430977 0.010858892676915304
-0.10051083741925163 0.006486385572960547
-0.12675904225672255 0.006486385572960547
-0.20550365676913532 -0.01537614994681323
-0.2580000664440772 -0.011003642842858475
-0.2842482712815481 -0.011003642842858475
-0.23175186160660624 -0.0022586286349489636
-0.12675904225672255 -0.01537614994681323
-0.12675904225672255 -0.01537614994681323
-0.0742626325817807 -0.03286617836263225
-0.12675904225672255 -0.03286617836263225
-0.1792554519316644 -0.037238685466587006
-0.15300724709419347 -0.028493671258677498
-0.10051083741925163 -0.037238685466587006
-0.15300724709419347 -0.041611192570541765
-0.23175186160660624 -0.050356206778451276
-0.2842482712815481 -0.05472871388240603
-0.23175186160660624 -0.041611192570541765
-0.1792554519316644 -0.041611192570541765
-0.1792554519316644 -0.05910122098636078
-0.1792554519316644 -0.06347372809031554
-0.23175186160660624 -0.0678462351942703
-0.31049647611901904 -0.0678462351942703
-0.2842482712815481 -0.06347372809031554
-0.1792554519316644 -0.06347372809031554
-0.20550365676913532 -0.06347372809031554
-0.20550365676913532 -0.07221874229822504
-0.23175186160660624 -0.0765912494021798
-0.23175186160660624 -0.08096375650613456
-0.1792554519316644 -0.0765912494021798
-0.20550365676913532 -0.07221874229822504
-0.10051083741925163 -0.0765912494021798
-0.1792554519316644 -0.0765912494021798
-0.23175186160660624 -0.08533626361008932
-0.2580000664440772 -0.08970877071404407
-0.20550365676913532 -0.08533626361008932
-0.1792554519316644 -0.08096375650613456
-0.12675904225672255 -0.08096375650613456
-0.15300724709419347 -0.08096375650613456
-0.20550365676913532 -0.08533626361008932
-0.2842482712815481 -0.09408127781799883
-0.2842482712815481 -0.09408127781799883
-0.1792554519316644 -0.08533626361008932
-0.1792554519316644 -0.08970877071404407
-0.20550365676913532 -0.09408127781799883
-0.2842482712815481 -0.09408127781799883
-0.2842482712815481 -0.09845378492195359
-0.2842482712815481 -0.08533626361008932
-0.2580000664440772 -0.08533626361008932
-0.1792554519316644 -0.08970877071404407
-0.23175186160660624 -0.08533626361008932
-0.12675904225672255 -0.09845378492195359
-0.31049647611901904 -0.09845378492195359
-0.33674468095648996 -0.10282629202590834
-0.23175186160660624 -0.08096375650613456
-0.12675904225672255 -0.08970877071404407
-0.15300724709419347 -0.09845378492195359
-0.20550365676913532 -0.10282629202590834
-0.2580000664440772 -0.11157130623381785
-0.20550365676913532 -0.09845378492195359
-0.23175186160660624 -0.08970877071404407
-0.12675904225672255 -0.08970877071404407
-0.12675904225672255 -0.10282629202590834
-0.23175186160660624 -0.10719879912986309
-0.23175186160660624 -0.10719879912986309
-0.20550365676913532 -0.10282629202590834
-0.2580000664440772 -0.10719879912986309
-0.15300724709419347 -0.09845378492195359
-0.1792554519316644 -0.10719879912986309
-0.20550365676913532 -0.11594381333777261
-0.2580000664440772 -0.11157130623381785
-0.2580000664440772 -0.11157130623381785
-0.1792554519316644 -0.10282629202590834
-0.1792554519316644 -0.10719879912986309
-0.10051083741925163 -0.10282629202590834
-0.12675904225672255 -0.11157130623381785
-0.20550365676913532 -0.11157130623381785
-0.1792554519316644 -0.09845378492195359
-0.12675904225672255 -0.08970877071404407
-0.021766222906838845 -0.08970877071404407
0.004481981930632078 -0.09408127781799883
-0.0742626325817807 -0.08533626361008932
-0.0742626325817807 -0.06347372809031554
0.004481981930632078 0.0021138784690057917
0.08322659644304485 0.16389664131533174
0.16197121095545763 0.48746216700798367
0.3194604399802832 0.7935376642848165
0.5294460786800506 0.7979101713887713
0.8706727415671726 0.570539801983124
1.9468491399034804 0.37814948940911475
3.941712707551271 0.30818937574583866
5.595349612311939 0.2644643047062911
5.516604997799527 0.23385675497860783
3.9942091172262124 0.15952413421137698
2.6030542608402536 0.10705404896391993
2.025593754415893 0.02397641398877957
2.078090164090835 -0.06347372809031554
2.2618275979531317 -0.19902144831291296
2.2880758027906025 -0.3520591969513294
2.2355793931156605 -0.5357044953174291
2.2093311882781896 -0.7237223007874836
2.2618275979531317 -0.9029950920496286
2.340572212465544 -1.0472878264801355
2.393068622140486 -1.2046980822225066
2.419316826977957 -1.344618309549059
2.2880758027906025 -1.4714210155637468
2.1305865737657768 -1.6069687357863442
2.0518419592533643 -1.7643789915287154
2.0518419592533643 -1.9349067685829509
2.078090164090835 -2.109807052741141
2.0518419592533643 -2.232237251651874
1.8681045253910677 -2.3328049150428334
1.6318706818538293 -2.4246275642258834
1.448133247991533 -2.4989601849931145
1.2643958141292364 -2.5645477915524357
1.0019137657545272 -2.625762891007802
0.6081906931924633 -2.665115454943395
0.21446762063039948 -2.700095511775033
-0.15300724709419347 -2.7088405259829424
-0.44173750030637365 -2.717585540190852
-0.7567159583560248 -2.7219580472948066
-1.2029354405930304 -2.7350755686066712
-1.701651332504978 -2.7438205828145805
-2.0166297905546293 -2.7394480757106257
-2.1741190195794546 -2.7481930899185354
-2.0166297905546293 -2.7307030615027164
-1.7541477421799199 -2.7132130330868973
-1.4916656938052106 -2.700095511775033
-1.4391692841302688 -2.6738604691513044
-1.4391692841302688 -2.617017876799893
-1.4654174889677396 -2.5514302702405716
-1.386672874455327 -2.450862606849612
-1.334176464780385 -2.324059900834924
-1.2291836454305014 -2.1928846877162815
-1.1504390309180885 -2.0485919532857744
-1.0716944164056759 -1.8868091904394486
-0.9667015970557922 -1.681301356553575
-0.6779713438436119 -1.4714210155637468
-0.4942339099813155 -1.2615406745739186
-0.31049647611901904 -1.056032840688045
-0.33674468095648996 -0.8548975139061262
-0.44173750030637365 -0.6843697368518908
-0.5992267293311991 -0.5138419597976553
-0.5992267293311991 -0.3345691685355104
-0.5204821148187864 -0.18590392700104869
-0.651723139006141 -0.050356206778451276
-0.7042195486810829 0.08081900634019139
-0.7304677535185539 0.2076217123548793
-0.8092123680309666 0.32130689705770293
-0.7304677535185539 0.42187456044866234
-0.5992267293311991 0.49620718121589313
-0.5467303196562573 0.5486772664633502
-0.5204821148187864 0.5749123090870788
-0.5467303196562573 0.6098923659187168
-0.5992267293311991 0.6317549014384906
-0.651723139006141 0.6711074653740834
-0.5729785244937282 0.697342507997812
-0.5204821148187864 0.7235775506215404
-0.5467303196562573 0.7323225648294499
-0.5467303196562573 0.7585576074531785
-0.6254749341686701 0.7716751287650427
-0.6254749341686701 0.802282678492726
-0.5729785244937282 0.8197727069085451
-0.4942339099813155 0.8328902282204094
-0.4942339099813155 0.854752763740183
-0.5729785244937282 0.8722427921560021
-0.5992267293311991 0.8766152992599568
-0.5992267293311991 0.9028503418836854
-0.4942339099813155 0.929085384507414
-0.5204821148187864 0.9378303987153235
-0.5467303196562573 0.9422029058192782
-0.5992267293311991 0.9596929342350973
-0.651723139006141 0.9771829626509162
-0.5992267293311991 1.0121630194825544
-0.6254749341686701 1.0427705692102376
-0.5992267293311991 1.051515583418147
-0.651723139006141 1.0733781189379208
-0.651723139006141 1.0821231331458303
-0.7829641631934957 1.0952406544576947
-0.7304677535185539 1.125848204185378
-0.6254749341686701 1.160828261017016
-0.5992267293311991 1.1826907965367897
-0.6254749341686701 1.2045533320565636
-0.651723139006141 1.2220433604723826
-0.7304677535185539 1.2570234173040207
-0.7042195486810829 1.2876309670317039
-0.6254749341686701 1.318238516759387
-0.6779713438436119 1.3444735593831156
-0.5992267293311991 1.35759108069498
-0.6254749341686701 1.375081109110799
-0.6254749341686701 1.4013161517345276
-0.6254749341686701 1.4362962085661655
-0.5467303196562573 1.4756487725017584
-0.4679857051438446 1.4887662938136226
-0.5204821148187864 1.5281188577492155
-0.5467303196562573 1.5412363790610797
-0.5467303196562573 1.571843928788763
-0.41548929546890273 1.5849614501006273
-0.3892410906314318 1.5980789714124914
-0.3629928857939609 1.606823985620401
-0.2842482712815481 1.5980789714124914
-0.2580000664440772 1.589333957204582
-0.23175186160660624 1.5849614501006273
-0.12675904225672255 1.5849614501006273
-0.021766222906838845 1.5805889429966724
0.05697839160557393 1.5805889429966724
0.1357230061179867 1.5456088861650346
0.1357230061179867 1.519373843541306
0.21446762063039948 1.4887662938136226
0.21446762063039948 1.4712762653978035
0.29321223514281225 1.4362962085661655
0.371956849655225 1.3881986304226632
0.39820505449269594 1.340101052279161
0.39820505449269594 1.300748488343568
0.39820505449269594 1.2570234173040207
0.4769496690051087 1.2089258391605182
0.5556942835175215 1.1695732752249255
0.6344388980299343 1.1127306828735137
0.6344388980299343 1.0690056118339661
0.6344388980299343 1.0121630194825544
0.6081906931924633 0.9728104555469615
0.5819424883549924 0.9334578916113687
0.6081906931924633 0.8897328205718211
0.6081906931924633 0.8285177211164546
0.6081906931924633 0.7716751287650427
0.5556942835175215 0.7192050435175856
0.5031978738425796 0.6579899440622191
0.5031978738425796 0.6273823943345358
0.5819424883549924 0.5836573232949883
0.6081906931924633 0.5443047593593955
0.6081906931924633 0.4918346741119384
0.5031978738425796 0.44810960307239084
0.42445325933016687 0.40875703913679806
0.5031978738425796 0.3825219965130695
0.5031978738425796 0.356286953889341
0.4507014641676378 0.32130689705770293
0.42445325933016687 0.2863268402260649
0.3457086448177541 0.24697427629047208
0.29321223514281225 0.20324920525092455
0.2407158254678704 0.1988766981469698
0.2669640303053413 0.19450419104301503
0.29321223514281225 0.17701416262719602
0.21446762063039948 0.15077912000346747
0.18821941579292856 0.12017157027578419
0.08322659644304485 0.11142655606787467
0.08322659644304485 0.10705404896391993
0.10947480128051577 0.10705404896391993
0.08322659644304485 0.08081900634019139
0.05697839160557393 0.06770148502832712
0.05697839160557393 0.05895647082041761
0.05697839160557393 0.05895647082041761
0.004481981930632078 0.054583963716462854
0.08322659644304485 0.06332897792437236
0.08322659644304485 0.054583963716462854
0.05697839160557393 0.04583894950855335
-0.021766222906838845 0.04583894950855335
-0.0742626325817807 0.04146644240459859
-0.04801442774430977 0.04146644240459859
0.030730186768103 0.054583963716462854
0.05697839160557393 0.04583894950855335
0.004481981930632078 0.04146644240459859
-0.04801442774430977 0.04146644240459859
-0.10051083741925163 0.03709393530064384
-0.0742626325817807 0.04583894950855335
-0.021766222906838845 0.054583963716462854
-0.0742626325817807 0.0502114566125081
-0.021766222906838845 0.04583894950855335
-0.04801442774430977 0.03272142819668908
-0.15300724709419347 0.04146644240459859
-0.0742626325817807 0.0502114566125081
-0.04801442774430977 0.04146644240459859
0.004481981930632078 0.04583894950855335
0.004481981930632078 0.04583894950855335
-0.04801442774430977 0.03709393530064384
-0.0742626325817807 0.03709393530064384
-0.021766222906838845 0.0502114566125081
-0.04801442774430977 0.0502114566125081
-0.021766222906838845 0.0502114566125081
-0.0742626325817807 0.0502114566125081
-0.10051083741925163 0.04146644240459859
-0.23175186160660624 0.04146644240459859
-0.12675904225672255 0.0502114566125081
-0.12675904225672255 0.054583963716462854
-0.12675904225672255 0.04583894950855335
-0.15300724709419347 0.04583894950855335
-0.1792554519316644 0.04146644240459859
-0.23175186160660624 0.03709393530064384
-0.20550365676913532 0.0502114566125081
-0.10051083741925163 0.054583963716462854
-0.04801442774430977 0.04583894950855335
-0.10051083741925163 0.03709393530064384
-0.15300724709419347 0.02397641398877957
-0.20550365676913532 0.019603906884824815
-0.12675904225672255 0.028348921092734323
-0.12675904225672255 0.028348921092734323
-0.12675904225672255 0.028348921092734323
-0.12675904225672255 0.019603906884824815
-0.23175186160660624 0.019603906884824815
-0.2842482712815481 0.010858892676915304
-0.2580000664440772 0.015231399780870057
-0.20550365676913532 0.028348921092734323
-0.1792554519316644 0.010858892676915304
-0.1792554519316644 0.0021138784690057917
-0.2580000664440772 0.0021138784690057917
-0.2842482712815481 -0.0022586286349489636
-0.33674468095648996 -0.006631135738903719
-0.20550365676913532 -0.006631135738903719
-0.23175186160660624 -0.011003642842858475
-0.2580000664440772 -0.01537614994681323
-0.2842482712815481 -0.01537614994681323
-0.3892410906314318 -0.028493671258677498
-0.33674468095648996 -0.019748657050767986
-0.31049647611901904 -0.019748657050767986
-0.2842482712815481 -0.028493671258677498
-0.2842482712815481 -0.037238685466587006
-0.33674468095648996 -0.04598369967449652
-0.41548929546890273 -0.041611192570541765
-0.3892410906314318 -0.041611192570541765
-0.33674468095648996 -0.04598369967449652
-0.2580000664440772 -0.050356206778451276
-0.2842482712815481 -0.04598369967449652
-0.33674468095648996 -0.05910122098636078
-0.41548929546890273 -0.0678462351942703
-0.41548929546890273 -0.05472871388240603
-0.31049647611901904 -0.050356206778451276
-0.33674468095648996 -0.05910122098636078
-0.2580000664440772 -0.0678462351942703
-0.3892410906314318 -0.06347372809031554
-0.44173750030637365 -0.0765912494021798
-0.4942339099813155 -0.06347372809031554
-0.33674468095648996 -0.05910122098636078
-0.3629928857939609 -0.0765912494021798
-0.33674468095648996 -0.0765912494021798
-0.3629928857939609 -0.08096375650613456
-0.3629928857939609 -0.09408127781799883
-0.33674468095648996 -0.08096375650613456
-0.3629928857939609 -0.0678462351942703
-0.2842482712815481 -0.08096375650613456
-0.33674468095648996 -0.08096375650613456
-0.41548929546890273 -0.09408127781799883
-0.4679857051438446 -0.09845378492195359
-0.44173750030637365 -0.08970877071404407
-0.3892410906314318 -0.08970877071404407
-0.3892410906314318 -0.0765912494021798
-0.3629928857939609 -0.08533626361008932
-0.41548929546890273 -0.09408127781799883
-0.4679857051438446 -0.08970877071404407
-0.44173750030637365 -0.08970877071404407
-0.3892410906314318 -0.0765912494021798
-0.31049647611901904 -0.09408127781799883
-0.3629928857939609 -0.09408127781799883
-0.3629928857939609 -0.10282629202590834
-0.44173750030637365 -0.11157130623381785
-0.3892410906314318 -0.10719879912986309
-0.41548929546890273 -0.08533626361008932
-0.3629928857939609 -0.10282629202590834
-0.33674468095648996 -0.10719879912986309
-0.3629928857939609 -0.10719879912986309
-0.4679857051438446 -0.10719879912986309
-0.3892410906314318 -0.09845378492195359
-0.44173750030637365 -0.08970877071404407
-0.3629928857939609 -0.10719879912986309
-0.33674468095648996 -0.09845378492195359
-0.41548929546890273 -0.11157130623381785
-0.44173750030637365 -0.11594381333777261
-0.3892410906314318 -0.10282629202590834
-0.3892410906314318 -0.10719879912986309
-0.33674468095648996 -0.09408127781799883
-0.3629928857939609 -0.11157130623381785
-0.3892410906314318 -0.12031632044172735
-0.4942339099813155 -0.11157130623381785
-0.41548929546890273 -0.10719879912986309
-0.3629928857939609 -0.10282629202590834
-0.33674468095648996 -0.10719879912986309
-0.33674468095648996 -0.11157130623381785
-0.3892410906314318 -0.12031632044172735
-0.3892410906314318 -0.12468882754568211
-0.3892410906314318 -0.11594381333777261
-0.31049647611901904 -0.09845378492195359
-0.2842482712815481 -0.11157130623381785
-0.33674468095648996 -0.11594381333777261
-0.33674468095648996 -0.11594381333777261
-0.3629928857939609 -0.12468882754568211
-0.33674468095648996 -0.11594381333777261
-0.31049647611901904 -0.10282629202590834
-0.20550365676913532 -0.11157130623381785
-0.2580000664440772 -0.10719879912986309
-0.2580000664440772 -0.12468882754568211
-0.2842482712815481 -0.11157130623381785
-0.23175186160660624 -0.10719879912986309
-0.20550365676913532 -0.10282629202590834
-0.1792554519316644 -0.09408127781799883
-0.15300724709419347 -0.09845378492195359
-0.20550365676913532 -0.09408127781799883
-0.20550365676913532 -0.0765912494021798
-0.10051083741925163 -0.037238685466587006
-0.021766222906838845 0.09393652765205565
0.1357230061179867 0.3475419396814315
0.2407158254678704 0.6579899440622191
0.39820505449269594 0.7979101713887713
0.7394317173798179 0.6711074653740834
1.5006296576664748 0.4830896599040289
2.891784514052434 0.3475419396814315
4.78165526235034 0.2863268402260649
6.067817299386416 0.23385675497860783
5.700342431661823 0.1682691484192865
4.072953731738625 0.12017157027578419
2.7080470801901373 0.06770148502832712
2.078090164090835 -0.0022586286349489636
2.078090164090835 -0.09845378492195359
2.1305865737657768 -0.20776646252082248
2.025593754415893 -0.34768668984737466
1.9993455495784223 -0.4963519313818363
2.025593754415893 -0.6537621871242075
2.025593754415893 -0.8155449499705335
2.078090164090835 -0.9904452341287237
2.104338368928306 -1.1391104756631854
2.156834778603248 -1.2746581958857828
2.104338368928306 -1.397088394796516
2.078090164090835 -1.5107735794993395
1.9468491399034804 -1.646321299721937
1.9993455495784223 -1.8124765696722178
1.9993455495784223 -2.009239389350182
2.025593754415893 -2.1710221521965076
1.9468491399034804 -2.2978248582111958
1.7893599108786549 -2.3677849718744715
1.7106152963662422 -2.433372578433793
1.5793742721788875 -2.5120777063049786
1.3956368383165911 -2.5820378199682548
1.1069065851044109 -2.647625426527576
0.7919281270547598 -2.6782329762552592
0.5294460786800506 -2.6957230046710783
0.2407158254678704 -2.6957230046710783
0.030730186768103 -2.7219580472948066
-0.31049647611901904 -2.7438205828145805
-0.7042195486810829 -2.7438205828145805
-1.1766872357555596 -2.7569381041264447
-1.5441621034801525 -2.7525655970224903
-1.4916656938052106 -2.7394480757106257
-1.386672874455327 -2.7350755686066712
-1.1504390309180885 -2.7394480757106257
-1.019198006730734 -2.7307030615027164
-0.8879569825433794 -2.704468018878988
-0.7304677535185539 -2.665115454943395
-0.7567159583560248 -2.599527848384074
-0.7567159583560248 -2.5295677347207977
-0.7567159583560248 -2.450862606849612
-0.8092123680309666 -2.3502949434586524
-0.8879569825433794 -2.232237251651874
-0.8354605728684376 -2.0791995030134576
-0.7304677535185539 -1.9174167401671318
-0.5729785244937282 -1.7381439489049868
-0.5204821148187864 -1.5457536363309776
-0.33674468095648996 -1.344618309549059
-0.23175186160660624 -1.1347379685592307
-0.1792554519316644 -0.9204851204654476
-0.1792554519316644 -0.7324673149953931
-0.2580000664440772 -0.5619395379411577
-0.33674468095648996 -0.40890178930274124
-0.44173750030637365 -0.2558640406643248
-0.4942339099813155 -0.11594381333777261
-0.5204821148187864 0.02397641398877957
-0.5467303196562573 0.17701416262719602
-0.4679857051438446 0.3038168686418839
-0.44173750030637365 0.4043845320328433
-0.5204821148187864 0.48746216700798367
-0.4942339099813155 0.5486772664633502
-0.44173750030637365 0.6011473517108072
-0.3892410906314318 0.6404999156464001
-0.3892410906314318 0.6667349582701286
-0.3892410906314318 0.6929700008938572
-0.41548929546890273 0.7235775506215404
-0.4942339099813155 0.7454400861413142
-0.44173750030637365 0.7760476358689975
-0.3892410906314318 0.8066551855966808
-0.3629928857939609 0.8285177211164546
-0.3629928857939609 0.8416352424283189
-0.44173750030637365 0.854752763740183
-0.44173750030637365 0.8722427921560021
-0.4679857051438446 0.8984778347797306
-0.44173750030637365 0.9203403702995044
-0.44173750030637365 0.929085384507414
-0.4679857051438446 0.9422029058192782
-0.5467303196562573 0.9596929342350973
-0.5467303196562573 0.981555469754871
-0.5204821148187864 1.0077905123785995
-0.44173750030637365 1.034025555002328
-0.41548929546890273 1.0471430763141922
-0.4942339099813155 1.051515583418147
-0.5467303196562573 1.0777506260418757
-0.5729785244937282 1.0952406544576947
-0.5729785244937282 1.1171031899774684
-0.5467303196562573 1.1520832468091065
-0.4942339099813155 1.1652007681209708
-0.5204821148187864 1.1826907965367897
-0.5204821148187864 1.2045533320565636
-0.6254749341686701 1.2395333888882016
-0.5467303196562573 1.2701409386158848
-0.4679857051438446 1.300748488343568
-0.4942339099813155 1.318238516759387
-0.5204821148187864 1.3269835309672966
-0.5992267293311991 1.3619635877989347
-0.5204821148187864 1.375081109110799
-0.5204821148187864 1.4144336730463918
-0.41548929546890273 1.4319237014622108
-0.3892410906314318 1.4494137298780299
-0.3892410906314318 1.4712762653978035
-0.3892410906314318 1.497511308021532
-0.41548929546890273 1.5150013364373511
-0.3629928857939609 1.536863871957125
-0.2580000664440772 1.5587264074768987
-0.2842482712815481 1.5849614501006273
-0.2842482712815481 1.589333957204582
-0.2580000664440772 1.6024514785164463
-0.2842482712815481 1.6024514785164463
-0.1792554519316644 1.6286865211401749
-0.10051083741925163 1.6330590282441295
-0.04801442774430977 1.6199415069322654
-0.04801442774430977 1.6111964927243558
-0.04801442774430977 1.5980789714124914
-0.04801442774430977 1.589333957204582
0.05697839160557393 1.5805889429966724
0.16197121095545763 1.5805889429966724
0.18821941579292856 1.5412363790610797
0.18821941579292856 1.5106288293333965
0.18821941579292856 1.4712762653978035
0.21446762063039948 1.4406687156701203
0.2669640303053413 1.3969436446305727
0.371956849655225 1.3794536162147537
0.4769496690051087 1.3269835309672966
0.4507014641676378 1.2745134457198397
0.5031978738425796 1.2176708533684277
0.4769496690051087 1.1564557539130613
0.5556942835175215 1.1214756970814233
0.6344388980299343 1.0733781189379208
0.6606871028674052 1.0077905123785995
0.7394317173798179 0.9378303987153235
0.713183512542347 0.8722427921560021
0.6869353077048761 0.8241452140124998
0.6869353077048761 0.767302621661088
0.7919281270547598 0.7235775506215404
0.8181763318922307 0.6623624511661739
0.7919281270547598 0.6142648730226715
0.7656799222172889 0.5617947877752145
0.6869353077048761 0.5093247025277574
0.6869353077048761 0.47871715280007415
0.7656799222172889 0.44810960307239084
0.7394317173798179 0.38689450361702427
0.7394317173798179 0.36503196809725047
0.6606871028674052 0.3256794041616577
0.5556942835175215 0.28195433312211016
0.5819424883549924 0.2557192904983816
0.6344388980299343 0.2382292620825626
0.6344388980299343 0.2163667265627888
0.5556942835175215 0.19013168393906027
0.4769496690051087 0.1682691484192865
0.39820505449269594 0.13766159869160322
0.5031978738425796 0.13766159869160322
0.4507014641676378 0.1289165844836937
0.4507014641676378 0.12017157027578419
0.4507014641676378 0.09830903475601041
0.42445325933016687 0.07207399213228188
0.2669640303053413 0.06770148502832712
0.2669640303053413 0.07207399213228188
0.371956849655225 0.08081900634019139
0.29321223514281225 0.07207399213228188
0.371956849655225 0.06770148502832712
0.3194604399802832 0.04583894950855335
0.18821941579292856 0.05895647082041761
0.29321223514281225 0.06770148502832712
0.3194604399802832 0.06770148502832712
0.3457086448177541 0.06770148502832712
0.18821941579292856 0.07644649923623663
0.21446762063039948 0.06770148502832712
0.16197121095545763 0.07207399213228188
0.16197121095545763 0.08081900634019139
0.21446762063039948 0.0895640205481009
0.29321223514281225 0.08519151344414615
0.2669640303053413 0.08519151344414615
0.16197121095545763 0.07644649923623663
0.08322659644304485 0.07644649923623663
0.08322659644304485 0.08519151344414615
0.21446762063039948 0.09393652765205565
0.21446762063039948 0.0895640205481009
0.29321223514281225 0.08519151344414615
0.21446762063039948 0.07207399213228188
0.18821941579292856 0.06332897792437236
0.2669640303053413 0.07207399213228188
0.3194604399802832 0.06770148502832712
0.3457086448177541 0.07207399213228188
0.29321223514281225 0.0502114566125081
0.2669640303053413 0.03709393530064384
0.29321223514281225 0.015231399780870057
0.29321223514281225 0.03272142819668908
0.371956849655225 0.03272142819668908
0.4507014641676378 0.028348921092734323
0.39820505449269594 0.0021138784690057917
0.29321223514281225 0.0021138784690057917
0.2407158254678704 -0.006631135738903719
0.2407158254678704 -0.011003642842858475
0.3194604399802832 -0.006631135738903719
0.3194604399802832 -0.0022586286349489636
0.3194604399802832 -0.006631135738903719
0.18821941579292856 -0.011003642842858475
0.16197121095545763 -0.006631135738903719
0.16197121095545763 0.015231399780870057
0.16197121095545763 0.019603906884824815
0.16197121095545763 0.0021138784690057917
0.05697839160557393 0.0021138784690057917
0.004481981930632078 -0.006631135738903719
-0.12675904225672255 -0.01537614994681323
-0.15300724709419347 -0.011003642842858475
-0.04801442774430977 -0.01537614994681323
-0.04801442774430977 -0.006631135738903719
-0.0742626325817807 -0.024121164154722742
-0.12675904225672255 -0.028493671258677498
-0.23175186160660624 -0.03286617836263225
-0.23175186160660624 -0.024121164154722742
-0.1792554519316644 -0.03286617836263225
-0.12675904225672255 -0.028493671258677498
-0.1792554519316644 -0.03286617836263225
-0.20550365676913532 -0.041611192570541765
-0.23175186160660624 -0.04598369967449652
-0.23175186160660624 -0.04598369967449652
-0.1792554519316644 -0.041611192570541765
-0.12675904225672255 -0.041611192570541765
-0.12675904225672255 -0.04598369967449652
-0.20550365676913532 -0.07221874229822504
-0.20550365676913532 -0.0678462351942703
-0.23175186160660624 -0.05910122098636078
-0.23175186160660624 -0.04598369967449652
-0.1792554519316644 -0.05472871388240603
-0.15300724709419347 -0.0678462351942703
-0.23175186160660624 -0.08096375650613456
-0.2842482712815481 -0.08970877071404407
-0.23175186160660624 -0.08533626361008932
-0.2580000664440772 -0.07221874229822504
-0.23175186160660624 -0.08533626361008932
-0.23175186160660624 -0.08533626361008932
-0.31049647611901904 -0.09845378492195359
-0.3629928857939609 -0.10282629202590834
-0.2842482712815481 -0.09845378492195359
-0.2580000664440772 -0.08533626361008932
-0.1792554519316644 -0.08533626361008932
-0.15300724709419347 -0.10282629202590834
-0.15300724709419347 -0.10282629202590834
-0.20550365676913532 -0.11594381333777261
-0.2580000664440772 -0.10719879912986309
-0.23175186160660624 -0.09408127781799883
-0.20550365676913532 -0.09845378492195359
-0.2580000664440772 -0.11157130623381785
-0.2842482712815481 -0.10719879912986309
-0.23175186160660624 -0.10282629202590834
-0.2842482712815481 -0.10719879912986309
-0.20550365676913532 -0.09408127781799883
-0.20550365676913532 -0.09845378492195359
-0.12675904225672255 -0.11157130623381785
-0.1792554519316644 -0.11157130623381785
-0.23175186160660624 -0.11157130623381785
-0.15300724709419347 -0.10282629202590834
-0.15300724709419347 -0.10719879912986309
-0.15300724709419347 -0.11157130623381785
-0.20550365676913532 -0.11157130623381785
-0.20550365676913532 -0.12031632044172735
-0.2580000664440772 -0.12031632044172735
-0.20550365676913532 -0.10719879912986309
-0.1792554519316644 -0.10282629202590834
-0.10051083741925163 -0.10282629202590834
-0.12675904225672255 -0.11157130623381785
-0.12675904225672255 -0.11157130623381785
-0.20550365676913532 -0.11157130623381785
-0.1792554519316644 -0.10282629202590834
-0.23175186160660624 -0.08970877071404407
-0.20550365676913532 -0.10282629202590834
-0.20550365676913532 -0.11594381333777261
-0.20550365676913532 -0.12468882754568211
-0.20550365676913532 -0.11157130623381785
-0.23175186160660624 -0.11157130623381785
-0.10051083741925163 -0.10719879912986309
-0.0742626325817807 -0.10282629202590834
-0.12675904225672255 -0.10719879912986309
-0.0742626325817807 -0.12031632044172735
-0.15300724709419347 -0.11594381333777261
-0.10051083741925163 -0.11594381333777261
-0.10051083741925163 -0.09845378492195359
-0.0742626325817807 -0.10719879912986309
-0.04801442774430977 -0.12468882754568211
-0.20550365676913532 -0.11594381333777261
-0.1792554519316644 -0.11594381333777261
-0.15300724709419347 -0.10719879912986309
-0.04801442774430977 -0.09408127781799883
-0.021766222906838845 -0.11157130623381785
-0.12675904225672255 -0.11594381333777261
-0.0742626325817807 -0.12468882754568211
-0.10051083741925163 -0.11594381333777261
-0.04801442774430977 -0.11157130623381785
-0.021766222906838845 -0.09408127781799883
0.05697839160557393 -0.10282629202590834
0.004481981930632078 -0.11157130623381785
-0.0742626325817807 -0.12031632044172735
-0.10051083741925163 -0.11594381333777261
-0.021766222906838845 -0.10719879912986309
0.030730186768103 -0.08970877071404407
0.030730186768103 -0.09845378492195359
0.004481981930632078 -0.10719879912986309
-0.021766222906838845 -0.09408127781799883
-0.04801442774430977 -0.0678462351942703
0.05697839160557393 -0.019748657050767986
0.18821941579292856 0.12454407737973894
0.3194604399802832 0.44810960307239084
0.42445325933016687 0.7454400861413142
0.5819424883549924 0.767302621661088
0.9231691512421144 0.553049773567305
2.025593754415893 0.3606594609932957
4.072953731738625 0.28195433312211016
5.595349612311939 0.24260176918651735
5.359115768774701 0.1988766981469698
3.757975273688974 0.1289165844836937
2.49806144149037 0.054583963716462854
2.104338368928306 -0.01537614994681323
2.156834778603248 -0.12031632044172735
2.2880758027906025 -0.26898156197618905
2.2355793931156605 -0.4395093390304245
2.183082983440719 -0.6056646089807052
2.156834778603248 -0.789309907346805
2.156834778603248 -0.9773277128168594
2.2093311882781896 -1.165345518286914
2.2618275979531317 -1.3315007882371945
2.2093311882781896 -1.4801660297716563
2.104338368928306 -1.6200862570982084
1.9993455495784223 -1.7381439489049868
1.9206009350660096 -1.825594090984082
1.9730973447409514 -1.9436517827908604
2.0518419592533643 -2.0879445172213673
2.078090164090835 -2.201629701924191
2.078090164090835 -2.275962322691422
1.9468491399034804 -2.345922436354698
1.8943527302285386 -2.3852750002902905
1.8681045253910677 -2.4421175926417025
1.8418563205535967 -2.5077051992010237
1.7106152963662422 -2.560175284448481
1.448133247991533 -2.612645369695938
1.2381476092917656 -2.634507905215712
0.9756655609170563 -2.643252919423621
0.8181763318922307 -2.651997933631531
0.6081906931924633 -2.686977990463169
0.371956849655225 -2.704468018878988
-0.15300724709419347 -2.7132130330868973
-0.5729785244937282 -2.7219580472948066
-0.9404533922183212 -2.7088405259829424
-0.9404533922183212 -2.7088405259829424
-0.7567159583560248 -2.700095511775033
-0.5729785244937282 -2.704468018878988
-0.3629928857939609 -2.6913504975671234
-0.3629928857939609 -2.66948796204735
-0.33674468095648996 -2.612645369695938
-0.3629928857939609 -2.5514302702405716
-0.41548929546890273 -2.4727251423693857
-0.4679857051438446 -2.380902493186336
-0.5992267293311991 -2.284707336899331
-0.6779713438436119 -2.1579046308846435
-0.5992267293311991 -1.9961218680383175
-0.4679857051438446 -1.8474566265038557
-0.41548929546890273 -1.6594388210338014
-0.3629928857939609 -1.467048508459792
-0.3629928857939609 -1.2877757171976472
-0.31049647611901904 -1.0822678833117736
-0.33674468095648996 -0.8986225849456738
-0.2580000664440772 -0.7324673149953931
-0.20550365676913532 -0.575057059253022
-0.20550365676913532 -0.413274296406696
-0.2580000664440772 -0.24711902645641526
-0.41548929546890273 -0.08970877071404407
-0.3892410906314318 0.0502114566125081
-0.33674468095648996 0.19013168393906027
-0.33674468095648996 0.2906993473300197
-0.44173750030637365 0.4043845320328433
-0.41548929546890273 0.49620718121589313
-0.44173750030637365 0.5574222806712598
-0.3629928857939609 0.6098923659187168
-0.3629928857939609 0.6623624511661739
-0.33674468095648996 0.7017150151017667
-0.33674468095648996 0.7192050435175856
-0.3629928857939609 0.7454400861413142
-0.33674468095648996 0.7760476358689975
-0.3629928857939609 0.7979101713887713
-0.31049647611901904 0.8460077495322735
-0.2580000664440772 0.8634977779480926
-0.2580000664440772 0.8722427921560021
-0.31049647611901904 0.9028503418836854
-0.33674468095648996 0.9203403702995044
-0.3629928857939609 0.9509479200271878
-0.3892410906314318 0.9903004839627805
-0.31049647611901904 1.020908033690464
-0.3629928857939609 1.0296530478983734
-0.3892410906314318 1.0427705692102376
-0.3892410906314318 1.0733781189379208
-0.2842482712815481 1.1171031899774684
-0.23175186160660624 1.1389657254972423
-0.1792554519316644 1.160828261017016
-0.15300724709419347 1.2001808249526087
-0.12675904225672255 1.2089258391605182
-0.1792554519316644 1.2570234173040207
-0.1792554519316644 1.2832584599277492
-0.12675904225672255 1.322611023863342
-0.15300724709419347 1.3532185735910252
-0.23175186160660624 1.3881986304226632
-0.2580000664440772 1.4013161517345276
-0.31049647611901904 1.4362962085661655
-0.2580000664440772 1.466903758293849
-0.20550365676913532 1.5106288293333965
-0.12675904225672255 1.5281188577492155
-0.10051083741925163 1.5587264074768987
-0.15300724709419347 1.5762164358927178
-0.2580000664440772 1.5980789714124914
-0.12675904225672255 1.62431401403622
-0.021766222906838845 1.6549215637639034
-0.04801442774430977 1.6724115921797225
-0.021766222906838845 1.6942741276994961
-0.04801442774430977 1.6942741276994961
0.004481981930632078 1.7161366632192698
0.1357230061179867 1.7423717058429984
0.2407158254678704 1.751116720050908
0.3194604399802832 1.751116720050908
0.2407158254678704 1.751116720050908
0.18821941579292856 1.7336266916350889
0.2407158254678704 1.7336266916350889
0.2669640303053413 1.7248816774271793
0.3194604399802832 1.7336266916350889
0.39820505449269594 1.6899016205955413
0.371956849655225 1.663666577971813
0.4507014641676378 1.6286865211401749
0.5819424883549924 1.5937064643085368
0.6606871028674052 1.5587264074768987
0.7394317173798179 1.5281188577492155
0.7919281270547598 1.480021279605713
0.7656799222172889 1.4231786872543013
0.7394317173798179 1.3619635877989347
0.6344388980299343 1.3138660096554324
0.713183512542347 1.2788859528237944
0.8444245367297016 1.2220433604723826
0.9494173560795853 1.1652007681209708
0.9494173560795853 1.1039856686656042
0.9756655609170563 1.0427705692102376
0.9231691512421144 0.981555469754871
0.9756655609170563 0.9334578916113687
1.0019137657545272 0.8941053276757759
1.0281619705919982 0.8285177211164546
0.8969209464046435 0.767302621661088
0.8706727415671726 0.714832536413631
0.7656799222172889 0.6492449298543096
0.7394317173798179 0.6142648730226715
0.8706727415671726 0.5792848161910336
0.7919281270547598 0.5268147309435764
0.6869353077048761 0.4830896599040289
0.6344388980299343 0.43499208176052656
0.5819424883549924 0.3956395178249338
0.6606871028674052 0.36940447520120523
0.7394317173798179 0.356286953889341
0.7919281270547598 0.3169343899537482
0.7394317173798179 0.2863268402260649
0.6081906931924633 0.25134678339442684
0.5294460786800506 0.22511174077069832
0.5556942835175215 0.2076217123548793
0.5819424883549924 0.1988766981469698
0.6606871028674052 0.1857591768351055
0.6344388980299343 0.15952413421137698
0.6344388980299343 0.14203410579555797
0.5819424883549924 0.12017157027578419
0.6606871028674052 0.12454407737973894
0.7394317173798179 0.10705404896391993
0.6869353077048761 0.08519151344414615
0.5819424883549924 0.07207399213228188
0.4507014641676378 0.05895647082041761
0.3194604399802832 0.0502114566125081
0.3457086448177541 0.0502114566125081
0.42445325933016687 0.05895647082041761
0.4507014641676378 0.04146644240459859
0.4507014641676378 0.03709393530064384
0.3457086448177541 0.028348921092734323
0.2669640303053413 0.019603906884824815
0.3457086448177541 0.03272142819668908
0.42445325933016687 0.028348921092734323
0.5294460786800506 0.02397641398877957
0.5819424883549924 0.02397641398877957
0.5294460786800506 0.010858892676915304
0.371956849655225 0.010858892676915304
0.3457086448177541 0.019603906884824815
0.3457086448177541 0.03709393530064384
0.29321223514281225 0.019603906884824815
0.3457086448177541 0.019603906884824815
0.39820505449269594 0.015231399780870057
0.4507014641676378 0.006486385572960547
0.5031978738425796 0.015231399780870057
0.5294460786800506 0.02397641398877957
0.5556942835175215 0.015231399780870057
0.5031978738425796 0.010858892676915304
0.39820505449269594 0.0021138784690057917
0.29321223514281225 0.0021138784690057917
0.2407158254678704 0.010858892676915304
0.2407158254678704 0.028348921092734323
0.3194604399802832 0.019603906884824815
0.371956849655225 0.010858892676915304
0.3194604399802832 0.010858892676915304
0.3457086448177541 0.006486385572960547
0.3457086448177541 0.010858892676915304
0.4507014641676378 0.02397641398877957
0.39820505449269594 0.02397641398877957
0.39820505449269594 0.015231399780870057
0.3194604399802832 0.0021138784690057917
0.2669640303053413 -0.0022586286349489636
0.2407158254678704 0.019603906884824815
0.3194604399802832 0.028348921092734323
0.39820505449269594 0.019603906884824815
0.42445325933016687 0.019603906884824815
0.3194604399802832 -0.0022586286349489636
0.21446762063039948 0.0021138784690057917
0.21446762063039948 0.006486385572960547
0.21446762063039948 0.010858892676915304
0.2669640303053413 0.006486385572960547
0.2407158254678704 0.006486385572960547
0.21446762063039948 -0.0022586286349489636
0.18821941579292856 -0.006631135738903719
0.2407158254678704 0.0021138784690057917
0.3194604399802832 0.010858892676915304
0.3457086448177541 0.0021138784690057917
0.3457086448177541 0.0021138784690057917
0.29321223514281225 -0.0022586286349489636
0.3194604399802832 0.0021138784690057917
0.2407158254678704 0.0021138784690057917
0.29321223514281225 0.02397641398877957
0.3194604399802832 0.02397641398877957
0.2669640303053413 0.010858892676915304
0.18821941579292856 0.010858892676915304
0.1357230061179867 0.019603906884824815
0.16197121095545763 0.010858892676915304
0.18821941579292856 0.019603906884824815
0.21446762063039948 0.019603906884824815
0.18821941579292856 0.010858892676915304
0.21446762063039948 -0.0022586286349489636
0.10947480128051577 0.0021138784690057917
0.21446762063039948 0.006486385572960547
0.18821941579292856 0.015231399780870057
0.29321223514281225 0.0021138784690057917
0.3457086448177541 -0.011003642842858475
0.3194604399802832 -0.01537614994681323
0.21446762063039948 -0.041611192570541765
0.29321223514281225 -0.041611192570541765
0.39820505449269594 -0.041611192570541765
0.4769496690051087 -0.050356206778451276
0.4769496690051087 -0.05910122098636078
0.4769496690051087 -0.07221874229822504
0.3457086448177541 -0.08096375650613456
0.3194604399802832 -0.08096375650613456
0.29321223514281225 -0.08096375650613456
0.3194604399802832 -0.08970877071404407
0.42445325933016687 -0.10719879912986309
0.4507014641676378 -0.11594381333777261
0.42445325933016687 -0.11594381333777261
0.39820505449269594 -0.11594381333777261
0.371956849655225 -0.11594381333777261
0.3194604399802832 -0.12468882754568211
0.2407158254678704 -0.12031632044172735
0.18821941579292856 -0.11157130623381785
0.21446762063039948 -0.11157130623381785
0.29321223514281225 -0.10719879912986309
0.39820505449269594 -0.08970877071404407
0.3194604399802832 -0.10282629202590834
0.3194604399802832 -0.10282629202590834
0.16197121095545763 -0.09845378492195359
0.08322659644304485 -0.11594381333777261
0.10947480128051577 -0.10719879912986309
0.10947480128051577 -0.08970877071404407
0.08322659644304485 -0.09845378492195359
0.05697839160557393 -0.10282629202590834
0.05697839160557393 -0.11157130623381785
0.05697839160557393 -0.11157130623381785
0.16197121095545763 -0.10282629202590834
0.2669640303053413 -0.09845378492195359
0.2669640303053413 -0.09408127781799883
0.29321223514281225 -0.11157130623381785
0.16197121095545763 -0.10719879912986309
0.10947480128051577 -0.11594381333777261
0.08322659644304485 -0.10719879912986309
0.1357230061179867 -0.10719879912986309
0.18821941579292856 -0.10719879912986309
0.16197121095545763 -0.10282629202590834
0.08322659644304485 -0.11157130623381785
-0.021766222906838845 -0.11594381333777261
0.030730186768103 -0.10719879912986309
0.16197121095545763 -0.09845378492195359
0.16197121095545763 -0.10282629202590834
0.2407158254678704 -0.11157130623381785
0.21446762063039948 -0.12468882754568211
0.08322659644304485 -0.12468882754568211
0.1357230061179867 -0.10719879912986309
0.2407158254678704 -0.08970877071404407
0.2669640303053413 -0.10282629202590834
0.2669640303053413 -0.11157130623381785
0.10947480128051577 -0.12031632044172735
0.10947480128051577 -0.11594381333777261
0.1357230061179867 -0.10282629202590834
0.2407158254678704 -0.09845378492195359
0.21446762063039948 -0.10282629202590834
0.29321223514281225 -0.09845378492195359
0.2407158254678704 -0.10282629202590834
0.2407158254678704 -0.09408127781799883
0.2669640303053413 -0.08096375650613456
0.371956849655225 -0.050356206778451276
0.4769496690051087 0.0021138784690057917
0.5031978738425796 0.15077912000346747
0.5556942835175215 0.43499208176052656
0.6344388980299343 0.7279500577254951
0.8969209464046435 0.7804201429729523
1.36938863347912 0.5836573232949883
2.5243096463278407 0.37377698230516
4.414180394625747 0.29944436153792914
5.8578316606866485 0.27320931891420064
5.490356792962055 0.24260176918651735
3.9942091172262124 0.23385675497860783
2.78679169470255 0.2163667265627888
2.340572212465544 0.17264165552324126
2.393068622140486 0.13766159869160322
2.471813236652899 0.08081900634019139
2.550557851165312 0.006486385572960547
2.6555506705151957 -0.0765912494021798
2.734295285027608 -0.20339395541686772
2.865536309214963 -0.36517671826319364
2.9442809237273755 -0.5400770024213839
2.9967773334023176 -0.7280948078914383
3.0755219479147304 -0.9117401062575381
3.180514767264614 -1.1128754330394568
3.2592593817770266 -1.2921482243016018
3.285507586614498 -1.4889110439795659
3.285507586614498 -1.663811328137756
3.2330111769395558 -1.7993590483603534
3.285507586614498 -1.9305342614789962
3.3642522011269103 -2.0311019248699553
3.3905004059643815 -2.1010620385332315
3.3905004059643815 -2.1885121806123267
3.3117557914519686 -2.284707336899331
3.180514767264614 -2.3940200144982002
3.049273743077259 -2.4727251423693857
2.813039899540021 -2.542685256032662
2.5243096463278407 -2.573292805760345
2.156834778603248 -2.599527848384074
1.9206009350660096 -2.634507905215712
1.5268778625039456 -2.66074294783944
1.1069065851044109 -2.682605483359214
0.5819424883549924 -2.6913504975671234
0.004481981930632078 -2.6782329762552592
-0.41548929546890273 -2.700095511775033
-0.5729785244937282 -2.6913504975671234
-0.5204821148187864 -2.700095511775033
-0.44173750030637365 -2.6957230046710783
-0.33674468095648996 -2.66074294783944
-0.2842482712815481 -2.630135398111757
-0.3629928857939609 -2.5645477915524357
-0.5204821148187864 -2.4945876778891596
-0.6254749341686701 -2.4202550571219286
-0.6779713438436119 -2.293452351107241
-0.8354605728684376 -2.1622771379885983
-0.8354605728684376 -2.0311019248699553
-0.7829641631934957 -1.8999267117513128
-0.651723139006141 -1.7425164560089417
-0.5729785244937282 -1.5544986505388871
-0.5992267293311991 -1.3489908166530136
-0.6254749341686701 -1.1434829827671402
-0.5729785244937282 -0.9554651772970857
-0.44173750030637365 -0.7849374002428502
-0.4942339099813155 -0.6056646089807052
-0.4679857051438446 -0.4395093390304245
-0.5467303196562573 -0.2864715903920081
-0.4942339099813155 -0.11594381333777261
-0.4942339099813155 0.028348921092734323
-0.5992267293311991 0.13328909158764846
-0.5992267293311991 0.25134678339442684
-0.6779713438436119 0.35191444678538625
-0.7042195486810829 0.4437370959684361
-0.5992267293311991 0.5311872380475312
-0.4679857051438446 0.5924023375028977
-0.44173750030637365 0.6361274085424453
-0.4942339099813155 0.6536174369582644
-0.5204821148187864 0.6842249866859477
-0.6254749341686701 0.7235775506215404
-0.4942339099813155 0.7585576074531785
-0.44173750030637365 0.802282678492726
-0.3892410906314318 0.8154001998045903
-0.4679857051438446 0.8416352424283189
-0.4679857051438446 0.8503802566362283
-0.4679857051438446 0.8809878063639116
-0.4679857051438446 0.9115953560915949
-0.44173750030637365 0.9509479200271878
-0.4679857051438446 0.9684379484430068
-0.4679857051438446 0.9859279768588257
-0.5467303196562573 1.016535526586509
-0.5992267293311991 1.038398062106283
-0.5467303196562573 1.0864956402497852
-0.5204821148187864 1.1039856686656042
-0.5992267293311991 1.125848204185378
-0.6254749341686701 1.1652007681209708
-0.6254749341686701 1.178318289432835
-0.6779713438436119 1.2001808249526087
-0.651723139006141 1.2395333888882016
-0.5729785244937282 1.2788859528237944
-0.5992267293311991 1.2963759812396134
-0.5992267293311991 1.3269835309672966
-0.6779713438436119 1.3619635877989347
-0.7042195486810829 1.3794536162147537
-0.651723139006141 1.4275511943582562
-0.6254749341686701 1.466903758293849
-0.5992267293311991 1.4931388009175774
-0.651723139006141 1.5106288293333965
-0.651723139006141 1.536863871957125
-0.7042195486810829 1.571843928788763
-0.5729785244937282 1.589333957204582
-0.5467303196562573 1.6330590282441295
-0.4679857051438446 1.6549215637639034
-0.5204821148187864 1.659294070867858
-0.4679857051438446 1.676784099283677
-0.4679857051438446 1.681156606387632
-0.44173750030637365 1.6942741276994961
-0.31049647611901904 1.7161366632192698
-0.20550365676913532 1.7073916490113603
-0.1792554519316644 1.6986466348034508
-0.23175186160660624 1.6855291134915866
-0.20550365676913532 1.676784099283677
-0.10051083741925163 1.6724115921797225
0.004481981930632078 1.6549215637639034
0.030730186768103 1.6199415069322654
0.10947480128051577 1.5937064643085368
0.10947480128051577 1.5456088861650346
0.16197121095545763 1.5062563222294416
0.2669640303053413 1.480021279605713
0.371956849655225 1.4406687156701203
0.4507014641676378 1.3881986304226632
0.4507014641676378 1.3269835309672966
0.4507014641676378 1.2657684315119302
0.4769496690051087 1.195808317848654
0.5294460786800506 1.1652007681209708
0.6606871028674052 1.1127306828735137
0.6344388980299343 1.0471430763141922
0.6081906931924633 0.9903004839627805
0.6344388980299343 0.9115953560915949
0.6606871028674052 0.8591252708441378
0.6606871028674052 0.8110276927006356
0.713183512542347 0.7629301145571332
0.713183512542347 0.7017150151017667
0.713183512542347 0.6448724227503548
0.7394317173798179 0.6011473517108072
0.6869353077048761 0.5574222806712598
0.6869353077048761 0.5311872380475312
0.6344388980299343 0.4918346741119384
0.6344388980299343 0.45685461728030036
0.6344388980299343 0.4175020533447076
0.5819424883549924 0.37377698230516
0.5294460786800506 0.33879692547352197
0.5556942835175215 0.33005191126561245
0.5294460786800506 0.3038168686418839
0.6081906931924633 0.2775818260181554
0.5294460786800506 0.24697427629047208
0.4507014641676378 0.21199421945883407
0.39820505449269594 0.19450419104301503
0.39820505449269594 0.19013168393906027
0.39820505449269594 0.17701416262719602
0.39820505449269594 0.15952413421137698
0.3457086448177541 0.14203410579555797
0.3457086448177541 0.12454407737973894
0.29321223514281225 0.12017157027578419
0.3194604399802832 0.11142655606787467
0.29321223514281225 0.11142655606787467
0.39820505449269594 0.0895640205481009
0.371956849655225 0.0895640205481009
0.3457086448177541 0.07207399213228188
0.29321223514281225 0.06332897792437236
0.3194604399802832 0.06332897792437236
0.3194604399802832 0.06770148502832712
0.29321223514281225 0.06332897792437236
0.3194604399802832 0.0502114566125081
0.29321223514281225 0.04583894950855335
0.2407158254678704 0.03272142819668908
0.29321223514281225 0.0502114566125081
0.29321223514281225 0.06332897792437236
0.3457086448177541 0.0502114566125081
0.2669640303053413 0.054583963716462854
0.2407158254678704 0.04583894950855335
0.2669640303053413 0.04146644240459859
0.3194604399802832 0.054583963716462854
0.3194604399802832 0.054583963716462854
0.3194604399802832 0.04146644240459859
0.2407158254678704 0.0502114566125081
0.2407158254678704 0.03709393530064384
0.16197121095545763 0.03709393530064384
0.2669640303053413 0.04146644240459859
0.29321223514281225 0.0502114566125081
0.29321223514281225 0.04583894950855335
0.2669640303053413 0.04583894950855335
0.21446762063039948 0.03709393530064384
0.18821941579292856 0.04146644240459859
0.18821941579292856 0.054583963716462854
0.18821941579292856 0.05895647082041761
0.2669640303053413 0.054583963716462854
0.2407158254678704 0.04583894950855335
0.18821941579292856 0.054583963716462854
0.16197121095545763 0.04583894950855335
0.21446762063039948 0.05895647082041761
0.2407158254678704 0.05895647082041761
0.2669640303053413 0.054583963716462854
0.21446762063039948 0.0502114566125081
0.16197121095545763 0.054583963716462854
0.1357230061179867 0.0502114566125081
0.1357230061179867 0.06332897792437236
0.16197121095545763 0.06770148502832712
0.16197121095545763 0.05895647082041761
0.16197121095545763 0.06332897792437236
0.10947480128051577 0.04583894950855335
0.08322659644304485 0.04583894950855335
0.10947480128051577 0.06332897792437236
0.16197121095545763 0.07207399213228188
0.16197121095545763 0.05895647082041761
0.08322659644304485 0.04583894950855335
0.05697839160557393 0.03709393530064384
0.05697839160557393 0.03709393530064384
0.030730186768103 0.04146644240459859
0.05697839160557393 0.03709393530064384
0.08322659644304485 0.03709393530064384
0.08322659644304485 0.028348921092734323
0.004481981930632078 0.015231399780870057
-0.04801442774430977 0.019603906884824815
0.05697839160557393 0.010858892676915304
0.08322659644304485 0.019603906884824815
0.05697839160557393 0.010858892676915304
0.004481981930632078 0.006486385572960547
0.004481981930632078 -0.011003642842858475
-0.12675904225672255 -0.0022586286349489636
-0.021766222906838845 -0.006631135738903719
0.004481981930632078 -0.011003642842858475
0.004481981930632078 -0.0022586286349489636
0.004481981930632078 -0.024121164154722742
-0.0742626325817807 -0.024121164154722742
-0.15300724709419347 -0.028493671258677498
-0.04801442774430977 -0.024121164154722742
-0.10051083741925163 -0.011003642842858475
-0.04801442774430977 -0.024121164154722742
-0.04801442774430977 -0.028493671258677498
-0.10051083741925163 -0.041611192570541765
-0.12675904225672255 -0.050356206778451276
-0.10051083741925163 -0.041611192570541765
-0.04801442774430977 -0.037238685466587006
-0.04801442774430977 -0.041611192570541765
-0.10051083741925163 -0.05472871388240603
-0.0742626325817807 -0.041611192570541765
-0.12675904225672255 -0.05472871388240603
-0.10051083741925163 -0.050356206778451276
-0.10051083741925163 -0.041611192570541765
-0.0742626325817807 -0.05910122098636078
-0.0742626325817807 -0.050356206778451276
-0.10051083741925163 -0.05472871388240603
-0.1792554519316644 -0.06347372809031554
-0.10051083741925163 -0.05910122098636078
-0.10051083741925163 -0.050356206778451276
-0.15300724709419347 -0.06347372809031554
-0.0742626325817807 -0.06347372809031554
-0.10051083741925163 -0.06347372809031554
-0.1792554519316644 -0.06347372809031554
-0.1792554519316644 -0.05472871388240603
-0.15300724709419347 -0.041611192570541765
-0.0742626325817807 -0.04598369967449652
-0.1792554519316644 -0.041611192570541765
-0.23175186160660624 -0.050356206778451276
-0.2842482712815481 -0.028493671258677498
-0.2580000664440772 -0.024121164154722742
-0.23175186160660624 -0.011003642842858475
-0.15300724709419347 -0.011003642842858475
-0.20550365676913532 -0.011003642842858475
-0.2580000664440772 -0.024121164154722742
-0.2580000664440772 -0.01537614994681323
-0.2580000664440772 -0.024121164154722742
-0.23175186160660624 -0.01537614994681323
-0.20550365676913532 -0.011003642842858475
-0.2580000664440772 -0.01537614994681323
-0.15300724709419347 -0.024121164154722742
-0.15300724709419347 -0.037238685466587006
-0.04801442774430977 -0.03286617836263225
-0.04801442774430977 -0.03286617836263225
0.08322659644304485 -0.04598369967449652
0.004481981930632078 -0.05910122098636078
-0.021766222906838845 -0.07221874229822504
-0.04801442774430977 -0.08096375650613456
-0.021766222906838845 -0.0765912494021798
0.08322659644304485 -0.07221874229822504
0.1357230061179867 -0.08533626361008932
0.10947480128051577 -0.10719879912986309
0.05697839160557393 -0.12031632044172735
-0.04801442774430977 -0.12031632044172735
0.030730186768103 -0.12031632044172735
0.1357230061179867 -0.11157130623381785
0.1357230061179867 -0.12031632044172735
0.10947480128051577 -0.12031632044172735
0.05697839160557393 -0.13343384175359163
0.08322659644304485 -0.12031632044172735
0.08322659644304485 -0.08970877071404407
0.10947480128051577 -0.0678462351942703
0.10947480128051577 -0.0765912494021798
0.05697839160557393 -0.08096375650613456
