-0.0717097635898403 -0.23638763870661983
-0.08652555259233399 -0.1667305069165573
-0.10134134159482769 -0.1667305069165573
-0.0717097635898403 -0.1667305069165573
-0.0717097635898403 -0.20155907281158858
-0.08652555259233399 -0.09707337512649476
-0.10134134159482769 0.042240888453630304
-0.10134134159482769 -0.09707337512649476
-0.1754202866072962 -0.09707337512649476
-0.14578870860230878 -0.13190194102152603
-0.16060449760480247 -0.1667305069165573
-0.1902360756097899 -0.13190194102152603
-0.21986765361477728 -0.0622448092314635
-0.23468344261727098 -0.13190194102152603
-0.1754202866072962 -0.13190194102152603
-0.11615713059732138 -0.09707337512649476
-0.11615713059732138 -0.0622448092314635
-0.08652555259233399 0.007412322558599036
-0.08652555259233399 -0.0622448092314635
-0.10134134159482769 -0.1667305069165573
-0.14578870860230878 -0.27121620460165113
-0.14578870860230878 -0.23638763870661983
-0.1754202866072962 -0.20155907281158858
-0.16060449760480247 -0.0622448092314635
-0.13097291959981508 -0.13190194102152603
-0.10134134159482769 -0.1667305069165573
-0.13097291959981508 -0.13190194102152603
-0.0717097635898403 -0.0622448092314635
-0.08652555259233399 -0.0622448092314635
-0.10134134159482769 -0.027416243336432233
-0.11615713059732138 -0.13190194102152603
-0.10134134159482769 -0.27121620460165113
-0.0717097635898403 -0.20155907281158858
-0.10134134159482769 -0.09707337512649476
-0.14578870860230878 -0.1667305069165573
-0.13097291959981508 -0.20155907281158858
-0.14578870860230878 -0.23638763870661983
-0.11615713059732138 -0.09707337512649476
-0.13097291959981508 0.042240888453630304
-0.11615713059732138 0.07706945434866157
-0.10134134159482769 -0.027416243336432233
-0.08652555259233399 -0.20155907281158858
-0.0717097635898403 -0.20155907281158858
-0.027262396582359197 -0.1667305069165573
-0.0420781855848529 -0.13190194102152603
-0.056893974587346595 -0.13190194102152603
-0.0717097635898403 -0.23638763870661983
-0.056893974587346595 -0.34087333639171363
-0.056893974587346595 -0.37570190228674494
-0.0717097635898403 -0.20155907281158858
-0.08652555259233399 -0.1667305069165573
-0.0717097635898403 0.042240888453630304
-0.0717097635898403 0.007412322558599036
-0.08652555259233399 0.007412322558599036
-0.08652555259233399 0.11189802024369284
-0.10134134159482769 0.1467265861387241
-0.08652555259233399 0.1467265861387241
-0.08652555259233399 -0.09707337512649476
-0.0717097635898403 -0.027416243336432233
-0.0420781855848529 0.042240888453630304
-0.0124466075798655 0.1467265861387241
0.046816548430109295 0.2860408497188492
0.07644812643509669 0.1467265861387241
0.1357112824450715 0.18155515203375538
0.1653428604500589 0.1467265861387241
0.18015864945255258 0.21638371792878663
0.1653428604500589 0.32086941561388044
0.20979022745753997 0.2860408497188492
0.20979022745753997 0.21638371792878663
0.23942180546252737 0.11189802024369284
0.2986849614725022 -0.0622448092314635
0.38757969548746435 0.007412322558599036
0.43202706249494544 -0.0622448092314635
0.4616586404999328 0.042240888453630304
0.506106007507414 0.007412322558599036
0.4912902185049203 -0.027416243336432233
0.4912902185049203 -0.0622448092314635
0.4764744295024266 -0.0622448092314635
0.43202706249494544 0.11189802024369284
0.40239548448995804 0.07706945434866157
0.37276390648497065 -0.027416243336432233
0.34313232847998326 -0.23638763870661983
0.31350075047499587 -0.34087333639171363
0.23942180546252737 -0.34087333639171363
0.1653428604500589 -0.20155907281158858
0.07644812643509669 -0.0622448092314635
0.06163233743260299 -0.027416243336432233
0.017184970425121897 -0.13190194102152603
0.017184970425121897 -0.13190194102152603
-0.0124466075798655 -0.09707337512649476
-0.056893974587346595 0.007412322558599036
-0.08652555259233399 -0.09707337512649476
-0.14578870860230878 -0.09707337512649476
-0.1754202866072962 -0.34087333639171363
-0.23468344261727098 -0.34087333639171363
-0.24949923161976467 -0.37570190228674494
-0.24949923161976467 -0.27121620460165113
-0.24949923161976467 -0.09707337512649476
-0.26431502062225837 -0.09707337512649476
-0.21986765361477728 -0.20155907281158858
-0.23468344261727098 -0.20155907281158858
-0.23468344261727098 -0.23638763870661983
-0.26431502062225837 -0.13190194102152603
-0.29394659862724576 -0.0622448092314635
-0.32357817663223315 -0.09707337512649476
-0.36802554363971424 -0.27121620460165113
-0.3976571216447017 -0.44535903407680744
-0.4124729106471954 -0.48018759997183874
-0.4272886996496891 -0.44535903407680744
-0.45692027765467647 -0.37570190228674494
-0.44210448865218277 -0.37570190228674494
-0.30876238762973945 -0.4105304681817762
-0.16060449760480247 -0.4105304681817762
0.1653428604500589 -0.37570190228674494
0.550553374514895 -0.27121620460165113
1.1580007236171366 -0.4105304681817762
1.8691585957368342 -0.5498447317619013
2.669211201871494 -0.6195018635519638
3.4248164409986726 -0.37570190228674494
4.121158524115876 0.46018367919400555
4.5804479831931815 1.5050406560449436
4.743421662220611 2.6543833305809756
4.5360006161857 3.6992403074319133
3.9581848450884456 4.256497361752413
3.17294802795628 4.535125888912664
2.2543691098016705 4.291325927647445
1.3357901916470611 3.629583175641851
0.6098165305248698 2.375754803420725
0.07644812643509669 1.1219264311995996
-0.23468344261727098 -0.09707337512649476
-0.36802554363971424 -0.8981303907122139
-0.33839396563472685 -1.2115874837674954
-0.27913080962475206 -0.8981303907122139
-0.23468344261727098 -0.6195018635519638
-0.1902360756097899 -0.27121620460165113
-0.1754202866072962 -0.1667305069165573
-0.20505186461228359 -0.1667305069165573
-0.29394659862724576 -0.23638763870661983
-0.36802554363971424 -0.20155907281158858
-0.3976571216447017 -0.1667305069165573
-0.47173606665717016 -0.27121620460165113
-0.5013676446621576 -0.4105304681817762
-0.5309992226671449 -0.5498447317619013
-0.5161834336646512 -0.5846732976569325
-0.5013676446621576 -0.44535903407680744
-0.48655185565966386 -0.34087333639171363
-0.48655185565966386 -0.27121620460165113
-0.5013676446621576 -0.27121620460165113
-0.5013676446621576 -0.4105304681817762
-0.5013676446621576 -0.44535903407680744
-0.5309992226671449 -0.4105304681817762
-0.5161834336646512 -0.4105304681817762
-0.5458150116696386 -0.4105304681817762
-0.5458150116696386 -0.48018759997183874
-0.5458150116696386 -0.5150161658668699
-0.5458150116696386 -0.654330429446995
-0.5013676446621576 -0.5846732976569325
-0.5013676446621576 -0.37570190228674494
-0.5161834336646512 -0.37570190228674494
-0.5161834336646512 -0.37570190228674494
-0.5013676446621576 -0.48018759997183874
-0.5161834336646512 -0.48018759997183874
-0.5458150116696386 -0.48018759997183874
-0.5458150116696386 -0.44535903407680744
-0.5309992226671449 -0.48018759997183874
-0.5309992226671449 -0.5150161658668699
-0.5309992226671449 -0.6195018635519638
-0.5309992226671449 -0.6195018635519638
-0.5458150116696386 -0.654330429446995
-0.5309992226671449 -0.5150161658668699
-0.5013676446621576 -0.5150161658668699
-0.47173606665717016 -0.5846732976569325
-0.4272886996496891 -0.6195018635519638
-0.4124729106471954 -0.7588161271320889
-0.47173606665717016 -0.654330429446995
-0.48655185565966386 -0.654330429446995
-0.5013676446621576 -0.654330429446995
-0.5013676446621576 -0.7588161271320889
-0.48655185565966386 -0.8284732589221514
-0.45692027765467647 -0.9329589566072453
-0.4124729106471954 -0.7588161271320889
-0.4272886996496891 -0.7588161271320889
-0.382841332642208 -0.7239875612370575
-0.4272886996496891 -0.6891589953420263
-0.382841332642208 -0.8284732589221514
-0.382841332642208 -0.8284732589221514
-0.382841332642208 -0.8633018248171827
-0.382841332642208 -0.7588161271320889
-0.4124729106471954 -0.8981303907122139
-0.4272886996496891 -1.0026160883973076
-0.3976571216447017 -1.2115874837674954
-0.3976571216447017 -1.2464160496625267
-0.33839396563472685 -1.1071017860824015
-0.3976571216447017 -1.0722732201873704
-0.382841332642208 -1.037444654292339
-0.32357817663223315 -1.1071017860824015
-0.24949923161976467 -1.1419303519774329
-0.26431502062225837 -1.176758917872464
-0.29394659862724576 -1.1071017860824015
-0.29394659862724576 -1.1071017860824015
-0.29394659862724576 -1.176758917872464
-0.30876238762973945 -1.2812446155575579
-0.30876238762973945 -1.4553874450327142
-0.30876238762973945 -1.3509017473476204
-0.32357817663223315 -1.2464160496625267
-0.32357817663223315 -1.037444654292339
-0.33839396563472685 -1.0722732201873704
-0.30876238762973945 -1.1071017860824015
-0.26431502062225837 -1.1419303519774329
-0.21986765361477728 -1.2812446155575579
-0.21986765361477728 -1.1419303519774329
-0.21986765361477728 -1.1419303519774329
-0.23468344261727098 -1.3160731814525892
-0.27913080962475206 -1.3160731814525892
-0.27913080962475206 -1.2464160496625267
-0.23468344261727098 -1.1071017860824015
-0.20505186461228359 -0.9677875225022765
-0.1902360756097899 -0.8633018248171827
-0.13097291959981508 -0.7936446930271202
-0.08652555259233399 -0.7239875612370575
-0.0420781855848529 -0.6891589953420263
-0.0124466075798655 -0.48018759997183874
0.002369181422628199 -0.23638763870661983
0.017184970425121897 -0.1667305069165573
-0.0124466075798655 -0.20155907281158858
-0.0420781855848529 -0.27121620460165113
-0.0717097635898403 -0.34087333639171363
-0.0717097635898403 -0.27121620460165113
-0.10134134159482769 -0.027416243336432233
-0.10134134159482769 0.007412322558599036
-0.08652555259233399 0.11189802024369284
-0.10134134159482769 0.007412322558599036
-0.08652555259233399 -0.0622448092314635
-0.056893974587346595 -0.0622448092314635
-0.08652555259233399 0.007412322558599036
-0.10134134159482769 -0.027416243336432233
-0.08652555259233399 -0.09707337512649476
-0.11615713059732138 -0.20155907281158858
-0.1754202866072962 -0.1667305069165573
-0.21986765361477728 0.007412322558599036
-0.23468344261727098 0.042240888453630304
-0.23468344261727098 -0.027416243336432233
-0.1754202866072962 -0.027416243336432233
-0.14578870860230878 -0.13190194102152603
-0.08652555259233399 -0.0622448092314635
-0.0717097635898403 0.042240888453630304
-0.08652555259233399 0.07706945434866157
-0.1902360756097899 0.007412322558599036
-0.1902360756097899 -0.13190194102152603
-0.24949923161976467 -0.13190194102152603
-0.21986765361477728 -0.1667305069165573
-0.21986765361477728 -0.027416243336432233
-0.20505186461228359 -0.027416243336432233
-0.1754202866072962 0.042240888453630304
-0.11615713059732138 -0.0622448092314635
-0.10134134159482769 0.007412322558599036
-0.0717097635898403 0.007412322558599036
-0.10134134159482769 0.11189802024369284
-0.11615713059732138 0.007412322558599036
-0.13097291959981508 0.007412322558599036
-0.1754202866072962 -0.09707337512649476
-0.20505186461228359 -0.1667305069165573
-0.1754202866072962 -0.1667305069165573
-0.16060449760480247 -0.09707337512649476
-0.11615713059732138 0.007412322558599036
-0.10134134159482769 -0.13190194102152603
-0.08652555259233399 -0.09707337512649476
-0.08652555259233399 0.007412322558599036
-0.056893974587346595 0.042240888453630304
-0.0717097635898403 0.1467265861387241
-0.056893974587346595 0.07706945434866157
-0.056893974587346595 0.007412322558599036
-0.10134134159482769 -0.23638763870661983
-0.10134134159482769 -0.20155907281158858
-0.10134134159482769 -0.20155907281158858
-0.14578870860230878 0.042240888453630304
-0.14578870860230878 0.042240888453630304
-0.08652555259233399 0.042240888453630304
-0.0717097635898403 -0.027416243336432233
-0.0717097635898403 0.042240888453630304
-0.0717097635898403 0.042240888453630304
-0.08652555259233399 0.11189802024369284
-0.0717097635898403 0.1467265861387241
-0.08652555259233399 0.042240888453630304
-0.08652555259233399 0.042240888453630304
-0.11615713059732138 0.007412322558599036
-0.11615713059732138 0.042240888453630304
-0.11615713059732138 0.11189802024369284
-0.11615713059732138 0.25121228382381794
-0.0420781855848529 0.25121228382381794
-0.0124466075798655 0.2860408497188492
0.046816548430109295 0.2860408497188492
0.12089549344257779 0.35569798150891174
0.18015864945255258 0.390526547403943
0.1653428604500589 0.42535511329897424
0.19497443845504628 0.32086941561388044
0.1653428604500589 0.35569798150891174
0.19497443845504628 0.21638371792878663
0.22460601646003367 0.32086941561388044
0.2690533834675148 0.32086941561388044
0.34313232847998326 0.35569798150891174
0.41721127349245174 0.25121228382381794
0.4616586404999328 0.25121228382381794
0.4616586404999328 0.2860408497188492
0.44684285149743913 0.2860408497188492
0.44684285149743913 0.35569798150891174
0.38757969548746435 0.2860408497188492
0.40239548448995804 0.25121228382381794
0.34313232847998326 0.042240888453630304
0.2986849614725022 0.007412322558599036
0.22460601646003367 -0.027416243336432233
0.1653428604500589 -0.027416243336432233
0.12089549344257779 -0.09707337512649476
0.06163233743260299 -0.20155907281158858
0.017184970425121897 -0.23638763870661983
-0.027262396582359197 -0.0622448092314635
-0.0124466075798655 0.042240888453630304
-0.0717097635898403 0.11189802024369284
-0.11615713059732138 0.11189802024369284
-0.14578870860230878 0.042240888453630304
-0.1902360756097899 0.07706945434866157
-0.29394659862724576 0.042240888453630304
-0.32357817663223315 0.07706945434866157
-0.33839396563472685 0.11189802024369284
-0.33839396563472685 -0.027416243336432233
-0.35320975463722054 -0.09707337512649476
-0.30876238762973945 -0.1667305069165573
-0.29394659862724576 -0.027416243336432233
-0.26431502062225837 0.007412322558599036
-0.27913080962475206 0.007412322558599036
-0.29394659862724576 -0.027416243336432233
-0.26431502062225837 -0.23638763870661983
-0.29394659862724576 -0.27121620460165113
-0.33839396563472685 -0.23638763870661983
-0.3976571216447017 -0.20155907281158858
-0.45692027765467647 -0.09707337512649476
-0.44210448865218277 -0.1667305069165573
-0.47173606665717016 -0.44535903407680744
-0.45692027765467647 -0.48018759997183874
-0.4272886996496891 -0.48018759997183874
-0.30876238762973945 -0.4105304681817762
-0.13097291959981508 -0.23638763870661983
0.1505270714475652 -0.20155907281158858
0.6246323195273635 -0.37570190228674494
1.2172638796271116 -0.44535903407680744
1.8987901737418216 -0.5498447317619013
2.6247638348640128 -0.34087333639171363
3.3655532849886978 0.042240888453630304
4.002632212095927 0.9477836017244433
4.491553249178219 1.7836691832051936
4.65452692820565 2.8285261600561316
4.476737460175725 3.908211702802101
3.9581848450884456 4.7440972842828515
3.098869082943811 4.98789724554807
2.165474375786708 4.70926871838782
1.246895457632099 3.6992403074319133
0.5209217965099077 2.4105833693157566
0.002369181422628199 1.1219264311995996
-0.32357817663223315 0.07706945434866157
-0.47173606665717016 -0.5150161658668699
-0.48655185565966386 -0.7588161271320889
-0.3976571216447017 -0.9329589566072453
-0.30876238762973945 -0.6891589953420263
-0.23468344261727098 -0.34087333639171363
-0.23468344261727098 0.007412322558599036
-0.26431502062225837 0.11189802024369284
-0.35320975463722054 0.21638371792878663
-0.4272886996496891 0.07706945434866157
-0.48655185565966386 -0.1667305069165573
-0.5458150116696386 -0.37570190228674494
-0.575446589674626 -0.44535903407680744
-0.6050781676796134 -0.37570190228674494
-0.5458150116696386 -0.34087333639171363
-0.5309992226671449 -0.37570190228674494
-0.5161834336646512 -0.34087333639171363
-0.5013676446621576 -0.4105304681817762
-0.5013676446621576 -0.34087333639171363
-0.5458150116696386 -0.27121620460165113
-0.575446589674626 -0.1667305069165573
-0.6050781676796134 -0.20155907281158858
-0.6050781676796134 -0.37570190228674494
-0.5902623786771197 -0.48018759997183874
-0.5902623786771197 -0.5846732976569325
-0.5309992226671449 -0.5498447317619013
-0.5309992226671449 -0.37570190228674494
-0.5309992226671449 -0.3060447704966824
-0.5309992226671449 -0.37570190228674494
-0.5161834336646512 -0.3060447704966824
-0.5013676446621576 -0.3060447704966824
-0.5013676446621576 -0.27121620460165113
-0.5309992226671449 -0.1667305069165573
-0.5458150116696386 -0.20155907281158858
-0.5458150116696386 -0.37570190228674494
-0.5606308006721323 -0.5150161658668699
-0.5606308006721323 -0.6195018635519638
-0.575446589674626 -0.48018759997183874
-0.6050781676796134 -0.34087333639171363
-0.6198939566821071 -0.34087333639171363
-0.6347097456846008 -0.3060447704966824
-0.5606308006721323 -0.44535903407680744
-0.5458150116696386 -0.4105304681817762
-0.5161834336646512 -0.5150161658668699
-0.5013676446621576 -0.5498447317619013
-0.45692027765467647 -0.5846732976569325
-0.48655185565966386 -0.6195018635519638
-0.47173606665717016 -0.7588161271320889
-0.47173606665717016 -0.8981303907122139
-0.47173606665717016 -0.6891589953420263
-0.48655185565966386 -0.5846732976569325
-0.5161834336646512 -0.4105304681817762
-0.48655185565966386 -0.37570190228674494
-0.5013676446621576 -0.44535903407680744
-0.48655185565966386 -0.6195018635519638
-0.45692027765467647 -0.6195018635519638
-0.45692027765467647 -0.5846732976569325
-0.4124729106471954 -0.6195018635519638
-0.4124729106471954 -0.654330429446995
-0.382841332642208 -0.7936446930271202
-0.36802554363971424 -0.9329589566072453
-0.382841332642208 -1.1071017860824015
-0.382841332642208 -1.1419303519774329
-0.33839396563472685 -1.0026160883973076
-0.382841332642208 -0.9329589566072453
-0.32357817663223315 -0.8981303907122139
-0.29394659862724576 -0.8981303907122139
-0.29394659862724576 -1.037444654292339
-0.26431502062225837 -1.037444654292339
-0.29394659862724576 -1.037444654292339
-0.30876238762973945 -1.0026160883973076
-0.29394659862724576 -1.0026160883973076
-0.30876238762973945 -1.2464160496625267
-0.33839396563472685 -1.3509017473476204
-0.32357817663223315 -1.3857303132426517
-0.36802554363971424 -1.2812446155575579
-0.36802554363971424 -1.0722732201873704
-0.33839396563472685 -0.9329589566072453
-0.29394659862724576 -0.9677875225022765
-0.30876238762973945 -0.9677875225022765
-0.26431502062225837 -1.1071017860824015
-0.26431502062225837 -1.1071017860824015
-0.27913080962475206 -1.1071017860824015
-0.30876238762973945 -1.1419303519774329
-0.30876238762973945 -1.176758917872464
-0.30876238762973945 -1.3160731814525892
-0.29394659862724576 -1.3509017473476204
-0.30876238762973945 -1.3160731814525892
-0.23468344261727098 -1.1419303519774329
-0.13097291959981508 -0.9677875225022765
-0.08652555259233399 -0.8284732589221514
-0.08652555259233399 -0.7588161271320889
-0.11615713059732138 -0.6891589953420263
-0.11615713059732138 -0.7588161271320889
-0.08652555259233399 -0.6891589953420263
-0.056893974587346595 -0.654330429446995
0.017184970425121897 -0.5846732976569325
0.0320007594276156 -0.5846732976569325
0.017184970425121897 -0.4105304681817762
0.017184970425121897 -0.1667305069165573
0.0320007594276156 0.07706945434866157
0.0320007594276156 0.18155515203375538
-0.0124466075798655 0.2860408497188492
0.002369181422628199 0.1467265861387241
-0.056893974587346595 0.07706945434866157
-0.0717097635898403 -0.027416243336432233
-0.056893974587346595 -0.09707337512649476
-0.056893974587346595 -0.13190194102152603
-0.056893974587346595 -0.20155907281158858
-0.08652555259233399 -0.27121620460165113
-0.08652555259233399 -0.1667305069165573
-0.11615713059732138 -0.0622448092314635
-0.10134134159482769 0.1467265861387241
-0.0717097635898403 0.2860408497188492
-0.10134134159482769 0.21638371792878663
-0.0420781855848529 0.11189802024369284
-0.0717097635898403 0.007412322558599036
-0.056893974587346595 -0.0622448092314635
-0.08652555259233399 0.07706945434866157
-0.13097291959981508 0.18155515203375538
-0.13097291959981508 0.2860408497188492
-0.13097291959981508 0.21638371792878663
-0.13097291959981508 0.18155515203375538
-0.14578870860230878 0.1467265861387241
-0.08652555259233399 0.1467265861387241
-0.056893974587346595 0.25121228382381794
0.002369181422628199 0.11189802024369284
0.002369181422628199 -0.027416243336432233
0.002369181422628199 -0.09707337512649476
-0.0717097635898403 -0.09707337512649476
-0.08652555259233399 -0.09707337512649476
-0.08652555259233399 0.042240888453630304
-0.10134134159482769 -0.0622448092314635
-0.08652555259233399 -0.23638763870661983
-0.056893974587346595 -0.1667305069165573
-0.0717097635898403 -0.13190194102152603
-0.027262396582359197 -0.027416243336432233
0.002369181422628199 0.007412322558599036
0.046816548430109295 0.042240888453630304
0.017184970425121897 0.007412322558599036
0.017184970425121897 -0.0622448092314635
-0.0124466075798655 0.07706945434866157
-0.027262396582359197 0.11189802024369284
-0.027262396582359197 0.11189802024369284
-0.0420781855848529 -0.027416243336432233
-0.0420781855848529 -0.20155907281158858
-0.056893974587346595 -0.3060447704966824
-0.056893974587346595 -0.23638763870661983
-0.027262396582359197 -0.1667305069165573
0.0320007594276156 -0.0622448092314635
0.0320007594276156 -0.0622448092314635
0.0320007594276156 0.007412322558599036
0.07644812643509669 0.042240888453630304
0.0320007594276156 0.25121228382381794
-0.0124466075798655 0.21638371792878663
-0.056893974587346595 0.042240888453630304
-0.056893974587346595 -0.1667305069165573
-0.056893974587346595 -0.20155907281158858
-0.0717097635898403 -0.1667305069165573
-0.0420781855848529 0.042240888453630304
-0.027262396582359197 0.11189802024369284
-0.0124466075798655 0.2860408497188492
0.046816548430109295 0.25121228382381794
0.046816548430109295 0.11189802024369284
0.07644812643509669 0.21638371792878663
0.12089549344257779 0.1467265861387241
0.0912639154375904 0.21638371792878663
0.1505270714475652 0.25121228382381794
0.1653428604500589 0.18155515203375538
0.1653428604500589 0.25121228382381794
0.19497443845504628 0.35569798150891174
0.23942180546252737 0.35569798150891174
0.2986849614725022 0.21638371792878663
0.35794811748247696 0.21638371792878663
0.4616586404999328 0.21638371792878663
0.506106007507414 0.32086941561388044
0.5209217965099077 0.390526547403943
0.5653691635173888 0.25121228382381794
0.5653691635173888 0.11189802024369284
0.5209217965099077 -0.027416243336432233
0.4616586404999328 -0.0622448092314635
0.44684285149743913 0.042240888453630304
0.44684285149743913 0.18155515203375538
0.41721127349245174 0.11189802024369284
0.38757969548746435 0.007412322558599036
0.38757969548746435 -0.13190194102152603
0.32831653947748957 -0.1667305069165573
0.23942180546252737 -0.0622448092314635
0.1653428604500589 -0.1667305069165573
0.0912639154375904 -0.20155907281158858
0.046816548430109295 -0.20155907281158858
0.002369181422628199 -0.27121620460165113
-0.0717097635898403 -0.1667305069165573
-0.11615713059732138 0.007412322558599036
-0.11615713059732138 -0.0622448092314635
-0.1754202866072962 -0.1667305069165573
-0.20505186461228359 -0.27121620460165113
-0.20505186461228359 -0.13190194102152603
-0.16060449760480247 -0.027416243336432233
-0.11615713059732138 -0.027416243336432233
-0.14578870860230878 -0.027416243336432233
-0.20505186461228359 -0.1667305069165573
-0.21986765361477728 -0.20155907281158858
-0.24949923161976467 -0.23638763870661983
-0.26431502062225837 -0.23638763870661983
-0.24949923161976467 -0.23638763870661983
-0.24949923161976467 -0.23638763870661983
-0.26431502062225837 -0.34087333639171363
-0.26431502062225837 -0.37570190228674494
-0.29394659862724576 -0.34087333639171363
-0.26431502062225837 -0.27121620460165113
-0.21986765361477728 -0.20155907281158858
-0.13097291959981508 -0.23638763870661983
0.06163233743260299 -0.34087333639171363
0.34313232847998326 -0.4105304681817762
0.6838954755373383 -0.6195018635519638
1.2024480906246178 -0.5498447317619013
1.883974384739328 -0.5498447317619013
2.6247638348640128 -0.5150161658668699
3.4692638080061537 -0.09707337512649476
4.239684836135826 0.6343265086691618
4.802684818230587 1.6791834855201
5.024921653267992 2.8981832918461943
4.758237451223105 3.8733831369070697
4.1507901021208635 4.4654687571226015
3.247026972968748 4.4654687571226015
2.1802901647892017 3.8733831369070697
1.2024480906246178 3.002668989531288
0.40239548448995804 1.7836691832051936
-0.13097291959981508 0.4950122450890368
-0.382841332642208 -0.48018759997183874
-0.44210448865218277 -1.0722732201873704
-0.35320975463722054 -1.176758917872464
-0.21986765361477728 -0.9329589566072453
-0.10134134159482769 -0.5498447317619013
-0.10134134159482769 -0.1667305069165573
-0.13097291959981508 0.007412322558599036
-0.20505186461228359 -0.1667305069165573
-0.29394659862724576 -0.23638763870661983
-0.382841332642208 -0.20155907281158858
-0.4272886996496891 -0.27121620460165113
-0.4272886996496891 -0.34087333639171363
-0.44210448865218277 -0.48018759997183874
-0.47173606665717016 -0.44535903407680744
-0.45692027765467647 -0.37570190228674494
-0.47173606665717016 -0.3060447704966824
-0.44210448865218277 -0.23638763870661983
-0.382841332642208 -0.37570190228674494
-0.35320975463722054 -0.44535903407680744
-0.35320975463722054 -0.5150161658668699
-0.3976571216447017 -0.48018759997183874
-0.44210448865218277 -0.5150161658668699
-0.48655185565966386 -0.44535903407680744
-0.5161834336646512 -0.44535903407680744
-0.48655185565966386 -0.37570190228674494
-0.44210448865218277 -0.34087333639171363
-0.3976571216447017 -0.20155907281158858
-0.33839396563472685 -0.23638763870661983
-0.35320975463722054 -0.27121620460165113
-0.33839396563472685 -0.44535903407680744
-0.382841332642208 -0.5846732976569325
-0.35320975463722054 -0.654330429446995
-0.382841332642208 -0.6195018635519638
-0.4124729106471954 -0.5150161658668699
-0.45692027765467647 -0.5846732976569325
-0.47173606665717016 -0.5846732976569325
-0.4272886996496891 -0.6195018635519638
-0.36802554363971424 -0.5846732976569325
-0.35320975463722054 -0.5150161658668699
-0.382841332642208 -0.48018759997183874
-0.33839396563472685 -0.48018759997183874
-0.36802554363971424 -0.6891589953420263
-0.36802554363971424 -0.7936446930271202
-0.30876238762973945 -0.8284732589221514
-0.32357817663223315 -0.8633018248171827
-0.33839396563472685 -0.7936446930271202
-0.36802554363971424 -0.7588161271320889
-0.382841332642208 -0.8284732589221514
-0.36802554363971424 -0.8284732589221514
-0.36802554363971424 -0.654330429446995
-0.35320975463722054 -0.5150161658668699
-0.35320975463722054 -0.4105304681817762
-0.32357817663223315 -0.44535903407680744
-0.27913080962475206 -0.7588161271320889
-0.27913080962475206 -1.037444654292339
-0.27913080962475206 -1.1419303519774329
-0.26431502062225837 -1.1419303519774329
-0.26431502062225837 -1.1419303519774329
-0.30876238762973945 -1.1419303519774329
-0.33839396563472685 -1.1419303519774329
-0.29394659862724576 -1.2812446155575579
-0.23468344261727098 -1.1419303519774329
-0.20505186461228359 -1.037444654292339
-0.21986765361477728 -0.9329589566072453
-0.1754202866072962 -0.9329589566072453
-0.16060449760480247 -1.0026160883973076
-0.16060449760480247 -1.0722732201873704
-0.1754202866072962 -1.2812446155575579
-0.14578870860230878 -1.3509017473476204
-0.1902360756097899 -1.2115874837674954
-0.23468344261727098 -1.1419303519774329
-0.21986765361477728 -1.2115874837674954
-0.20505186461228359 -1.2464160496625267
-0.1902360756097899 -1.3509017473476204
-0.16060449760480247 -1.3160731814525892
-0.16060449760480247 -1.2464160496625267
-0.16060449760480247 -1.1419303519774329
-0.1902360756097899 -1.1071017860824015
-0.21986765361477728 -1.2115874837674954
-0.20505186461228359 -1.2464160496625267
-0.20505186461228359 -1.2464160496625267
-0.20505186461228359 -1.2115874837674954
-0.1754202866072962 -1.2464160496625267
-0.1754202866072962 -1.3160731814525892
-0.14578870860230878 -1.2812446155575579
-0.10134134159482769 -1.176758917872464
-0.056893974587346595 -1.0722732201873704
-0.0124466075798655 -0.7588161271320889
0.017184970425121897 -0.7239875612370575
0.06163233743260299 -0.7588161271320889
0.046816548430109295 -0.7588161271320889
0.07644812643509669 -0.7239875612370575
0.06163233743260299 -0.7588161271320889
0.06163233743260299 -0.654330429446995
0.07644812643509669 -0.5150161658668699
0.07644812643509669 -0.37570190228674494
0.0912639154375904 -0.27121620460165113
0.0912639154375904 -0.23638763870661983
0.0912639154375904 -0.27121620460165113
0.07644812643509669 -0.1667305069165573
0.017184970425121897 -0.1667305069165573
0.0320007594276156 -0.027416243336432233
0.017184970425121897 -0.0622448092314635
0.046816548430109295 -0.20155907281158858
0.017184970425121897 -0.20155907281158858
0.017184970425121897 -0.27121620460165113
0.002369181422628199 -0.09707337512649476
0.002369181422628199 -0.027416243336432233
-0.0420781855848529 -0.0622448092314635
-0.0420781855848529 -0.0622448092314635
0.002369181422628199 -0.1667305069165573
-0.0124466075798655 -0.027416243336432233
0.017184970425121897 0.11189802024369284
0.002369181422628199 0.11189802024369284
0.0320007594276156 0.18155515203375538
0.002369181422628199 0.007412322558599036
0.002369181422628199 -0.1667305069165573
-0.0124466075798655 -0.27121620460165113
-0.0124466075798655 -0.20155907281158858
-0.027262396582359197 -0.1667305069165573
-0.0420781855848529 -0.027416243336432233
-0.0124466075798655 -0.027416243336432233
0.002369181422628199 -0.09707337512649476
0.0320007594276156 -0.1667305069165573
0.046816548430109295 -0.0622448092314635
0.046816548430109295 -0.0622448092314635
0.06163233743260299 0.042240888453630304
0.046816548430109295 -0.027416243336432233
0.046816548430109295 -0.09707337512649476
0.017184970425121897 -0.1667305069165573
0.002369181422628199 -0.23638763870661983
0.002369181422628199 -0.23638763870661983
0.017184970425121897 -0.1667305069165573
0.002369181422628199 -0.13190194102152603
0.0320007594276156 -0.13190194102152603
0.06163233743260299 -0.20155907281158858
0.0912639154375904 -0.20155907281158858
0.10607970444008409 -0.09707337512649476
0.1653428604500589 0.042240888453630304
0.1357112824450715 0.18155515203375538
0.07644812643509669 0.007412322558599036
0.017184970425121897 -0.20155907281158858
-0.0124466075798655 -0.27121620460165113
-0.0420781855848529 -0.27121620460165113
-0.027262396582359197 -0.23638763870661983
0.0320007594276156 -0.09707337512649476
0.07644812643509669 -0.13190194102152603
0.10607970444008409 -0.13190194102152603
0.1357112824450715 -0.1667305069165573
0.1357112824450715 -0.0622448092314635
0.12089549344257779 0.042240888453630304
0.10607970444008409 0.042240888453630304
0.0912639154375904 0.042240888453630304
0.0912639154375904 -0.13190194102152603
0.0320007594276156 -0.37570190228674494
0.017184970425121897 -0.23638763870661983
0.0320007594276156 -0.1667305069165573
0.046816548430109295 -0.0622448092314635
0.07644812643509669 -0.09707337512649476
0.06163233743260299 -0.027416243336432233
0.0912639154375904 -0.13190194102152603
0.1653428604500589 -0.13190194102152603
0.1653428604500589 0.007412322558599036
0.19497443845504628 0.007412322558599036
0.20979022745753997 0.07706945434866157
0.20979022745753997 -0.13190194102152603
0.22460601646003367 -0.027416243336432233
0.22460601646003367 -0.027416243336432233
0.2542375944650211 0.11189802024369284
0.22460601646003367 0.2860408497188492
0.2542375944650211 0.42535511329897424
0.31350075047499587 0.46018367919400555
0.40239548448995804 0.390526547403943
0.41721127349245174 0.32086941561388044
0.4616586404999328 0.35569798150891174
0.506106007507414 0.2860408497188492
0.5801849525198824 0.1467265861387241
0.6542638975323509 -0.027416243336432233
0.6394481085298572 -0.23638763870661983
0.6098165305248698 -0.13190194102152603
0.6246323195273635 -0.09707337512649476
0.5653691635173888 0.11189802024369284
0.5357375855124014 0.18155515203375538
0.5357375855124014 0.1467265861387241
0.550553374514895 0.07706945434866157
0.5209217965099077 -0.0622448092314635
0.4912902185049203 -0.0622448092314635
0.44684285149743913 -0.09707337512649476
0.38757969548746435 -0.23638763870661983
0.32831653947748957 -0.3060447704966824
0.2690533834675148 -0.4105304681817762
0.19497443845504628 -0.44535903407680744
0.1653428604500589 -0.27121620460165113
0.10607970444008409 -0.13190194102152603
0.046816548430109295 -0.027416243336432233
0.046816548430109295 0.042240888453630304
0.0320007594276156 -0.027416243336432233
-0.0420781855848529 -0.09707337512649476
-0.10134134159482769 -0.09707337512649476
-0.13097291959981508 -0.09707337512649476
-0.14578870860230878 -0.13190194102152603
-0.1902360756097899 -0.1667305069165573
-0.1902360756097899 -0.27121620460165113
-0.1902360756097899 -0.34087333639171363
-0.16060449760480247 -0.34087333639171363
-0.1754202866072962 -0.23638763870661983
-0.14578870860230878 -0.1667305069165573
-0.14578870860230878 -0.1667305069165573
-0.11615713059732138 -0.1667305069165573
-0.13097291959981508 -0.1667305069165573
-0.16060449760480247 0.042240888453630304
-0.20505186461228359 0.042240888453630304
-0.29394659862724576 -0.0622448092314635
-0.30876238762973945 -0.44535903407680744
-0.32357817663223315 -0.6195018635519638
-0.26431502062225837 -0.7588161271320889
-0.16060449760480247 -0.5498447317619013
0.06163233743260299 -0.34087333639171363
0.38757969548746435 -0.1667305069165573
0.8172375765597816 -0.1667305069165573
1.439500714664517 -0.37570190228674494
2.135842797781721 -0.48018759997183874
2.9358954039163807 -0.4105304681817762
3.6915006430435593 0.07706945434866157
4.3730269371582695 0.773640772249287
4.861947974240561 1.5050406560449436
5.024921653267992 2.2712691057356316
4.832316396235574 3.1419832531114134
4.313763781148294 3.8037260051170074
3.498895386011141 4.082354532277257
2.535869100849051 3.977868834592164
1.5728428156869603 3.246468950796507
0.846869154564769 2.0274691444704125
0.31350075047499587 0.8781264699343807
-0.0717097635898403 -0.0622448092314635
-0.26431502062225837 -0.6891589953420263
-0.27913080962475206 -0.9677875225022765
-0.23468344261727098 -0.9677875225022765
-0.1754202866072962 -0.8284732589221514
-0.13097291959981508 -0.5498447317619013
-0.14578870860230878 -0.34087333639171363
-0.1902360756097899 -0.027416243336432233
-0.23468344261727098 0.07706945434866157
-0.29394659862724576 0.042240888453630304
-0.29394659862724576 -0.1667305069165573
-0.30876238762973945 -0.37570190228674494
-0.32357817663223315 -0.44535903407680744
-0.30876238762973945 -0.4105304681817762
-0.33839396563472685 -0.44535903407680744
-0.36802554363971424 -0.44535903407680744
-0.4272886996496891 -0.5150161658668699
-0.4124729106471954 -0.5150161658668699
-0.3976571216447017 -0.37570190228674494
-0.45692027765467647 -0.34087333639171363
-0.45692027765467647 -0.09707337512649476
-0.4124729106471954 -0.09707337512649476
-0.382841332642208 -0.13190194102152603
-0.35320975463722054 -0.1667305069165573
-0.35320975463722054 -0.27121620460165113
-0.35320975463722054 -0.20155907281158858
-0.3976571216447017 -0.23638763870661983
-0.4124729106471954 -0.23638763870661983
-0.45692027765467647 -0.44535903407680744
-0.4272886996496891 -0.5150161658668699
-0.44210448865218277 -0.44535903407680744
-0.44210448865218277 -0.3060447704966824
-0.4272886996496891 -0.23638763870661983
-0.4272886996496891 -0.23638763870661983
-0.36802554363971424 -0.20155907281158858
-0.36802554363971424 -0.3060447704966824
-0.35320975463722054 -0.34087333639171363
-0.36802554363971424 -0.3060447704966824
-0.36802554363971424 -0.4105304681817762
-0.382841332642208 -0.44535903407680744
-0.382841332642208 -0.5498447317619013
-0.36802554363971424 -0.6891589953420263
-0.36802554363971424 -0.5846732976569325
-0.382841332642208 -0.5498447317619013
-0.29394659862724576 -0.48018759997183874
-0.30876238762973945 -0.34087333639171363
-0.27913080962475206 -0.44535903407680744
-0.30876238762973945 -0.5150161658668699
-0.27913080962475206 -0.654330429446995
-0.29394659862724576 -0.7239875612370575
-0.29394659862724576 -0.6891589953420263
-0.30876238762973945 -0.6891589953420263
-0.32357817663223315 -0.7588161271320889
-0.35320975463722054 -0.9329589566072453
-0.32357817663223315 -0.8284732589221514
-0.29394659862724576 -0.7936446930271202
-0.24949923161976467 -0.6195018635519638
-0.24949923161976467 -0.5846732976569325
-0.23468344261727098 -0.5498447317619013
-0.20505186461228359 -0.7936446930271202
-0.20505186461228359 -0.8981303907122139
-0.20505186461228359 -0.8633018248171827
-0.21986765361477728 -0.8633018248171827
-0.20505186461228359 -0.8633018248171827
-0.20505186461228359 -0.9329589566072453
-0.23468344261727098 -1.0722732201873704
-0.1902360756097899 -1.1419303519774329
-0.13097291959981508 -1.2812446155575579
-0.10134134159482769 -1.1071017860824015
-0.056893974587346595 -1.0026160883973076
-0.0420781855848529 -1.0026160883973076
-0.027262396582359197 -1.0026160883973076
-0.08652555259233399 -1.2115874837674954
-0.14578870860230878 -1.2464160496625267
-0.16060449760480247 -1.3160731814525892
-0.16060449760480247 -1.3160731814525892
-0.16060449760480247 -1.3160731814525892
-0.1902360756097899 -1.4902160109277456
-0.1902360756097899 -1.3509017473476204
-0.1902360756097899 -1.3509017473476204
-0.1754202866072962 -1.0722732201873704
-0.14578870860230878 -1.037444654292339
-0.13097291959981508 -0.9677875225022765
-0.11615713059732138 -1.037444654292339
-0.11615713059732138 -1.176758917872464
-0.10134134159482769 -1.2812446155575579
-0.10134134159482769 -1.2464160496625267
-0.08652555259233399 -1.1419303519774329
-0.0717097635898403 -1.037444654292339
-0.0717097635898403 -0.8981303907122139
-0.027262396582359197 -0.8633018248171827
0.002369181422628199 -0.7936446930271202
0.0320007594276156 -0.5498447317619013
0.0320007594276156 -0.34087333639171363
0.07644812643509669 -0.3060447704966824
0.12089549344257779 -0.27121620460165113
0.1357112824450715 -0.34087333639171363
0.1653428604500589 -0.44535903407680744
0.18015864945255258 -0.4105304681817762
0.1505270714475652 -0.3060447704966824
0.10607970444008409 -0.13190194102152603
0.07644812643509669 -0.1667305069165573
0.07644812643509669 -0.1667305069165573
0.07644812643509669 -0.20155907281158858
0.1357112824450715 -0.20155907281158858
0.10607970444008409 -0.0622448092314635
0.1357112824450715 0.042240888453630304
0.1505270714475652 0.1467265861387241
0.10607970444008409 0.007412322558599036
0.07644812643509669 -0.13190194102152603
0.06163233743260299 -0.27121620460165113
0.07644812643509669 -0.23638763870661983
0.046816548430109295 -0.09707337512649476
0.0320007594276156 -0.027416243336432233
0.0320007594276156 0.007412322558599036
0.0320007594276156 -0.027416243336432233
0.017184970425121897 -0.0622448092314635
0.002369181422628199 0.007412322558599036
0.0320007594276156 0.11189802024369284
-0.0124466075798655 0.07706945434866157
0.0320007594276156 -0.027416243336432233
0.0320007594276156 -0.20155907281158858
0.017184970425121897 -0.1667305069165573
0.0320007594276156 -0.27121620460165113
-0.0124466075798655 -0.20155907281158858
0.002369181422628199 -0.13190194102152603
-0.0420781855848529 -0.09707337512649476
-0.0124466075798655 -0.0622448092314635
0.046816548430109295 -0.1667305069165573
0.06163233743260299 -0.09707337512649476
0.06163233743260299 0.007412322558599036
0.0320007594276156 0.042240888453630304
0.002369181422628199 0.11189802024369284
0.017184970425121897 0.042240888453630304
0.017184970425121897 -0.027416243336432233
0.017184970425121897 -0.0622448092314635
0.0320007594276156 -0.13190194102152603
0.046816548430109295 -0.13190194102152603
0.046816548430109295 -0.0622448092314635
0.0320007594276156 0.007412322558599036
0.0912639154375904 -0.09707337512649476
0.07644812643509669 -0.13190194102152603
0.07644812643509669 -0.09707337512649476
0.10607970444008409 -0.027416243336432233
0.10607970444008409 0.042240888453630304
0.10607970444008409 0.007412322558599036
0.10607970444008409 -0.09707337512649476
0.0912639154375904 -0.23638763870661983
0.07644812643509669 -0.20155907281158858
0.10607970444008409 -0.1667305069165573
0.10607970444008409 -0.09707337512649476
0.10607970444008409 0.07706945434866157
0.10607970444008409 0.11189802024369284
0.1505270714475652 -0.0622448092314635
0.12089549344257779 -0.027416243336432233
0.1357112824450715 -0.027416243336432233
0.1505270714475652 0.042240888453630304
0.1505270714475652 0.042240888453630304
0.1505270714475652 -0.027416243336432233
0.1357112824450715 -0.20155907281158858
0.0912639154375904 -0.27121620460165113
0.046816548430109295 -0.1667305069165573
0.07644812643509669 -0.027416243336432233
0.046816548430109295 0.11189802024369284
0.07644812643509669 0.11189802024369284
0.1357112824450715 0.11189802024369284
0.22460601646003367 0.007412322558599036
0.2986849614725022 0.07706945434866157
0.2986849614725022 0.21638371792878663
0.31350075047499587 0.32086941561388044
0.35794811748247696 0.35569798150891174
0.32831653947748957 0.25121228382381794
0.34313232847998326 0.042240888453630304
0.31350075047499587 0.11189802024369284
0.31350075047499587 0.18155515203375538
0.40239548448995804 0.35569798150891174
0.43202706249494544 0.46018367919400555
0.506106007507414 0.4950122450890368
0.6098165305248698 0.35569798150891174
0.6838954755373383 0.1467265861387241
0.698711264539832 0.11189802024369284
0.7283428425448194 0.11189802024369284
0.698711264539832 0.1467265861387241
0.6394481085298572 0.007412322558599036
0.5653691635173888 -0.13190194102152603
0.4912902185049203 -0.23638763870661983
0.506106007507414 -0.20155907281158858
0.5357375855124014 0.007412322558599036
0.506106007507414 0.042240888453630304
0.5209217965099077 -0.09707337512649476
0.506106007507414 -0.1667305069165573
0.4616586404999328 -0.27121620460165113
0.37276390648497065 -0.27121620460165113
0.31350075047499587 -0.20155907281158858
0.20979022745753997 -0.0622448092314635
0.18015864945255258 -0.0622448092314635
0.10607970444008409 -0.09707337512649476
0.06163233743260299 -0.3060447704966824
0.002369181422628199 -0.20155907281158858
-0.056893974587346595 -0.20155907281158858
-0.0420781855848529 -0.09707337512649476
-0.056893974587346595 0.007412322558599036
-0.056893974587346595 0.007412322558599036
-0.0420781855848529 -0.09707337512649476
-0.056893974587346595 -0.09707337512649476
-0.056893974587346595 -0.13190194102152603
-0.10134134159482769 0.007412322558599036
-0.10134134159482769 -0.027416243336432233
-0.10134134159482769 -0.13190194102152603
-0.16060449760480247 -0.20155907281158858
-0.14578870860230878 -0.3060447704966824
-0.13097291959981508 -0.23638763870661983
-0.13097291959981508 -0.23638763870661983
-0.16060449760480247 -0.13190194102152603
-0.11615713059732138 -0.09707337512649476
-0.16060449760480247 -0.3060447704966824
-0.20505186461228359 -0.37570190228674494
-0.1902360756097899 -0.5150161658668699
-0.23468344261727098 -0.5150161658668699
-0.23468344261727098 -0.5150161658668699
-0.1754202866072962 -0.48018759997183874
0.017184970425121897 -0.4105304681817762
0.2838691724700085 -0.44535903407680744
0.6838954755373383 -0.4105304681817762
1.2617112466345926 -0.48018759997183874
1.928421751746809 -0.37570190228674494
2.698842779876481 -0.27121620460165113
3.4248164409986726 0.042240888453630304
4.1507901021208635 0.4950122450890368
4.669342717208143 1.2612406947797248
4.921211130250536 2.201611973945569
4.743421662220611 3.2812975166915384
4.298947992145801 4.1868402299623515
3.513711175013635 4.604783020702726
2.6543954128690004 4.535125888912664
1.8395270177318468 3.908211702802101
1.1135533566096556 2.8981832918461943
0.5357375855124014 1.7140120514151311
0.1653428604500589 0.6691550745641931
0.002369181422628199 -0.34087333639171363
-0.13097291959981508 -0.8633018248171827
-0.08652555259233399 -1.0722732201873704
-0.056893974587346595 -0.7588161271320889
-0.0420781855848529 -0.48018759997183874
-0.056893974587346595 -0.13190194102152603
-0.13097291959981508 -0.027416243336432233
-0.1754202866072962 -0.13190194102152603
-0.27913080962475206 -0.27121620460165113
-0.29394659862724576 -0.37570190228674494
-0.30876238762973945 -0.34087333639171363
-0.32357817663223315 -0.1667305069165573
-0.29394659862724576 -0.23638763870661983
-0.30876238762973945 -0.27121620460165113
-0.29394659862724576 -0.48018759997183874
-0.30876238762973945 -0.44535903407680744
-0.35320975463722054 -0.37570190228674494
-0.382841332642208 -0.37570190228674494
-0.4124729106471954 -0.4105304681817762
-0.4124729106471954 -0.34087333639171363
-0.4272886996496891 -0.48018759997183874
-0.382841332642208 -0.44535903407680744
-0.35320975463722054 -0.27121620460165113
-0.32357817663223315 -0.1667305069165573
-0.32357817663223315 -0.13190194102152603
-0.32357817663223315 -0.1667305069165573
-0.35320975463722054 -0.34087333639171363
-0.35320975463722054 -0.5498447317619013
-0.36802554363971424 -0.5150161658668699
-0.382841332642208 -0.4105304681817762
-0.4124729106471954 -0.37570190228674494
-0.4124729106471954 -0.34087333639171363
-0.3976571216447017 -0.5150161658668699
-0.382841332642208 -0.5498447317619013
-0.36802554363971424 -0.5498447317619013
-0.33839396563472685 -0.48018759997183874
-0.30876238762973945 -0.4105304681817762
-0.32357817663223315 -0.44535903407680744
-0.30876238762973945 -0.6195018635519638
-0.29394659862724576 -0.7239875612370575
-0.26431502062225837 -0.654330429446995
-0.27913080962475206 -0.6891589953420263
-0.32357817663223315 -0.6195018635519638
-0.32357817663223315 -0.6891589953420263
-0.35320975463722054 -0.6891589953420263
-0.33839396563472685 -0.7588161271320889
-0.29394659862724576 -0.6195018635519638
-0.27913080962475206 -0.5498447317619013
-0.24949923161976467 -0.5498447317619013
-0.24949923161976467 -0.5150161658668699
-0.26431502062225837 -0.7588161271320889
-0.29394659862724576 -0.7588161271320889
-0.26431502062225837 -0.7936446930271202
-0.26431502062225837 -0.6891589953420263
-0.26431502062225837 -0.7936446930271202
-0.24949923161976467 -0.8981303907122139
-0.24949923161976467 -0.9677875225022765
-0.20505186461228359 -1.0026160883973076
-0.20505186461228359 -0.8981303907122139
-0.1902360756097899 -0.7588161271320889
-0.1902360756097899 -0.7936446930271202
-0.1902360756097899 -0.9329589566072453
-0.1754202866072962 -1.1071017860824015
-0.1754202866072962 -1.2812446155575579
-0.16060449760480247 -1.2115874837674954
-0.14578870860230878 -1.2464160496625267
-0.13097291959981508 -1.2812446155575579
-0.11615713059732138 -1.2115874837674954
-0.08652555259233399 -1.2812446155575579
-0.0717097635898403 -1.2464160496625267
-0.0717097635898403 -1.1071017860824015
-0.0717097635898403 -1.0722732201873704
-0.0717097635898403 -1.1071017860824015
-0.08652555259233399 -1.1419303519774329
-0.08652555259233399 -1.2115874837674954
-0.11615713059732138 -1.3160731814525892
-0.14578870860230878 -1.2812446155575579
-0.13097291959981508 -1.3509017473476204
-0.16060449760480247 -1.3509017473476204
-0.13097291959981508 -1.3509017473476204
-0.13097291959981508 -1.3160731814525892
-0.08652555259233399 -1.2115874837674954
-0.0717097635898403 -1.0026160883973076
-0.0420781855848529 -0.8981303907122139
-0.0420781855848529 -0.8633018248171827
-0.0124466075798655 -0.8633018248171827
0.046816548430109295 -0.8284732589221514
0.046816548430109295 -0.7239875612370575
0.07644812643509669 -0.7588161271320889
0.0912639154375904 -0.7239875612370575
0.06163233743260299 -0.7239875612370575
0.06163233743260299 -0.7588161271320889
0.07644812643509669 -0.5498447317619013
0.1505270714475652 -0.37570190228674494
0.18015864945255258 -0.20155907281158858
0.18015864945255258 -0.1667305069165573
0.20979022745753997 -0.20155907281158858
0.19497443845504628 -0.23638763870661983
0.19497443845504628 -0.1667305069165573
0.1357112824450715 -0.0622448092314635
0.10607970444008409 -0.0622448092314635
0.046816548430109295 -0.027416243336432233
0.046816548430109295 -0.13190194102152603
0.0320007594276156 -0.20155907281158858
0.06163233743260299 -0.13190194102152603
0.12089549344257779 -0.0622448092314635
0.12089549344257779 0.007412322558599036
0.10607970444008409 0.11189802024369284
0.1505270714475652 0.11189802024369284
0.0912639154375904 0.11189802024369284
0.0320007594276156 0.042240888453630304
0.017184970425121897 0.007412322558599036
0.0320007594276156 0.07706945434866157
0.0320007594276156 0.007412322558599036
0.046816548430109295 -0.09707337512649476
0.06163233743260299 -0.20155907281158858
0.06163233743260299 -0.20155907281158858
0.0912639154375904 -0.0622448092314635
0.12089549344257779 -0.027416243336432233
0.12089549344257779 0.11189802024369284
0.12089549344257779 0.007412322558599036
0.10607970444008409 -0.0622448092314635
0.10607970444008409 -0.027416243336432233
0.07644812643509669 0.007412322558599036
0.046816548430109295 -0.027416243336432233
0.002369181422628199 -0.027416243336432233
0.017184970425121897 -0.20155907281158858
0.0320007594276156 -0.13190194102152603
0.06163233743260299 -0.13190194102152603
0.10607970444008409 0.042240888453630304
0.07644812643509669 0.042240888453630304
0.12089549344257779 0.042240888453630304
0.0912639154375904 -0.027416243336432233
0.0912639154375904 -0.0622448092314635
0.1505270714475652 0.007412322558599036
0.1505270714475652 0.07706945434866157
0.1357112824450715 0.007412322558599036
0.12089549344257779 -0.09707337512649476
0.10607970444008409 -0.09707337512649476
0.0912639154375904 -0.027416243336432233
0.07644812643509669 0.07706945434866157
0.07644812643509669 0.07706945434866157
0.07644812643509669 0.07706945434866157
0.12089549344257779 0.042240888453630304
0.1505270714475652 0.007412322558599036
0.1505270714475652 0.1467265861387241
0.19497443845504628 0.21638371792878663
0.19497443845504628 0.07706945434866157
0.1653428604500589 -0.0622448092314635
0.1653428604500589 -0.13190194102152603
0.1357112824450715 -0.13190194102152603
0.10607970444008409 0.042240888453630304
0.07644812643509669 0.18155515203375538
0.07644812643509669 0.18155515203375538
0.07644812643509669 0.25121228382381794
0.1653428604500589 0.11189802024369284
0.2542375944650211 0.18155515203375538
0.2986849614725022 0.2860408497188492
0.35794811748247696 0.25121228382381794
0.35794811748247696 0.21638371792878663
0.35794811748247696 0.2860408497188492
0.31350075047499587 0.25121228382381794
0.32831653947748957 0.2860408497188492
0.34313232847998326 0.390526547403943
0.37276390648497065 0.42535511329897424
0.44684285149743913 0.390526547403943
0.5209217965099077 0.390526547403943
0.5801849525198824 0.5298408109840681
0.6542638975323509 0.5298408109840681
0.698711264539832 0.5298408109840681
0.6838954755373383 0.390526547403943
0.7135270535423257 0.07706945434866157
0.6690796865348446 -0.23638763870661983
0.6394481085298572 -0.34087333639171363
0.6690796865348446 -0.13190194102152603
0.6394481085298572 0.042240888453630304
0.5950007415223761 0.1467265861387241
0.5653691635173888 0.21638371792878663
0.5209217965099077 0.1467265861387241
0.5209217965099077 0.042240888453630304
0.4912902185049203 0.11189802024369284
0.41721127349245174 0.07706945434866157
0.37276390648497065 -0.027416243336432233
0.2986849614725022 -0.20155907281158858
0.2542375944650211 -0.23638763870661983
0.20979022745753997 -0.23638763870661983
0.10607970444008409 -0.09707337512649476
0.06163233743260299 0.07706945434866157
0.0320007594276156 0.18155515203375538
0.002369181422628199 0.11189802024369284
-0.056893974587346595 -0.027416243336432233
-0.0124466075798655 -0.09707337512649476
-0.056893974587346595 -0.0622448092314635
-0.0420781855848529 0.07706945434866157
-0.08652555259233399 0.07706945434866157
-0.11615713059732138 -0.0622448092314635
-0.10134134159482769 -0.20155907281158858
-0.08652555259233399 -0.3060447704966824
-0.10134134159482769 -0.23638763870661983
-0.10134134159482769 -0.09707337512649476
-0.11615713059732138 0.007412322558599036
-0.10134134159482769 -0.027416243336432233
-0.0717097635898403 -0.13190194102152603
-0.08652555259233399 -0.13190194102152603
-0.11615713059732138 -0.0622448092314635
-0.16060449760480247 0.07706945434866157
-0.23468344261727098 0.007412322558599036
-0.21986765361477728 -0.09707337512649476
-0.16060449760480247 -0.27121620460165113
-0.027262396582359197 -0.37570190228674494
0.2838691724700085 -0.44535903407680744
0.698711264539832 -0.4105304681817762
1.246895457632099 -0.37570190228674494
1.9580533297517964 -0.4105304681817762
2.7877375138914435 -0.44535903407680744
3.5581585420211157 -0.09707337512649476
4.284132203143307 0.7039836404592243
4.802684818230587 1.818497749100225
5.024921653267992 3.002668989531288
4.921211130250536 3.977868834592164
4.476737460175725 4.7440972842828515
3.7803953770585212 4.953068679653039
2.876632247906406 4.813754416072914
1.9728691187542902 4.326154493542476
1.1728165126196304 3.5599260438517883
0.550553374514895 2.2712691057356316
0.1505270714475652 1.052269299409537
-0.0717097635898403 0.042240888453630304
-0.14578870860230878 -0.654330429446995
-0.13097291959981508 -0.9329589566072453
-0.0717097635898403 -0.6891589953420263
-0.056893974587346595 -0.4105304681817762
-0.027262396582359197 -0.34087333639171363
-0.10134134159482769 -0.34087333639171363
-0.16060449760480247 -0.34087333639171363
-0.20505186461228359 -0.37570190228674494
-0.29394659862724576 -0.34087333639171363
-0.35320975463722054 -0.27121620460165113
-0.35320975463722054 -0.27121620460165113
-0.33839396563472685 -0.3060447704966824
-0.27913080962475206 -0.4105304681817762
-0.29394659862724576 -0.37570190228674494
-0.30876238762973945 -0.37570190228674494
-0.35320975463722054 -0.37570190228674494
-0.33839396563472685 -0.44535903407680744
-0.36802554363971424 -0.48018759997183874
-0.3976571216447017 -0.5498447317619013
-0.33839396563472685 -0.5498447317619013
-0.35320975463722054 -0.34087333639171363
-0.33839396563472685 -0.23638763870661983
-0.33839396563472685 -0.20155907281158858
-0.27913080962475206 -0.27121620460165113
-0.30876238762973945 -0.44535903407680744
-0.32357817663223315 -0.4105304681817762
-0.29394659862724576 -0.34087333639171363
-0.33839396563472685 -0.34087333639171363
-0.32357817663223315 -0.4105304681817762
-0.32357817663223315 -0.5498447317619013
-0.35320975463722054 -0.6891589953420263
-0.36802554363971424 -0.6891589953420263
-0.36802554363971424 -0.6195018635519638
-0.30876238762973945 -0.5150161658668699
-0.29394659862724576 -0.48018759997183874
-0.27913080962475206 -0.48018759997183874
-0.26431502062225837 -0.5150161658668699
-0.27913080962475206 -0.5846732976569325
-0.29394659862724576 -0.5846732976569325
-0.27913080962475206 -0.6195018635519638
-0.29394659862724576 -0.7588161271320889
-0.30876238762973945 -0.7936446930271202
-0.26431502062225837 -0.8633018248171827
-0.24949923161976467 -0.7239875612370575
-0.20505186461228359 -0.6195018635519638
-0.1754202866072962 -0.5846732976569325
-0.1902360756097899 -0.5498447317619013
-0.20505186461228359 -0.5846732976569325
-0.20505186461228359 -0.6891589953420263
-0.20505186461228359 -0.8284732589221514
-0.24949923161976467 -0.8633018248171827
-0.24949923161976467 -0.9677875225022765
-0.23468344261727098 -1.176758917872464
-0.23468344261727098 -1.2464160496625267
-0.21986765361477728 -1.3160731814525892
-0.20505186461228359 -1.0722732201873704
-0.21986765361477728 -1.0026160883973076
-0.20505186461228359 -0.8981303907122139
-0.1902360756097899 -0.9677875225022765
-0.14578870860230878 -1.0026160883973076
-0.10134134159482769 -1.1071017860824015
-0.11615713059732138 -1.1419303519774329
-0.11615713059732138 -1.176758917872464
-0.14578870860230878 -1.2464160496625267
-0.11615713059732138 -1.4553874450327142
-0.13097291959981508 -1.4553874450327142
-0.16060449760480247 -1.5250445768227767
-0.16060449760480247 -1.4553874450327142
-0.11615713059732138 -1.3160731814525892
-0.08652555259233399 -1.3509017473476204
-0.0717097635898403 -1.2812446155575579
-0.10134134159482769 -1.3857303132426517
-0.08652555259233399 -1.2812446155575579
-0.056893974587346595 -1.2115874837674954
-0.0717097635898403 -1.2464160496625267
-0.10134134159482769 -1.3160731814525892
-0.13097291959981508 -1.4553874450327142
-0.16060449760480247 -1.4902160109277456
-0.1754202866072962 -1.4902160109277456
-0.16060449760480247 -1.3160731814525892
-0.14578870860230878 -1.2115874837674954
-0.13097291959981508 -1.1419303519774329
-0.056893974587346595 -1.1071017860824015
0.0320007594276156 -1.2115874837674954
0.046816548430109295 -1.0722732201873704
0.0912639154375904 -1.0722732201873704
0.10607970444008409 -0.8284732589221514
0.046816548430109295 -0.8981303907122139
0.06163233743260299 -1.0026160883973076
0.10607970444008409 -0.9677875225022765
0.1357112824450715 -0.8633018248171827
0.1357112824450715 -0.654330429446995
0.1505270714475652 -0.48018759997183874
0.19497443845504628 -0.4105304681817762
0.19497443845504628 -0.3060447704966824
0.20979022745753997 -0.34087333639171363
0.22460601646003367 -0.3060447704966824
0.19497443845504628 -0.1667305069165573
0.18015864945255258 -0.09707337512649476
0.1505270714475652 -0.20155907281158858
0.18015864945255258 -0.27121620460165113
0.1653428604500589 -0.3060447704966824
0.10607970444008409 -0.23638763870661983
0.0912639154375904 -0.13190194102152603
0.07644812643509669 0.11189802024369284
0.07644812643509669 0.07706945434866157
0.10607970444008409 -0.027416243336432233
0.1357112824450715 -0.027416243336432233
0.1653428604500589 -0.027416243336432233
0.18015864945255258 0.11189802024369284
0.1653428604500589 0.07706945434866157
0.12089549344257779 0.007412322558599036
0.10607970444008409 -0.1667305069165573
0.046816548430109295 -0.23638763870661983
0.046816548430109295 -0.3060447704966824
0.046816548430109295 -0.20155907281158858
0.0320007594276156 -0.09707337512649476
0.002369181422628199 -0.1667305069165573
0.017184970425121897 -0.20155907281158858
0.0320007594276156 -0.13190194102152603
0.0912639154375904 -0.09707337512649476
0.10607970444008409 -0.027416243336432233
0.1357112824450715 -0.0622448092314635
0.1653428604500589 -0.20155907281158858
0.1505270714475652 -0.4105304681817762
0.18015864945255258 -0.34087333639171363
0.1505270714475652 -0.37570190228674494
0.1357112824450715 -0.1667305069165573
0.0912639154375904 -0.09707337512649476
0.07644812643509669 0.007412322558599036
0.10607970444008409 0.07706945434866157
0.12089549344257779 0.07706945434866157
0.12089549344257779 0.007412322558599036
0.1505270714475652 0.007412322558599036
0.19497443845504628 -0.13190194102152603
0.1505270714475652 -0.3060447704966824
0.18015864945255258 -0.37570190228674494
0.1505270714475652 -0.34087333639171363
0.12089549344257779 -0.27121620460165113
0.12089549344257779 -0.0622448092314635
0.12089549344257779 -0.027416243336432233
0.1357112824450715 -0.0622448092314635
0.1357112824450715 0.007412322558599036
0.19497443845504628 -0.09707337512649476
0.20979022745753997 -0.027416243336432233
0.1653428604500589 -0.09707337512649476
0.1505270714475652 -0.20155907281158858
0.18015864945255258 -0.34087333639171363
0.18015864945255258 -0.4105304681817762
0.19497443845504628 -0.34087333639171363
0.18015864945255258 -0.23638763870661983
0.1653428604500589 -0.20155907281158858
0.20979022745753997 -0.1667305069165573
0.18015864945255258 -0.13190194102152603
0.1505270714475652 -0.0622448092314635
0.18015864945255258 0.007412322558599036
0.2542375944650211 0.07706945434866157
0.2542375944650211 0.11189802024369284
0.2838691724700085 0.07706945434866157
0.2838691724700085 0.007412322558599036
0.2986849614725022 -0.13190194102152603
0.32831653947748957 -0.027416243336432233
0.37276390648497065 0.042240888453630304
0.38757969548746435 0.18155515203375538
0.38757969548746435 0.25121228382381794
0.4616586404999328 0.21638371792878663
0.4912902185049203 0.2860408497188492
0.550553374514895 0.2860408497188492
0.6246323195273635 0.2860408497188492
0.6690796865348446 0.25121228382381794
0.698711264539832 0.18155515203375538
0.7283428425448194 -0.0622448092314635
0.6838954755373383 -0.20155907281158858
0.6542638975323509 -0.09707337512649476
0.6098165305248698 -0.09707337512649476
0.6098165305248698 -0.09707337512649476
0.6098165305248698 -0.09707337512649476
0.6246323195273635 -0.13190194102152603
0.5801849525198824 -0.0622448092314635
0.5653691635173888 -0.027416243336432233
0.5209217965099077 -0.09707337512649476
0.40239548448995804 -0.13190194102152603
0.34313232847998326 -0.20155907281158858
0.2986849614725022 -0.1667305069165573
0.19497443845504628 -0.13190194102152603
0.1505270714475652 -0.0622448092314635
0.07644812643509669 -0.1667305069165573
0.046816548430109295 -0.27121620460165113
0.0320007594276156 -0.4105304681817762
0.0320007594276156 -0.34087333639171363
0.017184970425121897 -0.23638763870661983
0.0320007594276156 -0.20155907281158858
0.002369181422628199 -0.1667305069165573
-0.0420781855848529 -0.1667305069165573
-0.027262396582359197 -0.3060447704966824
-0.10134134159482769 -0.23638763870661983
-0.08652555259233399 -0.09707337512649476
-0.10134134159482769 -0.23638763870661983
-0.13097291959981508 -0.34087333639171363
-0.11615713059732138 -0.37570190228674494
-0.14578870860230878 -0.23638763870661983
-0.16060449760480247 -0.20155907281158858
-0.14578870860230878 -0.1667305069165573
-0.16060449760480247 -0.34087333639171363
-0.11615713059732138 -0.48018759997183874
-0.0717097635898403 -0.5150161658668699
0.0912639154375904 -0.48018759997183874
0.34313232847998326 -0.37570190228674494
0.7135270535423257 -0.44535903407680744
1.2172638796271116 -0.5150161658668699
1.928421751746809 -0.654330429446995
2.758105935886456 -0.5498447317619013
3.6915006430435593 0.007412322558599036
4.550816405188193 0.7388122063542557
5.2175269103004105 1.7140120514151311
5.484211112345297 2.6892118964760066
5.261974277307891 3.525097477956757
4.610079561198169 4.15201166406732
3.6618690650385717 4.43064019122757
2.5803164678565316 4.047525966382226
1.5728428156869603 3.107154687216382
0.7579744205498068 1.8533263149952564
0.18015864945255258 0.5646693768790993
-0.14578870860230878 -0.44535903407680744
-0.27913080962475206 -0.8981303907122139
-0.24949923161976467 -1.1071017860824015
-0.13097291959981508 -0.9677875225022765
-0.027262396582359197 -0.7588161271320889
0.046816548430109295 -0.48018759997183874
0.046816548430109295 -0.3060447704966824
-0.0420781855848529 -0.20155907281158858
-0.10134134159482769 -0.23638763870661983
-0.23468344261727098 -0.4105304681817762
-0.29394659862724576 -0.654330429446995
-0.30876238762973945 -0.654330429446995
-0.35320975463722054 -0.5846732976569325
-0.35320975463722054 -0.4105304681817762
-0.35320975463722054 -0.3060447704966824
-0.30876238762973945 -0.27121620460165113
-0.29394659862724576 -0.23638763870661983
-0.24949923161976467 -0.20155907281158858
-0.23468344261727098 -0.23638763870661983
-0.26431502062225837 -0.3060447704966824
-0.26431502062225837 -0.4105304681817762
-0.30876238762973945 -0.5150161658668699
-0.32357817663223315 -0.6891589953420263
-0.382841332642208 -0.6195018635519638
-0.3976571216447017 -0.5846732976569325
-0.382841332642208 -0.48018759997183874
-0.36802554363971424 -0.5150161658668699
-0.35320975463722054 -0.5498447317619013
-0.32357817663223315 -0.5498447317619013
-0.29394659862724576 -0.5846732976569325
-0.29394659862724576 -0.5150161658668699
-0.26431502062225837 -0.48018759997183874
-0.30876238762973945 -0.44535903407680744
-0.33839396563472685 -0.7588161271320889
-0.35320975463722054 -0.8981303907122139
-0.33839396563472685 -0.7936446930271202
-0.32357817663223315 -0.7239875612370575
-0.33839396563472685 -0.5846732976569325
-0.35320975463722054 -0.6195018635519638
-0.35320975463722054 -0.6195018635519638
-0.30876238762973945 -0.5498447317619013
-0.21986765361477728 -0.5498447317619013
-0.20505186461228359 -0.44535903407680744
-0.20505186461228359 -0.37570190228674494
-0.1902360756097899 -0.48018759997183874
-0.23468344261727098 -0.5846732976569325
-0.27913080962475206 -0.6891589953420263
-0.30876238762973945 -0.6891589953420263
-0.30876238762973945 -0.7239875612370575
-0.29394659862724576 -0.7239875612370575
-0.27913080962475206 -0.7588161271320889
-0.21986765361477728 -0.8633018248171827
-0.20505186461228359 -0.8981303907122139
-0.14578870860230878 -0.8633018248171827
-0.16060449760480247 -0.9329589566072453
-0.14578870860230878 -1.0722732201873704
-0.1902360756097899 -1.2115874837674954
-0.1902360756097899 -1.3509017473476204
-0.20505186461228359 -1.3160731814525892
-0.23468344261727098 -1.2115874837674954
-0.20505186461228359 -1.2115874837674954
-0.20505186461228359 -1.037444654292339
-0.16060449760480247 -1.2115874837674954
-0.14578870860230878 -1.3160731814525892
-0.11615713059732138 -1.2812446155575579
-0.08652555259233399 -1.2464160496625267
-0.13097291959981508 -1.2464160496625267
-0.1754202866072962 -1.2464160496625267
-0.1754202866072962 -1.3509017473476204
-0.1754202866072962 -1.4553874450327142
-0.16060449760480247 -1.3509017473476204
-0.16060449760480247 -1.3509017473476204
-0.16060449760480247 -1.3160731814525892
-0.1754202866072962 -1.3509017473476204
-0.1754202866072962 -1.3857303132426517
-0.1754202866072962 -1.3160731814525892
-0.14578870860230878 -1.2464160496625267
-0.11615713059732138 -1.1419303519774329
-0.10134134159482769 -1.2464160496625267
-0.10134134159482769 -1.3160731814525892
-0.0717097635898403 -1.3857303132426517
-0.0717097635898403 -1.4205588791376829
-0.0717097635898403 -1.2812446155575579
-0.0717097635898403 -1.1419303519774329
-0.0420781855848529 -1.1419303519774329
0.002369181422628199 -1.1071017860824015
0.017184970425121897 -1.0722732201873704
0.046816548430109295 -0.9677875225022765
0.10607970444008409 -0.7239875612370575
0.1653428604500589 -0.5498447317619013
0.18015864945255258 -0.48018759997183874
0.18015864945255258 -0.44535903407680744
0.1653428604500589 -0.48018759997183874
0.1357112824450715 -0.44535903407680744
0.12089549344257779 -0.3060447704966824
0.1357112824450715 -0.3060447704966824
0.1357112824450715 -0.23638763870661983
0.1357112824450715 -0.23638763870661983
0.18015864945255258 -0.27121620460165113
0.1505270714475652 -0.13190194102152603
0.18015864945255258 -0.027416243336432233
0.1653428604500589 0.11189802024369284
0.10607970444008409 0.07706945434866157
0.06163233743260299 -0.0622448092314635
0.07644812643509669 -0.23638763870661983
0.07644812643509669 -0.23638763870661983
0.06163233743260299 -0.23638763870661983
0.0912639154375904 -0.1667305069165573
0.046816548430109295 -0.09707337512649476
0.046816548430109295 -0.20155907281158858
0.06163233743260299 -0.13190194102152603
0.06163233743260299 -0.0622448092314635
0.0912639154375904 0.042240888453630304
0.10607970444008409 -0.027416243336432233
0.10607970444008409 -0.20155907281158858
0.10607970444008409 -0.3060447704966824
0.07644812643509669 -0.34087333639171363
0.0912639154375904 -0.27121620460165113
0.07644812643509669 -0.20155907281158858
0.0320007594276156 -0.3060447704966824
0.06163233743260299 -0.3060447704966824
0.10607970444008409 -0.37570190228674494
0.10607970444008409 -0.3060447704966824
0.1653428604500589 -0.09707337512649476
0.18015864945255258 0.11189802024369284
0.19497443845504628 0.042240888453630304
0.1653428604500589 -0.027416243336432233
0.1505270714475652 -0.13190194102152603
0.10607970444008409 -0.20155907281158858
0.07644812643509669 -0.1667305069165573
0.10607970444008409 -0.09707337512649476
0.0912639154375904 -0.1667305069165573
0.10607970444008409 -0.34087333639171363
0.10607970444008409 -0.37570190228674494
0.18015864945255258 -0.4105304681817762
0.1357112824450715 -0.4105304681817762
0.19497443845504628 -0.23638763870661983
0.1505270714475652 -0.1667305069165573
0.18015864945255258 -0.20155907281158858
0.19497443845504628 -0.27121620460165113
0.19497443845504628 -0.4105304681817762
0.1653428604500589 -0.27121620460165113
0.1505270714475652 -0.20155907281158858
0.0912639154375904 -0.20155907281158858
0.1505270714475652 -0.27121620460165113
0.1357112824450715 -0.23638763870661983
0.1653428604500589 -0.3060447704966824
0.19497443845504628 -0.23638763870661983
0.19497443845504628 -0.1667305069165573
0.22460601646003367 -0.027416243336432233
0.20979022745753997 -0.1667305069165573
0.20979022745753997 -0.3060447704966824
0.20979022745753997 -0.4105304681817762
0.19497443845504628 -0.3060447704966824
0.1357112824450715 -0.23638763870661983
0.1357112824450715 -0.09707337512649476
0.1357112824450715 -0.20155907281158858
0.1505270714475652 -0.27121620460165113
0.19497443845504628 -0.3060447704966824
0.2542375944650211 -0.27121620460165113
0.34313232847998326 0.007412322558599036
0.38757969548746435 0.18155515203375538
0.41721127349245174 0.25121228382381794
0.41721127349245174 0.25121228382381794
0.43202706249494544 0.18155515203375538
0.44684285149743913 0.1467265861387241
0.4764744295024266 0.18155515203375538
0.4912902185049203 0.11189802024369284
0.550553374514895 0.11189802024369284
0.5950007415223761 0.007412322558599036
0.6246323195273635 -0.1667305069165573
0.6838954755373383 -0.09707337512649476
0.698711264539832 0.007412322558599036
0.698711264539832 0.007412322558599036
0.6838954755373383 -0.09707337512649476
0.6690796865348446 -0.1667305069165573
0.6394481085298572 -0.34087333639171363
0.6394481085298572 -0.4105304681817762
0.6246323195273635 -0.3060447704966824
0.6098165305248698 -0.20155907281158858
0.5357375855124014 -0.23638763870661983
0.5209217965099077 -0.3060447704966824
0.506106007507414 -0.34087333639171363
0.40239548448995804 -0.3060447704966824
0.35794811748247696 -0.13190194102152603
0.31350075047499587 -0.0622448092314635
0.31350075047499587 -0.027416243336432233
0.18015864945255258 -0.027416243336432233
0.10607970444008409 -0.13190194102152603
0.06163233743260299 -0.23638763870661983
0.06163233743260299 -0.23638763870661983
0.017184970425121897 -0.27121620460165113
0.017184970425121897 -0.37570190228674494
0.0320007594276156 -0.4105304681817762
0.0320007594276156 -0.48018759997183874
0.0320007594276156 -0.44535903407680744
0.002369181422628199 -0.3060447704966824
-0.0420781855848529 -0.23638763870661983
-0.056893974587346595 -0.27121620460165113
-0.0420781855848529 -0.3060447704966824
-0.0717097635898403 -0.44535903407680744
-0.056893974587346595 -0.44535903407680744
-0.0717097635898403 -0.34087333639171363
-0.10134134159482769 -0.27121620460165113
-0.13097291959981508 -0.23638763870661983
-0.11615713059732138 -0.3060447704966824
-0.16060449760480247 -0.44535903407680744
-0.1902360756097899 -0.48018759997183874
-0.1902360756097899 -0.48018759997183874
-0.0717097635898403 -0.3060447704966824
0.0320007594276156 -0.34087333639171363
0.20979022745753997 -0.27121620460165113
0.4764744295024266 -0.5498447317619013
0.89131652157225 -0.7239875612370575
1.4543165036670107 -0.8284732589221514
2.1951059537916957 -0.8284732589221514
2.9951585599263555 -0.5846732976569325
3.8544743220709896 -0.13190194102152603
4.5804479831931815 0.7039836404592243
5.113816387282954 1.5746977878350061
5.306421644315372 2.584726198790913
5.113816387282954 3.629583175641851
4.5360006161857 4.221668795857383
3.6766848540410653 4.43064019122757
2.713658568878975 4.047525966382226
1.7950796507243658 3.2116403849014756
1.0246586225946934 2.1667834080505375
0.4616586404999328 1.052269299409537
0.1357112824450715 0.21638371792878663
-0.027262396582359197 -0.44535903407680744
-0.08652555259233399 -0.8284732589221514
-0.0420781855848529 -0.8633018248171827
0.0320007594276156 -0.8284732589221514
0.06163233743260299 -0.5498447317619013
0.046816548430109295 -0.3060447704966824
-0.056893974587346595 -0.20155907281158858
-0.11615713059732138 -0.37570190228674494
-0.1902360756097899 -0.5846732976569325
-0.21986765361477728 -0.654330429446995
-0.29394659862724576 -0.654330429446995
-0.33839396563472685 -0.5498447317619013
-0.36802554363971424 -0.5150161658668699
-0.33839396563472685 -0.5150161658668699
-0.32357817663223315 -0.48018759997183874
-0.27913080962475206 -0.44535903407680744
-0.26431502062225837 -0.37570190228674494
-0.24949923161976467 -0.23638763870661983
-0.26431502062225837 -0.3060447704966824
-0.33839396563472685 -0.37570190228674494
-0.33839396563472685 -0.5498447317619013
-0.44210448865218277 -0.654330429446995
-0.44210448865218277 -0.654330429446995
-0.3976571216447017 -0.5150161658668699
-0.36802554363971424 -0.34087333639171363
-0.4124729106471954 -0.34087333639171363
-0.36802554363971424 -0.48018759997183874
-0.382841332642208 -0.5498447317619013
-0.30876238762973945 -0.6891589953420263
-0.29394659862724576 -0.654330429446995
-0.32357817663223315 -0.6195018635519638
-0.33839396563472685 -0.5846732976569325
-0.30876238762973945 -0.5846732976569325
-0.33839396563472685 -0.654330429446995
-0.36802554363971424 -0.6891589953420263
-0.32357817663223315 -0.5846732976569325
-0.33839396563472685 -0.48018759997183874
-0.32357817663223315 -0.4105304681817762
-0.33839396563472685 -0.5150161658668699
-0.32357817663223315 -0.5846732976569325
-0.26431502062225837 -0.7588161271320889
-0.26431502062225837 -0.8284732589221514
-0.20505186461228359 -0.7239875612370575
-0.23468344261727098 -0.7239875612370575
-0.23468344261727098 -0.7936446930271202
-0.27913080962475206 -0.8981303907122139
-0.27913080962475206 -0.9677875225022765
-0.30876238762973945 -0.8981303907122139
-0.29394659862724576 -0.8981303907122139
-0.29394659862724576 -0.7239875612370575
-0.24949923161976467 -0.6891589953420263
-0.21986765361477728 -0.7239875612370575
-0.1754202866072962 -0.8633018248171827
-0.1902360756097899 -0.9677875225022765
-0.1902360756097899 -1.037444654292339
-0.20505186461228359 -0.9677875225022765
-0.23468344261727098 -1.0722732201873704
-0.23468344261727098 -1.176758917872464
-0.21986765361477728 -1.2464160496625267
-0.24949923161976467 -1.2812446155575579
-0.20505186461228359 -1.2812446155575579
-0.14578870860230878 -1.0026160883973076
-0.14578870860230878 -0.8633018248171827
-0.16060449760480247 -0.7588161271320889
-0.14578870860230878 -0.9677875225022765
-0.16060449760480247 -1.176758917872464
-0.10134134159482769 -1.4205588791376829
-0.10134134159482769 -1.4205588791376829
-0.14578870860230878 -1.3509017473476204
-0.16060449760480247 -1.4553874450327142
-0.14578870860230878 -1.4205588791376829
-0.10134134159482769 -1.5250445768227767
-0.14578870860230878 -1.559873142717808
-0.0717097635898403 -1.4553874450327142
-0.0717097635898403 -1.2115874837674954
-0.056893974587346595 -1.2115874837674954
-0.0420781855848529 -1.3509017473476204
-0.0717097635898403 -1.3857303132426517
-0.10134134159482769 -1.4553874450327142
-0.10134134159482769 -1.3509017473476204
-0.16060449760480247 -1.2812446155575579
-0.1754202866072962 -1.3509017473476204
-0.1902360756097899 -1.2812446155575579
-0.20505186461228359 -1.4902160109277456
-0.1754202866072962 -1.559873142717808
-0.11615713059732138 -1.3509017473476204
-0.0717097635898403 -1.2115874837674954
-0.0124466075798655 -1.037444654292339
0.0320007594276156 -1.1071017860824015
0.046816548430109295 -1.176758917872464
0.0912639154375904 -1.176758917872464
0.10607970444008409 -1.176758917872464
0.07644812643509669 -1.1071017860824015
0.06163233743260299 -0.9677875225022765
0.06163233743260299 -0.8981303907122139
0.0912639154375904 -0.8633018248171827
0.1357112824450715 -0.6891589953420263
0.1357112824450715 -0.6891589953420263
0.1653428604500589 -0.5150161658668699
0.23942180546252737 -0.3060447704966824
0.23942180546252737 -0.23638763870661983
0.20979022745753997 -0.27121620460165113
0.22460601646003367 -0.37570190228674494
0.22460601646003367 -0.27121620460165113
0.1653428604500589 -0.20155907281158858
0.18015864945255258 -0.09707337512649476
0.12089549344257779 -0.09707337512649476
0.0912639154375904 0.007412322558599036
0.0912639154375904 -0.20155907281158858
0.06163233743260299 -0.23638763870661983
0.10607970444008409 -0.20155907281158858
0.12089549344257779 -0.0622448092314635
0.1357112824450715 0.007412322558599036
0.1505270714475652 -0.027416243336432233
0.1505270714475652 -0.09707337512649476
0.1653428604500589 -0.23638763870661983
0.10607970444008409 -0.34087333639171363
0.0912639154375904 -0.23638763870661983
0.046816548430109295 -0.1667305069165573
0.046816548430109295 -0.027416243336432233
0.0320007594276156 -0.0622448092314635
0.0320007594276156 -0.09707337512649476
0.06163233743260299 -0.0622448092314635
0.0912639154375904 -0.027416243336432233
0.0912639154375904 0.042240888453630304
0.1505270714475652 -0.0622448092314635
0.0912639154375904 -0.13190194102152603
0.06163233743260299 -0.27121620460165113
0.0912639154375904 -0.48018759997183874
0.0912639154375904 -0.34087333639171363
0.0912639154375904 -0.23638763870661983
0.046816548430109295 -0.13190194102152603
0.10607970444008409 -0.09707337512649476
0.10607970444008409 -0.13190194102152603
0.10607970444008409 -0.1667305069165573
0.0912639154375904 -0.13190194102152603
0.19497443845504628 -0.13190194102152603
0.1357112824450715 -0.13190194102152603
0.1357112824450715 -0.13190194102152603
0.12089549344257779 -0.3060447704966824
0.1357112824450715 -0.44535903407680744
0.12089549344257779 -0.44535903407680744
0.10607970444008409 -0.3060447704966824
0.10607970444008409 -0.1667305069165573
0.10607970444008409 -0.09707337512649476
0.1505270714475652 -0.0622448092314635
0.1653428604500589 -0.0622448092314635
0.20979022745753997 -0.09707337512649476
0.22460601646003367 -0.0622448092314635
0.22460601646003367 -0.027416243336432233
0.19497443845504628 -0.09707337512649476
0.18015864945255258 -0.1667305069165573
0.18015864945255258 -0.3060447704966824
0.1357112824450715 -0.4105304681817762
0.1357112824450715 -0.3060447704966824
0.1357112824450715 -0.1667305069165573
0.10607970444008409 -0.027416243336432233
0.1357112824450715 0.007412322558599036
0.1505270714475652 -0.0622448092314635
0.1505270714475652 -0.3060447704966824
0.19497443845504628 -0.34087333639171363
0.20979022745753997 -0.27121620460165113
0.22460601646003367 -0.20155907281158858
0.19497443845504628 -0.09707337512649476
0.1653428604500589 -0.13190194102152603
0.12089549344257779 -0.20155907281158858
0.12089549344257779 -0.3060447704966824
0.1357112824450715 -0.27121620460165113
0.18015864945255258 -0.027416243336432233
0.23942180546252737 0.1467265861387241
0.2838691724700085 0.18155515203375538
0.34313232847998326 0.18155515203375538
0.34313232847998326 0.1467265861387241
0.38757969548746435 0.1467265861387241
0.44684285149743913 0.2860408497188492
0.4616586404999328 0.32086941561388044
0.4616586404999328 0.25121228382381794
0.4764744295024266 0.1467265861387241
0.4616586404999328 0.07706945434866157
0.5209217965099077 -0.09707337512649476
0.550553374514895 -0.09707337512649476
0.6098165305248698 0.07706945434866157
0.6690796865348446 -0.09707337512649476
0.6838954755373383 -0.0622448092314635
0.7135270535423257 -0.13190194102152603
0.6690796865348446 -0.09707337512649476
0.6690796865348446 -0.0622448092314635
0.6246323195273635 -0.027416243336432233
0.5801849525198824 -0.0622448092314635
0.5653691635173888 -0.23638763870661983
0.5357375855124014 -0.48018759997183874
0.4616586404999328 -0.5150161658668699
0.44684285149743913 -0.44535903407680744
0.41721127349245174 -0.3060447704966824
0.31350075047499587 -0.13190194102152603
0.2986849614725022 -0.13190194102152603
0.23942180546252737 -0.1667305069165573
0.18015864945255258 -0.23638763870661983
0.1357112824450715 -0.1667305069165573
0.06163233743260299 -0.20155907281158858
-0.0124466075798655 -0.1667305069165573
-0.027262396582359197 -0.37570190228674494
-0.0717097635898403 -0.5150161658668699
-0.056893974587346595 -0.5846732976569325
-0.056893974587346595 -0.5498447317619013
-0.0717097635898403 -0.34087333639171363
-0.027262396582359197 -0.3060447704966824
-0.0124466075798655 -0.23638763870661983
-0.056893974587346595 -0.23638763870661983
-0.0420781855848529 -0.37570190228674494
-0.056893974587346595 -0.5498447317619013
-0.08652555259233399 -0.48018759997183874
-0.14578870860230878 -0.37570190228674494
-0.16060449760480247 -0.37570190228674494
-0.20505186461228359 -0.34087333639171363
-0.20505186461228359 -0.44535903407680744
-0.20505186461228359 -0.44535903407680744
-0.1902360756097899 -0.44535903407680744
-0.1754202866072962 -0.4105304681817762
-0.1902360756097899 -0.34087333639171363
-0.1754202866072962 -0.5150161658668699
-0.11615713059732138 -0.6195018635519638
0.002369181422628199 -0.7936446930271202
0.20979022745753997 -0.8284732589221514
0.5209217965099077 -0.7588161271320889
0.9653954665847186 -0.7588161271320889
1.4987638706744917 -0.8981303907122139
2.135842797781721 -0.9329589566072453
2.906263825911393 -0.8284732589221514
3.6766848540410653 -0.34087333639171363
4.3730269371582695 0.7039836404592243
4.861947974240561 1.8533263149952564
5.024921653267992 3.0723261213213506
4.773053240225599 3.977868834592164
4.239684836135826 4.604783020702726
3.439632230001166 4.7440972842828515
2.521053311846557 4.43064019122757
1.6469217606994286 3.768897439221976
0.9209480995772376 2.6195547646859443
0.41721127349245174 1.2264121288846934
0.046816548430109295 0.07706945434866157
-0.11615713059732138 -0.7936446930271202
-0.11615713059732138 -1.2115874837674954
-0.13097291959981508 -0.9677875225022765
-0.0717097635898403 -0.6195018635519638
-0.0124466075798655 -0.27121620460165113
-0.0420781855848529 -0.20155907281158858
-0.13097291959981508 -0.27121620460165113
-0.20505186461228359 -0.34087333639171363
-0.26431502062225837 -0.27121620460165113
-0.35320975463722054 -0.3060447704966824
-0.33839396563472685 -0.37570190228674494
-0.35320975463722054 -0.5498447317619013
-0.32357817663223315 -0.7588161271320889
-0.32357817663223315 -0.7936446930271202
-0.30876238762973945 -0.6195018635519638
-0.26431502062225837 -0.6195018635519638
-0.32357817663223315 -0.48018759997183874
-0.33839396563472685 -0.34087333639171363
-0.382841332642208 -0.5150161658668699
-0.382841332642208 -0.6195018635519638
-0.4124729106471954 -0.654330429446995
-0.4124729106471954 -0.48018759997183874
-0.4272886996496891 -0.37570190228674494
-0.4124729106471954 -0.37570190228674494
-0.3976571216447017 -0.37570190228674494
-0.382841332642208 -0.5846732976569325
-0.32357817663223315 -0.5150161658668699
-0.27913080962475206 -0.5498447317619013
-0.24949923161976467 -0.5846732976569325
-0.24949923161976467 -0.5846732976569325
-0.27913080962475206 -0.7239875612370575
-0.33839396563472685 -0.7239875612370575
-0.382841332642208 -0.7936446930271202
-0.4272886996496891 -0.654330429446995
-0.4124729106471954 -0.5150161658668699
-0.4272886996496891 -0.5846732976569325
-0.382841332642208 -0.6195018635519638
-0.35320975463722054 -0.7239875612370575
-0.29394659862724576 -0.7588161271320889
-0.23468344261727098 -0.654330429446995
-0.21986765361477728 -0.654330429446995
-0.23468344261727098 -0.5846732976569325
-0.27913080962475206 -0.7239875612370575
-0.35320975463722054 -0.8284732589221514
-0.3976571216447017 -0.9677875225022765
-0.3976571216447017 -0.9329589566072453
-0.33839396563472685 -0.7936446930271202
-0.30876238762973945 -0.7936446930271202
-0.27913080962475206 -0.7588161271320889
-0.24949923161976467 -0.8981303907122139
-0.21986765361477728 -0.9329589566072453
-0.21986765361477728 -1.0026160883973076
-0.23468344261727098 -0.9677875225022765
-0.27913080962475206 -0.8981303907122139
-0.23468344261727098 -0.9329589566072453
-0.23468344261727098 -1.037444654292339
-0.1902360756097899 -1.1419303519774329
-0.21986765361477728 -1.176758917872464
-0.21986765361477728 -1.1071017860824015
-0.21986765361477728 -1.0026160883973076
-0.20505186461228359 -1.0026160883973076
-0.1902360756097899 -1.037444654292339
-0.16060449760480247 -1.1071017860824015
-0.11615713059732138 -1.1419303519774329
-0.11615713059732138 -1.1071017860824015
-0.11615713059732138 -1.176758917872464
-0.14578870860230878 -1.2115874837674954
-0.1902360756097899 -1.176758917872464
-0.1902360756097899 -1.3857303132426517
-0.1754202866072962 -1.4902160109277456
-0.1902360756097899 -1.4205588791376829
-0.13097291959981508 -1.3509017473476204
-0.11615713059732138 -1.2464160496625267
-0.10134134159482769 -1.2812446155575579
-0.10134134159482769 -1.2812446155575579
-0.0420781855848529 -1.3160731814525892
-0.056893974587346595 -1.3857303132426517
-0.0420781855848529 -1.2812446155575579
-0.056893974587346595 -1.3160731814525892
-0.13097291959981508 -1.4553874450327142
-0.16060449760480247 -1.559873142717808
-0.11615713059732138 -1.559873142717808
-0.08652555259233399 -1.4205588791376829
-0.08652555259233399 -1.2464160496625267
-0.0420781855848529 -1.176758917872464
0.002369181422628199 -1.176758917872464
0.002369181422628199 -1.1071017860824015
0.046816548430109295 -1.176758917872464
0.046816548430109295 -1.1419303519774329
0.046816548430109295 -1.037444654292339
0.046816548430109295 -0.9677875225022765
0.07644812643509669 -0.9677875225022765
0.10607970444008409 -0.9677875225022765
0.10607970444008409 -0.8284732589221514
0.19497443845504628 -0.5498447317619013
0.19497443845504628 -0.44535903407680744
0.2838691724700085 -0.3060447704966824
0.2986849614725022 -0.27121620460165113
0.31350075047499587 -0.23638763870661983
0.31350075047499587 -0.1667305069165573
0.2690533834675148 -0.09707337512649476
0.2690533834675148 -0.13190194102152603
0.22460601646003367 -0.09707337512649476
0.19497443845504628 -0.27121620460165113
0.18015864945255258 -0.20155907281158858
0.1653428604500589 -0.13190194102152603
0.1653428604500589 -0.0622448092314635
0.19497443845504628 -0.027416243336432233
0.20979022745753997 -0.09707337512649476
0.20979022745753997 -0.13190194102152603
0.18015864945255258 -0.1667305069165573
0.19497443845504628 -0.027416243336432233
0.19497443845504628 0.007412322558599036
0.1505270714475652 -0.0622448092314635
0.18015864945255258 -0.1667305069165573
0.1357112824450715 -0.23638763870661983
0.07644812643509669 -0.23638763870661983
0.06163233743260299 -0.13190194102152603
0.10607970444008409 -0.027416243336432233
0.1357112824450715 -0.027416243336432233
0.1653428604500589 -0.0622448092314635
0.19497443845504628 -0.0622448092314635
0.20979022745753997 0.07706945434866157
0.2690533834675148 0.25121228382381794
0.23942180546252737 0.18155515203375538
0.22460601646003367 0.007412322558599036
0.20979022745753997 -0.13190194102152603
0.1653428604500589 -0.27121620460165113
0.1505270714475652 -0.27121620460165113
0.10607970444008409 -0.1667305069165573
0.1505270714475652 0.007412322558599036
0.19497443845504628 0.042240888453630304
0.19497443845504628 -0.027416243336432233
0.2542375944650211 -0.027416243336432233
0.2838691724700085 0.007412322558599036
0.2838691724700085 0.1467265861387241
0.31350075047499587 -0.027416243336432233
0.2690533834675148 -0.0622448092314635
0.22460601646003367 -0.13190194102152603
0.20979022745753997 -0.20155907281158858
0.20979022745753997 -0.27121620460165113
0.1653428604500589 -0.0622448092314635
0.19497443845504628 0.007412322558599036
0.19497443845504628 -0.09707337512649476
0.20979022745753997 -0.13190194102152603
0.2542375944650211 -0.13190194102152603
0.2986849614725022 0.042240888453630304
0.32831653947748957 0.042240888453630304
0.32831653947748957 0.042240888453630304
0.31350075047499587 -0.0622448092314635
0.2986849614725022 -0.20155907281158858
0.2838691724700085 -0.3060447704966824
0.2542375944650211 -0.3060447704966824
0.23942180546252737 -0.3060447704966824
0.20979022745753997 -0.1667305069165573
0.20979022745753997 -0.13190194102152603
0.22460601646003367 -0.13190194102152603
0.23942180546252737 0.007412322558599036
0.2986849614725022 0.07706945434866157
0.35794811748247696 0.18155515203375538
0.37276390648497065 0.18155515203375538
0.38757969548746435 0.18155515203375538
0.38757969548746435 0.007412322558599036
0.41721127349245174 0.07706945434866157
0.44684285149743913 0.25121228382381794
0.43202706249494544 0.46018367919400555
0.4912902185049203 0.4950122450890368
0.506106007507414 0.46018367919400555
0.506106007507414 0.32086941561388044
0.550553374514895 0.18155515203375538
0.5950007415223761 0.2860408497188492
0.6838954755373383 0.25121228382381794
0.7579744205498068 0.25121228382381794
0.7876059985547942 0.11189802024369284
0.8320533655622753 -0.13190194102152603
0.8172375765597816 -0.0622448092314635
0.7579744205498068 -0.13190194102152603
0.698711264539832 0.007412322558599036
0.6690796865348446 0.042240888453630304
0.6838954755373383 -0.027416243336432233
0.6690796865348446 -0.0622448092314635
0.6394481085298572 -0.027416243336432233
0.6542638975323509 -0.0622448092314635
0.6246323195273635 0.042240888453630304
0.5801849525198824 0.042240888453630304
0.5357375855124014 0.007412322558599036
0.4764744295024266 -0.23638763870661983
0.37276390648497065 -0.23638763870661983
0.2986849614725022 -0.1667305069165573
0.23942180546252737 -0.13190194102152603
0.18015864945255258 -0.09707337512649476
0.0912639154375904 -0.20155907281158858
0.07644812643509669 -0.3060447704966824
0.07644812643509669 -0.27121620460165113
0.06163233743260299 -0.1667305069165573
0.06163233743260299 -0.13190194102152603
0.06163233743260299 -0.09707337512649476
0.07644812643509669 -0.13190194102152603
0.0320007594276156 -0.20155907281158858
0.0320007594276156 -0.13190194102152603
0.017184970425121897 -0.1667305069165573
-0.027262396582359197 -0.027416243336432233
-0.056893974587346595 -0.1667305069165573
-0.027262396582359197 -0.23638763870661983
-0.056893974587346595 -0.3060447704966824
-0.027262396582359197 -0.1667305069165573
0.002369181422628199 -0.09707337512649476
-0.0420781855848529 0.007412322558599036
-0.056893974587346595 0.007412322558599036
-0.13097291959981508 -0.3060447704966824
-0.13097291959981508 -0.48018759997183874
-0.10134134159482769 -0.5846732976569325
0.06163233743260299 -0.5498447317619013
0.2986849614725022 -0.5150161658668699
0.6542638975323509 -0.5150161658668699
1.143184934614643 -0.6891589953420263
1.8098954397268594 -0.7239875612370575
2.5506848898515444 -0.6195018635519638
3.3655532849886978 -0.09707337512649476
4.1507901021208635 0.6691550745641931
4.817500607233081 1.7836691832051936
5.187895332295422 2.7936975941611006
5.173079543292929 3.8385545710120383
4.713790084215624 4.70926871838782
3.987816423093433 5.127211509128196
3.0396059269338362 4.98789724554807
2.0173164857617714 4.117183098172289
1.1580007236171366 2.9330118577412256
0.44684285149743913 1.5050406560449436
0.046816548430109295 0.21638371792878663
-0.11615713059732138 -0.5846732976569325
-0.13097291959981508 -0.8981303907122139
-0.0717097635898403 -0.9677875225022765
0.046816548430109295 -0.7936446930271202
0.1357112824450715 -0.5498447317619013
0.12089549344257779 -0.3060447704966824
0.017184970425121897 -0.027416243336432233
-0.08652555259233399 -0.09707337512649476
-0.21986765361477728 -0.23638763870661983
-0.27913080962475206 -0.5150161658668699
-0.27913080962475206 -0.6195018635519638
-0.21986765361477728 -0.5498447317619013
-0.1902360756097899 -0.34087333639171363
-0.1754202866072962 -0.13190194102152603
-0.21986765361477728 -0.09707337512649476
-0.21986765361477728 -0.23638763870661983
-0.24949923161976467 -0.34087333639171363
-0.24949923161976467 -0.3060447704966824
-0.24949923161976467 -0.37570190228674494
-0.23468344261727098 -0.37570190228674494
-0.26431502062225837 -0.4105304681817762
-0.27913080962475206 -0.4105304681817762
-0.27913080962475206 -0.5150161658668699
-0.26431502062225837 -0.44535903407680744
-0.26431502062225837 -0.23638763870661983
-0.24949923161976467 -0.23638763870661983
-0.21986765361477728 -0.3060447704966824
-0.20505186461228359 -0.4105304681817762
-0.23468344261727098 -0.654330429446995
-0.21986765361477728 -0.6891589953420263
-0.1902360756097899 -0.654330429446995
-0.21986765361477728 -0.5150161658668699
-0.24949923161976467 -0.44535903407680744
-0.24949923161976467 -0.48018759997183874
-0.23468344261727098 -0.5846732976569325
-0.23468344261727098 -0.5846732976569325
-0.20505186461228359 -0.6195018635519638
-0.20505186461228359 -0.48018759997183874
-0.1902360756097899 -0.4105304681817762
-0.16060449760480247 -0.48018759997183874
-0.14578870860230878 -0.5846732976569325
-0.16060449760480247 -0.6891589953420263
-0.13097291959981508 -0.7588161271320889
-0.1754202866072962 -0.7239875612370575
-0.13097291959981508 -0.654330429446995
-0.1754202866072962 -0.5846732976569325
-0.1902360756097899 -0.6891589953420263
-0.1754202866072962 -0.7239875612370575
-0.13097291959981508 -0.7239875612370575
-0.08652555259233399 -0.6891589953420263
-0.11615713059732138 -0.6195018635519638
-0.14578870860230878 -0.7588161271320889
-0.13097291959981508 -0.8981303907122139
-0.13097291959981508 -1.037444654292339
-0.08652555259233399 -1.037444654292339
-0.13097291959981508 -0.9677875225022765
-0.08652555259233399 -0.8981303907122139
-0.08652555259233399 -0.8284732589221514
-0.10134134159482769 -0.9329589566072453
-0.0717097635898403 -1.0026160883973076
-0.0717097635898403 -1.0026160883973076
-0.056893974587346595 -0.9677875225022765
-0.027262396582359197 -0.9677875225022765
-0.027262396582359197 -0.9329589566072453
-0.056893974587346595 -0.9677875225022765
-0.0420781855848529 -1.176758917872464
-0.0717097635898403 -1.2464160496625267
-0.056893974587346595 -1.176758917872464
-0.0717097635898403 -1.176758917872464
-0.056893974587346595 -1.1419303519774329
-0.0420781855848529 -1.2464160496625267
-0.027262396582359197 -1.3160731814525892
-0.0124466075798655 -1.3160731814525892
0.017184970425121897 -1.2812446155575579
-0.056893974587346595 -1.1419303519774329
-0.056893974587346595 -1.1071017860824015
-0.08652555259233399 -1.0722732201873704
-0.10134134159482769 -1.2812446155575579
-0.056893974587346595 -1.4205588791376829
-0.0420781855848529 -1.3857303132426517
-0.027262396582359197 -1.176758917872464
-0.0124466075798655 -1.0722732201873704
0.0320007594276156 -0.9677875225022765
0.046816548430109295 -0.9677875225022765
0.017184970425121897 -0.9677875225022765
0.0912639154375904 -1.176758917872464
0.10607970444008409 -1.2464160496625267
0.1357112824450715 -1.1419303519774329
0.12089549344257779 -1.1071017860824015
0.1653428604500589 -1.1071017860824015
0.19497443845504628 -1.2115874837674954
0.22460601646003367 -1.037444654292339
0.23942180546252737 -0.7588161271320889
0.2542375944650211 -0.6195018635519638
0.32831653947748957 -0.44535903407680744
0.34313232847998326 -0.37570190228674494
0.38757969548746435 -0.37570190228674494
0.41721127349245174 -0.3060447704966824
0.40239548448995804 -0.20155907281158858
0.37276390648497065 0.007412322558599036
0.31350075047499587 0.007412322558599036
0.2690533834675148 -0.0622448092314635
0.20979022745753997 -0.0622448092314635
0.1357112824450715 -0.20155907281158858
0.1653428604500589 -0.027416243336432233
0.1505270714475652 0.042240888453630304
0.22460601646003367 0.042240888453630304
0.2542375944650211 0.21638371792878663
0.2838691724700085 0.07706945434866157
0.32831653947748957 0.07706945434866157
0.2690533834675148 0.07706945434866157
0.2542375944650211 0.18155515203375538
0.22460601646003367 0.21638371792878663
0.23942180546252737 0.042240888453630304
0.19497443845504628 -0.09707337512649476
0.20979022745753997 -0.23638763870661983
0.19497443845504628 -0.13190194102152603
0.19497443845504628 0.042240888453630304
0.20979022745753997 0.07706945434866157
0.23942180546252737 0.21638371792878663
0.23942180546252737 0.042240888453630304
0.2690533834675148 0.07706945434866157
0.2690533834675148 0.07706945434866157
0.2838691724700085 0.18155515203375538
0.2838691724700085 0.21638371792878663
0.2986849614725022 0.18155515203375538
0.2542375944650211 0.042240888453630304
0.20979022745753997 -0.0622448092314635
0.20979022745753997 -0.0622448092314635
0.22460601646003367 -0.027416243336432233
0.2690533834675148 0.11189802024369284
0.2838691724700085 0.18155515203375538
0.31350075047499587 0.07706945434866157
0.34313232847998326 -0.0622448092314635
0.35794811748247696 -0.0622448092314635
0.32831653947748957 -0.0622448092314635
0.31350075047499587 0.007412322558599036
0.2838691724700085 0.11189802024369284
0.2838691724700085 0.11189802024369284
0.2690533834675148 0.042240888453630304
0.2986849614725022 0.1467265861387241
0.2986849614725022 0.007412322558599036
0.2838691724700085 0.042240888453630304
0.2838691724700085 -0.09707337512649476
0.31350075047499587 -0.0622448092314635
0.32831653947748957 -0.13190194102152603
0.32831653947748957 0.007412322558599036
0.2838691724700085 0.1467265861387241
0.2986849614725022 0.25121228382381794
0.2542375944650211 0.1467265861387241
0.22460601646003367 -0.027416243336432233
0.2542375944650211 -0.1667305069165573
0.2690533834675148 -0.1667305069165573
0.2838691724700085 -0.0622448092314635
0.31350075047499587 0.042240888453630304
0.31350075047499587 0.007412322558599036
0.34313232847998326 -0.027416243336432233
0.35794811748247696 0.042240888453630304
0.34313232847998326 0.007412322558599036
0.34313232847998326 0.25121228382381794
0.31350075047499587 0.07706945434866157
0.31350075047499587 0.07706945434866157
0.34313232847998326 0.007412322558599036
0.38757969548746435 0.11189802024369284
0.41721127349245174 0.35569798150891174
0.4616586404999328 0.5646693768790993
0.4764744295024266 0.5298408109840681
0.5357375855124014 0.4950122450890368
0.5801849525198824 0.35569798150891174
0.6098165305248698 0.32086941561388044
0.6246323195273635 0.35569798150891174
0.6542638975323509 0.32086941561388044
0.6690796865348446 0.2860408497188492
0.7283428425448194 0.18155515203375538
0.8024217875572879 0.11189802024369284
0.8320533655622753 0.07706945434866157
0.8320533655622753 0.18155515203375538
0.846869154564769 0.2860408497188492
0.8024217875572879 0.2860408497188492
0.846869154564769 0.07706945434866157
0.8172375765597816 0.07706945434866157
0.8320533655622753 0.11189802024369284
0.7876059985547942 0.18155515203375538
0.7727902095523005 0.21638371792878663
0.698711264539832 0.07706945434866157
0.6098165305248698 -0.0622448092314635
0.5357375855124014 -0.09707337512649476
0.41721127349245174 -0.13190194102152603
0.37276390648497065 0.007412322558599036
0.32831653947748957 -0.027416243336432233
0.2690533834675148 -0.027416243336432233
0.2690533834675148 -0.0622448092314635
0.20979022745753997 0.007412322558599036
0.19497443845504628 0.11189802024369284
0.1653428604500589 0.042240888453630304
0.1505270714475652 -0.0622448092314635
0.1357112824450715 -0.27121620460165113
0.12089549344257779 -0.3060447704966824
0.07644812643509669 -0.23638763870661983
0.0320007594276156 -0.20155907281158858
0.002369181422628199 -0.027416243336432233
0.002369181422628199 -0.13190194102152603
0.002369181422628199 -0.1667305069165573
0.017184970425121897 -0.1667305069165573
0.046816548430109295 -0.027416243336432233
0.06163233743260299 0.007412322558599036
0.046816548430109295 -0.027416243336432233
0.046816548430109295 -0.13190194102152603
0.002369181422628199 -0.37570190228674494
-0.0717097635898403 -0.37570190228674494
-0.056893974587346595 -0.34087333639171363
0.07644812643509669 -0.34087333639171363
0.35794811748247696 -0.37570190228674494
0.7135270535423257 -0.44535903407680744
1.2172638796271116 -0.48018759997183874
1.928421751746809 -0.4105304681817762
2.7432901468839623 -0.27121620460165113
3.6618690650385717 0.21638371792878663
4.5360006161857 0.8781264699343807
5.261974277307891 1.7836691832051936
5.602737424365246 2.7936975941611006
5.49902690134779 3.8037260051170074
4.93602691925303 4.604783020702726
4.047079579103408 4.70926871838782
2.965526981921368 4.43064019122757
1.8987901737418216 3.4206117802716633
0.9653954665847186 2.1667834080505375
0.2690533834675148 0.9129550358294121
-0.08652555259233399 -0.13190194102152603
-0.20505186461228359 -0.8981303907122139
-0.14578870860230878 -1.2115874837674954
0.002369181422628199 -0.8981303907122139
0.0912639154375904 -0.654330429446995
0.0912639154375904 -0.3060447704966824
0.06163233743260299 -0.13190194102152603
-0.027262396582359197 -0.1667305069165573
-0.16060449760480247 -0.20155907281158858
-0.23468344261727098 -0.20155907281158858
-0.24949923161976467 -0.23638763870661983
-0.23468344261727098 -0.27121620460165113
-0.21986765361477728 -0.27121620460165113
-0.14578870860230878 -0.4105304681817762
-0.13097291959981508 -0.37570190228674494
-0.14578870860230878 -0.37570190228674494
-0.14578870860230878 -0.34087333639171363
-0.1754202866072962 -0.4105304681817762
-0.20505186461228359 -0.44535903407680744
-0.30876238762973945 -0.5498447317619013
-0.26431502062225837 -0.48018759997183874
-0.29394659862724576 -0.37570190228674494
-0.27913080962475206 -0.1667305069165573
-0.29394659862724576 -0.1667305069165573
-0.27913080962475206 -0.1667305069165573
-0.21986765361477728 -0.1667305069165573
-0.21986765361477728 -0.27121620460165113
-0.1754202866072962 -0.1667305069165573
-0.23468344261727098 -0.23638763870661983
-0.21986765361477728 -0.37570190228674494
-0.1902360756097899 -0.6195018635519638
-0.20505186461228359 -0.5846732976569325
-0.20505186461228359 -0.44535903407680744
-0.1754202866072962 -0.34087333639171363
-0.21986765361477728 -0.37570190228674494
-0.23468344261727098 -0.48018759997183874
-0.23468344261727098 -0.5150161658668699
-0.1754202866072962 -0.5150161658668699
-0.1902360756097899 -0.4105304681817762
-0.1754202866072962 -0.4105304681817762
-0.1754202866072962 -0.44535903407680744
-0.20505186461228359 -0.6195018635519638
-0.20505186461228359 -0.7239875612370575
-0.1754202866072962 -0.7936446930271202
-0.14578870860230878 -0.8284732589221514
-0.13097291959981508 -0.7936446930271202
-0.13097291959981508 -0.7239875612370575
-0.13097291959981508 -0.7936446930271202
-0.10134134159482769 -0.8284732589221514
-0.08652555259233399 -0.6891589953420263
-0.11615713059732138 -0.6195018635519638
-0.08652555259233399 -0.654330429446995
-0.08652555259233399 -0.6195018635519638
-0.10134134159482769 -0.8284732589221514
-0.08652555259233399 -1.037444654292339
-0.056893974587346595 -0.9677875225022765
-0.0420781855848529 -0.9329589566072453
-0.0717097635898403 -0.8981303907122139
-0.056893974587346595 -1.0722732201873704
-0.056893974587346595 -1.1071017860824015
-0.027262396582359197 -1.1071017860824015
-0.027262396582359197 -0.9329589566072453
-0.0420781855848529 -1.037444654292339
-0.0717097635898403 -1.037444654292339
-0.0124466075798655 -1.1419303519774329
-0.0124466075798655 -1.2464160496625267
0.002369181422628199 -1.176758917872464
0.0320007594276156 -1.037444654292339
0.002369181422628199 -0.8981303907122139
0.046816548430109295 -1.0722732201873704
0.017184970425121897 -1.0722732201873704
0.002369181422628199 -1.1419303519774329
0.046816548430109295 -1.0722732201873704
0.046816548430109295 -1.0026160883973076
0.046816548430109295 -0.9329589566072453
0.0320007594276156 -1.0026160883973076
0.0320007594276156 -1.0722732201873704
0.0320007594276156 -1.0722732201873704
0.046816548430109295 -1.1071017860824015
0.0320007594276156 -1.037444654292339
0.0320007594276156 -1.0026160883973076
0.046816548430109295 -1.0722732201873704
0.0912639154375904 -1.176758917872464
0.18015864945255258 -1.1071017860824015
0.19497443845504628 -0.9677875225022765
0.2542375944650211 -0.6891589953420263
0.23942180546252737 -0.5498447317619013
0.2838691724700085 -0.44535903407680744
0.31350075047499587 -0.48018759997183874
0.2986849614725022 -0.48018759997183874
0.2838691724700085 -0.37570190228674494
0.2838691724700085 -0.3060447704966824
0.23942180546252737 -0.0622448092314635
0.23942180546252737 -0.0622448092314635
0.23942180546252737 -0.027416243336432233
0.2542375944650211 0.042240888453630304
0.2690533834675148 0.11189802024369284
0.2838691724700085 0.1467265861387241
0.2690533834675148 0.18155515203375538
0.23942180546252737 0.21638371792878663
0.20979022745753997 0.007412322558599036
0.12089549344257779 -0.0622448092314635
0.12089549344257779 -0.1667305069165573
0.10607970444008409 -0.09707337512649476
0.12089549344257779 -0.027416243336432233
0.1357112824450715 0.007412322558599036
0.18015864945255258 -0.09707337512649476
0.22460601646003367 -0.027416243336432233
0.23942180546252737 0.07706945434866157
0.2542375944650211 0.1467265861387241
0.2542375944650211 0.1467265861387241
0.22460601646003367 0.18155515203375538
0.22460601646003367 0.042240888453630304
0.19497443845504628 -0.09707337512649476
0.18015864945255258 -0.1667305069165573
0.22460601646003367 -0.0622448092314635
0.1653428604500589 0.1467265861387241
0.12089549344257779 0.25121228382381794
0.1357112824450715 0.21638371792878663
0.1357112824450715 0.07706945434866157
0.22460601646003367 0.18155515203375538
0.2542375944650211 0.21638371792878663
0.2690533834675148 0.2860408497188492
0.23942180546252737 0.2860408497188492
0.22460601646003367 0.25121228382381794
0.19497443845504628 0.11189802024369284
0.20979022745753997 0.07706945434866157
0.18015864945255258 0.07706945434866157
0.19497443845504628 0.11189802024369284
0.19497443845504628 0.1467265861387241
0.20979022745753997 0.007412322558599036
0.23942180546252737 -0.09707337512649476
0.2542375944650211 -0.0622448092314635
0.31350075047499587 -0.09707337512649476
0.2986849614725022 0.042240888453630304
0.2690533834675148 0.1467265861387241
0.23942180546252737 0.042240888453630304
0.20979022745753997 -0.0622448092314635
0.19497443845504628 -0.27121620460165113
0.23942180546252737 -0.1667305069165573
0.23942180546252737 -0.09707337512649476
0.2542375944650211 0.07706945434866157
0.2690533834675148 0.11189802024369284
0.2838691724700085 -0.0622448092314635
0.34313232847998326 -0.13190194102152603
0.31350075047499587 -0.09707337512649476
0.31350075047499587 0.007412322558599036
0.2690533834675148 0.07706945434866157
0.2690533834675148 0.042240888453630304
0.23942180546252737 0.042240888453630304
0.23942180546252737 0.007412322558599036
0.22460601646003367 -0.027416243336432233
0.22460601646003367 0.07706945434866157
0.20979022745753997 0.18155515203375538
0.20979022745753997 0.25121228382381794
0.23942180546252737 0.18155515203375538
0.2690533834675148 0.25121228382381794
0.2838691724700085 0.18155515203375538
0.31350075047499587 0.18155515203375538
0.34313232847998326 0.25121228382381794
0.35794811748247696 0.11189802024369284
0.38757969548746435 0.042240888453630304
0.38757969548746435 0.007412322558599036
0.43202706249494544 0.1467265861387241
0.4616586404999328 0.32086941561388044
0.4616586404999328 0.4950122450890368
0.506106007507414 0.5994979427741306
0.5801849525198824 0.5994979427741306
0.6098165305248698 0.6343265086691618
0.698711264539832 0.5646693768790993
0.7283428425448194 0.4950122450890368
0.8024217875572879 0.5646693768790993
0.8320533655622753 0.390526547403943
0.846869154564769 0.18155515203375538
0.8172375765597816 0.007412322558599036
0.7727902095523005 -0.09707337512649476
0.7431586315473131 0.07706945434866157
0.7431586315473131 0.2860408497188492
0.7283428425448194 0.42535511329897424
0.7579744205498068 0.42535511329897424
0.7431586315473131 0.25121228382381794
0.7431586315473131 0.18155515203375538
0.6838954755373383 0.07706945434866157
0.6098165305248698 0.07706945434866157
0.550553374514895 0.1467265861387241
0.4764744295024266 0.1467265861387241
0.40239548448995804 0.007412322558599036
0.35794811748247696 -0.0622448092314635
0.2838691724700085 -0.027416243336432233
0.23942180546252737 0.07706945434866157
0.20979022745753997 0.18155515203375538
0.18015864945255258 0.11189802024369284
0.1357112824450715 0.07706945434866157
0.1357112824450715 0.007412322558599036
0.1357112824450715 -0.0622448092314635
0.10607970444008409 -0.0622448092314635
0.07644812643509669 0.042240888453630304
0.06163233743260299 -0.027416243336432233
0.0320007594276156 -0.0622448092314635
0.017184970425121897 -0.09707337512649476
-0.027262396582359197 -0.09707337512649476
-0.0124466075798655 0.042240888453630304
0.0320007594276156 0.21638371792878663
0.0320007594276156 0.21638371792878663
0.017184970425121897 0.11189802024369284
0.07644812643509669 0.042240888453630304
0.002369181422628199 -0.13190194102152603
-0.027262396582359197 -0.1667305069165573
-0.08652555259233399 -0.1667305069165573
-0.16060449760480247 -0.23638763870661983
-0.0717097635898403 -0.34087333639171363
0.07644812643509669 -0.3060447704966824
0.34313232847998326 -0.27121620460165113
0.7876059985547942 -0.3060447704966824
1.439500714664517 -0.3060447704966824
2.1951059537916957 -0.37570190228674494
3.0544217159363303 -0.23638763870661983
3.943369056085952 0.42535511329897424
4.728605873218118 1.296069260674756
5.2175269103004105 2.340926237525694
5.321237433317866 3.3161260825865697
4.965658497258017 4.117183098172289
4.239684836135826 4.569954454807696
3.2173953949637606 4.535125888912664
2.121027008779227 3.9430402686971324
1.1283691456121492 2.7936975941611006
0.4764744295024266 1.5050406560449436
0.07644812643509669 0.32086941561388044
-0.0717097635898403 -0.5498447317619013
-0.0420781855848529 -0.7936446930271202
-0.0124466075798655 -0.6891589953420263
0.10607970444008409 -0.48018759997183874
0.1357112824450715 -0.34087333639171363
0.07644812643509669 -0.13190194102152603
-0.0124466075798655 -0.027416243336432233
-0.11615713059732138 -0.0622448092314635
-0.21986765361477728 -0.027416243336432233
-0.27913080962475206 -0.0622448092314635
-0.30876238762973945 -0.23638763870661983
-0.27913080962475206 -0.23638763870661983
-0.26431502062225837 -0.1667305069165573
-0.20505186461228359 -0.0622448092314635
-0.23468344261727098 -0.09707337512649476
-0.23468344261727098 -0.027416243336432233
-0.24949923161976467 -0.23638763870661983
-0.30876238762973945 -0.23638763870661983
-0.33839396563472685 -0.23638763870661983
-0.35320975463722054 -0.20155907281158858
-0.35320975463722054 -0.34087333639171363
-0.33839396563472685 -0.37570190228674494
-0.33839396563472685 -0.34087333639171363
-0.30876238762973945 -0.27121620460165113
-0.27913080962475206 -0.09707337512649476
-0.27913080962475206 -0.027416243336432233
-0.27913080962475206 -0.09707337512649476
-0.23468344261727098 -0.20155907281158858
-0.26431502062225837 -0.34087333639171363
-0.30876238762973945 -0.37570190228674494
-0.27913080962475206 -0.34087333639171363
-0.26431502062225837 -0.34087333639171363
-0.29394659862724576 -0.34087333639171363
-0.29394659862724576 -0.4105304681817762
-0.27913080962475206 -0.44535903407680744
-0.26431502062225837 -0.37570190228674494
-0.24949923161976467 -0.3060447704966824
-0.21986765361477728 -0.27121620460165113
-0.23468344261727098 -0.3060447704966824
-0.21986765361477728 -0.48018759997183874
-0.21986765361477728 -0.5846732976569325
-0.21986765361477728 -0.5846732976569325
-0.20505186461228359 -0.5846732976569325
-0.26431502062225837 -0.5498447317619013
-0.23468344261727098 -0.5150161658668699
-0.24949923161976467 -0.5846732976569325
-0.27913080962475206 -0.5846732976569325
-0.23468344261727098 -0.5846732976569325
-0.23468344261727098 -0.44535903407680744
-0.1754202866072962 -0.37570190228674494
-0.16060449760480247 -0.44535903407680744
-0.14578870860230878 -0.6195018635519638
-0.13097291959981508 -0.7239875612370575
-0.14578870860230878 -0.8284732589221514
-0.13097291959981508 -0.8284732589221514
-0.13097291959981508 -0.8284732589221514
-0.16060449760480247 -0.8633018248171827
-0.11615713059732138 -0.9677875225022765
-0.16060449760480247 -1.0026160883973076
-0.11615713059732138 -0.9329589566072453
-0.16060449760480247 -0.8633018248171827
-0.11615713059732138 -0.7588161271320889
-0.11615713059732138 -0.8633018248171827
-0.13097291959981508 -0.9329589566072453
-0.10134134159482769 -1.0026160883973076
-0.10134134159482769 -1.037444654292339
-0.0717097635898403 -1.1071017860824015
-0.0717097635898403 -1.037444654292339
-0.0717097635898403 -1.037444654292339
-0.056893974587346595 -1.176758917872464
-0.056893974587346595 -1.176758917872464
-0.027262396582359197 -1.1071017860824015
-0.0124466075798655 -0.9677875225022765
-0.0420781855848529 -0.6891589953420263
-0.027262396582359197 -0.7239875612370575
-0.027262396582359197 -0.8981303907122139
-0.0420781855848529 -1.1071017860824015
-0.056893974587346595 -1.176758917872464
-0.056893974587346595 -1.2115874837674954
-0.0717097635898403 -1.037444654292339
-0.0717097635898403 -1.0026160883973076
-0.0717097635898403 -0.8981303907122139
0.002369181422628199 -0.9329589566072453
0.002369181422628199 -1.0026160883973076
0.07644812643509669 -0.8633018248171827
0.0912639154375904 -0.7588161271320889
0.1357112824450715 -0.6891589953420263
0.19497443845504628 -0.6891589953420263
0.20979022745753997 -0.6891589953420263
0.1653428604500589 -0.5846732976569325
0.1653428604500589 -0.44535903407680744
0.1653428604500589 -0.23638763870661983
0.19497443845504628 -0.13190194102152603
0.18015864945255258 -0.0622448092314635
0.23942180546252737 -0.09707337512649476
0.2542375944650211 -0.09707337512649476
0.2986849614725022 0.007412322558599036
0.32831653947748957 0.21638371792878663
0.2838691724700085 0.2860408497188492
0.2690533834675148 0.390526547403943
0.23942180546252737 0.21638371792878663
0.22460601646003367 0.07706945434866157
0.19497443845504628 -0.027416243336432233
0.10607970444008409 -0.09707337512649476
0.12089549344257779 0.042240888453630304
0.12089549344257779 0.07706945434866157
0.12089549344257779 0.18155515203375538
0.18015864945255258 0.042240888453630304
0.18015864945255258 0.18155515203375538
0.20979022745753997 0.2860408497188492
0.19497443845504628 0.32086941561388044
0.18015864945255258 0.35569798150891174
0.1653428604500589 0.25121228382381794
0.1505270714475652 0.1467265861387241
0.18015864945255258 0.07706945434866157
0.1505270714475652 0.07706945434866157
0.12089549344257779 0.1467265861387241
0.1357112824450715 0.042240888453630304
0.1505270714475652 0.042240888453630304
0.10607970444008409 0.007412322558599036
0.1653428604500589 0.007412322558599036
0.1653428604500589 0.25121228382381794
0.20979022745753997 0.25121228382381794
0.20979022745753997 0.32086941561388044
0.20979022745753997 0.18155515203375538
0.19497443845504628 0.007412322558599036
0.10607970444008409 -0.1667305069165573
0.12089549344257779 -0.13190194102152603
0.07644812643509669 -0.0622448092314635
0.07644812643509669 0.07706945434866157
0.07644812643509669 0.1467265861387241
0.10607970444008409 0.18155515203375538
0.1357112824450715 0.25121228382381794
0.1653428604500589 0.21638371792878663
0.19497443845504628 0.25121228382381794
0.1653428604500589 0.11189802024369284
0.1505270714475652 0.042240888453630304
0.1505270714475652 -0.13190194102152603
0.18015864945255258 -0.23638763870661983
0.1357112824450715 -0.0622448092314635
0.1357112824450715 0.21638371792878663
0.0912639154375904 0.18155515203375538
0.0912639154375904 0.21638371792878663
0.1357112824450715 0.11189802024369284
0.1505270714475652 0.007412322558599036
0.12089549344257779 0.042240888453630304
0.1653428604500589 0.07706945434866157
0.19497443845504628 0.1467265861387241
0.20979022745753997 0.18155515203375538
0.19497443845504628 0.18155515203375538
0.19497443845504628 0.007412322558599036
0.1653428604500589 -0.0622448092314635
0.1653428604500589 0.11189802024369284
0.1653428604500589 0.21638371792878663
0.18015864945255258 0.32086941561388044
0.18015864945255258 0.32086941561388044
0.19497443845504628 0.21638371792878663
0.23942180546252737 0.21638371792878663
0.22460601646003367 0.21638371792878663
0.20979022745753997 0.2860408497188492
0.22460601646003367 0.2860408497188492
0.22460601646003367 0.18155515203375538
0.2542375944650211 0.1467265861387241
0.2690533834675148 0.11189802024369284
0.31350075047499587 0.32086941561388044
0.32831653947748957 0.5298408109840681
0.41721127349245174 0.6343265086691618
0.38757969548746435 0.5646693768790993
0.4616586404999328 0.4950122450890368
0.4912902185049203 0.5646693768790993
0.506106007507414 0.42535511329897424
0.5357375855124014 0.4950122450890368
0.5801849525198824 0.390526547403943
0.6542638975323509 0.2860408497188492
0.698711264539832 0.11189802024369284
0.7135270535423257 0.11189802024369284
0.7135270535423257 0.11189802024369284
0.6838954755373383 0.25121228382381794
0.6838954755373383 0.32086941561388044
0.698711264539832 0.32086941561388044
0.7135270535423257 0.25121228382381794
0.7135270535423257 0.25121228382381794
0.7135270535423257 0.21638371792878663
0.6838954755373383 0.25121228382381794
0.6098165305248698 0.2860408497188492
0.5209217965099077 0.18155515203375538
0.44684285149743913 -0.027416243336432233
0.35794811748247696 -0.0622448092314635
0.32831653947748957 -0.13190194102152603
0.2542375944650211 -0.09707337512649476
0.20979022745753997 0.1467265861387241
0.1653428604500589 0.21638371792878663
0.1653428604500589 0.18155515203375538
0.1505270714475652 0.21638371792878663
0.10607970444008409 0.07706945434866157
0.07644812643509669 0.1467265861387241
0.06163233743260299 0.11189802024369284
0.017184970425121897 0.18155515203375538
-0.0420781855848529 0.007412322558599036
-0.056893974587346595 -0.13190194102152603
-0.0717097635898403 -0.1667305069165573
-0.056893974587346595 -0.027416243336432233
-0.056893974587346595 0.18155515203375538
-0.027262396582359197 0.25121228382381794
0.002369181422628199 0.390526547403943
0.002369181422628199 0.32086941561388044
0.017184970425121897 0.18155515203375538
0.017184970425121897 0.21638371792878663
-0.027262396582359197 0.21638371792878663
-0.0717097635898403 0.11189802024369284
-0.13097291959981508 -0.1667305069165573
-0.1902360756097899 -0.37570190228674494
-0.20505186461228359 -0.48018759997183874
-0.1754202866072962 -0.44535903407680744
-0.08652555259233399 -0.34087333639171363
0.0912639154375904 -0.23638763870661983
0.37276390648497065 -0.09707337512649476
0.7579744205498068 -0.1667305069165573
1.2617112466345926 -0.4105304681817762
1.8691585957368342 -0.44535903407680744
2.5803164678565316 -0.48018759997183874
3.3211059179812166 -0.027416243336432233
4.047079579103408 0.6691550745641931
4.624895350200662 1.6095263537300373
4.9952900752630045 2.7588690282660693
4.93602691925303 3.8385545710120383
4.521184827183206 4.883411547862977
3.839658533068496 5.475497168078508
2.9951585599263555 5.26652577270832
2.1062112197767333 4.535125888912664
1.2765270356370864 3.246468950796507
0.6542638975323509 1.818497749100225
0.20979022745753997 0.46018367919400555
-0.08652555259233399 -0.27121620460165113
-0.1902360756097899 -0.7936446930271202
-0.14578870860230878 -0.8284732589221514
-0.11615713059732138 -0.6195018635519638
-0.027262396582359197 -0.34087333639171363
0.002369181422628199 0.007412322558599036
-0.0124466075798655 0.32086941561388044
-0.08652555259233399 0.32086941561388044
-0.1754202866072962 0.1467265861387241
-0.26431502062225837 -0.027416243336432233
-0.30876238762973945 -0.1667305069165573
-0.32357817663223315 -0.20155907281158858
-0.32357817663223315 -0.23638763870661983
-0.32357817663223315 -0.20155907281158858
-0.35320975463722054 -0.27121620460165113
-0.32357817663223315 -0.3060447704966824
-0.36802554363971424 -0.34087333639171363
-0.33839396563472685 -0.23638763870661983
-0.33839396563472685 -0.09707337512649476
-0.33839396563472685 -0.13190194102152603
-0.33839396563472685 -0.09707337512649476
-0.29394659862724576 -0.1667305069165573
-0.30876238762973945 -0.23638763870661983
-0.27913080962475206 -0.20155907281158858
-0.36802554363971424 -0.1667305069165573
-0.35320975463722054 -0.23638763870661983
-0.4272886996496891 -0.34087333639171363
-0.3976571216447017 -0.3060447704966824
-0.3976571216447017 -0.3060447704966824
-0.33839396563472685 -0.13190194102152603
-0.27913080962475206 -0.09707337512649476
-0.23468344261727098 -0.1667305069165573
-0.24949923161976467 -0.13190194102152603
-0.24949923161976467 -0.20155907281158858
-0.24949923161976467 -0.1667305069165573
-0.26431502062225837 -0.1667305069165573
-0.29394659862724576 -0.23638763870661983
-0.30876238762973945 -0.34087333639171363
-0.27913080962475206 -0.4105304681817762
-0.27913080962475206 -0.4105304681817762
-0.23468344261727098 -0.37570190228674494
-0.21986765361477728 -0.3060447704966824
-0.1902360756097899 -0.3060447704966824
-0.1754202866072962 -0.34087333639171363
-0.1754202866072962 -0.23638763870661983
-0.13097291959981508 -0.34087333639171363
-0.23468344261727098 -0.34087333639171363
-0.1902360756097899 -0.4105304681817762
-0.21986765361477728 -0.5498447317619013
-0.27913080962475206 -0.654330429446995
-0.26431502062225837 -0.6891589953420263
-0.26431502062225837 -0.6195018635519638
-0.23468344261727098 -0.5846732976569325
-0.1902360756097899 -0.6195018635519638
-0.16060449760480247 -0.6891589953420263
-0.14578870860230878 -0.7239875612370575
-0.11615713059732138 -0.7239875612370575
-0.10134134159482769 -0.7239875612370575
-0.10134134159482769 -0.7936446930271202
-0.11615713059732138 -0.8284732589221514
-0.14578870860230878 -0.9677875225022765
-0.16060449760480247 -1.037444654292339
-0.16060449760480247 -1.037444654292339
-0.14578870860230878 -0.9329589566072453
-0.14578870860230878 -0.8981303907122139
-0.11615713059732138 -1.037444654292339
-0.10134134159482769 -1.0722732201873704
-0.0717097635898403 -1.0026160883973076
