-0.1034302922183489 -0.47174556328572015
-0.17871840798757738 -0.5370012855804869
-0.20883365429526876 -0.5370012855804869
-0.24647771217988299 -0.5587531930120757
-0.29165058164142005 -0.5805051004436647
-0.3292946395260343 -0.6022570078752536
-0.34435226267988 -0.5370012855804869
-0.3518810742568029 -0.5805051004436647
-0.38199632056449423 -0.5152493781488979
-0.4045827552952628 -0.5370012855804869
-0.3970539437183399 -0.5587531930120757
-0.41211156687218564 -0.6240089153068424
-0.442226813179877 -0.6675127301700202
-0.4572844363337227 -0.7110165450331981
-0.4873996826414141 -0.7110165450331981
-0.5024573057952598 -0.6675127301700202
-0.5250437405260283 -0.6675127301700202
-0.5325725521029512 -0.6457608227384314
-0.5250437405260283 -0.6457608227384314
-0.5325725521029512 -0.6457608227384314
-0.5325725521029512 -0.6675127301700202
-0.5099861173721826 -0.6240089153068424
-0.5024573057952598 -0.6022570078752536
-0.5099861173721826 -0.6240089153068424
-0.4873996826414141 -0.6240089153068424
-0.4873996826414141 -0.6457608227384314
-0.5175149289491054 -0.6675127301700202
-0.4873996826414141 -0.6892646376016092
-0.5024573057952598 -0.6457608227384314
-0.49492849421833696 -0.6022570078752536
-0.4798708710644912 -0.6022570078752536
-0.4873996826414141 -0.5587531930120757
-0.4798708710644912 -0.5370012855804869
-0.4572844363337227 -0.4064898409909534
-0.4572844363337227 -0.4064898409909534
-0.4873996826414141 -0.44999365585413126
-0.4723420594875684 -0.5805051004436647
-0.4723420594875684 -0.5587531930120757
-0.4572844363337227 -0.7110165450331981
-0.46481324791064554 -0.732768452464787
-0.46481324791064554 -0.6457608227384314
-0.46481324791064554 -0.6022570078752536
-0.4572844363337227 -0.5587531930120757
-0.442226813179877 -0.47174556328572015
-0.41964037844910845 -0.4064898409909534
-0.41211156687218564 -0.38473793355936453
-0.4045827552952628 -0.4064898409909534
-0.4045827552952628 -0.49349747071730904
-0.4346980016029542 -0.5587531930120757
-0.442226813179877 -0.6457608227384314
-0.4572844363337227 -0.6892646376016092
-0.49492849421833696 -0.732768452464787
-0.5024573057952598 -0.732768452464787
-0.5024573057952598 -0.6457608227384314
-0.5325725521029512 -0.5587531930120757
-0.540101363679874 -0.5805051004436647
-0.5024573057952598 -0.47174556328572015
-0.5024573057952598 -0.5152493781488979
-0.5099861173721826 -0.6022570078752536
-0.5099861173721826 -0.5370012855804869
-0.5099861173721826 -0.6240089153068424
-0.5250437405260283 -0.7110165450331981
-0.5250437405260283 -0.7110165450331981
-0.5476301752567969 -0.7110165450331981
-0.5325725521029512 -0.6892646376016092
-0.5476301752567969 -0.6240089153068424
-0.5476301752567969 -0.6022570078752536
-0.5325725521029512 -0.6240089153068424
-0.5325725521029512 -0.5152493781488979
-0.5476301752567969 -0.5152493781488979
-0.5325725521029512 -0.5587531930120757
-0.5476301752567969 -0.6240089153068424
-0.5476301752567969 -0.7110165450331981
-0.5928030447183339 -0.7110165450331981
-0.6003318562952568 -0.7980241747595537
-0.6304471026029482 -0.7762722673279647
-0.6304471026029482 -0.7110165450331981
-0.6455047257567939 -0.732768452464787
-0.637975914179871 -0.6892646376016092
-0.6078606678721796 -0.6675127301700202
-0.6003318562952568 -0.6892646376016092
-0.5852742331414111 -0.6457608227384314
-0.5777454215644883 -0.7110165450331981
-0.5852742331414111 -0.7110165450331981
-0.5777454215644883 -0.6892646376016092
-0.6229182910260254 -0.7110165450331981
-0.6229182910260254 -0.7762722673279647
-0.6229182910260254 -0.7545203598963759
-0.637975914179871 -0.7762722673279647
-0.6229182910260254 -0.7110165450331981
-0.6304471026029482 -0.6675127301700202
-0.6003318562952568 -0.6240089153068424
-0.5852742331414111 -0.6240089153068424
-0.5702166099875654 -0.5370012855804869
-0.5551589868337197 -0.5370012855804869
-0.5702166099875654 -0.6457608227384314
-0.5852742331414111 -0.6675127301700202
-0.6153894794491025 -0.6892646376016092
-0.6304471026029482 -0.732768452464787
-0.6455047257567939 -0.7545203598963759
-0.6605623489106396 -0.7762722673279647
-0.6530335373337167 -0.7545203598963759
-0.6530335373337167 -0.6675127301700202
-0.6304471026029482 -0.5805051004436647
-0.6229182910260254 -0.5152493781488979
-0.6229182910260254 -0.5587531930120757
-0.6078606678721796 -0.6022570078752536
-0.6003318562952568 -0.5805051004436647
-0.6003318562952568 -0.6022570078752536
-0.6153894794491025 -0.6022570078752536
-0.6153894794491025 -0.6022570078752536
-0.6078606678721796 -0.49349747071730904
-0.5777454215644883 -0.49349747071730904
-0.5626877984106425 -0.47174556328572015
-0.5024573057952598 -0.4064898409909534
-0.46481324791064554 -0.2977303038330089
-0.4346980016029542 -0.38473793355936453
-0.41964037844910845 -0.38473793355936453
-0.4271691900260313 -0.3194822112645978
-0.44975562475679987 -0.34123411869618675
-0.44975562475679987 -0.3194822112645978
-0.46481324791064554 -0.3194822112645978
-0.4798708710644912 -0.49349747071730904
-0.46481324791064554 -0.5152493781488979
-0.46481324791064554 -0.5370012855804869
-0.4723420594875684 -0.5370012855804869
-0.4346980016029542 -0.47174556328572015
-0.3970539437183399 -0.47174556328572015
-0.37446750898757136 -0.47174556328572015
-0.3518810742568029 -0.5370012855804869
-0.32176582794911146 -0.5370012855804869
-0.28412177006449724 -0.5805051004436647
-0.3067082047952658 -0.6240089153068424
-0.32176582794911146 -0.7545203598963759
-0.3594098858337257 -0.8415279896227315
-0.41211156687218564 -0.7980241747595537
-0.41211156687218564 -0.7545203598963759
-0.442226813179877 -0.6240089153068424
-0.442226813179877 -0.5370012855804869
-0.442226813179877 -0.44999365585413126
-0.4346980016029542 -0.44999365585413126
-0.41211156687218564 -0.49349747071730904
-0.36693869741064855 -0.5370012855804869
-0.38199632056449423 -0.6892646376016092
-0.4045827552952628 -0.732768452464787
-0.442226813179877 -0.8632798970543204
-0.4723420594875684 -0.8850318044859092
-0.5250437405260283 -0.8197760821911426
-0.5928030447183339 -0.8415279896227315
-0.637975914179871 -0.8632798970543204
-0.6530335373337167 -0.7980241747595537
-0.6680911604875625 -0.8632798970543204
-0.6680911604875625 -0.7762722673279647
-0.6680911604875625 -0.7545203598963759
-0.6605623489106396 -0.6892646376016092
-0.6530335373337167 -0.7110165450331981
-0.637975914179871 -0.7545203598963759
-0.6455047257567939 -0.8197760821911426
-0.6455047257567939 -0.7980241747595537
-0.6455047257567939 -0.8415279896227315
-0.6605623489106396 -0.8415279896227315
-0.6605623489106396 -0.8632798970543204
-0.6304471026029482 -0.7110165450331981
-0.6229182910260254 -0.6240089153068424
-0.6153894794491025 -0.5152493781488979
-0.5852742331414111 -0.4282417484225423
-0.6003318562952568 -0.47174556328572015
-0.6229182910260254 -0.49349747071730904
-0.6229182910260254 -0.6240089153068424
-0.6455047257567939 -0.7980241747595537
-0.6078606678721796 -0.9937913416438539
-0.5476301752567969 -1.2765661382545095
-0.3970539437183399 -1.6681004720231098
-0.19377603114142306 -2.124890528086477
0.14502048982010504 -2.516424861855077
0.6042779960123987 -2.951463010486855
1.1538812411277666 -3.408253066550222
1.7863014135892856 -3.7997874003188223
2.4940097018200333 -4.191321734087422
3.2092468016277036 -4.517600345561256
3.894368655127683 -4.582856067856023
4.406327842358436 -4.604607975287611
4.76018198647381 -4.365336993540134
4.86558534855073 -3.930298844908356
4.790297232781501 -3.4517568814133996
4.489144769704588 -2.973214917918444
3.932012713012297 -2.6034324915814326
3.073728193243092 -2.3424096024023657
2.110040311396968 -2.05963480579171
1.1463524295508436 -1.7768600091810542
0.18266454770471927 -1.6898523794546987
-0.7810233341414051 -1.4723333051388097
-1.277924898218313 -1.2330623233913318
-1.1725215361413932 -1.0155432490754428
-0.8487826383337107 -0.8850318044859092
-0.540101363679874 -0.8632798970543204
-0.3142370163721886 -0.7545203598963759
-0.2540065237568058 -0.732768452464787
-0.2540065237568058 -0.7110165450331981
-0.3594098858337257 -0.6240089153068424
-0.4723420594875684 -0.5587531930120757
-0.5476301752567969 -0.5152493781488979
-0.6003318562952568 -0.5152493781488979
-0.6078606678721796 -0.5152493781488979
-0.6153894794491025 -0.6022570078752536
-0.5928030447183339 -0.5370012855804869
-0.5777454215644883 -0.5805051004436647
-0.5852742331414111 -0.6022570078752536
-0.5777454215644883 -0.5805051004436647
-0.5928030447183339 -0.5587531930120757
-0.5777454215644883 -0.49349747071730904
-0.5852742331414111 -0.38473793355936453
-0.5777454215644883 -0.4064898409909534
-0.5551589868337197 -0.36298602612777564
-0.540101363679874 -0.3194822112645978
-0.5551589868337197 -0.38473793355936453
-0.5626877984106425 -0.44999365585413126
-0.5702166099875654 -0.4064898409909534
-0.5626877984106425 -0.49349747071730904
-0.5551589868337197 -0.5370012855804869
-0.5551589868337197 -0.5152493781488979
-0.5476301752567969 -0.44999365585413126
-0.540101363679874 -0.47174556328572015
-0.5024573057952598 -0.38473793355936453
-0.4798708710644912 -0.2977303038330089
-0.44975562475679987 -0.1889707666750644
-0.41964037844910845 -0.27597839640142
-0.4271691900260313 -0.2107226741066533
-0.41964037844910845 -0.34123411869618675
-0.44975562475679987 -0.47174556328572015
-0.4271691900260313 -0.47174556328572015
-0.4346980016029542 -0.4064898409909534
-0.41211156687218564 -0.4064898409909534
-0.41211156687218564 -0.4282417484225423
-0.38199632056449423 -0.3194822112645978
-0.37446750898757136 -0.2107226741066533
-0.33682345110295714 -0.2107226741066533
-0.29165058164142005 -0.2107226741066533
-0.2615353353337287 -0.1889707666750644
-0.23894890060296015 -0.23247458153824221
-0.22389127744911444 -0.1889707666750644
-0.20883365429526876 -0.1889707666750644
-0.18624721956450022 -0.23247458153824221
-0.16366078483373167 -0.23247458153824221
-0.148603161679886 -0.16721885924347551
-0.09590148064142606 -0.16721885924347551
-0.07331504591065752 -0.10196313694870879
-0.035670988026043286 -0.0802112295171199
0.017030693012416644 0.05030021507241352
0.04714593932010803 0.09380402993559132
0.09231880878164511 0.11555593736718023
0.1224340550893365 0.07205212250400242
0.14502048982010504 0.02854830764082462
0.1374916782431822 0.006796400209235718
0.15254930139702788 0.02854830764082462
0.18266454770471927 -0.03670741465394209
0.1901933592816421 0.02854830764082462
0.22783741716625636 0.05030021507241352
0.2730102866277934 0.15905975223035804
0.3257119676662534 0.31132310425148035
0.38594246028163615 0.2678192893883026
0.4010000834354818 0.31132310425148035
0.4537017644739417 0.31132310425148035
0.491345822358556 0.24606738195671365
0.46875938762778746 0.22431547452512474
0.46875938762778746 0.18081165966194693
0.4612305760508646 0.18081165966194693
0.4537017644739417 0.07205212250400242
0.4612305760508646 0.09380402993559132
0.4461729528970189 0.07205212250400242
0.4085288950124047 0.20256356709353585
0.4085288950124047 0.11555593736718023
0.42358651816625037 0.13730784479876915
0.4160577065893275 0.11555593736718023
0.38594246028163615 0.09380402993559132
0.34076959082009906 0.07205212250400242
0.29559672135856196 -0.0802112295171199
0.2504238518970249 -0.1889707666750644
0.1901933592816421 -0.2107226741066533
0.12996286666625934 -0.3194822112645978
0.06973237405087657 -0.34123411869618675
0.0019730698585709505 -0.47174556328572015
-0.04319979960296613 -0.4282417484225423
-0.07331504591065752 -0.4064898409909534
-0.1034302922183489 -0.47174556328572015
-0.14107435010296313 -0.47174556328572015
-0.16366078483373167 -0.5370012855804869
-0.20883365429526876 -0.6457608227384314
-0.2615353353337287 -0.7110165450331981
-0.2991793932183429 -0.7545203598963759
-0.3292946395260343 -0.7980241747595537
-0.38199632056449423 -0.7980241747595537
-0.4045827552952628 -0.7762722673279647
-0.4271691900260313 -0.7545203598963759
-0.41964037844910845 -0.732768452464787
-0.3970539437183399 -0.6675127301700202
-0.3970539437183399 -0.6457608227384314
-0.36693869741064855 -0.6022570078752536
-0.3594098858337257 -0.6675127301700202
-0.37446750898757136 -0.7545203598963759
-0.37446750898757136 -0.8197760821911426
-0.4045827552952628 -0.8415279896227315
-0.41211156687218564 -0.9067837119174982
-0.442226813179877 -0.8850318044859092
-0.4346980016029542 -0.9067837119174982
-0.4346980016029542 -0.8632798970543204
-0.442226813179877 -0.8415279896227315
-0.4045827552952628 -0.7545203598963759
-0.4045827552952628 -0.7110165450331981
-0.36693869741064855 -0.6892646376016092
-0.37446750898757136 -0.6675127301700202
-0.36693869741064855 -0.7110165450331981
-0.34435226267988 -0.7762722673279647
-0.34435226267988 -0.8415279896227315
-0.37446750898757136 -0.8415279896227315
-0.3594098858337257 -0.9067837119174982
-0.36693869741064855 -0.8197760821911426
-0.37446750898757136 -0.8415279896227315
-0.36693869741064855 -0.7980241747595537
-0.3594098858337257 -0.7545203598963759
-0.3518810742568029 -0.7762722673279647
-0.32176582794911146 -0.6892646376016092
-0.2991793932183429 -0.6892646376016092
-0.3142370163721886 -0.7545203598963759
-0.3142370163721886 -0.8197760821911426
-0.3292946395260343 -0.8632798970543204
-0.34435226267988 -0.8850318044859092
-0.36693869741064855 -0.8850318044859092
-0.36693869741064855 -0.9067837119174982
-0.3292946395260343 -0.9285356193490871
-0.34435226267988 -0.8850318044859092
-0.32176582794911146 -0.8850318044859092
-0.3292946395260343 -0.8850318044859092
-0.29165058164142005 -0.8632798970543204
-0.2991793932183429 -0.8197760821911426
-0.29165058164142005 -0.7980241747595537
-0.29165058164142005 -0.9067837119174982
-0.2991793932183429 -0.9285356193490871
-0.33682345110295714 -0.9720394342122649
-0.36693869741064855 -0.950287526780676
-0.3970539437183399 -0.9937913416438539
-0.38199632056449423 -0.9067837119174982
-0.38199632056449423 -0.8415279896227315
-0.3594098858337257 -0.8632798970543204
-0.3292946395260343 -0.7980241747595537
-0.34435226267988 -0.8197760821911426
-0.34435226267988 -0.8415279896227315
-0.33682345110295714 -0.8850318044859092
-0.3518810742568029 -0.9285356193490871
-0.38199632056449423 -1.0372951565070316
-0.37446750898757136 -1.1025508788017984
-0.38199632056449423 -1.0155432490754428
-0.3970539437183399 -0.9937913416438539
-0.37446750898757136 -1.0155432490754428
-0.37446750898757136 -0.950287526780676
-0.37446750898757136 -0.9720394342122649
-0.37446750898757136 -0.9285356193490871
-0.3594098858337257 -0.8632798970543204
-0.33682345110295714 -0.8415279896227315
-0.36693869741064855 -0.8415279896227315
-0.37446750898757136 -0.9067837119174982
-0.3895251321414171 -0.9285356193490871
-0.38199632056449423 -0.950287526780676
-0.3895251321414171 -1.0155432490754428
-0.3970539437183399 -1.0590470639386205
-0.3970539437183399 -1.0372951565070316
-0.3895251321414171 -1.0372951565070316
-0.38199632056449423 -0.9285356193490871
-0.37446750898757136 -0.8632798970543204
-0.37446750898757136 -0.8632798970543204
-0.3594098858337257 -0.7980241747595537
-0.37446750898757136 -0.8850318044859092
-0.36693869741064855 -1.0155432490754428
-0.37446750898757136 -1.0590470639386205
-0.4045827552952628 -1.1025508788017984
-0.41964037844910845 -1.0807989713702093
-0.41964037844910845 -1.0155432490754428
-0.4271691900260313 -0.9937913416438539
-0.41964037844910845 -1.0372951565070316
-0.4346980016029542 -0.9067837119174982
-0.41964037844910845 -0.9285356193490871
-0.3895251321414171 -0.9067837119174982
-0.36693869741064855 -0.9720394342122649
-0.3518810742568029 -0.9937913416438539
-0.3518810742568029 -0.9937913416438539
-0.37446750898757136 -1.0155432490754428
-0.41211156687218564 -1.0372951565070316
-0.41211156687218564 -1.146054693664976
-0.4271691900260313 -1.0807989713702093
-0.4271691900260313 -1.167806601096565
-0.41964037844910845 -1.1243027862333872
-0.3970539437183399 -1.0372951565070316
-0.38199632056449423 -0.9937913416438539
-0.3594098858337257 -0.950287526780676
-0.33682345110295714 -0.950287526780676
-0.3292946395260343 -0.950287526780676
-0.3292946395260343 -0.950287526780676
-0.3292946395260343 -0.8632798970543204
-0.2991793932183429 -0.9067837119174982
-0.2615353353337287 -0.950287526780676
-0.22389127744911444 -0.8850318044859092
-0.22389127744911444 -0.8850318044859092
-0.20883365429526876 -0.7980241747595537
-0.18624721956450022 -0.732768452464787
-0.17871840798757738 -0.6892646376016092
-0.18624721956450022 -0.6892646376016092
-0.17871840798757738 -0.6892646376016092
-0.18624721956450022 -0.7980241747595537
-0.17118959641065454 -0.7980241747595537
-0.18624721956450022 -0.8197760821911426
-0.15613197325680883 -0.8850318044859092
-0.148603161679886 -0.8415279896227315
-0.14107435010296313 -0.9285356193490871
-0.09590148064142606 -0.950287526780676
-0.1034302922183489 -0.9937913416438539
-0.06578623433373466 -0.9937913416438539
-0.058257422756811825 -0.8850318044859092
-0.07331504591065752 -0.8415279896227315
-0.04319979960296613 -0.7980241747595537
-0.06578623433373466 -0.7980241747595537
-0.12601672694911745 -0.9285356193490871
-0.15613197325680883 -0.950287526780676
-0.17871840798757738 -1.1025508788017984
-0.19377603114142306 -1.146054693664976
-0.18624721956450022 -1.2330623233913318
-0.19377603114142306 -1.2113104159597428
-0.22389127744911444 -1.189558508528154
-0.2314200890260373 -1.0372951565070316
-0.2615353353337287 -0.9720394342122649
-0.2540065237568058 -0.8850318044859092
-0.29165058164142005 -0.950287526780676
-0.2991793932183429 -1.0372951565070316
-0.33682345110295714 -1.146054693664976
-0.38199632056449423 -1.2113104159597428
-0.3970539437183399 -1.2983180456860985
-0.442226813179877 -1.2330623233913318
-0.4346980016029542 -1.146054693664976
-0.4572844363337227 -1.2113104159597428
-0.4271691900260313 -1.1025508788017984
-0.4271691900260313 -1.0807989713702093
-0.3970539437183399 -1.1243027862333872
-0.38199632056449423 -1.0155432490754428
-0.36693869741064855 -0.9285356193490871
-0.36693869741064855 -0.9937913416438539
-0.36693869741064855 -0.8632798970543204
-0.38199632056449423 -0.8850318044859092
-0.3970539437183399 -0.9285356193490871
-0.3895251321414171 -0.950287526780676
-0.41211156687218564 -1.0372951565070316
-0.41964037844910845 -1.1025508788017984
-0.36693869741064855 -1.146054693664976
-0.32176582794911146 -1.2765661382545095
-0.23894890060296015 -1.4288294902756318
-0.08837266906450321 -1.7551081017494654
0.11490524351241366 -2.1683943429496546
0.3633560255508676 -2.733943936170966
0.7322677928200871 -3.2559897145290995
1.168938864281612 -3.821539307750411
1.6507828052046745 -4.2348255489506
2.260616542935425 -4.648111790150789
2.90809433855079 -4.974390401624623
3.555572134166155 -5.061398031350978
4.150348248743059 -4.887382771898268
4.571961697050739 -4.408840808403312
4.797826044358424 -3.865043122613589
4.722537928589196 -3.2994935293922776
4.270809233973825 -2.8427034733289105
3.3598230331661605 -2.4076653246971325
2.396135151320036 -2.2118981578128323
1.4324472694739119 -2.1466424355180656
0.46875938762778746 -1.9508752686337656
-0.49492849421833696 -1.7551081017494654
-1.127348666679856 -1.581092842296754
-0.8638402614875564 -1.4505813977072208
-0.442226813179877 -1.2113104159597428
-0.07331504591065752 -1.167806601096565
0.12996286666625934 -1.0372951565070316
0.1676069245508736 -0.9937913416438539
0.09231880878164511 -1.0155432490754428
-0.04319979960296613 -1.0155432490754428
-0.19377603114142306 -1.0372951565070316
-0.29165058164142005 -1.0807989713702093
-0.3518810742568029 -1.0155432490754428
-0.37446750898757136 -1.0590470639386205
-0.36693869741064855 -1.1025508788017984
-0.3518810742568029 -1.1243027862333872
-0.3142370163721886 -1.0590470639386205
-0.3142370163721886 -0.9285356193490871
-0.33682345110295714 -0.950287526780676
-0.3142370163721886 -0.9067837119174982
-0.32176582794911146 -0.950287526780676
-0.2991793932183429 -0.9067837119174982
-0.2991793932183429 -0.9937913416438539
-0.29165058164142005 -1.0372951565070316
-0.2991793932183429 -0.9937913416438539
-0.32176582794911146 -1.0372951565070316
-0.3067082047952658 -0.9720394342122649
-0.3067082047952658 -1.0155432490754428
-0.2991793932183429 -0.8850318044859092
-0.27659295848757437 -0.8850318044859092
-0.2615353353337287 -0.8415279896227315
-0.2314200890260373 -0.7980241747595537
-0.20130484271834592 -0.8415279896227315
-0.19377603114142306 -0.8632798970543204
-0.19377603114142306 -0.8197760821911426
-0.19377603114142306 -0.8415279896227315
-0.17871840798757738 -0.8850318044859092
-0.20130484271834592 -0.9067837119174982
-0.20883365429526876 -0.9285356193490871
-0.17871840798757738 -0.950287526780676
-0.15613197325680883 -0.7980241747595537
-0.13354553852604029 -0.7980241747595537
-0.09590148064142606 -0.6892646376016092
-0.058257422756811825 -0.732768452464787
-0.028142176449120437 -0.7545203598963759
-0.013084553295274743 -0.7762722673279647
-0.013084553295274743 -0.7980241747595537
0.0019730698585709505 -0.8197760821911426
0.0019730698585709505 -0.7980241747595537
0.02455950458933949 -0.7980241747595537
0.02455950458933949 -0.7110165450331981
0.054674750897030874 -0.6457608227384314
0.06220356247395373 -0.6240089153068424
0.1224340550893365 -0.6240089153068424
0.18266454770471927 -0.5805051004436647
0.22030860558933352 -0.49349747071730904
0.2654814750508706 -0.44999365585413126
0.29559672135856196 -0.44999365585413126
0.3332407792431762 -0.44999365585413126
0.3482984023970219 -0.44999365585413126
0.39347127185855896 -0.5152493781488979
0.4085288950124047 -0.49349747071730904
0.43111532974317324 -0.44999365585413126
0.47628819920471027 -0.4282417484225423
0.5515763149739388 -0.36298602612777564
0.5741627497047073 -0.36298602612777564
0.641922053897013 -0.23247458153824221
0.68709492335855 -0.1454669518118866
0.7397966043970099 -0.10196313694870879
0.7699118507047014 -0.1454669518118866
0.7623830391277785 -0.2107226741066533
0.7623830391277785 -0.2977303038330089
0.7623830391277785 -0.3194822112645978
0.7699118507047014 -0.3194822112645978
0.7548542275508556 -0.38473793355936453
0.7548542275508556 -0.3194822112645978
0.7924982854354699 -0.25422648896983113
0.8075559085893156 -0.25422648896983113
0.8075559085893156 -0.2977303038330089
0.8000270970123927 -0.3194822112645978
0.8150847201662385 -0.4282417484225423
0.7924982854354699 -0.49349747071730904
0.7473254159739328 -0.5587531930120757
0.6946237349354728 -0.6892646376016092
0.6268644307431672 -0.7762722673279647
0.5515763149739388 -0.7762722673279647
0.48381701078163314 -0.8850318044859092
0.4160577065893275 -0.8850318044859092
0.3482984023970219 -0.9285356193490871
0.3257119676662534 -0.9067837119174982
0.2730102866277934 -0.9285356193490871
0.25795266347394774 -0.8632798970543204
0.21277979401241065 -0.8850318044859092
0.18266454770471927 -0.950287526780676
0.16007811297395072 -1.0372951565070316
0.09984762035856795 -1.167806601096565
0.04714593932010803 -1.167806601096565
0.0019730698585709505 -1.189558508528154
-0.035670988026043286 -1.189558508528154
-0.08837266906450321 -1.167806601096565
-0.09590148064142606 -1.146054693664976
-0.12601672694911745 -1.146054693664976
-0.1184879153721946 -1.1025508788017984
-0.13354553852604029 -1.146054693664976
-0.14107435010296313 -1.0807989713702093
-0.13354553852604029 -1.167806601096565
-0.17118959641065454 -1.167806601096565
-0.16366078483373167 -1.2113104159597428
-0.20883365429526876 -1.2330623233913318
-0.18624721956450022 -1.2548142308229207
-0.20130484271834592 -1.2548142308229207
-0.20883365429526876 -1.2765661382545095
-0.18624721956450022 -1.2548142308229207
-0.17118959641065454 -1.2330623233913318
-0.17871840798757738 -1.167806601096565
-0.14107435010296313 -1.146054693664976
-0.13354553852604029 -1.0590470639386205
-0.14107435010296313 -1.1025508788017984
-0.15613197325680883 -1.1243027862333872
-0.17871840798757738 -1.189558508528154
-0.17871840798757738 -1.189558508528154
-0.19377603114142306 -1.2983180456860985
-0.20883365429526876 -1.3200699531176874
-0.19377603114142306 -1.2765661382545095
-0.17118959641065454 -1.1243027862333872
-0.148603161679886 -1.146054693664976
-0.13354553852604029 -1.0590470639386205
-0.1184879153721946 -1.0590470639386205
-0.1184879153721946 -1.0372951565070316
-0.1034302922183489 -1.1025508788017984
-0.1034302922183489 -1.1243027862333872
-0.1034302922183489 -1.167806601096565
-0.13354553852604029 -1.189558508528154
-0.148603161679886 -1.189558508528154
-0.148603161679886 -1.189558508528154
-0.16366078483373167 -1.167806601096565
-0.19377603114142306 -1.0807989713702093
-0.17118959641065454 -1.1243027862333872
-0.14107435010296313 -1.1025508788017984
-0.1184879153721946 -1.1243027862333872
-0.11095910379527175 -1.1243027862333872
-0.1184879153721946 -1.0807989713702093
-0.12601672694911745 -1.0807989713702093
-0.14107435010296313 -1.146054693664976
-0.148603161679886 -1.1025508788017984
-0.16366078483373167 -1.1025508788017984
-0.15613197325680883 -1.189558508528154
-0.17118959641065454 -1.2330623233913318
-0.17118959641065454 -1.1243027862333872
-0.17118959641065454 -1.1243027862333872
-0.16366078483373167 -1.1025508788017984
-0.148603161679886 -0.9937913416438539
-0.14107435010296313 -1.1025508788017984
-0.14107435010296313 -1.1243027862333872
-0.16366078483373167 -1.146054693664976
-0.20130484271834592 -1.2765661382545095
-0.2163624658721916 -1.363573767980865
-0.2314200890260373 -1.2765661382545095
-0.20883365429526876 -1.2765661382545095
-0.2314200890260373 -1.2113104159597428
-0.20130484271834592 -1.2113104159597428
-0.20883365429526876 -1.146054693664976
-0.2163624658721916 -1.2113104159597428
-0.20130484271834592 -1.2113104159597428
-0.16366078483373167 -1.167806601096565
-0.19377603114142306 -1.189558508528154
-0.20883365429526876 -1.189558508528154
-0.20883365429526876 -1.2548142308229207
-0.2314200890260373 -1.2983180456860985
-0.2615353353337287 -1.2765661382545095
-0.24647771217988299 -1.385325675412454
-0.2615353353337287 -1.3418218605492762
-0.28412177006449724 -1.363573767980865
-0.2615353353337287 -1.3200699531176874
-0.2615353353337287 -1.2548142308229207
-0.2163624658721916 -1.1243027862333872
-0.20883365429526876 -1.0807989713702093
-0.18624721956450022 -1.1243027862333872
-0.18624721956450022 -1.189558508528154
-0.2163624658721916 -1.2330623233913318
-0.22389127744911444 -1.2330623233913318
-0.2314200890260373 -1.363573767980865
-0.23894890060296015 -1.2983180456860985
-0.23894890060296015 -1.2765661382545095
-0.2615353353337287 -1.2548142308229207
-0.2540065237568058 -1.189558508528154
-0.2615353353337287 -1.146054693664976
-0.23894890060296015 -1.146054693664976
-0.2314200890260373 -1.189558508528154
-0.24647771217988299 -1.2113104159597428
-0.27659295848757437 -1.2113104159597428
-0.2615353353337287 -1.2765661382545095
-0.26906414691065156 -1.3200699531176874
-0.27659295848757437 -1.3200699531176874
-0.28412177006449724 -1.363573767980865
-0.27659295848757437 -1.2983180456860985
-0.27659295848757437 -1.2983180456860985
-0.26906414691065156 -1.2765661382545095
-0.26906414691065156 -1.2113104159597428
-0.24647771217988299 -1.146054693664976
-0.22389127744911444 -1.1025508788017984
-0.20883365429526876 -1.146054693664976
-0.20130484271834592 -1.146054693664976
-0.20130484271834592 -1.167806601096565
-0.20130484271834592 -1.167806601096565
-0.20883365429526876 -1.2113104159597428
-0.18624721956450022 -1.2113104159597428
-0.17118959641065454 -1.1243027862333872
-0.14107435010296313 -1.1025508788017984
-0.1184879153721946 -1.0590470639386205
-0.08837266906450321 -0.9067837119174982
-0.08084385748758037 -0.9067837119174982
-0.058257422756811825 -0.8415279896227315
-0.05072861117988898 -0.8632798970543204
-0.035670988026043286 -0.9937913416438539
-0.058257422756811825 -1.0590470639386205
-0.09590148064142606 -1.0590470639386205
-0.08084385748758037 -1.0807989713702093
-0.06578623433373466 -1.0372951565070316
-0.058257422756811825 -1.0155432490754428
-0.035670988026043286 -1.146054693664976
0.017030693012416644 -1.0590470639386205
0.06220356247395373 -1.146054693664976
0.06973237405087657 -1.1243027862333872
0.09231880878164511 -1.146054693664976
0.07726118562779942 -1.146054693664976
0.06220356247395373 -1.167806601096565
0.032088316166262336 -1.1025508788017984
0.017030693012416644 -1.146054693664976
-0.013084553295274743 -1.2113104159597428
-0.013084553295274743 -1.2548142308229207
-0.028142176449120437 -1.2765661382545095
-0.035670988026043286 -1.3418218605492762
-0.04319979960296613 -1.2983180456860985
-0.028142176449120437 -1.3200699531176874
-0.05072861117988898 -1.189558508528154
-0.06578623433373466 -1.189558508528154
-0.1034302922183489 -1.2765661382545095
-0.15613197325680883 -1.2983180456860985
-0.20883365429526876 -1.407077582844043
-0.2540065237568058 -1.407077582844043
-0.2991793932183429 -1.407077582844043
-0.3292946395260343 -1.4723333051388097
-0.33682345110295714 -1.407077582844043
-0.32176582794911146 -1.385325675412454
-0.3292946395260343 -1.3200699531176874
-0.29165058164142005 -1.3200699531176874
-0.26906414691065156 -1.2548142308229207
-0.23894890060296015 -1.3200699531176874
-0.24647771217988299 -1.2983180456860985
-0.24647771217988299 -1.4288294902756318
-0.2540065237568058 -1.385325675412454
-0.26906414691065156 -1.3418218605492762
-0.29165058164142005 -1.363573767980865
-0.26906414691065156 -1.363573767980865
-0.29165058164142005 -1.2548142308229207
-0.2991793932183429 -1.189558508528154
-0.26906414691065156 -1.2330623233913318
-0.28412177006449724 -1.3418218605492762
-0.2540065237568058 -1.4505813977072208
-0.22389127744911444 -1.7116042868862875
-0.148603161679886 -2.037882898360121
0.02455950458933949 -2.4946729544234882
0.2504238518970249 -2.973214917918444
0.5967491844354759 -3.430004973981811
1.0484778790508467 -3.821539307750411
1.575494689435446 -4.169569826655834
2.147684369281582 -4.517600345561256
2.780104541743101 -4.822127049603501
3.3974670910507747 -5.126653753645745
3.9997720172046027 -5.278917105666868
4.511731204435356 -5.278917105666868
4.86558534855073 -5.126653753645745
5.038748014819955 -4.778623234740323
5.046276826396879 -4.256577456382189
4.850527725396884 -3.7127797705924666
4.4364430886661275 -3.234237807097511
3.6534466846661515 -2.799199658465733
2.689758802820027 -2.4946729544234882
1.726070920973903 -2.2336500652444213
0.7623830391277785 -2.103138620654888
-0.20130484271834592 -1.842115731475821
-0.9692436235644762 -1.7116042868862875
-0.7810233341414051 -1.4505813977072208
-0.3594098858337257 -1.363573767980865
0.017030693012416644 -1.363573767980865
0.24289504032010203 -1.2983180456860985
0.24289504032010203 -1.2983180456860985
0.1374916782431822 -1.407077582844043
-0.02061336487219759 -1.363573767980865
-0.15613197325680883 -1.385325675412454
-0.2540065237568058 -1.385325675412454
-0.3067082047952658 -1.3200699531176874
-0.3142370163721886 -1.2548142308229207
-0.26906414691065156 -1.2113104159597428
-0.2163624658721916 -1.167806601096565
-0.20130484271834592 -1.146054693664976
-0.18624721956450022 -1.146054693664976
-0.20883365429526876 -1.2330623233913318
-0.2163624658721916 -1.2983180456860985
-0.2314200890260373 -1.2548142308229207
-0.2540065237568058 -1.2548142308229207
-0.2615353353337287 -1.2765661382545095
-0.23894890060296015 -1.189558508528154
-0.2314200890260373 -1.167806601096565
-0.22389127744911444 -1.167806601096565
-0.19377603114142306 -1.0372951565070316
-0.17871840798757738 -1.0590470639386205
-0.16366078483373167 -1.0590470639386205
-0.14107435010296313 -1.1243027862333872
-0.148603161679886 -1.1025508788017984
-0.148603161679886 -1.1025508788017984
-0.148603161679886 -1.2113104159597428
-0.15613197325680883 -1.1243027862333872
-0.13354553852604029 -1.167806601096565
-0.1184879153721946 -1.1025508788017984
-0.1184879153721946 -1.0590470639386205
-0.08084385748758037 -1.0372951565070316
-0.09590148064142606 -1.0372951565070316
-0.07331504591065752 -0.9937913416438539
-0.07331504591065752 -0.9720394342122649
-0.05072861117988898 -0.9067837119174982
-0.04319979960296613 -0.9067837119174982
-0.035670988026043286 -1.0155432490754428
-0.0055557417183518965 -1.1025508788017984
0.0019730698585709505 -1.0590470639386205
0.032088316166262336 -1.167806601096565
0.04714593932010803 -1.0155432490754428
0.06220356247395373 -0.9285356193490871
0.1073764319354908 -0.9285356193490871
0.14502048982010504 -0.8850318044859092
0.18266454770471927 -0.8415279896227315
0.22030860558933352 -0.7980241747595537
0.2353662287431792 -0.9720394342122649
0.2504238518970249 -0.9067837119174982
0.2730102866277934 -0.8850318044859092
0.28806790978163915 -0.8850318044859092
0.30312553293548483 -0.9067837119174982
0.30312553293548483 -0.8197760821911426
0.3482984023970219 -0.8415279896227315
0.37088483712779047 -0.7762722673279647
0.42358651816625037 -0.7110165450331981
0.4612305760508646 -0.6457608227384314
0.5139322570893246 -0.5805051004436647
0.5741627497047073 -0.6240089153068424
0.6268644307431672 -0.5805051004436647
0.6645084886277814 -0.6457608227384314
0.6720373002047043 -0.6240089153068424
0.6946237349354728 -0.6675127301700202
0.6946237349354728 -0.6457608227384314
0.7096813580893185 -0.7110165450331981
0.7322677928200871 -0.6892646376016092
0.7699118507047014 -0.6675127301700202
0.8075559085893156 -0.6457608227384314
0.8376711548970069 -0.6457608227384314
0.8527287780508527 -0.6022570078752536
0.882844024358544 -0.5152493781488979
0.9054304590893125 -0.6022570078752536
0.9129592706662354 -0.6675127301700202
0.9054304590893125 -0.6457608227384314
0.8753152127816212 -0.7762722673279647
0.8527287780508527 -0.7762722673279647
0.8451999664739298 -0.7762722673279647
0.8301423433200841 -0.8197760821911426
0.8000270970123927 -0.7980241747595537
0.7774406622816241 -0.8197760821911426
0.7774406622816241 -0.7762722673279647
0.7699118507047014 -0.8415279896227315
0.7397966043970099 -0.8197760821911426
0.6795661117816272 -0.8632798970543204
0.6268644307431672 -1.0372951565070316
0.536518691820093 -1.0590470639386205
0.4612305760508646 -1.1243027862333872
0.38594246028163615 -1.2548142308229207
0.30312553293548483 -1.2765661382545095
0.24289504032010203 -1.2765661382545095
0.22030860558933352 -1.3418218605492762
0.1901933592816421 -1.2983180456860985
0.15254930139702788 -1.2983180456860985
0.1224340550893365 -1.2983180456860985
0.1073764319354908 -1.2330623233913318
0.054674750897030874 -1.2983180456860985
0.017030693012416644 -1.3418218605492762
-0.013084553295274743 -1.4940852125703985
-0.035670988026043286 -1.5375890274335764
-0.07331504591065752 -1.5158371200019876
-0.08084385748758037 -1.6028447497283431
-0.13354553852604029 -1.581092842296754
-0.12601672694911745 -1.581092842296754
-0.1184879153721946 -1.4940852125703985
-0.12601672694911745 -1.4288294902756318
-0.14107435010296313 -1.385325675412454
-0.148603161679886 -1.3418218605492762
-0.148603161679886 -1.363573767980865
-0.16366078483373167 -1.4505813977072208
-0.17871840798757738 -1.5593409348651652
-0.18624721956450022 -1.4940852125703985
-0.2163624658721916 -1.581092842296754
-0.2163624658721916 -1.5593409348651652
-0.20130484271834592 -1.5375890274335764
-0.2163624658721916 -1.4723333051388097
-0.17871840798757738 -1.4288294902756318
-0.17118959641065454 -1.407077582844043
-0.148603161679886 -1.407077582844043
-0.13354553852604029 -1.363573767980865
-0.1034302922183489 -1.385325675412454
-0.13354553852604029 -1.385325675412454
-0.14107435010296313 -1.4505813977072208
-0.15613197325680883 -1.4940852125703985
-0.17871840798757738 -1.4940852125703985
-0.19377603114142306 -1.5158371200019876
-0.17118959641065454 -1.4723333051388097
-0.18624721956450022 -1.4288294902756318
-0.15613197325680883 -1.4723333051388097
-0.15613197325680883 -1.407077582844043
-0.13354553852604029 -1.407077582844043
-0.12601672694911745 -1.363573767980865
-0.14107435010296313 -1.363573767980865
-0.15613197325680883 -1.363573767980865
-0.15613197325680883 -1.407077582844043
-0.16366078483373167 -1.4505813977072208
-0.19377603114142306 -1.4723333051388097
-0.19377603114142306 -1.5375890274335764
-0.2163624658721916 -1.5158371200019876
-0.2314200890260373 -1.4940852125703985
-0.20130484271834592 -1.407077582844043
-0.18624721956450022 -1.3418218605492762
-0.17118959641065454 -1.2983180456860985
-0.16366078483373167 -1.2548142308229207
-0.15613197325680883 -1.2983180456860985
-0.16366078483373167 -1.2983180456860985
-0.17871840798757738 -1.4723333051388097
-0.22389127744911444 -1.5375890274335764
-0.26906414691065156 -1.5375890274335764
-0.2314200890260373 -1.5375890274335764
-0.2615353353337287 -1.4940852125703985
-0.2615353353337287 -1.4940852125703985
-0.2615353353337287 -1.4288294902756318
-0.23894890060296015 -1.4288294902756318
-0.20883365429526876 -1.363573767980865
-0.20130484271834592 -1.363573767980865
-0.2314200890260373 -1.4288294902756318
-0.23894890060296015 -1.4940852125703985
-0.23894890060296015 -1.5375890274335764
-0.2615353353337287 -1.5375890274335764
-0.26906414691065156 -1.6463485645915208
-0.27659295848757437 -1.6463485645915208
-0.28412177006449724 -1.6463485645915208
-0.29165058164142005 -1.624596657159932
-0.2991793932183429 -1.5375890274335764
-0.2991793932183429 -1.4940852125703985
-0.28412177006449724 -1.4505813977072208
-0.3067082047952658 -1.4288294902756318
-0.26906414691065156 -1.4288294902756318
-0.2991793932183429 -1.5158371200019876
-0.2991793932183429 -1.5375890274335764
-0.3142370163721886 -1.6681004720231098
-0.32176582794911146 -1.7551081017494654
-0.3142370163721886 -1.6681004720231098
-0.33682345110295714 -1.6463485645915208
-0.32176582794911146 -1.624596657159932
-0.33682345110295714 -1.5593409348651652
-0.3142370163721886 -1.5158371200019876
-0.2991793932183429 -1.4505813977072208
-0.29165058164142005 -1.4505813977072208
-0.3067082047952658 -1.5593409348651652
-0.2991793932183429 -1.581092842296754
-0.3292946395260343 -1.5593409348651652
-0.3292946395260343 -1.6028447497283431
-0.34435226267988 -1.6898523794546987
-0.36693869741064855 -1.624596657159932
-0.3594098858337257 -1.624596657159932
-0.3895251321414171 -1.6681004720231098
-0.3518810742568029 -1.5593409348651652
-0.34435226267988 -1.5593409348651652
-0.3292946395260343 -1.5593409348651652
-0.3292946395260343 -1.5158371200019876
-0.3142370163721886 -1.5375890274335764
-0.3142370163721886 -1.581092842296754
-0.33682345110295714 -1.6681004720231098
-0.3594098858337257 -1.6898523794546987
-0.3594098858337257 -1.7116042868862875
-0.36693869741064855 -1.7333561943178766
-0.38199632056449423 -1.7551081017494654
-0.3970539437183399 -1.6681004720231098
-0.3594098858337257 -1.7116042868862875
-0.3594098858337257 -1.624596657159932
-0.3518810742568029 -1.5158371200019876
-0.3292946395260343 -1.4723333051388097
-0.33682345110295714 -1.5375890274335764
-0.3142370163721886 -1.4940852125703985
-0.3067082047952658 -1.4940852125703985
-0.3142370163721886 -1.5593409348651652
-0.28412177006449724 -1.5158371200019876
-0.2615353353337287 -1.5375890274335764
-0.2540065237568058 -1.4940852125703985
-0.23894890060296015 -1.407077582844043
-0.20883365429526876 -1.363573767980865
-0.20130484271834592 -1.363573767980865
-0.17871840798757738 -1.363573767980865
-0.17871840798757738 -1.3418218605492762
-0.17118959641065454 -1.4288294902756318
-0.17118959641065454 -1.385325675412454
-0.15613197325680883 -1.4723333051388097
-0.18624721956450022 -1.4940852125703985
-0.18624721956450022 -1.6463485645915208
-0.20130484271834592 -1.6463485645915208
-0.17118959641065454 -1.624596657159932
-0.148603161679886 -1.624596657159932
-0.11095910379527175 -1.7333561943178766
-0.08084385748758037 -1.6681004720231098
-0.07331504591065752 -1.581092842296754
-0.06578623433373466 -1.4940852125703985
-0.09590148064142606 -1.5375890274335764
-0.14107435010296313 -1.5593409348651652
-0.13354553852604029 -1.624596657159932
-0.16366078483373167 -1.6681004720231098
-0.19377603114142306 -1.7333561943178766
-0.2314200890260373 -1.7768600091810542
-0.23894890060296015 -1.7768600091810542
-0.23894890060296015 -1.7986119166126433
-0.22389127744911444 -1.7333561943178766
-0.22389127744911444 -1.7116042868862875
-0.2314200890260373 -1.7333561943178766
-0.2540065237568058 -1.7116042868862875
-0.28412177006449724 -1.7768600091810542
-0.3142370163721886 -1.8638676389074098
-0.3895251321414171 -1.9291233612021765
-0.41964037844910845 -1.8856195463389989
-0.44975562475679987 -1.9508752686337656
-0.46481324791064554 -1.8856195463389989
-0.4572844363337227 -1.8638676389074098
-0.4572844363337227 -1.9508752686337656
-0.4346980016029542 -1.8856195463389989
-0.4045827552952628 -1.8638676389074098
-0.41211156687218564 -1.7768600091810542
-0.38199632056449423 -1.7116042868862875
-0.3970539437183399 -1.7551081017494654
-0.37446750898757136 -1.7768600091810542
-0.38199632056449423 -1.6898523794546987
-0.3895251321414171 -1.7116042868862875
-0.4045827552952628 -1.7768600091810542
-0.41964037844910845 -1.7116042868862875
-0.4271691900260313 -1.7116042868862875
-0.442226813179877 -1.7333561943178766
-0.4045827552952628 -1.7768600091810542
-0.3518810742568029 -2.05963480579171
-0.27659295848757437 -2.277153880107599
-0.1184879153721946 -2.6469363064446103
0.12996286666625934 -3.168982084802744
0.46875938762778746 -3.7345316780240556
0.9581321401277725 -4.2348255489506
1.5453794431277545 -4.756871327308734
2.2305012966277338 -5.300669013098457
2.9758536427430955 -5.539939994845934
3.7061483657046117 -5.6704514394354675
4.338568538166131 -5.496436179982757
4.752653174896888 -5.061398031350978
4.9032294064353446 -4.517600345561256
4.782768421204579 -3.930298844908356
4.263280422396902 -3.4735087888449887
3.329707786858469 -3.147230177371155
2.3660199050123447 -3.0819744550763883
1.4023320231662204 -3.0602225476447997
0.43864414132009605 -3.0167187327816216
-0.5250437405260283 -2.9297111030552663
-1.3983858834490785 -2.6469363064446103
-1.1951079708721617 -2.4076653246971325
-0.7960809572952509 -2.1683943429496546
-0.3594098858337257 -1.9291233612021765
-0.06578623433373466 -1.8203638240442321
0.054674750897030874 -1.7551081017494654
0.02455950458933949 -1.7333561943178766
-0.09590148064142606 -1.842115731475821
-0.2163624658721916 -1.842115731475821
-0.33682345110295714 -1.9291233612021765
-0.41211156687218564 -1.8856195463389989
-0.41964037844910845 -1.9073714537705877
-0.4271691900260313 -1.842115731475821
-0.41964037844910845 -1.8203638240442321
-0.4045827552952628 -1.7551081017494654
-0.41211156687218564 -1.7116042868862875
-0.4045827552952628 -1.581092842296754
-0.3970539437183399 -1.624596657159932
-0.36693869741064855 -1.6463485645915208
-0.3594098858337257 -1.6681004720231098
-0.3518810742568029 -1.7333561943178766
-0.37446750898757136 -1.7333561943178766
-0.38199632056449423 -1.7551081017494654
-0.38199632056449423 -1.7986119166126433
-0.36693869741064855 -1.7986119166126433
-0.3518810742568029 -1.7986119166126433
-0.36693869741064855 -1.7333561943178766
-0.32176582794911146 -1.7116042868862875
-0.3142370163721886 -1.624596657159932
-0.2991793932183429 -1.581092842296754
-0.26906414691065156 -1.4723333051388097
-0.2540065237568058 -1.5375890274335764
-0.27659295848757437 -1.581092842296754
-0.2615353353337287 -1.7116042868862875
-0.26906414691065156 -1.7986119166126433
-0.29165058164142005 -1.7551081017494654
-0.27659295848757437 -1.7551081017494654
-0.26906414691065156 -1.6898523794546987
-0.2314200890260373 -1.581092842296754
-0.20130484271834592 -1.581092842296754
-0.18624721956450022 -1.5158371200019876
-0.16366078483373167 -1.5158371200019876
-0.1034302922183489 -1.4723333051388097
-0.08837266906450321 -1.4940852125703985
-0.11095910379527175 -1.5158371200019876
-0.11095910379527175 -1.6681004720231098
-0.1034302922183489 -1.6028447497283431
-0.1034302922183489 -1.624596657159932
-0.08837266906450321 -1.581092842296754
-0.06578623433373466 -1.5593409348651652
-0.04319979960296613 -1.4505813977072208
0.0019730698585709505 -1.4288294902756318
0.03961712774318518 -1.4288294902756318
0.09231880878164511 -1.3200699531176874
0.14502048982010504 -1.2983180456860985
0.17513573612779643 -1.3200699531176874
0.21277979401241065 -1.3418218605492762
0.22783741716625636 -1.407077582844043
0.2654814750508706 -1.3418218605492762
0.30312553293548483 -1.3418218605492762
0.3332407792431762 -1.3418218605492762
0.3633560255508676 -1.3200699531176874
0.3784136487047133 -1.2113104159597428
0.42358651816625037 -1.1025508788017984
0.46875938762778746 -1.0590470639386205
0.5214610686662474 -1.0155432490754428
0.5666339381277845 -0.9937913416438539
0.5967491844354759 -1.1243027862333872
0.6042779960123987 -1.0807989713702093
0.6343932423200901 -1.0807989713702093
0.641922053897013 -1.1243027862333872
0.6569796770508586 -1.1243027862333872
0.6569796770508586 -1.146054693664976
0.6720373002047043 -1.1243027862333872
0.6795661117816272 -1.146054693664976
0.7021525465123957 -1.0590470639386205
0.68709492335855 -0.9067837119174982
0.7021525465123957 -0.950287526780676
0.7172101696662414 -0.9285356193490871
0.68709492335855 -1.0372951565070316
0.6494508654739358 -1.1025508788017984
0.6118068075893215 -1.189558508528154
0.5591051265508616 -1.3200699531176874
0.5214610686662474 -1.385325675412454
0.491345822358556 -1.385325675412454
0.43864414132009605 -1.4288294902756318
0.37088483712779047 -1.4940852125703985
0.3181831560893305 -1.407077582844043
0.2805390982047163 -1.3418218605492762
0.22783741716625636 -1.4940852125703985
0.2052509824354878 -1.4505813977072208
0.14502048982010504 -1.5593409348651652
0.1073764319354908 -1.6681004720231098
0.03961712774318518 -1.7333561943178766
-0.028142176449120437 -1.8203638240442321
-0.09590148064142606 -1.9508752686337656
-0.14107435010296313 -1.7768600091810542
-0.2163624658721916 -1.9073714537705877
-0.22389127744911444 -1.9291233612021765
-0.23894890060296015 -1.842115731475821
-0.24647771217988299 -1.8638676389074098
-0.24647771217988299 -1.7986119166126433
-0.24647771217988299 -1.7551081017494654
-0.2615353353337287 -1.7986119166126433
-0.2991793932183429 -1.7551081017494654
-0.3142370163721886 -1.7986119166126433
-0.34435226267988 -1.842115731475821
-0.36693869741064855 -1.9508752686337656
-0.38199632056449423 -1.9943790834969433
-0.37446750898757136 -1.9726271760653544
-0.3594098858337257 -1.9726271760653544
-0.3518810742568029 -1.9073714537705877
-0.33682345110295714 -1.7986119166126433
-0.33682345110295714 -1.7768600091810542
-0.3292946395260343 -1.7986119166126433
-0.33682345110295714 -1.7551081017494654
-0.3594098858337257 -1.7986119166126433
-0.3518810742568029 -1.842115731475821
-0.3518810742568029 -1.9291233612021765
-0.36693869741064855 -1.9726271760653544
-0.36693869741064855 -1.9291233612021765
-0.37446750898757136 -1.8856195463389989
-0.37446750898757136 -1.8638676389074098
-0.3594098858337257 -1.7986119166126433
-0.3292946395260343 -1.842115731475821
-0.3142370163721886 -1.6898523794546987
-0.28412177006449724 -1.6681004720231098
-0.29165058164142005 -1.6681004720231098
-0.29165058164142005 -1.7986119166126433
-0.28412177006449724 -1.8203638240442321
-0.32176582794911146 -1.8856195463389989
-0.3292946395260343 -1.9943790834969433
-0.33682345110295714 -1.8856195463389989
-0.34435226267988 -1.842115731475821
-0.3594098858337257 -1.9073714537705877
-0.3518810742568029 -1.8203638240442321
-0.33682345110295714 -1.7986119166126433
-0.3067082047952658 -1.7768600091810542
-0.29165058164142005 -1.6898523794546987
-0.2991793932183429 -1.7768600091810542
-0.3067082047952658 -1.7333561943178766
-0.3067082047952658 -1.7986119166126433
-0.33682345110295714 -1.8638676389074098
-0.34435226267988 -1.8856195463389989
-0.34435226267988 -1.9508752686337656
-0.3594098858337257 -1.9073714537705877
-0.37446750898757136 -1.8856195463389989
-0.36693869741064855 -1.842115731475821
-0.36693869741064855 -1.7768600091810542
-0.36693869741064855 -1.7333561943178766
-0.3518810742568029 -1.7116042868862875
-0.3292946395260343 -1.7551081017494654
-0.33682345110295714 -1.7768600091810542
-0.3518810742568029 -1.8638676389074098
-0.36693869741064855 -1.9508752686337656
-0.37446750898757136 -1.9726271760653544
-0.3970539437183399 -1.9508752686337656
-0.4045827552952628 -1.9073714537705877
-0.41211156687218564 -2.016130990928532
-0.4045827552952628 -1.9291233612021765
-0.38199632056449423 -1.9508752686337656
-0.38199632056449423 -1.842115731475821
-0.37446750898757136 -1.842115731475821
-0.36693869741064855 -1.8638676389074098
-0.38199632056449423 -1.9073714537705877
-0.3895251321414171 -2.016130990928532
-0.41211156687218564 -2.016130990928532
-0.41211156687218564 -1.9943790834969433
-0.3970539437183399 -1.9726271760653544
-0.4045827552952628 -1.9943790834969433
-0.41964037844910845 -1.9726271760653544
-0.3970539437183399 -1.9073714537705877
-0.3895251321414171 -1.8856195463389989
-0.37446750898757136 -1.842115731475821
-0.3594098858337257 -1.842115731475821
-0.34435226267988 -1.842115731475821
-0.34435226267988 -1.8856195463389989
-0.36693869741064855 -1.9726271760653544
-0.37446750898757136 -1.9726271760653544
-0.3970539437183399 -2.037882898360121
-0.4045827552952628 -2.05963480579171
-0.41964037844910845 -2.016130990928532
-0.4045827552952628 -1.9943790834969433
-0.41211156687218564 -1.9291233612021765
-0.41964037844910845 -1.9073714537705877
-0.3895251321414171 -1.842115731475821
-0.38199632056449423 -1.8638676389074098
-0.33682345110295714 -1.8638676389074098
-0.3594098858337257 -1.9073714537705877
-0.3594098858337257 -2.016130990928532
-0.36693869741064855 -1.9943790834969433
-0.37446750898757136 -1.9726271760653544
-0.37446750898757136 -1.9508752686337656
-0.3970539437183399 -1.9508752686337656
-0.3895251321414171 -1.9291233612021765
-0.3895251321414171 -1.9291233612021765
-0.36693869741064855 -1.9508752686337656
-0.34435226267988 -1.8856195463389989
-0.32176582794911146 -1.8638676389074098
-0.32176582794911146 -1.9073714537705877
-0.3292946395260343 -1.9073714537705877
-0.3518810742568029 -1.9508752686337656
-0.36693869741064855 -1.9073714537705877
-0.3594098858337257 -1.9726271760653544
-0.3518810742568029 -1.8638676389074098
-0.3292946395260343 -1.7986119166126433
-0.3067082047952658 -1.8203638240442321
-0.2314200890260373 -1.7116042868862875
-0.20130484271834592 -1.6898523794546987
-0.18624721956450022 -1.581092842296754
-0.15613197325680883 -1.624596657159932
-0.17118959641065454 -1.6681004720231098
-0.17871840798757738 -1.7116042868862875
-0.17118959641065454 -1.7333561943178766
-0.20130484271834592 -1.7551081017494654
-0.20130484271834592 -1.7986119166126433
-0.19377603114142306 -1.8203638240442321
-0.18624721956450022 -1.7768600091810542
-0.19377603114142306 -1.7768600091810542
-0.15613197325680883 -1.8856195463389989
-0.09590148064142606 -1.9073714537705877
-0.035670988026043286 -1.9073714537705877
-0.013084553295274743 -1.9291233612021765
-0.013084553295274743 -1.9943790834969433
-0.035670988026043286 -1.9291233612021765
-0.06578623433373466 -1.8856195463389989
-0.09590148064142606 -1.8203638240442321
-0.11095910379527175 -1.8856195463389989
-0.14107435010296313 -1.9943790834969433
-0.19377603114142306 -1.9943790834969433
-0.17871840798757738 -2.081386713223299
-0.18624721956450022 -2.081386713223299
-0.14107435010296313 -1.9726271760653544
-0.14107435010296313 -2.016130990928532
-0.13354553852604029 -1.9291233612021765
-0.16366078483373167 -1.9943790834969433
-0.20130484271834592 -2.037882898360121
-0.2314200890260373 -2.103138620654888
-0.28412177006449724 -2.2118981578128323
-0.33682345110295714 -2.25540197267601
-0.3518810742568029 -2.277153880107599
-0.37446750898757136 -2.2336500652444213
-0.3970539437183399 -2.2118981578128323
-0.38199632056449423 -2.1466424355180656
-0.36693869741064855 -2.124890528086477
-0.3518810742568029 -2.103138620654888
-0.32176582794911146 -2.124890528086477
-0.2991793932183429 -2.1466424355180656
-0.3142370163721886 -2.103138620654888
-0.3142370163721886 -2.103138620654888
-0.33682345110295714 -2.1683943429496546
-0.3292946395260343 -2.124890528086477
-0.3292946395260343 -2.037882898360121
-0.33682345110295714 -2.05963480579171
-0.33682345110295714 -2.05963480579171
-0.32176582794911146 -1.9508752686337656
-0.29165058164142005 -2.081386713223299
-0.2615353353337287 -1.9508752686337656
-0.2314200890260373 -2.05963480579171
-0.17871840798757738 -2.277153880107599
-0.07331504591065752 -2.6251843990130217
0.054674750897030874 -3.1037263625079774
0.25795266347394774 -3.5605164185713445
0.6042779960123987 -4.017306474634712
1.033420255897001 -4.408840808403312
1.5453794431277545 -4.8438789570350895
2.0949826882431224 -5.213661383372101
2.757518107012333 -5.4094285502564015
3.4200535257815434 -5.496436179982757
3.9922432056276795 -5.387676642824812
4.44397190024305 -5.083149938782568
4.6397210012430445 -4.648111790150789
4.534317639166125 -4.104314104361067
4.037416075089217 -3.7997874003188223
3.156545120589244 -3.604020233434522
2.1928572387431196 -3.4735087888449887
1.229169356896995 -3.386501159118633
0.2654814750508706 -3.2994935293922776
-0.6982064067952538 -3.168982084802744
-1.2929825213721586 -2.886207288192088
-1.074646985641396 -2.4946729544234882
-0.6756199720644852 -2.298905787539188
-0.23894890060296015 -2.103138620654888
0.054674750897030874 -2.037882898360121
0.18266454770471927 -1.9943790834969433
0.1676069245508736 -2.081386713223299
0.032088316166262336 -2.124890528086477
-0.08837266906450321 -2.124890528086477
-0.22389127744911444 -2.1466424355180656
-0.29165058164142005 -2.081386713223299
-0.27659295848757437 -1.9943790834969433
-0.2615353353337287 -1.9943790834969433
-0.24647771217988299 -1.8203638240442321
-0.22389127744911444 -1.7768600091810542
-0.20130484271834592 -1.7986119166126433
-0.19377603114142306 -1.842115731475821
-0.20883365429526876 -1.9508752686337656
-0.2163624658721916 -1.9943790834969433
-0.2314200890260373 -2.016130990928532
-0.22389127744911444 -1.9943790834969433
-0.23894890060296015 -1.9726271760653544
-0.2163624658721916 -1.9291233612021765
-0.20130484271834592 -1.9073714537705877
-0.19377603114142306 -1.9073714537705877
-0.18624721956450022 -1.8856195463389989
-0.16366078483373167 -1.9073714537705877
-0.13354553852604029 -1.7986119166126433
-0.14107435010296313 -1.7768600091810542
-0.14107435010296313 -1.842115731475821
-0.14107435010296313 -1.8856195463389989
-0.14107435010296313 -1.9073714537705877
-0.16366078483373167 -1.9291233612021765
-0.148603161679886 -1.8638676389074098
-0.15613197325680883 -1.842115731475821
-0.14107435010296313 -1.8638676389074098
-0.12601672694911745 -1.7551081017494654
-0.1184879153721946 -1.7116042868862875
-0.058257422756811825 -1.6681004720231098
-0.02061336487219759 -1.581092842296754
0.0019730698585709505 -1.6463485645915208
0.009501881435493797 -1.624596657159932
0.02455950458933949 -1.624596657159932
0.02455950458933949 -1.7768600091810542
0.032088316166262336 -1.7986119166126433
0.032088316166262336 -1.7986119166126433
0.02455950458933949 -1.7551081017494654
0.06220356247395373 -1.6898523794546987
0.06973237405087657 -1.6463485645915208
0.09231880878164511 -1.581092842296754
0.11490524351241366 -1.5158371200019876
0.16007811297395072 -1.4505813977072208
0.19772217085856497 -1.4723333051388097
0.21277979401241065 -1.4940852125703985
0.22783741716625636 -1.5593409348651652
0.25795266347394774 -1.5375890274335764
0.2805390982047163 -1.5158371200019876
0.3181831560893305 -1.5375890274335764
0.34076959082009906 -1.5158371200019876
0.37088483712779047 -1.4940852125703985
0.4010000834354818 -1.407077582844043
0.4612305760508646 -1.2765661382545095
0.5214610686662474 -1.2765661382545095
0.5515763149739388 -1.167806601096565
0.5967491844354759 -1.167806601096565
0.6118068075893215 -1.189558508528154
0.6494508654739358 -1.167806601096565
0.6720373002047043 -1.2330623233913318
0.6795661117816272 -1.2548142308229207
0.7172101696662414 -1.167806601096565
0.7397966043970099 -1.189558508528154
0.7623830391277785 -1.1025508788017984
0.7774406622816241 -0.9937913416438539
0.7924982854354699 -1.0155432490754428
0.8226135317431612 -0.9937913416438539
0.8451999664739298 -0.8850318044859092
0.8527287780508527 -0.9720394342122649
0.8301423433200841 -0.9937913416438539
0.8075559085893156 -1.0372951565070316
0.7623830391277785 -1.1243027862333872
0.7397966043970099 -1.2330623233913318
0.7172101696662414 -1.2330623233913318
0.6795661117816272 -1.3200699531176874
0.6569796770508586 -1.4288294902756318
0.589220372858553 -1.3200699531176874
0.5741627497047073 -1.3418218605492762
0.5289898802431702 -1.4505813977072208
0.5064034455124017 -1.385325675412454
0.4461729528970189 -1.5375890274335764
0.38594246028163615 -1.4940852125703985
0.3332407792431762 -1.6681004720231098
0.25795266347394774 -1.7768600091810542
0.1676069245508736 -1.842115731475821
0.1374916782431822 -1.8638676389074098
0.1073764319354908 -1.8638676389074098
0.06220356247395373 -1.8203638240442321
0.017030693012416644 -1.7768600091810542
0.017030693012416644 -1.7551081017494654
0.017030693012416644 -1.7551081017494654
0.009501881435493797 -1.7551081017494654
-0.0055557417183518965 -1.7986119166126433
-0.0055557417183518965 -1.8638676389074098
-0.04319979960296613 -1.9508752686337656
-0.08837266906450321 -1.9726271760653544
-0.08084385748758037 -1.9726271760653544
-0.08837266906450321 -1.9726271760653544
-0.1034302922183489 -1.9726271760653544
-0.1184879153721946 -1.9073714537705877
-0.1034302922183489 -1.8856195463389989
-0.1034302922183489 -1.8856195463389989
-0.09590148064142606 -1.8203638240442321
-0.08084385748758037 -1.7768600091810542
-0.058257422756811825 -1.7986119166126433
-0.08084385748758037 -1.7768600091810542
-0.09590148064142606 -1.8856195463389989
-0.1034302922183489 -1.9726271760653544
-0.12601672694911745 -1.9508752686337656
-0.16366078483373167 -1.9943790834969433
-0.15613197325680883 -1.9508752686337656
-0.148603161679886 -1.8638676389074098
-0.12601672694911745 -1.8203638240442321
-0.07331504591065752 -1.7986119166126433
-0.06578623433373466 -1.7333561943178766
-0.04319979960296613 -1.6898523794546987
-0.04319979960296613 -1.7116042868862875
-0.028142176449120437 -1.7768600091810542
-0.04319979960296613 -1.8856195463389989
-0.07331504591065752 -1.9508752686337656
-0.08084385748758037 -1.8856195463389989
-0.08837266906450321 -1.9508752686337656
-0.11095910379527175 -1.8856195463389989
-0.1034302922183489 -1.8203638240442321
-0.09590148064142606 -1.842115731475821
-0.08084385748758037 -1.7768600091810542
-0.06578623433373466 -1.7551081017494654
-0.035670988026043286 -1.6898523794546987
-0.013084553295274743 -1.7116042868862875
-0.0055557417183518965 -1.6898523794546987
-0.035670988026043286 -1.7551081017494654
-0.06578623433373466 -1.8203638240442321
-0.06578623433373466 -1.8203638240442321
-0.08084385748758037 -1.842115731475821
-0.08084385748758037 -1.7768600091810542
-0.13354553852604029 -1.7986119166126433
-0.13354553852604029 -1.7333561943178766
-0.13354553852604029 -1.6681004720231098
-0.12601672694911745 -1.6463485645915208
-0.11095910379527175 -1.6681004720231098
-0.1184879153721946 -1.6898523794546987
-0.11095910379527175 -1.7333561943178766
-0.11095910379527175 -1.842115731475821
-0.13354553852604029 -1.7333561943178766
-0.16366078483373167 -1.7768600091810542
-0.15613197325680883 -1.7551081017494654
-0.15613197325680883 -1.8203638240442321
-0.17871840798757738 -1.7768600091810542
-0.17118959641065454 -1.7768600091810542
-0.15613197325680883 -1.7333561943178766
-0.13354553852604029 -1.6681004720231098
-0.1184879153721946 -1.6028447497283431
-0.12601672694911745 -1.6681004720231098
-0.14107435010296313 -1.6681004720231098
-0.15613197325680883 -1.6681004720231098
-0.16366078483373167 -1.7333561943178766
-0.17118959641065454 -1.7986119166126433
-0.16366078483373167 -1.8203638240442321
-0.17871840798757738 -1.8203638240442321
-0.17118959641065454 -1.7768600091810542
-0.17871840798757738 -1.7116042868862875
-0.16366078483373167 -1.7116042868862875
-0.17118959641065454 -1.581092842296754
-0.148603161679886 -1.624596657159932
-0.148603161679886 -1.6463485645915208
-0.148603161679886 -1.7333561943178766
-0.148603161679886 -1.7116042868862875
-0.148603161679886 -1.7551081017494654
-0.15613197325680883 -1.7768600091810542
-0.18624721956450022 -1.7333561943178766
-0.20130484271834592 -1.7116042868862875
-0.20883365429526876 -1.6463485645915208
-0.19377603114142306 -1.6681004720231098
-0.19377603114142306 -1.624596657159932
-0.19377603114142306 -1.581092842296754
-0.17118959641065454 -1.581092842296754
-0.17118959641065454 -1.6028447497283431
-0.14107435010296313 -1.6681004720231098
-0.148603161679886 -1.6681004720231098
-0.17118959641065454 -1.6681004720231098
-0.17118959641065454 -1.7333561943178766
-0.19377603114142306 -1.7551081017494654
-0.2163624658721916 -1.7116042868862875
-0.20883365429526876 -1.6681004720231098
-0.2163624658721916 -1.624596657159932
-0.20883365429526876 -1.6898523794546987
-0.20883365429526876 -1.624596657159932
-0.17871840798757738 -1.624596657159932
-0.16366078483373167 -1.624596657159932
-0.17118959641065454 -1.581092842296754
-0.17118959641065454 -1.5593409348651652
-0.17118959641065454 -1.6028447497283431
-0.17118959641065454 -1.624596657159932
-0.15613197325680883 -1.581092842296754
-0.15613197325680883 -1.6463485645915208
-0.12601672694911745 -1.4940852125703985
-0.09590148064142606 -1.407077582844043
-0.05072861117988898 -1.3418218605492762
-0.02061336487219759 -1.3418218605492762
-0.0055557417183518965 -1.2330623233913318
0.009501881435493797 -1.2765661382545095
0.009501881435493797 -1.3200699531176874
-0.0055557417183518965 -1.407077582844043
-0.0055557417183518965 -1.4288294902756318
-0.035670988026043286 -1.4723333051388097
-0.05072861117988898 -1.4940852125703985
-0.035670988026043286 -1.5158371200019876
-0.035670988026043286 -1.4723333051388097
-0.013084553295274743 -1.4505813977072208
0.04714593932010803 -1.407077582844043
0.07726118562779942 -1.4505813977072208
0.11490524351241366 -1.407077582844043
0.1374916782431822 -1.4940852125703985
0.12996286666625934 -1.4505813977072208
0.1224340550893365 -1.4940852125703985
0.06973237405087657 -1.4505813977072208
0.054674750897030874 -1.4505813977072208
0.017030693012416644 -1.4505813977072208
-0.0055557417183518965 -1.4505813977072208
0.02455950458933949 -1.4940852125703985
0.017030693012416644 -1.4288294902756318
-0.0055557417183518965 -1.407077582844043
-0.0055557417183518965 -1.4505813977072208
0.009501881435493797 -1.4288294902756318
0.017030693012416644 -1.4505813977072208
-0.02061336487219759 -1.5158371200019876
-0.028142176449120437 -1.581092842296754
-0.08084385748758037 -1.624596657159932
-0.1184879153721946 -1.6463485645915208
-0.17118959641065454 -1.7116042868862875
-0.23894890060296015 -1.6463485645915208
-0.2615353353337287 -1.6463485645915208
-0.28412177006449724 -1.5593409348651652
-0.29165058164142005 -1.5375890274335764
-0.29165058164142005 -1.5158371200019876
-0.26906414691065156 -1.4940852125703985
-0.2615353353337287 -1.4288294902756318
-0.2540065237568058 -1.5158371200019876
-0.24647771217988299 -1.4940852125703985
-0.2615353353337287 -1.624596657159932
-0.28412177006449724 -1.581092842296754
-0.28412177006449724 -1.6028447497283431
-0.27659295848757437 -1.581092842296754
-0.27659295848757437 -1.4940852125703985
-0.2540065237568058 -1.4940852125703985
-0.22389127744911444 -1.363573767980865
-0.2163624658721916 -1.2765661382545095
-0.18624721956450022 -1.2330623233913318
-0.20130484271834592 -1.2765661382545095
-0.2163624658721916 -1.385325675412454
-0.20883365429526876 -1.4940852125703985
-0.19377603114142306 -1.6681004720231098
-0.13354553852604029 -2.016130990928532
-0.0055557417183518965 -2.472921046991899
0.16007811297395072 -2.886207288192088
0.46875938762778746 -3.2559897145290995
0.8753152127816212 -3.625772140866111
1.379745588435452 -3.9738026597715335
1.9368776451277425 -4.256577456382189
2.501538513396956 -4.626359882719201
3.1038434395507837 -4.887382771898268
3.7061483657046117 -5.104901846214156
4.210578741358442 -5.191909475940512
4.594548131781507 -4.974390401624623
4.790297232781501 -4.669863697582378
4.805354855935347 -4.2348255489506
4.624663378089199 -3.625772140866111
4.180463495050751 -3.212485899665922
3.4200535257815434 -2.8427034733289105
2.456365643935419 -2.559928676718255
1.4926777620892946 -2.4076653246971325
0.5289898802431702 -2.1901462503812437
-0.4346980016029542 -2.016130990928532
-0.9692436235644762 -1.842115731475821
-0.8864266962183249 -1.6463485645915208
-0.5476301752567969 -1.5375890274335764
-0.17118959641065454 -1.4723333051388097
0.07726118562779942 -1.385325675412454
0.2052509824354878 -1.385325675412454
0.17513573612779643 -1.363573767980865
0.07726118562779942 -1.3200699531176874
-0.05072861117988898 -1.3418218605492762
-0.15613197325680883 -1.2548142308229207
-0.17871840798757738 -1.1025508788017984
-0.2314200890260373 -1.0807989713702093
-0.16366078483373167 -1.1025508788017984
-0.20130484271834592 -1.1025508788017984
-0.20130484271834592 -1.0807989713702093
-0.2163624658721916 -1.189558508528154
-0.2314200890260373 -1.146054693664976
-0.2540065237568058 -1.1243027862333872
-0.2540065237568058 -1.1243027862333872
-0.23894890060296015 -1.0590470639386205
-0.2314200890260373 -0.9937913416438539
-0.20130484271834592 -0.9937913416438539
-0.19377603114142306 -0.950287526780676
-0.17871840798757738 -0.9720394342122649
-0.16366078483373167 -1.0372951565070316
-0.16366078483373167 -0.950287526780676
-0.17118959641065454 -1.0372951565070316
-0.19377603114142306 -1.0372951565070316
-0.17118959641065454 -1.0155432490754428
-0.18624721956450022 -1.0807989713702093
-0.20130484271834592 -0.9285356193490871
-0.17871840798757738 -0.9285356193490871
-0.17118959641065454 -0.9067837119174982
-0.148603161679886 -0.8632798970543204
-0.11095910379527175 -0.7762722673279647
-0.09590148064142606 -0.9067837119174982
-0.07331504591065752 -0.8850318044859092
-0.06578623433373466 -0.9937913416438539
-0.06578623433373466 -1.0155432490754428
-0.09590148064142606 -0.950287526780676
-0.08084385748758037 -0.9720394342122649
-0.1034302922183489 -0.9285356193490871
-0.1034302922183489 -0.8850318044859092
-0.08084385748758037 -0.9285356193490871
-0.028142176449120437 -0.8197760821911426
0.009501881435493797 -0.7762722673279647
0.017030693012416644 -0.7110165450331981
0.04714593932010803 -0.7110165450331981
0.03961712774318518 -0.6675127301700202
0.07726118562779942 -0.6457608227384314
0.06220356247395373 -0.7545203598963759
0.08478999720472226 -0.7545203598963759
0.09231880878164511 -0.7762722673279647
0.1073764319354908 -0.7545203598963759
0.12996286666625934 -0.7110165450331981
0.16007811297395072 -0.5587531930120757
0.17513573612779643 -0.47174556328572015
0.22783741716625636 -0.47174556328572015
0.2504238518970249 -0.44999365585413126
0.29559672135856196 -0.44999365585413126
0.3181831560893305 -0.38473793355936453
0.3257119676662534 -0.4282417484225423
0.3332407792431762 -0.47174556328572015
0.3482984023970219 -0.47174556328572015
0.3784136487047133 -0.47174556328572015
0.37088483712779047 -0.44999365585413126
0.43864414132009605 -0.3194822112645978
0.47628819920471027 -0.23247458153824221
0.5289898802431702 -0.25422648896983113
0.5666339381277845 -0.1889707666750644
0.6193356191662444 -0.12371504438029769
0.6569796770508586 -0.0802112295171199
0.68709492335855 -0.12371504438029769
0.7096813580893185 -0.05845932208553099
0.7397966043970099 -0.1454669518118866
0.7473254159739328 -0.12371504438029769
0.7172101696662414 -0.12371504438029769
0.7397966043970099 -0.16721885924347551
0.7397966043970099 -0.10196313694870879
0.7548542275508556 -0.0802112295171199
0.7623830391277785 -0.014955507222353184
0.784969473858547 -0.03670741465394209
0.7924982854354699 -0.014955507222353184
0.8000270970123927 -0.03670741465394209
0.784969473858547 -0.0802112295171199
0.7548542275508556 -0.23247458153824221
0.7397966043970099 -0.3194822112645978
0.68709492335855 -0.44999365585413126
0.6569796770508586 -0.44999365585413126
0.5967491844354759 -0.5152493781488979
0.5666339381277845 -0.49349747071730904
0.4988746339354788 -0.5152493781488979
0.4537017644739417 -0.49349747071730904
0.39347127185855896 -0.5805051004436647
0.34076959082009906 -0.5587531930120757
0.31065434451240764 -0.6675127301700202
0.25795266347394774 -0.6892646376016092
0.2052509824354878 -0.7980241747595537
0.12996286666625934 -0.8632798970543204
0.07726118562779942 -0.950287526780676
0.04714593932010803 -0.9067837119174982
0.0019730698585709505 -0.9937913416438539
-0.02061336487219759 -0.9937913416438539
-0.058257422756811825 -0.9937913416438539
-0.07331504591065752 -0.950287526780676
-0.08837266906450321 -0.9285356193490871
-0.11095910379527175 -0.9067837119174982
-0.07331504591065752 -0.9285356193490871
-0.08837266906450321 -0.950287526780676
-0.1184879153721946 -0.9720394342122649
-0.14107435010296313 -0.9937913416438539
-0.18624721956450022 -1.0155432490754428
-0.19377603114142306 -1.0590470639386205
-0.2163624658721916 -1.0372951565070316
-0.20883365429526876 -1.0155432490754428
-0.18624721956450022 -0.950287526780676
-0.17871840798757738 -0.8850318044859092
-0.14107435010296313 -0.7980241747595537
-0.11095910379527175 -0.7545203598963759
-0.11095910379527175 -0.7545203598963759
-0.1034302922183489 -0.8415279896227315
-0.12601672694911745 -0.8850318044859092
-0.13354553852604029 -0.9937913416438539
-0.14107435010296313 -0.9720394342122649
-0.16366078483373167 -0.9720394342122649
-0.15613197325680883 -0.9937913416438539
-0.17118959641065454 -0.9937913416438539
-0.148603161679886 -0.9067837119174982
-0.148603161679886 -0.8415279896227315
-0.1184879153721946 -0.7545203598963759
-0.1034302922183489 -0.7545203598963759
-0.08837266906450321 -0.6675127301700202
-0.07331504591065752 -0.6892646376016092
-0.08084385748758037 -0.732768452464787
-0.1034302922183489 -0.7762722673279647
-0.15613197325680883 -0.7980241747595537
-0.15613197325680883 -0.8197760821911426
-0.148603161679886 -0.8632798970543204
-0.12601672694911745 -0.8850318044859092
-0.13354553852604029 -0.7762722673279647
-0.14107435010296313 -0.7980241747595537
-0.13354553852604029 -0.7762722673279647
-0.11095910379527175 -0.6457608227384314
-0.08837266906450321 -0.6240089153068424
-0.11095910379527175 -0.7110165450331981
-0.1184879153721946 -0.6892646376016092
-0.13354553852604029 -0.7762722673279647
-0.15613197325680883 -0.8197760821911426
-0.16366078483373167 -0.7980241747595537
-0.17118959641065454 -0.7980241747595537
-0.16366078483373167 -0.7545203598963759
-0.16366078483373167 -0.732768452464787
-0.15613197325680883 -0.6240089153068424
-0.15613197325680883 -0.6240089153068424
-0.148603161679886 -0.6457608227384314
-0.148603161679886 -0.7110165450331981
-0.14107435010296313 -0.6022570078752536
-0.16366078483373167 -0.7545203598963759
-0.20883365429526876 -0.7762722673279647
-0.2163624658721916 -0.732768452464787
-0.2163624658721916 -0.7545203598963759
-0.23894890060296015 -0.8197760821911426
-0.24647771217988299 -0.7545203598963759
-0.24647771217988299 -0.7545203598963759
-0.22389127744911444 -0.7110165450331981
-0.22389127744911444 -0.6240089153068424
-0.20883365429526876 -0.6675127301700202
-0.20130484271834592 -0.6457608227384314
-0.20130484271834592 -0.6892646376016092
-0.22389127744911444 -0.6457608227384314
-0.23894890060296015 -0.732768452464787
-0.24647771217988299 -0.7110165450331981
-0.28412177006449724 -0.7545203598963759
-0.26906414691065156 -0.7762722673279647
-0.27659295848757437 -0.732768452464787
-0.28412177006449724 -0.6892646376016092
-0.2540065237568058 -0.6892646376016092
-0.2615353353337287 -0.6240089153068424
-0.2314200890260373 -0.5587531930120757
-0.2314200890260373 -0.5587531930120757
-0.24647771217988299 -0.6457608227384314
-0.24647771217988299 -0.7110165450331981
-0.26906414691065156 -0.7980241747595537
-0.27659295848757437 -0.7110165450331981
-0.29165058164142005 -0.732768452464787
-0.29165058164142005 -0.7545203598963759
-0.3067082047952658 -0.6892646376016092
-0.32176582794911146 -0.6892646376016092
-0.29165058164142005 -0.6892646376016092
-0.29165058164142005 -0.7110165450331981
-0.26906414691065156 -0.49349747071730904
-0.28412177006449724 -0.5152493781488979
-0.28412177006449724 -0.6022570078752536
-0.2991793932183429 -0.5370012855804869
-0.28412177006449724 -0.6240089153068424
-0.2991793932183429 -0.7110165450331981
-0.2991793932183429 -0.6892646376016092
-0.3142370163721886 -0.7110165450331981
-0.3067082047952658 -0.6675127301700202
-0.3067082047952658 -0.6240089153068424
-0.29165058164142005 -0.6022570078752536
-0.29165058164142005 -0.5370012855804869
-0.27659295848757437 -0.5152493781488979
-0.24647771217988299 -0.49349747071730904
-0.24647771217988299 -0.5805051004436647
-0.26906414691065156 -0.5805051004436647
-0.29165058164142005 -0.5805051004436647
-0.29165058164142005 -0.5152493781488979
-0.29165058164142005 -0.44999365585413126
-0.26906414691065156 -0.38473793355936453
-0.2314200890260373 -0.34123411869618675
-0.17871840798757738 -0.34123411869618675
-0.148603161679886 -0.27597839640142
-0.1184879153721946 -0.25422648896983113
-0.08837266906450321 -0.23247458153824221
-0.11095910379527175 -0.23247458153824221
-0.1184879153721946 -0.34123411869618675
-0.11095910379527175 -0.3194822112645978
-0.09590148064142606 -0.3194822112645978
-0.11095910379527175 -0.36298602612777564
-0.13354553852604029 -0.34123411869618675
-0.12601672694911745 -0.3194822112645978
-0.13354553852604029 -0.38473793355936453
-0.12601672694911745 -0.34123411869618675
-0.11095910379527175 -0.2977303038330089
-0.06578623433373466 -0.36298602612777564
-0.02061336487219759 -0.25422648896983113
0.02455950458933949 -0.36298602612777564
0.03961712774318518 -0.36298602612777564
0.032088316166262336 -0.4282417484225423
-0.013084553295274743 -0.4064898409909534
-0.035670988026043286 -0.4282417484225423
-0.06578623433373466 -0.4282417484225423
-0.07331504591065752 -0.36298602612777564
-0.09590148064142606 -0.36298602612777564
-0.09590148064142606 -0.36298602612777564
-0.09590148064142606 -0.4064898409909534
-0.1034302922183489 -0.38473793355936453
-0.14107435010296313 -0.4064898409909534
-0.17871840798757738 -0.44999365585413126
-0.2314200890260373 -0.4282417484225423
-0.2615353353337287 -0.5152493781488979
-0.3067082047952658 -0.44999365585413126
-0.3518810742568029 -0.49349747071730904
-0.37446750898757136 -0.49349747071730904
-0.41211156687218564 -0.5152493781488979
-0.4271691900260313 -0.5152493781488979
-0.44975562475679987 -0.5370012855804869
-0.41964037844910845 -0.49349747071730904
-0.3970539437183399 -0.5152493781488979
-0.3594098858337257 -0.44999365585413126
-0.32176582794911146 -0.4064898409909534
-0.34435226267988 -0.47174556328572015
-0.3594098858337257 -0.44999365585413126
-0.38199632056449423 -0.49349747071730904
-0.3970539437183399 -0.5587531930120757
-0.41211156687218564 -0.44999365585413126
-0.4045827552952628 -0.38473793355936453
-0.442226813179877 -0.25422648896983113
-0.44975562475679987 -0.23247458153824221
-0.4346980016029542 -0.25422648896983113
-0.3970539437183399 -0.27597839640142
-0.3594098858337257 -0.2977303038330089
-0.3067082047952658 -0.5805051004436647
-0.2314200890260373 -0.9285356193490871
-0.1034302922183489 -1.2765661382545095
0.08478999720472226 -1.7333561943178766
0.3633560255508676 -2.1466424355180656
0.7096813580893185 -2.6251843990130217
1.1463524295508436 -3.1254782699395665
1.6583116167815972 -3.4952606962765778
2.2455589197815793 -3.9738026597715335
2.900565526973867 -4.147817919224245
3.555572134166155 -4.213073641519012
4.135290625589214 -4.017306474634712
4.556904073896893 -3.625772140866111
4.752653174896888 -3.0819744550763883
4.6096057549353535 -2.538176769286666
4.105175379281523 -2.037882898360121
3.1640739321661666 -1.7986119166126433
2.2003860503200423 -1.6028447497283431
1.2366981684739178 -1.4723333051388097
0.2730102866277934 -1.2765661382545095
-0.6906775952183309 -0.9720394342122649
-1.2026367824490845 -0.732768452464787
-0.9240707541029392 -0.5152493781488979
-0.5099861173721826 -0.23247458153824221
-0.14107435010296313 -0.25422648896983113
0.04714593932010803 -0.1454669518118866
0.06973237405087657 -0.2107226741066533
-0.058257422756811825 -0.23247458153824221
-0.20883365429526876 -0.36298602612777564
-0.3594098858337257 -0.27597839640142
-0.442226813179877 -0.23247458153824221
-0.4873996826414141 -0.1889707666750644
-0.5024573057952598 -0.10196313694870879
-0.4572844363337227 -0.0802112295171199
-0.4271691900260313 -0.014955507222353184
-0.41211156687218564 0.006796400209235718
-0.3970539437183399 0.05030021507241352
-0.41211156687218564 0.02854830764082462
-0.4271691900260313 -0.014955507222353184
-0.44975562475679987 -0.03670741465394209
-0.46481324791064554 -0.12371504438029769
-0.46481324791064554 -0.1454669518118866
-0.46481324791064554 -0.0802112295171199
-0.4798708710644912 -0.10196313694870879
-0.46481324791064554 -0.0802112295171199
-0.442226813179877 -0.014955507222353184
-0.4045827552952628 0.18081165966194693
-0.3895251321414171 0.18081165966194693
-0.3594098858337257 0.18081165966194693
-0.3594098858337257 0.2678192893883026
-0.36693869741064855 0.13730784479876915
-0.3895251321414171 0.05030021507241352
-0.37446750898757136 0.02854830764082462
-0.3970539437183399 -0.03670741465394209
-0.3970539437183399 -0.014955507222353184
-0.38199632056449423 0.05030021507241352
-0.37446750898757136 0.07205212250400242
-0.3518810742568029 0.15905975223035804
-0.33682345110295714 0.24606738195671365
-0.32176582794911146 0.24606738195671365
-0.29165058164142005 0.22431547452512474
-0.29165058164142005 0.15905975223035804
-0.28412177006449724 0.20256356709353585
-0.26906414691065156 0.18081165966194693
-0.28412177006449724 0.13730784479876915
-0.26906414691065156 0.15905975223035804
-0.2615353353337287 0.18081165966194693
-0.24647771217988299 0.20256356709353585
-0.2163624658721916 0.28957119681989146
-0.18624721956450022 0.35482691911465813
-0.17118959641065454 0.31132310425148035
-0.14107435010296313 0.4635864562726027
-0.08837266906450321 0.44183454884101375
-0.08084385748758037 0.44183454884101375
-0.09590148064142606 0.44183454884101375
-0.08084385748758037 0.39833073397783597
-0.05072861117988898 0.42008264140942486
-0.04319979960296613 0.44183454884101375
-0.02061336487219759 0.4635864562726027
0.02455950458933949 0.5070902711357804
0.032088316166262336 0.5505940859989583
0.09231880878164511 0.6593536231569028
0.12996286666625934 0.6811055305884917
0.18266454770471927 0.8333688826096141
0.24289504032010203 0.8551207900412029
0.30312553293548483 0.8333688826096141
0.3332407792431762 0.8333688826096141
0.3482984023970219 0.7681131603148473
0.35582721397394473 0.6811055305884917
0.37088483712779047 0.6593536231569028
0.4010000834354818 0.7246093454516696
0.4160577065893275 0.7681131603148473
0.4537017644739417 0.8986246049043807
0.491345822358556 0.9421284197675586
0.536518691820093 0.9638803271991474
0.5591051265508616 1.0291360494939141
0.5741627497047073 0.9638803271991474
0.5741627497047073 0.9638803271991474
0.5816915612816301 0.8768726974727918
0.5741627497047073 0.8768726974727918
0.5666339381277845 0.7681131603148473
0.5440475033970159 0.7681131603148473
0.536518691820093 0.7898650677464362
0.5214610686662474 0.7681131603148473
0.48381701078163314 0.7681131603148473
0.4988746339354788 0.8116169751780251
0.46875938762778746 0.7463612528832584
0.4537017644739417 0.7463612528832584
0.42358651816625037 0.615849808293725
0.35582721397394473 0.5288421785673694
0.31065434451240764 0.4635864562726027
0.2353662287431792 0.35482691911465813
0.14502048982010504 0.18081165966194693
0.07726118562779942 0.18081165966194693
0.0019730698585709505 0.13730784479876915
-0.1034302922183489 0.13730784479876915
-0.15613197325680883 0.13730784479876915
-0.19377603114142306 0.15905975223035804
-0.23894890060296015 0.15905975223035804
-0.28412177006449724 0.18081165966194693
-0.2615353353337287 0.15905975223035804
-0.2991793932183429 0.13730784479876915
-0.3142370163721886 0.09380402993559132
-0.34435226267988 0.02854830764082462
-0.37446750898757136 -0.05845932208553099
-0.41964037844910845 -0.0802112295171199
-0.442226813179877 -0.014955507222353184
-0.4723420594875684 -0.0802112295171199
-0.4873996826414141 0.02854830764082462
-0.4798708710644912 0.07205212250400242
-0.4873996826414141 0.07205212250400242
-0.4723420594875684 0.05030021507241352
-0.4572844363337227 0.09380402993559132
-0.4798708710644912 0.05030021507241352
-0.4723420594875684 0.09380402993559132
-0.4873996826414141 0.02854830764082462
-0.49492849421833696 -0.03670741465394209
-0.49492849421833696 -0.014955507222353184
-0.5024573057952598 -0.03670741465394209
-0.5024573057952598 -0.03670741465394209
-0.5099861173721826 -0.03670741465394209
-0.49492849421833696 0.05030021507241352
-0.4798708710644912 0.13730784479876915
-0.4572844363337227 0.15905975223035804
-0.442226813179877 0.2678192893883026
-0.4572844363337227 0.18081165966194693
-0.44975562475679987 0.09380402993559132
-0.46481324791064554 0.07205212250400242
-0.4723420594875684 0.02854830764082462
-0.49492849421833696 -0.014955507222353184
-0.5099861173721826 0.02854830764082462
-0.49492849421833696 0.07205212250400242
-0.4723420594875684 0.11555593736718023
-0.49492849421833696 0.15905975223035804
-0.4723420594875684 0.20256356709353585
-0.46481324791064554 0.22431547452512474
-0.4346980016029542 0.2678192893883026
-0.44975562475679987 0.20256356709353585
-0.44975562475679987 0.22431547452512474
-0.46481324791064554 0.13730784479876915
-0.4723420594875684 0.18081165966194693
-0.4798708710644912 0.13730784479876915
-0.5024573057952598 0.07205212250400242
-0.5250437405260283 -0.014955507222353184
-0.5325725521029512 0.09380402993559132
-0.5024573057952598 0.11555593736718023
-0.4873996826414141 0.13730784479876915
-0.4873996826414141 0.13730784479876915
-0.4572844363337227 0.22431547452512474
-0.4723420594875684 0.13730784479876915
-0.49492849421833696 0.11555593736718023
-0.4873996826414141 0.09380402993559132
-0.5175149289491054 0.02854830764082462
-0.5325725521029512 -0.014955507222353184
-0.5551589868337197 -0.014955507222353184
-0.5476301752567969 0.006796400209235718
-0.5626877984106425 0.05030021507241352
-0.5626877984106425 0.09380402993559132
-0.5551589868337197 0.13730784479876915
-0.540101363679874 0.11555593736718023
-0.540101363679874 0.20256356709353585
-0.5476301752567969 0.09380402993559132
-0.540101363679874 0.09380402993559132
-0.5702166099875654 0.11555593736718023
-0.5626877984106425 0.09380402993559132
-0.5777454215644883 0.006796400209235718
-0.6003318562952568 0.09380402993559132
-0.6078606678721796 0.05030021507241352
-0.6003318562952568 0.07205212250400242
-0.6078606678721796 0.18081165966194693
-0.6078606678721796 0.18081165966194693
-0.5626877984106425 0.22431547452512474
-0.5626877984106425 0.24606738195671365
-0.5702166099875654 0.28957119681989146
-0.5852742331414111 0.13730784479876915
-0.5852742331414111 0.07205212250400242
-0.6078606678721796 0.11555593736718023
-0.637975914179871 0.02854830764082462
-0.6530335373337167 0.05030021507241352
-0.6530335373337167 0.07205212250400242
-0.6605623489106396 0.07205212250400242
-0.6605623489106396 0.18081165966194693
-0.6078606678721796 0.20256356709353585
-0.6078606678721796 0.22431547452512474
-0.5777454215644883 0.31132310425148035
-0.6003318562952568 0.22431547452512474
-0.5928030447183339 0.13730784479876915
-0.6078606678721796 0.05030021507241352
-0.6153894794491025 0.07205212250400242
-0.6304471026029482 0.02854830764082462
-0.6304471026029482 0.07205212250400242
-0.6530335373337167 0.02854830764082462
-0.6530335373337167 0.15905975223035804
-0.6455047257567939 0.22431547452512474
-0.6530335373337167 0.18081165966194693
-0.6304471026029482 0.24606738195671365
-0.6153894794491025 0.20256356709353585
-0.6078606678721796 0.22431547452512474
-0.6078606678721796 0.11555593736718023
-0.637975914179871 0.09380402993559132
-0.6304471026029482 0.11555593736718023
-0.6455047257567939 0.09380402993559132
-0.637975914179871 0.18081165966194693
-0.6304471026029482 0.22431547452512474
-0.6003318562952568 0.24606738195671365
-0.5626877984106425 0.35482691911465813
-0.5325725521029512 0.44183454884101375
-0.5175149289491054 0.3765788265462471
-0.4723420594875684 0.5505940859989583
-0.4572844363337227 0.4635864562726027
-0.4798708710644912 0.4853383637041916
-0.4723420594875684 0.42008264140942486
-0.4798708710644912 0.33307501168306924
-0.4798708710644912 0.28957119681989146
-0.5099861173721826 0.2678192893883026
-0.5024573057952598 0.28957119681989146
-0.4798708710644912 0.2678192893883026
-0.46481324791064554 0.31132310425148035
-0.4045827552952628 0.31132310425148035
-0.3518810742568029 0.35482691911465813
-0.3142370163721886 0.28957119681989146
-0.3292946395260343 0.20256356709353585
-0.29165058164142005 0.18081165966194693
-0.33682345110295714 0.11555593736718023
-0.3594098858337257 0.09380402993559132
-0.3895251321414171 0.11555593736718023
-0.3970539437183399 0.11555593736718023
-0.4271691900260313 0.15905975223035804
-0.4271691900260313 0.24606738195671365
-0.442226813179877 0.28957119681989146
-0.442226813179877 0.33307501168306924
-0.4346980016029542 0.35482691911465813
-0.41964037844910845 0.2678192893883026
-0.4271691900260313 0.20256356709353585
-0.46481324791064554 0.18081165966194693
-0.49492849421833696 0.07205212250400242
-0.5476301752567969 0.05030021507241352
-0.6003318562952568 -0.03670741465394209
-0.6304471026029482 -0.05845932208553099
-0.6530335373337167 0.05030021507241352
-0.6906775952183309 0.11555593736718023
-0.6906775952183309 0.13730784479876915
-0.6831487836414081 0.15905975223035804
-0.6680911604875625 0.18081165966194693
-0.6304471026029482 0.15905975223035804
-0.6455047257567939 0.13730784479876915
-0.637975914179871 0.11555593736718023
-0.6304471026029482 0.09380402993559132
-0.6530335373337167 0.15905975223035804
-0.6605623489106396 0.09380402993559132
-0.6605623489106396 0.15905975223035804
-0.6756199720644852 0.20256356709353585
-0.6680911604875625 0.2678192893883026
-0.6605623489106396 0.39833073397783597
-0.6530335373337167 0.35482691911465813
-0.6304471026029482 0.3765788265462471
-0.6153894794491025 0.24606738195671365
-0.5702166099875654 -0.014955507222353184
-0.46481324791064554 -0.3194822112645978
-0.28412177006449724 -0.7762722673279647
-0.058257422756811825 -1.167806601096565
0.25795266347394774 -1.5375890274335764
0.6795661117816272 -1.842115731475821
1.1538812411277666 -2.1683943429496546
1.6959556746662114 -2.5816805841498436
2.2907317892431163 -2.9297111030552663
2.885507903820021 -3.190733992234333
3.5028704531276946 -3.212485899665922
4.0524736982430625 -3.0602225476447997
4.383741407627668 -2.6904401213077884
4.421385465512282 -2.124890528086477
4.04494488666614 -1.6463485645915208
3.2318332363584723 -1.363573767980865
2.268145354512348 -1.1025508788017984
1.3044574726662235 -1.1025508788017984
0.34076959082009906 -1.0372951565070316
-0.6229182910260254 -0.7110165450331981
-1.5188468686798442 -0.4282417484225423
-1.3607418255644643 -0.16721885924347551
-0.9692436235644762 0.02854830764082462
-0.5626877984106425 0.24606738195671365
-0.3142370163721886 0.2678192893883026
-0.20883365429526876 0.2678192893883026
-0.2314200890260373 0.22431547452512474
-0.3594098858337257 0.15905975223035804
-0.49492849421833696 0.13730784479876915
-0.6003318562952568 0.13730784479876915
-0.6680911604875625 0.22431547452512474
-0.6756199720644852 0.31132310425148035
-0.6756199720644852 0.3765788265462471
-0.6455047257567939 0.4853383637041916
-0.6229182910260254 0.42008264140942486
-0.6153894794491025 0.39833073397783597
-0.6003318562952568 0.35482691911465813
-0.6078606678721796 0.35482691911465813
-0.6078606678721796 0.3765788265462471
-0.6153894794491025 0.42008264140942486
-0.6229182910260254 0.39833073397783597
-0.6003318562952568 0.39833073397783597
-0.6078606678721796 0.42008264140942486
-0.6003318562952568 0.39833073397783597
-0.5777454215644883 0.35482691911465813
-0.5626877984106425 0.5070902711357804
-0.540101363679874 0.5288421785673694
-0.5325725521029512 0.5288421785673694
-0.5325725521029512 0.5505940859989583
-0.5325725521029512 0.4853383637041916
-0.5024573057952598 0.44183454884101375
-0.5099861173721826 0.42008264140942486
-0.5024573057952598 0.39833073397783597
-0.5250437405260283 0.42008264140942486
-0.5024573057952598 0.4635864562726027
-0.4798708710644912 0.5288421785673694
-0.4572844363337227 0.5723459934305472
-0.41211156687218564 0.6376017157253139
-0.41211156687218564 0.615849808293725
-0.3895251321414171 0.5940979008621361
-0.3594098858337257 0.615849808293725
-0.3518810742568029 0.5723459934305472
-0.34435226267988 0.44183454884101375
-0.34435226267988 0.4635864562726027
-0.34435226267988 0.5288421785673694
-0.32176582794911146 0.5288421785673694
-0.2991793932183429 0.5288421785673694
-0.28412177006449724 0.6376017157253139
-0.2615353353337287 0.615849808293725
-0.2163624658721916 0.615849808293725
-0.17871840798757738 0.7681131603148473
-0.12601672694911745 0.7898650677464362
-0.1034302922183489 0.7898650677464362
-0.06578623433373466 0.7898650677464362
-0.035670988026043286 0.6376017157253139
-0.04319979960296613 0.6811055305884917
-0.013084553295274743 0.7246093454516696
-0.0055557417183518965 0.7463612528832584
0.017030693012416644 0.7898650677464362
0.07726118562779942 0.8551207900412029
0.1073764319354908 0.9856322346307363
0.14502048982010504 0.9421284197675586
0.17513573612779643 1.1161436792202697
0.22783741716625636 1.050887956925503
0.2730102866277934 1.0291360494939141
0.3181831560893305 0.9856322346307363
0.34076959082009906 1.0291360494939141
0.3181831560893305 0.9856322346307363
0.34076959082009906 0.9856322346307363
0.35582721397394473 1.0073841420623253
0.35582721397394473 1.050887956925503
0.3482984023970219 1.0943917717886809
0.3784136487047133 1.0943917717886809
0.38594246028163615 1.1378955866518587
0.4010000834354818 1.2031513089466253
0.4160577065893275 1.290158938672981
0.4010000834354818 1.1378955866518587
0.3633560255508676 1.1813994015150364
0.35582721397394473 1.072639864357092
0.3332407792431762 0.9421284197675586
0.3332407792431762 0.9203765123359696
0.2805390982047163 0.8551207900412029
0.2052509824354878 0.7463612528832584
0.15254930139702788 0.7898650677464362
0.12996286666625934 0.7681131603148473
0.08478999720472226 0.6811055305884917
0.054674750897030874 0.6593536231569028
0.009501881435493797 0.7028574380200806
-0.04319979960296613 0.5940979008621361
-0.1034302922183489 0.4853383637041916
-0.17118959641065454 0.4853383637041916
-0.24647771217988299 0.3765788265462471
-0.28412177006449724 0.24606738195671365
-0.32176582794911146 0.22431547452512474
-0.36693869741064855 0.2678192893883026
-0.4045827552952628 0.22431547452512474
-0.4045827552952628 0.31132310425148035
-0.4271691900260313 0.2678192893883026
-0.4346980016029542 0.28957119681989146
-0.41964037844910845 0.33307501168306924
-0.41964037844910845 0.28957119681989146
-0.4271691900260313 0.2678192893883026
-0.4572844363337227 0.22431547452512474
-0.49492849421833696 0.20256356709353585
-0.5099861173721826 0.11555593736718023
-0.540101363679874 0.15905975223035804
-0.5476301752567969 0.13730784479876915
-0.5777454215644883 0.18081165966194693
-0.5626877984106425 0.22431547452512474
-0.5325725521029512 0.31132310425148035
-0.5024573057952598 0.35482691911465813
-0.46481324791064554 0.42008264140942486
-0.44975562475679987 0.31132310425148035
-0.4723420594875684 0.24606738195671365
-0.4723420594875684 0.18081165966194693
-0.4873996826414141 0.20256356709353585
-0.5024573057952598 0.07205212250400242
-0.5024573057952598 0.15905975223035804
-0.4873996826414141 0.15905975223035804
-0.4723420594875684 0.24606738195671365
-0.4572844363337227 0.2678192893883026
-0.44975562475679987 0.31132310425148035
-0.4346980016029542 0.31132310425148035
-0.3895251321414171 0.31132310425148035
-0.41211156687218564 0.22431547452512474
-0.41211156687218564 0.22431547452512474
-0.41964037844910845 0.18081165966194693
-0.4346980016029542 0.15905975223035804
-0.442226813179877 0.11555593736718023
-0.44975562475679987 0.20256356709353585
-0.44975562475679987 0.18081165966194693
-0.46481324791064554 0.24606738195671365
-0.44975562475679987 0.24606738195671365
-0.4271691900260313 0.31132310425148035
-0.41211156687218564 0.2678192893883026
-0.37446750898757136 0.31132310425148035
-0.37446750898757136 0.24606738195671365
-0.37446750898757136 0.20256356709353585
-0.4045827552952628 0.2678192893883026
-0.4271691900260313 0.11555593736718023
-0.44975562475679987 0.15905975223035804
-0.4271691900260313 0.11555593736718023
-0.4572844363337227 0.09380402993559132
-0.4723420594875684 0.13730784479876915
-0.4346980016029542 0.18081165966194693
-0.4346980016029542 0.18081165966194693
-0.4271691900260313 0.2678192893883026
-0.41211156687218564 0.28957119681989146
-0.4271691900260313 0.28957119681989146
-0.41964037844910845 0.20256356709353585
-0.4346980016029542 0.24606738195671365
-0.4346980016029542 0.18081165966194693
-0.44975562475679987 0.11555593736718023
-0.44975562475679987 0.09380402993559132
-0.4723420594875684 0.006796400209235718
-0.4572844363337227 0.07205212250400242
-0.46481324791064554 0.09380402993559132
-0.4723420594875684 0.13730784479876915
-0.442226813179877 0.18081165966194693
-0.442226813179877 0.18081165966194693
-0.44975562475679987 0.20256356709353585
-0.44975562475679987 0.11555593736718023
-0.4723420594875684 0.11555593736718023
-0.4723420594875684 -0.03670741465394209
-0.4873996826414141 -0.03670741465394209
-0.5024573057952598 0.006796400209235718
-0.5024573057952598 0.006796400209235718
-0.5024573057952598 0.02854830764082462
-0.5024573057952598 0.07205212250400242
-0.46481324791064554 0.13730784479876915
-0.442226813179877 0.18081165966194693
-0.41964037844910845 0.20256356709353585
-0.4045827552952628 0.11555593736718023
-0.44975562475679987 0.18081165966194693
-0.44975562475679987 0.09380402993559132
-0.44975562475679987 0.006796400209235718
-0.46481324791064554 -0.03670741465394209
-0.4798708710644912 -0.03670741465394209
-0.4723420594875684 0.006796400209235718
-0.49492849421833696 0.02854830764082462
-0.4798708710644912 0.15905975223035804
-0.4873996826414141 0.18081165966194693
-0.4572844363337227 0.15905975223035804
-0.4346980016029542 0.18081165966194693
-0.44975562475679987 0.18081165966194693
-0.4346980016029542 0.05030021507241352
-0.442226813179877 0.09380402993559132
-0.44975562475679987 0.02854830764082462
-0.442226813179877 0.02854830764082462
-0.4572844363337227 0.05030021507241352
-0.44975562475679987 0.11555593736718023
-0.4572844363337227 0.07205212250400242
-0.4346980016029542 0.02854830764082462
-0.4346980016029542 0.11555593736718023
-0.4271691900260313 0.15905975223035804
-0.3895251321414171 0.15905975223035804
-0.3895251321414171 0.15905975223035804
-0.4045827552952628 0.15905975223035804
-0.4045827552952628 0.05030021507241352
-0.41211156687218564 0.02854830764082462
-0.442226813179877 0.006796400209235718
-0.4346980016029542 0.09380402993559132
-0.442226813179877 0.22431547452512474
-0.442226813179877 0.20256356709353585
-0.3895251321414171 0.33307501168306924
-0.34435226267988 0.33307501168306924
-0.2991793932183429 0.42008264140942486
-0.2540065237568058 0.35482691911465813
-0.2163624658721916 0.35482691911465813
-0.2314200890260373 0.31132310425148035
-0.23894890060296015 0.22431547452512474
-0.24647771217988299 0.22431547452512474
-0.2615353353337287 0.22431547452512474
-0.2615353353337287 0.28957119681989146
-0.29165058164142005 0.28957119681989146
-0.29165058164142005 0.28957119681989146
-0.2540065237568058 0.28957119681989146
-0.20883365429526876 0.31132310425148035
-0.20130484271834592 0.24606738195671365
-0.1184879153721946 0.18081165966194693
-0.11095910379527175 0.15905975223035804
-0.08837266906450321 0.09380402993559132
-0.08837266906450321 0.05030021507241352
-0.1184879153721946 0.07205212250400242
-0.13354553852604029 0.11555593736718023
-0.17871840798757738 0.11555593736718023
-0.22389127744911444 0.09380402993559132
-0.23894890060296015 0.13730784479876915
-0.19377603114142306 0.09380402993559132
-0.20130484271834592 0.05030021507241352
-0.17871840798757738 0.05030021507241352
-0.19377603114142306 0.02854830764082462
-0.20883365429526876 0.07205212250400242
-0.23894890060296015 0.006796400209235718
-0.26906414691065156 -0.03670741465394209
-0.34435226267988 -0.05845932208553099
-0.3895251321414171 -0.10196313694870879
-0.3970539437183399 -0.10196313694870879
-0.44975562475679987 -0.12371504438029769
-0.4723420594875684 -0.03670741465394209
-0.5024573057952598 -0.014955507222353184
-0.4873996826414141 -0.014955507222353184
-0.46481324791064554 0.006796400209235718
-0.4346980016029542 0.05030021507241352
-0.41211156687218564 -0.014955507222353184
-0.41211156687218564 -0.0802112295171199
-0.44975562475679987 -0.10196313694870879
-0.4572844363337227 -0.10196313694870879
-0.4798708710644912 -0.1454669518118866
-0.4798708710644912 -0.12371504438029769
-0.4873996826414141 -0.1454669518118866
-0.4873996826414141 -0.03670741465394209
-0.44975562475679987 0.05030021507241352
-0.4572844363337227 0.11555593736718023
-0.442226813179877 0.2678192893883026
-0.442226813179877 0.2678192893883026
-0.41211156687218564 0.22431547452512474
-0.41211156687218564 0.02854830764082462
-0.41211156687218564 -0.2977303038330089
-0.32176582794911146 -0.732768452464787
-0.16366078483373167 -1.167806601096565
0.08478999720472226 -1.624596657159932
0.46875938762778746 -1.9508752686337656
0.9054304590893125 -2.4076653246971325
1.4324472694739119 -2.7556958436025547
1.9971081377431252 -3.190733992234333
2.6295283102046443 -3.6475240482977
3.299592540550778 -3.7127797705924666
3.9094262782815283 -3.7345316780240556
4.3762125960507445 -3.2559897145290995
4.624663378089199 -2.799199658465733
4.556904073896893 -2.2118981578128323
3.984714394050757 -1.7333561943178766
3.0210265122046325 -1.385325675412454
2.057338630358508 -1.189558508528154
1.0936507485123836 -1.0155432490754428
0.12996286666625934 -0.8197760821911426
-0.8337250151798651 -0.5587531930120757
-1.1951079708721617 -0.25422648896983113
-0.7584368994106365 -0.0802112295171199
-0.32176582794911146 0.006796400209235718
-0.0055557417183518965 0.05030021507241352
0.1073764319354908 -0.03670741465394209
0.032088316166262336 -0.16721885924347551
-0.09590148064142606 -0.2107226741066533
-0.23894890060296015 -0.1454669518118866
-0.38199632056449423 -0.1454669518118866
-0.4346980016029542 -0.014955507222353184
-0.4271691900260313 0.09380402993559132
-0.3970539437183399 0.11555593736718023
-0.37446750898757136 0.13730784479876915
-0.34435226267988 0.20256356709353585
-0.34435226267988 0.15905975223035804
-0.34435226267988 0.18081165966194693
-0.37446750898757136 0.07205212250400242
-0.3594098858337257 0.07205212250400242
-0.38199632056449423 0.05030021507241352
-0.3895251321414171 0.006796400209235718
-0.3895251321414171 0.05030021507241352
-0.38199632056449423 0.05030021507241352
-0.3594098858337257 0.05030021507241352
-0.32176582794911146 0.18081165966194693
-0.2991793932183429 0.13730784479876915
-0.26906414691065156 0.22431547452512474
-0.28412177006449724 0.20256356709353585
-0.26906414691065156 0.22431547452512474
-0.26906414691065156 0.15905975223035804
-0.26906414691065156 0.09380402993559132
-0.26906414691065156 0.05030021507241352
-0.27659295848757437 0.07205212250400242
-0.2615353353337287 0.11555593736718023
-0.2540065237568058 0.18081165966194693
-0.23894890060296015 0.22431547452512474
-0.2314200890260373 0.31132310425148035
-0.19377603114142306 0.3765788265462471
-0.12601672694911745 0.33307501168306924
-0.13354553852604029 0.35482691911465813
-0.1184879153721946 0.33307501168306924
-0.11095910379527175 0.24606738195671365
-0.09590148064142606 0.2678192893883026
-0.08837266906450321 0.2678192893883026
-0.08084385748758037 0.28957119681989146
-0.06578623433373466 0.28957119681989146
-0.058257422756811825 0.35482691911465813
-0.013084553295274743 0.3765788265462471
0.03961712774318518 0.4853383637041916
0.06220356247395373 0.5505940859989583
0.11490524351241366 0.5940979008621361
0.14502048982010504 0.6811055305884917
0.1676069245508736 0.615849808293725
0.18266454770471927 0.5723459934305472
0.21277979401241065 0.5288421785673694
0.2353662287431792 0.5288421785673694
0.2654814750508706 0.6376017157253139
0.25795266347394774 0.5723459934305472
0.28806790978163915 0.6593536231569028
0.31065434451240764 0.7246093454516696
0.37088483712779047 0.7681131603148473
0.43111532974317324 0.8768726974727918
0.4988746339354788 0.8986246049043807
0.5214610686662474 0.8768726974727918
0.5666339381277845 0.8768726974727918
0.589220372858553 0.7898650677464362
0.5741627497047073 0.8116169751780251
0.589220372858553 0.7898650677464362
0.6343932423200901 0.7681131603148473
0.6343932423200901 0.8333688826096141
0.641922053897013 0.8768726974727918
0.6645084886277814 0.9203765123359696
0.6720373002047043 0.8986246049043807
0.68709492335855 0.9421284197675586
0.7397966043970099 0.9421284197675586
0.7172101696662414 0.8986246049043807
0.6795661117816272 0.8551207900412029
0.6343932423200901 0.7028574380200806
0.5816915612816301 0.7028574380200806
0.5515763149739388 0.5723459934305472
0.5289898802431702 0.5940979008621361
0.46875938762778746 0.4635864562726027
0.4612305760508646 0.44183454884101375
0.4537017644739417 0.4853383637041916
0.4010000834354818 0.4635864562726027
0.3482984023970219 0.4635864562726027
0.3181831560893305 0.42008264140942486
0.2654814750508706 0.28957119681989146
0.22783741716625636 0.15905975223035804
0.1676069245508736 0.13730784479876915
0.09984762035856795 0.07205212250400242
0.04714593932010803 0.05030021507241352
-0.028142176449120437 0.07205212250400242
-0.06578623433373466 -0.0802112295171199
-0.1184879153721946 -0.03670741465394209
-0.15613197325680883 -0.03670741465394209
-0.15613197325680883 -0.05845932208553099
-0.16366078483373167 -0.0802112295171199
-0.15613197325680883 -0.014955507222353184
-0.17118959641065454 -0.014955507222353184
-0.148603161679886 0.05030021507241352
-0.17871840798757738 -0.014955507222353184
-0.20883365429526876 -0.0802112295171199
-0.20883365429526876 -0.03670741465394209
-0.2163624658721916 -0.16721885924347551
-0.23894890060296015 -0.12371504438029769
-0.2615353353337287 -0.16721885924347551
-0.2615353353337287 -0.10196313694870879
-0.2615353353337287 -0.014955507222353184
-0.27659295848757437 -0.014955507222353184
-0.24647771217988299 0.07205212250400242
-0.22389127744911444 -0.014955507222353184
-0.22389127744911444 -0.014955507222353184
-0.23894890060296015 -0.10196313694870879
-0.23894890060296015 -0.1454669518118866
-0.24647771217988299 -0.12371504438029769
-0.23894890060296015 -0.10196313694870879
-0.2540065237568058 -0.05845932208553099
-0.24647771217988299 0.006796400209235718
-0.22389127744911444 -0.03670741465394209
-0.19377603114142306 -0.03670741465394209
-0.17871840798757738 -0.014955507222353184
-0.16366078483373167 0.09380402993559132
-0.14107435010296313 0.006796400209235718
-0.148603161679886 0.006796400209235718
-0.148603161679886 -0.014955507222353184
-0.17118959641065454 -0.03670741465394209
-0.17871840798757738 -0.10196313694870879
-0.2163624658721916 -0.12371504438029769
-0.2314200890260373 -0.05845932208553099
-0.23894890060296015 -0.03670741465394209
-0.2163624658721916 0.006796400209235718
-0.19377603114142306 0.07205212250400242
-0.19377603114142306 0.09380402993559132
-0.18624721956450022 0.18081165966194693
-0.18624721956450022 0.13730784479876915
-0.18624721956450022 0.09380402993559132
-0.18624721956450022 -0.03670741465394209
-0.20883365429526876 -0.03670741465394209
-0.22389127744911444 -0.0802112295171199
-0.2163624658721916 0.006796400209235718
-0.2540065237568058 -0.05845932208553099
-0.26906414691065156 0.05030021507241352
-0.2615353353337287 0.02854830764082462
-0.2615353353337287 0.05030021507241352
-0.2314200890260373 0.11555593736718023
-0.19377603114142306 0.07205212250400242
-0.22389127744911444 0.07205212250400242
-0.23894890060296015 0.02854830764082462
-0.23894890060296015 -0.03670741465394209
-0.24647771217988299 -0.10196313694870879
-0.28412177006449724 -0.1454669518118866
-0.29165058164142005 -0.10196313694870879
-0.2991793932183429 -0.014955507222353184
-0.3142370163721886 -0.05845932208553099
-0.3067082047952658 0.05030021507241352
-0.2991793932183429 0.05030021507241352
-0.29165058164142005 0.09380402993559132
-0.26906414691065156 0.09380402993559132
-0.2540065237568058 0.07205212250400242
-0.2615353353337287 -0.014955507222353184
-0.2615353353337287 -0.1454669518118866
-0.28412177006449724 -0.2107226741066533
-0.29165058164142005 -0.25422648896983113
-0.2991793932183429 -0.1454669518118866
-0.3142370163721886 -0.1454669518118866
-0.32176582794911146 -0.10196313694870879
-0.3142370163721886 0.006796400209235718
-0.2991793932183429 -0.014955507222353184
-0.3067082047952658 -0.03670741465394209
-0.29165058164142005 -0.05845932208553099
-0.28412177006449724 -0.014955507222353184
-0.28412177006449724 -0.03670741465394209
-0.28412177006449724 -0.10196313694870879
-0.28412177006449724 -0.16721885924347551
-0.2991793932183429 -0.10196313694870879
-0.3067082047952658 -0.12371504438029769
-0.3067082047952658 -0.10196313694870879
-0.3292946395260343 -0.12371504438029769
-0.3142370163721886 -0.12371504438029769
-0.2991793932183429 -0.12371504438029769
-0.3067082047952658 -0.0802112295171199
-0.28412177006449724 0.006796400209235718
-0.3067082047952658 -0.0802112295171199
-0.3142370163721886 -0.12371504438029769
-0.32176582794911146 -0.12371504438029769
-0.3292946395260343 -0.1454669518118866
-0.3142370163721886 -0.2107226741066533
-0.32176582794911146 -0.25422648896983113
-0.33682345110295714 -0.1889707666750644
-0.34435226267988 -0.16721885924347551
-0.32176582794911146 -0.0802112295171199
-0.29165058164142005 0.006796400209235718
-0.29165058164142005 0.02854830764082462
-0.2615353353337287 0.13730784479876915
-0.2615353353337287 0.05030021507241352
-0.24647771217988299 0.09380402993559132
-0.2540065237568058 0.07205212250400242
-0.24647771217988299 0.09380402993559132
-0.22389127744911444 0.09380402993559132
-0.20883365429526876 0.09380402993559132
-0.18624721956450022 0.11555593736718023
-0.17118959641065454 0.22431547452512474
-0.15613197325680883 0.24606738195671365
-0.12601672694911745 0.31132310425148035
-0.09590148064142606 0.33307501168306924
-0.08084385748758037 0.33307501168306924
-0.08084385748758037 0.22431547452512474
-0.08084385748758037 0.22431547452512474
-0.1034302922183489 0.13730784479876915
-0.1034302922183489 0.11555593736718023
-0.1034302922183489 0.07205212250400242
-0.08837266906450321 0.02854830764082462
-0.08837266906450321 -0.014955507222353184
-0.07331504591065752 -0.014955507222353184
-0.028142176449120437 -0.05845932208553099
0.009501881435493797 -0.03670741465394209
0.032088316166262336 0.07205212250400242
0.03961712774318518 0.15905975223035804
0.009501881435493797 0.13730784479876915
0.0019730698585709505 0.11555593736718023
-0.0055557417183518965 0.07205212250400242
-0.035670988026043286 0.07205212250400242
-0.04319979960296613 -0.03670741465394209
-0.08084385748758037 0.006796400209235718
-0.07331504591065752 -0.10196313694870879
-0.08084385748758037 -0.12371504438029769
-0.08084385748758037 -0.12371504438029769
-0.08837266906450321 -0.0802112295171199
-0.08837266906450321 -0.05845932208553099
-0.12601672694911745 -0.014955507222353184
-0.148603161679886 -0.05845932208553099
-0.2163624658721916 -0.1889707666750644
-0.2540065237568058 -0.2107226741066533
-0.3067082047952658 -0.2107226741066533
-0.34435226267988 -0.2107226741066533
-0.38199632056449423 -0.2977303038330089
-0.4045827552952628 -0.2107226741066533
-0.4045827552952628 -0.1889707666750644
-0.37446750898757136 -0.1454669518118866
-0.33682345110295714 -0.1454669518118866
-0.32176582794911146 -0.0802112295171199
-0.2991793932183429 -0.05845932208553099
-0.3067082047952658 -0.05845932208553099
-0.3067082047952658 -0.0802112295171199
-0.3142370163721886 -0.03670741465394209
-0.3142370163721886 -0.05845932208553099
-0.3292946395260343 -0.12371504438029769
-0.3292946395260343 -0.014955507222353184
-0.3292946395260343 -0.05845932208553099
-0.3518810742568029 0.07205212250400242
-0.3518810742568029 0.07205212250400242
-0.34435226267988 0.05030021507241352
-0.33682345110295714 -0.014955507222353184
-0.29165058164142005 -0.1889707666750644
-0.22389127744911444 -0.6022570078752536
-0.028142176449120437 -1.167806601096565
0.2504238518970249 -1.6681004720231098
0.6569796770508586 -2.1901462503812437
1.1614100527046893 -2.7556958436025547
1.77124379043544 -3.212485899665922
2.4864808902431106 -3.604020233434522
3.201717990050781 -3.821539307750411
3.894368655127683 -3.9955545672031225
4.489144769704588 -3.930298844908356
4.86558534855073 -3.625772140866111
5.0538056379738014 -3.1254782699395665
4.978517522204573 -2.559928676718255
4.624663378089199 -2.016130990928532
3.88683984355076 -1.5375890274335764
2.9231519617046353 -1.2548142308229207
1.959464079858511 -1.0155432490754428
0.9957761980123867 -0.8850318044859092
0.032088316166262336 -0.6675127301700202
-0.931599565679862 -0.47174556328572015
-0.9541860004106306 -0.2107226741066533
-0.5551589868337197 0.006796400209235718
-0.12601672694911745 0.15905975223035804
0.1374916782431822 0.20256356709353585
0.22030860558933352 0.18081165966194693
0.14502048982010504 0.15905975223035804
-0.0055557417183518965 -0.014955507222353184
-0.17871840798757738 -0.0802112295171199
-0.2991793932183429 -0.014955507222353184
-0.36693869741064855 -0.0802112295171199
-0.3895251321414171 -0.014955507222353184
-0.3895251321414171 0.11555593736718023
-0.3292946395260343 0.18081165966194693
-0.3292946395260343 0.15905975223035804
-0.29165058164142005 0.13730784479876915
-0.2991793932183429 0.20256356709353585
-0.2991793932183429 0.24606738195671365
-0.2991793932183429 0.15905975223035804
-0.29165058164142005 0.18081165966194693
-0.2991793932183429 0.13730784479876915
-0.32176582794911146 0.20256356709353585
-0.3067082047952658 0.13730784479876915
-0.34435226267988 0.13730784479876915
-0.2991793932183429 0.13730784479876915
-0.3067082047952658 0.22431547452512474
-0.27659295848757437 0.2678192893883026
-0.27659295848757437 0.28957119681989146
-0.22389127744911444 0.35482691911465813
-0.20883365429526876 0.35482691911465813
-0.2163624658721916 0.3765788265462471
-0.22389127744911444 0.31132310425148035
-0.20130484271834592 0.24606738195671365
-0.2163624658721916 0.24606738195671365
-0.2314200890260373 0.18081165966194693
-0.20883365429526876 0.20256356709353585
-0.22389127744911444 0.20256356709353585
-0.19377603114142306 0.31132310425148035
-0.16366078483373167 0.3765788265462471
-0.12601672694911745 0.44183454884101375
-0.1184879153721946 0.4635864562726027
-0.09590148064142606 0.4853383637041916
-0.08084385748758037 0.5070902711357804
-0.11095910379527175 0.44183454884101375
-0.09590148064142606 0.35482691911465813
-0.05072861117988898 0.35482691911465813
-0.02061336487219759 0.33307501168306924
-0.013084553295274743 0.4635864562726027
0.0019730698585709505 0.39833073397783597
0.02455950458933949 0.5288421785673694
0.06220356247395373 0.5940979008621361
0.11490524351241366 0.615849808293725
0.1374916782431822 0.7028574380200806
0.18266454770471927 0.7463612528832584
0.2052509824354878 0.6811055305884917
0.24289504032010203 0.6593536231569028
0.2353662287431792 0.6376017157253139
0.2654814750508706 0.6376017157253139
0.29559672135856196 0.6811055305884917
0.3257119676662534 0.615849808293725
0.35582721397394473 0.6593536231569028
0.4160577065893275 0.8116169751780251
0.4537017644739417 0.8116169751780251
0.4988746339354788 0.9421284197675586
0.5591051265508616 1.0291360494939141
0.589220372858553 1.0073841420623253
0.6268644307431672 0.9856322346307363
0.6343932423200901 1.0073841420623253
0.6720373002047043 0.9638803271991474
0.6569796770508586 0.9638803271991474
0.6946237349354728 0.8986246049043807
0.7096813580893185 1.0291360494939141
0.68709492335855 0.9856322346307363
0.7397966043970099 1.0073841420623253
0.7623830391277785 1.072639864357092
0.7548542275508556 1.072639864357092
0.7774406622816241 1.0291360494939141
0.7699118507047014 1.0291360494939141
0.7548542275508556 0.9421284197675586
0.7473254159739328 0.9203765123359696
0.7172101696662414 0.8551207900412029
0.68709492335855 0.7463612528832584
0.6645084886277814 0.7463612528832584
0.6268644307431672 0.7028574380200806
0.589220372858553 0.6593536231569028
0.536518691820093 0.615849808293725
0.5289898802431702 0.5505940859989583
0.4612305760508646 0.5505940859989583
0.4461729528970189 0.5288421785673694
0.3633560255508676 0.5288421785673694
0.3181831560893305 0.42008264140942486
0.2504238518970249 0.2678192893883026
0.19772217085856497 0.18081165966194693
0.1073764319354908 0.09380402993559132
0.06973237405087657 0.13730784479876915
0.0019730698585709505 0.09380402993559132
-0.04319979960296613 0.11555593736718023
-0.06578623433373466 0.18081165966194693
-0.07331504591065752 0.20256356709353585
-0.09590148064142606 0.20256356709353585
-0.09590148064142606 0.18081165966194693
-0.09590148064142606 0.20256356709353585
-0.14107435010296313 0.15905975223035804
-0.15613197325680883 0.05030021507241352
-0.17118959641065454 0.006796400209235718
-0.17871840798757738 -0.014955507222353184
-0.2163624658721916 0.006796400209235718
-0.22389127744911444 0.006796400209235718
-0.22389127744911444 0.02854830764082462
-0.22389127744911444 0.05030021507241352
-0.19377603114142306 0.02854830764082462
-0.19377603114142306 0.07205212250400242
-0.20130484271834592 0.13730784479876915
-0.17871840798757738 0.13730784479876915
-0.18624721956450022 0.13730784479876915
-0.20883365429526876 0.11555593736718023
-0.20883365429526876 0.05030021507241352
-0.24647771217988299 -0.014955507222353184
-0.23894890060296015 0.02854830764082462
-0.2314200890260373 -0.0802112295171199
-0.23894890060296015 -0.03670741465394209
-0.22389127744911444 0.05030021507241352
-0.20130484271834592 0.13730784479876915
-0.19377603114142306 0.18081165966194693
-0.18624721956450022 0.2678192893883026
-0.17871840798757738 0.18081165966194693
-0.20130484271834592 0.22431547452512474
-0.148603161679886 0.07205212250400242
-0.20130484271834592 0.05030021507241352
-0.2163624658721916 -0.014955507222353184
-0.20130484271834592 0.05030021507241352
-0.20883365429526876 0.07205212250400242
-0.20883365429526876 0.11555593736718023
-0.2163624658721916 0.18081165966194693
-0.18624721956450022 0.18081165966194693
-0.19377603114142306 0.20256356709353585
-0.20130484271834592 0.15905975223035804
-0.17118959641065454 0.20256356709353585
-0.19377603114142306 0.22431547452512474
-0.19377603114142306 0.18081165966194693
-0.18624721956450022 0.11555593736718023
-0.20883365429526876 0.07205212250400242
-0.20883365429526876 0.07205212250400242
-0.23894890060296015 0.02854830764082462
-0.23894890060296015 0.02854830764082462
-0.24647771217988299 0.05030021507241352
-0.2314200890260373 0.11555593736718023
-0.24647771217988299 0.22431547452512474
-0.22389127744911444 0.22431547452512474
-0.22389127744911444 0.20256356709353585
-0.24647771217988299 0.13730784479876915
-0.23894890060296015 0.07205212250400242
-0.27659295848757437 -0.014955507222353184
-0.3067082047952658 -0.014955507222353184
-0.2991793932183429 0.006796400209235718
-0.32176582794911146 0.006796400209235718
-0.3292946395260343 -0.03670741465394209
-0.3067082047952658 0.05030021507241352
-0.2991793932183429 0.09380402993559132
-0.28412177006449724 0.006796400209235718
-0.2615353353337287 0.13730784479876915
-0.29165058164142005 0.13730784479876915
-0.28412177006449724 0.11555593736718023
-0.3067082047952658 0.13730784479876915
-0.3292946395260343 0.006796400209235718
-0.33682345110295714 -0.014955507222353184
-0.3594098858337257 0.05030021507241352
-0.3594098858337257 0.07205212250400242
-0.36693869741064855 0.006796400209235718
-0.36693869741064855 0.13730784479876915
-0.33682345110295714 0.15905975223035804
-0.33682345110295714 0.18081165966194693
-0.33682345110295714 0.20256356709353585
-0.3292946395260343 0.15905975223035804
-0.33682345110295714 0.15905975223035804
-0.3292946395260343 0.05030021507241352
-0.34435226267988 0.09380402993559132
-0.38199632056449423 0.09380402993559132
-0.3970539437183399 0.02854830764082462
-0.3895251321414171 -0.05845932208553099
-0.4045827552952628 0.05030021507241352
-0.4045827552952628 0.09380402993559132
-0.37446750898757136 0.18081165966194693
-0.37446750898757136 0.22431547452512474
-0.3594098858337257 0.18081165966194693
-0.3518810742568029 0.15905975223035804
-0.3518810742568029 0.02854830764082462
-0.3594098858337257 0.02854830764082462
-0.37446750898757136 0.006796400209235718
-0.38199632056449423 0.05030021507241352
-0.4045827552952628 0.05030021507241352
-0.41964037844910845 0.15905975223035804
-0.4572844363337227 0.09380402993559132
-0.44975562475679987 0.11555593736718023
-0.44975562475679987 0.15905975223035804
-0.46481324791064554 0.13730784479876915
-0.4346980016029542 0.18081165966194693
-0.41211156687218564 0.18081165966194693
-0.4045827552952628 0.22431547452512474
-0.3970539437183399 0.24606738195671365
-0.3895251321414171 0.24606738195671365
-0.3970539437183399 0.22431547452512474
-0.3895251321414171 0.22431547452512474
-0.37446750898757136 0.24606738195671365
-0.36693869741064855 0.28957119681989146
-0.3292946395260343 0.31132310425148035
-0.28412177006449724 0.44183454884101375
-0.2615353353337287 0.5288421785673694
-0.22389127744911444 0.5288421785673694
-0.2540065237568058 0.5940979008621361
-0.2540065237568058 0.5723459934305472
-0.26906414691065156 0.4635864562726027
-0.3067082047952658 0.33307501168306924
-0.3067082047952658 0.31132310425148035
-0.3292946395260343 0.31132310425148035
-0.3067082047952658 0.31132310425148035
-0.26906414691065156 0.33307501168306924
-0.24647771217988299 0.31132310425148035
-0.20130484271834592 0.20256356709353585
-0.17871840798757738 0.24606738195671365
-0.15613197325680883 0.20256356709353585
-0.148603161679886 0.24606738195671365
-0.16366078483373167 0.24606738195671365
-0.20130484271834592 0.22431547452512474
-0.2314200890260373 0.18081165966194693
-0.2540065237568058 0.24606738195671365
-0.2991793932183429 0.20256356709353585
-0.3142370163721886 0.20256356709353585
-0.32176582794911146 0.18081165966194693
-0.33682345110295714 0.15905975223035804
-0.33682345110295714 0.11555593736718023
-0.32176582794911146 0.15905975223035804
-0.33682345110295714 0.11555593736718023
-0.3292946395260343 0.15905975223035804
-0.38199632056449423 0.09380402993559132
-0.4346980016029542 0.05030021507241352
-0.5099861173721826 0.006796400209235718
-0.5476301752567969 -0.0802112295171199
-0.5928030447183339 -0.03670741465394209
-0.6003318562952568 -0.10196313694870879
-0.6078606678721796 0.006796400209235718
-0.6078606678721796 0.05030021507241352
-0.5928030447183339 0.09380402993559132
-0.5626877984106425 0.13730784479876915
-0.5325725521029512 0.15905975223035804
-0.5250437405260283 0.13730784479876915
-0.5626877984106425 0.07205212250400242
-0.5626877984106425 0.05030021507241352
-0.5928030447183339 0.02854830764082462
-0.6229182910260254 0.02854830764082462
-0.6003318562952568 0.07205212250400242
-0.6078606678721796 0.13730784479876915
-0.637975914179871 0.18081165966194693
-0.5928030447183339 0.24606738195671365
-0.5777454215644883 0.22431547452512474
-0.5702166099875654 0.13730784479876915
-0.5551589868337197 0.07205212250400242
-0.4723420594875684 -0.2107226741066533
-0.3895251321414171 -0.5370012855804869
-0.2314200890260373 -0.9937913416438539
-0.013084553295274743 -1.4288294902756318
0.3332407792431762 -1.8638676389074098
0.7548542275508556 -2.25540197267601
1.2065829221662265 -2.472921046991899
1.7034844862431344 -2.7774477510341438
2.215443673473888 -3.147230177371155
2.7650469185892557 -3.430004973981811
3.3221789752815463 -3.691027863160878
3.88683984355076 -3.691027863160878
4.338568538166131 -3.4735087888449887
4.624663378089199 -3.0384706402132107
4.745124363319964 -2.45116913956031
4.504202392858433 -1.9508752686337656
3.871782220396914 -1.6028447497283431
2.90809433855079 -1.3200699531176874
1.9444064567046655 -1.0807989713702093
0.980718574858541 -0.8632798970543204
0.017030693012416644 -0.6675127301700202
-0.9466571888337078 -0.3194822112645978
-1.2553384634875444 -0.0802112295171199
-0.8864266962183249 0.09380402993559132
-0.46481324791064554 0.31132310425148035
-0.2163624658721916 0.2678192893883026
-0.08084385748758037 0.22431547452512474
