0.5289898802431702 1.3989184758309254
0.5214610686662474 1.4206703832625145
0.4988746339354788 1.4424222906941033
0.5440475033970159 1.3989184758309254
0.536518691820093 1.485926105557281
0.536518691820093 1.3336627535361587
0.5139322570893246 1.290158938672981
0.491345822358556 1.268407031241392
0.491345822358556 1.1161436792202697
0.4612305760508646 1.072639864357092
0.43111532974317324 0.9638803271991474
0.4010000834354818 0.8551207900412029
0.35582721397394473 0.7681131603148473
0.3332407792431762 0.7463612528832584
0.34076959082009906 0.7028574380200806
0.30312553293548483 0.615849808293725
0.29559672135856196 0.6811055305884917
0.30312553293548483 0.6593536231569028
0.2504238518970249 0.5940979008621361
0.22783741716625636 0.5070902711357804
0.2052509824354878 0.35482691911465813
0.15254930139702788 0.2678192893883026
0.12996286666625934 0.22431547452512474
0.1073764319354908 0.28957119681989146
0.1073764319354908 0.2678192893883026
0.1073764319354908 0.31132310425148035
0.1224340550893365 0.42008264140942486
0.09984762035856795 0.39833073397783597
0.1073764319354908 0.4635864562726027
0.1073764319354908 0.4853383637041916
0.09984762035856795 0.24606738195671365
0.06973237405087657 0.33307501168306924
0.04714593932010803 0.24606738195671365
0.017030693012416644 0.28957119681989146
0.03961712774318518 0.33307501168306924
0.054674750897030874 0.28957119681989146
0.02455950458933949 0.2678192893883026
0.03961712774318518 0.33307501168306924
0.054674750897030874 0.39833073397783597
0.07726118562779942 0.39833073397783597
0.09984762035856795 0.44183454884101375
0.09231880878164511 0.4853383637041916
0.07726118562779942 0.39833073397783597
0.07726118562779942 0.33307501168306924
0.06973237405087657 0.28957119681989146
0.03961712774318518 0.18081165966194693
0.03961712774318518 0.24606738195671365
0.017030693012416644 0.28957119681989146
0.03961712774318518 0.3765788265462471
0.04714593932010803 0.42008264140942486
0.06220356247395373 0.5070902711357804
0.06973237405087657 0.4635864562726027
0.06973237405087657 0.5070902711357804
0.09231880878164511 0.4853383637041916
0.08478999720472226 0.5070902711357804
0.06973237405087657 0.39833073397783597
0.07726118562779942 0.44183454884101375
0.06220356247395373 0.3765788265462471
0.017030693012416644 0.33307501168306924
0.02455950458933949 0.42008264140942486
0.054674750897030874 0.44183454884101375
0.03961712774318518 0.44183454884101375
0.03961712774318518 0.44183454884101375
0.032088316166262336 0.35482691911465813
0.04714593932010803 0.4853383637041916
0.06220356247395373 0.5723459934305472
0.03961712774318518 0.4853383637041916
0.03961712774318518 0.42008264140942486
0.02455950458933949 0.3765788265462471
-0.013084553295274743 0.35482691911465813
-0.013084553295274743 0.33307501168306924
-0.035670988026043286 0.28957119681989146
-0.028142176449120437 0.3765788265462471
-0.02061336487219759 0.3765788265462471
-0.0055557417183518965 0.44183454884101375
0.0019730698585709505 0.5070902711357804
-0.0055557417183518965 0.5070902711357804
0.0019730698585709505 0.4853383637041916
0.0019730698585709505 0.39833073397783597
-0.04319979960296613 0.3765788265462471
-0.05072861117988898 0.35482691911465813
-0.08084385748758037 0.33307501168306924
-0.06578623433373466 0.3765788265462471
-0.07331504591065752 0.33307501168306924
-0.06578623433373466 0.33307501168306924
-0.04319979960296613 0.28957119681989146
-0.02061336487219759 0.35482691911465813
-0.013084553295274743 0.35482691911465813
-0.02061336487219759 0.4635864562726027
-0.0055557417183518965 0.5288421785673694
-0.013084553295274743 0.5288421785673694
-0.02061336487219759 0.4635864562726027
-0.035670988026043286 0.42008264140942486
-0.04319979960296613 0.35482691911465813
-0.11095910379527175 0.33307501168306924
-0.08084385748758037 0.22431547452512474
-0.1034302922183489 0.28957119681989146
-0.08837266906450321 0.39833073397783597
-0.08837266906450321 0.39833073397783597
-0.05072861117988898 0.42008264140942486
-0.06578623433373466 0.44183454884101375
-0.058257422756811825 0.4853383637041916
-0.035670988026043286 0.4853383637041916
-0.04319979960296613 0.39833073397783597
-0.05072861117988898 0.42008264140942486
-0.07331504591065752 0.42008264140942486
-0.08084385748758037 0.35482691911465813
-0.08084385748758037 0.3765788265462471
-0.08084385748758037 0.31132310425148035
-0.08837266906450321 0.39833073397783597
-0.07331504591065752 0.5070902711357804
-0.05072861117988898 0.5940979008621361
-0.028142176449120437 0.7028574380200806
-0.0055557417183518965 0.7681131603148473
0.009501881435493797 0.7246093454516696
0.04714593932010803 0.6811055305884917
0.06973237405087657 0.7028574380200806
0.06220356247395373 0.615849808293725
0.09231880878164511 0.5723459934305472
0.08478999720472226 0.615849808293725
0.09984762035856795 0.6811055305884917
0.1073764319354908 0.7463612528832584
0.1224340550893365 0.6593536231569028
0.1374916782431822 0.7028574380200806
0.16007811297395072 0.7463612528832584
0.1676069245508736 0.7898650677464362
0.1676069245508736 0.7246093454516696
0.18266454770471927 0.7246093454516696
0.1901933592816421 0.5723459934305472
0.22030860558933352 0.5723459934305472
0.22030860558933352 0.4853383637041916
0.2353662287431792 0.4853383637041916
0.21277979401241065 0.5288421785673694
0.2052509824354878 0.615849808293725
0.1901933592816421 0.7028574380200806
0.19772217085856497 0.7246093454516696
0.1901933592816421 0.7028574380200806
0.18266454770471927 0.615849808293725
0.1901933592816421 0.6593536231569028
0.15254930139702788 0.5288421785673694
0.16007811297395072 0.42008264140942486
0.1224340550893365 0.33307501168306924
0.1073764319354908 0.31132310425148035
0.07726118562779942 0.24606738195671365
0.032088316166262336 0.28957119681989146
-0.04319979960296613 0.35482691911465813
-0.04319979960296613 0.39833073397783597
-0.058257422756811825 0.4635864562726027
-0.08837266906450321 0.44183454884101375
-0.08837266906450321 0.42008264140942486
-0.1184879153721946 0.39833073397783597
-0.15613197325680883 0.3765788265462471
-0.17118959641065454 0.22431547452512474
-0.17871840798757738 0.24606738195671365
-0.16366078483373167 0.22431547452512474
-0.19377603114142306 0.22431547452512474
-0.16366078483373167 0.28957119681989146
-0.14107435010296313 0.31132310425148035
-0.14107435010296313 0.33307501168306924
-0.13354553852604029 0.33307501168306924
-0.09590148064142606 0.44183454884101375
-0.09590148064142606 0.5288421785673694
-0.09590148064142606 0.5070902711357804
-0.11095910379527175 0.5723459934305472
-0.14107435010296313 0.5723459934305472
-0.14107435010296313 0.44183454884101375
-0.14107435010296313 0.31132310425148035
-0.11095910379527175 0.09380402993559132
-0.05072861117988898 -0.12371504438029769
0.09231880878164511 -0.47174556328572015
0.29559672135856196 -0.8632798970543204
0.5591051265508616 -1.2113104159597428
0.8527287780508527 -1.6681004720231098
1.2141117337431493 -1.9943790834969433
1.5905523125892915 -2.45116913956031
2.012165760896971 -2.951463010486855
2.4940097018200333 -3.234237807097511
2.9758536427430955 -3.430004973981811
3.435111148935389 -3.3647492516870443
3.78143648147384 -3.0602225476447997
3.9621279593199885 -2.6034324915814326
3.849195785666146 -2.081386713223299
3.4049959026276975 -1.6681004720231098
2.5768266291661845 -1.2113104159597428
1.6131387473200602 -1.0372951565070316
0.6494508654739358 -0.7762722673279647
-0.3142370163721886 -0.5370012855804869
-0.9466571888337078 -0.38473793355936453
-0.9767724351413991 -0.1889707666750644
-0.7057352183721767 0.006796400209235718
-0.3518810742568029 0.15905975223035804
-0.07331504591065752 0.2678192893883026
0.1374916782431822 0.33307501168306924
0.2052509824354878 0.35482691911465813
0.17513573612779643 0.39833073397783597
0.08478999720472226 0.44183454884101375
-0.035670988026043286 0.4635864562726027
-0.07331504591065752 0.39833073397783597
-0.1184879153721946 0.5288421785673694
-0.1034302922183489 0.5940979008621361
-0.1184879153721946 0.5505940859989583
-0.1184879153721946 0.5288421785673694
-0.12601672694911745 0.5505940859989583
-0.12601672694911745 0.4853383637041916
-0.148603161679886 0.5505940859989583
-0.16366078483373167 0.615849808293725
-0.14107435010296313 0.6811055305884917
-0.14107435010296313 0.7463612528832584
-0.1034302922183489 0.7898650677464362
-0.09590148064142606 0.7681131603148473
-0.07331504591065752 0.615849808293725
-0.08837266906450321 0.615849808293725
-0.08084385748758037 0.5288421785673694
-0.1034302922183489 0.5288421785673694
-0.09590148064142606 0.5288421785673694
-0.1034302922183489 0.5505940859989583
-0.08837266906450321 0.5940979008621361
-0.07331504591065752 0.7463612528832584
-0.08084385748758037 0.7246093454516696
-0.06578623433373466 0.7463612528832584
-0.035670988026043286 0.8116169751780251
-0.035670988026043286 0.7028574380200806
-0.02061336487219759 0.7246093454516696
-0.02061336487219759 0.7898650677464362
-0.013084553295274743 0.7246093454516696
-0.04319979960296613 0.7246093454516696
-0.04319979960296613 0.7681131603148473
-0.035670988026043286 0.7681131603148473
-0.04319979960296613 0.7681131603148473
-0.013084553295274743 0.7898650677464362
0.009501881435493797 0.8333688826096141
0.02455950458933949 0.8986246049043807
0.054674750897030874 0.9638803271991474
0.08478999720472226 0.9856322346307363
0.07726118562779942 0.9203765123359696
0.08478999720472226 0.8986246049043807
0.08478999720472226 0.9421284197675586
0.09231880878164511 0.9203765123359696
0.09231880878164511 0.9421284197675586
0.11490524351241366 0.9638803271991474
0.11490524351241366 0.9638803271991474
0.14502048982010504 1.072639864357092
0.15254930139702788 1.1596474940834476
0.2052509824354878 1.1813994015150364
0.22783741716625636 1.2466551238098031
0.2353662287431792 1.268407031241392
0.25795266347394774 1.2466551238098031
0.2654814750508706 1.2249032163782143
0.28806790978163915 1.2031513089466253
0.29559672135856196 1.3119108461045699
0.31065434451240764 1.290158938672981
0.34076959082009906 1.3771665683993366
0.34076959082009906 1.3771665683993366
0.3482984023970219 1.4206703832625145
0.38594246028163615 1.50767801298887
0.39347127185855896 1.5294299204204589
0.4537017644739417 1.5729337352836368
0.4612305760508646 1.5946856427152256
0.4612305760508646 1.5294299204204589
0.48381701078163314 1.50767801298887
0.46875938762778746 1.4641741981256922
0.4612305760508646 1.3989184758309254
0.42358651816625037 1.4424222906941033
0.43111532974317324 1.4206703832625145
0.4085288950124047 1.3554146609677478
0.4537017644739417 1.4641741981256922
0.47628819920471027 1.5294299204204589
0.491345822358556 1.5511818278520477
0.47628819920471027 1.5729337352836368
0.491345822358556 1.4641741981256922
0.4612305760508646 1.3989184758309254
0.4160577065893275 1.3119108461045699
0.4010000834354818 1.2031513089466253
0.38594246028163615 1.0291360494939141
0.37088483712779047 0.9638803271991474
0.3257119676662534 0.9421284197675586
0.3332407792431762 0.9638803271991474
0.31065434451240764 0.8986246049043807
0.30312553293548483 0.9638803271991474
0.31065434451240764 0.8768726974727918
0.28806790978163915 0.8333688826096141
0.25795266347394774 0.8768726974727918
0.2353662287431792 0.7463612528832584
0.22030860558933352 0.6811055305884917
0.1901933592816421 0.615849808293725
0.12996286666625934 0.5723459934305472
0.11490524351241366 0.5723459934305472
0.09984762035856795 0.5288421785673694
0.04714593932010803 0.5288421785673694
0.032088316166262336 0.5070902711357804
0.009501881435493797 0.44183454884101375
0.017030693012416644 0.5505940859989583
0.032088316166262336 0.5070902711357804
0.032088316166262336 0.5505940859989583
0.03961712774318518 0.5288421785673694
0.02455950458933949 0.5070902711357804
0.03961712774318518 0.42008264140942486
0.0019730698585709505 0.42008264140942486
-0.028142176449120437 0.3765788265462471
-0.028142176449120437 0.39833073397783597
-0.028142176449120437 0.35482691911465813
-0.058257422756811825 0.35482691911465813
-0.035670988026043286 0.4853383637041916
-0.02061336487219759 0.5288421785673694
-0.0055557417183518965 0.5723459934305472
0.017030693012416644 0.5505940859989583
0.032088316166262336 0.5505940859989583
0.03961712774318518 0.4853383637041916
0.02455950458933949 0.42008264140942486
-0.0055557417183518965 0.44183454884101375
-0.04319979960296613 0.39833073397783597
-0.058257422756811825 0.39833073397783597
-0.035670988026043286 0.44183454884101375
-0.058257422756811825 0.5070902711357804
-0.013084553295274743 0.5288421785673694
-0.013084553295274743 0.4635864562726027
0.0019730698585709505 0.5070902711357804
0.009501881435493797 0.44183454884101375
-0.02061336487219759 0.5070902711357804
-0.0055557417183518965 0.5070902711357804
-0.028142176449120437 0.4635864562726027
-0.04319979960296613 0.44183454884101375
-0.04319979960296613 0.5288421785673694
-0.07331504591065752 0.39833073397783597
-0.08837266906450321 0.4635864562726027
-0.08084385748758037 0.5070902711357804
-0.07331504591065752 0.5288421785673694
-0.05072861117988898 0.5288421785673694
-0.05072861117988898 0.5940979008621361
-0.035670988026043286 0.5940979008621361
-0.05072861117988898 0.5723459934305472
-0.07331504591065752 0.4853383637041916
-0.08084385748758037 0.35482691911465813
-0.08837266906450321 0.35482691911465813
-0.11095910379527175 0.3765788265462471
-0.1184879153721946 0.5070902711357804
-0.12601672694911745 0.4853383637041916
-0.12601672694911745 0.5070902711357804
-0.11095910379527175 0.4635864562726027
-0.08837266906450321 0.4853383637041916
-0.07331504591065752 0.4853383637041916
-0.06578623433373466 0.5505940859989583
-0.06578623433373466 0.44183454884101375
-0.08084385748758037 0.39833073397783597
-0.1034302922183489 0.39833073397783597
-0.14107435010296313 0.39833073397783597
-0.15613197325680883 0.33307501168306924
-0.16366078483373167 0.3765788265462471
-0.17118959641065454 0.35482691911465813
-0.18624721956450022 0.5070902711357804
-0.16366078483373167 0.5288421785673694
-0.15613197325680883 0.5070902711357804
-0.15613197325680883 0.5070902711357804
-0.14107435010296313 0.5723459934305472
-0.14107435010296313 0.5288421785673694
-0.12601672694911745 0.44183454884101375
-0.13354553852604029 0.42008264140942486
-0.148603161679886 0.33307501168306924
-0.14107435010296313 0.31132310425148035
-0.16366078483373167 0.33307501168306924
-0.17871840798757738 0.33307501168306924
-0.17871840798757738 0.42008264140942486
-0.16366078483373167 0.4635864562726027
-0.16366078483373167 0.5288421785673694
-0.15613197325680883 0.5723459934305472
-0.13354553852604029 0.5723459934305472
-0.148603161679886 0.5070902711357804
-0.148603161679886 0.4635864562726027
-0.15613197325680883 0.4635864562726027
-0.17118959641065454 0.42008264140942486
-0.18624721956450022 0.39833073397783597
-0.18624721956450022 0.39833073397783597
-0.17871840798757738 0.35482691911465813
-0.19377603114142306 0.39833073397783597
-0.16366078483373167 0.4853383637041916
-0.148603161679886 0.44183454884101375
-0.14107435010296313 0.44183454884101375
-0.148603161679886 0.5070902711357804
-0.148603161679886 0.4853383637041916
-0.148603161679886 0.4853383637041916
-0.16366078483373167 0.44183454884101375
-0.16366078483373167 0.39833073397783597
-0.17118959641065454 0.42008264140942486
-0.17118959641065454 0.4853383637041916
-0.17118959641065454 0.5723459934305472
-0.20130484271834592 0.615849808293725
-0.11095910379527175 0.6593536231569028
-0.07331504591065752 0.7681131603148473
-0.035670988026043286 0.8551207900412029
0.0019730698585709505 0.8551207900412029
0.017030693012416644 0.8768726974727918
0.032088316166262336 0.7898650677464362
0.04714593932010803 0.7028574380200806
0.032088316166262336 0.6593536231569028
0.032088316166262336 0.6376017157253139
-0.0055557417183518965 0.6811055305884917
-0.02061336487219759 0.6593536231569028
0.0019730698585709505 0.7681131603148473
0.02455950458933949 0.8116169751780251
0.03961712774318518 0.8116169751780251
0.09984762035856795 0.7898650677464362
0.15254930139702788 0.7463612528832584
0.1901933592816421 0.6811055305884917
0.2052509824354878 0.5940979008621361
0.1676069245508736 0.5288421785673694
0.14502048982010504 0.5723459934305472
0.09984762035856795 0.5723459934305472
0.06973237405087657 0.5723459934305472
0.04714593932010803 0.5940979008621361
0.032088316166262336 0.5723459934305472
0.02455950458933949 0.5723459934305472
0.03961712774318518 0.5505940859989583
0.032088316166262336 0.5505940859989583
0.009501881435493797 0.5505940859989583
-0.013084553295274743 0.5288421785673694
-0.06578623433373466 0.35482691911465813
-0.09590148064142606 0.35482691911465813
-0.14107435010296313 0.33307501168306924
-0.17871840798757738 0.24606738195671365
-0.20883365429526876 0.22431547452512474
-0.2314200890260373 0.28957119681989146
-0.24647771217988299 0.39833073397783597
-0.2314200890260373 0.42008264140942486
-0.23894890060296015 0.39833073397783597
-0.2163624658721916 0.44183454884101375
-0.22389127744911444 0.42008264140942486
-0.18624721956450022 0.42008264140942486
-0.20883365429526876 0.3765788265462471
-0.22389127744911444 0.39833073397783597
-0.22389127744911444 0.31132310425148035
-0.2540065237568058 0.28957119681989146
-0.2615353353337287 0.31132310425148035
-0.26906414691065156 0.44183454884101375
-0.2615353353337287 0.5288421785673694
-0.2314200890260373 0.6593536231569028
-0.2540065237568058 0.6593536231569028
-0.24647771217988299 0.7463612528832584
-0.22389127744911444 0.6593536231569028
-0.2163624658721916 0.6811055305884917
-0.17871840798757738 0.39833073397783597
-0.148603161679886 0.13730784479876915
-0.08084385748758037 -0.34123411869618675
0.08478999720472226 -0.8415279896227315
0.3257119676662534 -1.385325675412454
0.6645084886277814 -1.842115731475821
1.0936507485123836 -2.298905787539188
1.567965877858523 -2.6904401213077884
2.125097934550814 -2.994966825350033
2.7048164259738727 -3.234237807097511
3.2619484826661638 -3.168982084802744
3.6986195541276885 -3.0384706402132107
3.93954152458922 -2.559928676718255
3.8190805393584544 -2.124890528086477
3.246890859512318 -1.7116042868862875
2.2832029776661935 -1.4288294902756318
1.3195150958200692 -1.189558508528154
0.35582721397394473 -0.9937913416438539
-0.6078606678721796 -0.7762722673279647
-1.2929825213721586 -0.38473793355936453
-1.2176944056029302 -0.0802112295171199
-0.8337250151798651 0.20256356709353585
-0.38199632056449423 0.4635864562726027
-0.04319979960296613 0.4853383637041916
0.11490524351241366 0.4635864562726027
0.14502048982010504 0.4853383637041916
0.032088316166262336 0.35482691911465813
-0.09590148064142606 0.24606738195671365
-0.18624721956450022 0.35482691911465813
-0.2615353353337287 0.44183454884101375
-0.26906414691065156 0.5288421785673694
-0.26906414691065156 0.615849808293725
-0.2540065237568058 0.6593536231569028
-0.2163624658721916 0.7028574380200806
-0.19377603114142306 0.7028574380200806
-0.19377603114142306 0.615849808293725
-0.20883365429526876 0.5723459934305472
-0.2163624658721916 0.5723459934305472
-0.23894890060296015 0.5505940859989583
-0.2540065237568058 0.5288421785673694
-0.24647771217988299 0.5505940859989583
-0.2540065237568058 0.5723459934305472
-0.2540065237568058 0.5940979008621361
-0.22389127744911444 0.6593536231569028
-0.20883365429526876 0.7246093454516696
-0.20130484271834592 0.7681131603148473
-0.19377603114142306 0.8116169751780251
-0.19377603114142306 0.7681131603148473
-0.148603161679886 0.7898650677464362
-0.148603161679886 0.7463612528832584
-0.14107435010296313 0.6593536231569028
-0.16366078483373167 0.6376017157253139
-0.15613197325680883 0.6376017157253139
-0.16366078483373167 0.615849808293725
-0.14107435010296313 0.6593536231569028
-0.15613197325680883 0.7028574380200806
-0.12601672694911745 0.8333688826096141
-0.09590148064142606 0.8768726974727918
-0.1034302922183489 0.9856322346307363
-0.08837266906450321 0.9638803271991474
-0.09590148064142606 0.8768726974727918
-0.07331504591065752 0.8116169751780251
-0.08084385748758037 0.8116169751780251
-0.08837266906450321 0.8116169751780251
-0.08837266906450321 0.7898650677464362
-0.07331504591065752 0.8333688826096141
-0.058257422756811825 0.9203765123359696
-0.028142176449120437 0.9421284197675586
0.02455950458933949 0.9203765123359696
0.04714593932010803 0.9856322346307363
0.09231880878164511 0.9856322346307363
0.1073764319354908 1.0073841420623253
0.09984762035856795 1.0291360494939141
0.1224340550893365 1.050887956925503
0.11490524351241366 1.0073841420623253
0.1224340550893365 1.0291360494939141
0.1224340550893365 1.1813994015150364
0.16007811297395072 1.2031513089466253
0.16007811297395072 1.2031513089466253
0.18266454770471927 1.3119108461045699
0.2504238518970249 1.3771665683993366
0.2654814750508706 1.3771665683993366
0.28806790978163915 1.4206703832625145
0.31065434451240764 1.4424222906941033
0.29559672135856196 1.3771665683993366
0.3257119676662534 1.3336627535361587
0.3332407792431762 1.3554146609677478
0.29559672135856196 1.3336627535361587
0.3257119676662534 1.3989184758309254
0.3181831560893305 1.3989184758309254
0.3181831560893305 1.485926105557281
0.3332407792431762 1.485926105557281
0.35582721397394473 1.4641741981256922
0.37088483712779047 1.50767801298887
0.4010000834354818 1.5511818278520477
0.39347127185855896 1.4206703832625145
0.4085288950124047 1.3554146609677478
0.3784136487047133 1.3336627535361587
0.3633560255508676 1.268407031241392
0.3482984023970219 1.2466551238098031
0.31065434451240764 1.2031513089466253
0.2654814750508706 1.2249032163782143
0.2805390982047163 1.2031513089466253
0.28806790978163915 1.1161436792202697
0.2805390982047163 1.0943917717886809
0.2654814750508706 1.072639864357092
0.2730102866277934 0.9856322346307363
0.24289504032010203 0.8986246049043807
0.19772217085856497 0.8551207900412029
0.18266454770471927 0.7681131603148473
0.14502048982010504 0.6593536231569028
0.12996286666625934 0.5723459934305472
0.09984762035856795 0.5723459934305472
0.06220356247395373 0.5070902711357804
0.054674750897030874 0.5505940859989583
0.02455950458933949 0.6376017157253139
0.009501881435493797 0.6593536231569028
0.017030693012416644 0.6593536231569028
0.017030693012416644 0.6376017157253139
-0.013084553295274743 0.5505940859989583
-0.04319979960296613 0.4853383637041916
-0.04319979960296613 0.42008264140942486
-0.07331504591065752 0.35482691911465813
-0.08837266906450321 0.42008264140942486
-0.1034302922183489 0.3765788265462471
-0.15613197325680883 0.3765788265462471
-0.16366078483373167 0.4635864562726027
-0.17118959641065454 0.5070902711357804
-0.16366078483373167 0.5070902711357804
-0.11095910379527175 0.4853383637041916
-0.09590148064142606 0.5505940859989583
-0.08837266906450321 0.5070902711357804
-0.08837266906450321 0.4635864562726027
-0.1184879153721946 0.4635864562726027
-0.14107435010296313 0.42008264140942486
-0.13354553852604029 0.42008264140942486
-0.16366078483373167 0.44183454884101375
-0.15613197325680883 0.42008264140942486
-0.148603161679886 0.3765788265462471
-0.15613197325680883 0.5070902711357804
-0.148603161679886 0.5070902711357804
-0.13354553852604029 0.5070902711357804
-0.11095910379527175 0.6376017157253139
-0.09590148064142606 0.5505940859989583
-0.12601672694911745 0.5505940859989583
-0.1034302922183489 0.5940979008621361
-0.14107435010296313 0.5070902711357804
-0.14107435010296313 0.42008264140942486
-0.17118959641065454 0.5070902711357804
-0.15613197325680883 0.4635864562726027
-0.17118959641065454 0.4635864562726027
-0.17871840798757738 0.5070902711357804
-0.17118959641065454 0.5940979008621361
-0.16366078483373167 0.5723459934305472
-0.13354553852604029 0.6376017157253139
-0.14107435010296313 0.5288421785673694
-0.15613197325680883 0.5505940859989583
-0.17118959641065454 0.5070902711357804
-0.20883365429526876 0.39833073397783597
-0.22389127744911444 0.42008264140942486
-0.2163624658721916 0.4635864562726027
-0.20883365429526876 0.5288421785673694
-0.22389127744911444 0.5723459934305472
-0.2163624658721916 0.5070902711357804
-0.19377603114142306 0.615849808293725
-0.20130484271834592 0.5288421785673694
-0.18624721956450022 0.5940979008621361
-0.20883365429526876 0.615849808293725
-0.22389127744911444 0.5505940859989583
-0.22389127744911444 0.4853383637041916
-0.2540065237568058 0.5070902711357804
-0.26906414691065156 0.42008264140942486
-0.28412177006449724 0.4635864562726027
-0.2991793932183429 0.4635864562726027
-0.3142370163721886 0.4635864562726027
-0.28412177006449724 0.5070902711357804
-0.2615353353337287 0.5505940859989583
-0.2615353353337287 0.5940979008621361
-0.2314200890260373 0.615849808293725
-0.23894890060296015 0.5505940859989583
-0.23894890060296015 0.5070902711357804
-0.2540065237568058 0.3765788265462471
-0.26906414691065156 0.3765788265462471
-0.28412177006449724 0.35482691911465813
-0.29165058164142005 0.33307501168306924
-0.2991793932183429 0.39833073397783597
-0.3142370163721886 0.4635864562726027
-0.29165058164142005 0.5505940859989583
-0.27659295848757437 0.5288421785673694
-0.27659295848757437 0.615849808293725
-0.24647771217988299 0.5940979008621361
-0.27659295848757437 0.5505940859989583
-0.26906414691065156 0.44183454884101375
-0.27659295848757437 0.44183454884101375
-0.2991793932183429 0.39833073397783597
-0.3292946395260343 0.42008264140942486
-0.3142370163721886 0.42008264140942486
-0.33682345110295714 0.44183454884101375
-0.3518810742568029 0.44183454884101375
-0.33682345110295714 0.39833073397783597
-0.32176582794911146 0.3765788265462471
-0.32176582794911146 0.44183454884101375
-0.28412177006449724 0.44183454884101375
-0.28412177006449724 0.5070902711357804
-0.2991793932183429 0.4635864562726027
-0.2991793932183429 0.33307501168306924
-0.3292946395260343 0.35482691911465813
-0.3142370163721886 0.3765788265462471
-0.3142370163721886 0.3765788265462471
-0.3594098858337257 0.3765788265462471
-0.33682345110295714 0.3765788265462471
-0.33682345110295714 0.44183454884101375
-0.3142370163721886 0.4853383637041916
-0.29165058164142005 0.5505940859989583
-0.27659295848757437 0.5505940859989583
-0.29165058164142005 0.5288421785673694
-0.27659295848757437 0.5070902711357804
-0.24647771217988299 0.5505940859989583
-0.24647771217988299 0.5505940859989583
-0.2163624658721916 0.4635864562726027
-0.19377603114142306 0.5723459934305472
-0.17118959641065454 0.5288421785673694
-0.16366078483373167 0.5940979008621361
-0.12601672694911745 0.5940979008621361
-0.11095910379527175 0.6376017157253139
-0.1034302922183489 0.6593536231569028
-0.11095910379527175 0.7681131603148473
-0.1184879153721946 0.6811055305884917
-0.11095910379527175 0.6593536231569028
-0.1184879153721946 0.5940979008621361
-0.1184879153721946 0.5723459934305472
-0.08084385748758037 0.4853383637041916
-0.058257422756811825 0.4635864562726027
-0.035670988026043286 0.4635864562726027
-0.035670988026043286 0.4635864562726027
-0.035670988026043286 0.4635864562726027
-0.04319979960296613 0.5505940859989583
-0.02061336487219759 0.5940979008621361
-0.035670988026043286 0.5940979008621361
-0.058257422756811825 0.5940979008621361
-0.08837266906450321 0.5288421785673694
-0.08084385748758037 0.42008264140942486
-0.1034302922183489 0.2678192893883026
-0.1034302922183489 0.31132310425148035
-0.14107435010296313 0.31132310425148035
-0.13354553852604029 0.42008264140942486
-0.20883365429526876 0.35482691911465813
-0.23894890060296015 0.39833073397783597
-0.2615353353337287 0.3765788265462471
-0.29165058164142005 0.35482691911465813
-0.28412177006449724 0.35482691911465813
-0.27659295848757437 0.31132310425148035
-0.3292946395260343 0.31132310425148035
-0.3518810742568029 0.28957119681989146
-0.38199632056449423 0.24606738195671365
-0.3970539437183399 0.18081165966194693
-0.3895251321414171 0.22431547452512474
-0.38199632056449423 0.24606738195671365
-0.38199632056449423 0.18081165966194693
-0.3594098858337257 0.22431547452512474
-0.32176582794911146 0.42008264140942486
-0.33682345110295714 0.35482691911465813
-0.3142370163721886 0.35482691911465813
-0.3292946395260343 0.3765788265462471
-0.34435226267988 0.39833073397783597
-0.3518810742568029 0.4635864562726027
-0.37446750898757136 0.5070902711357804
-0.38199632056449423 0.4853383637041916
-0.38199632056449423 0.5505940859989583
-0.38199632056449423 0.5505940859989583
-0.3895251321414171 0.39833073397783597
-0.37446750898757136 0.31132310425148035
-0.3067082047952658 0.006796400209235718
-0.17871840798757738 -0.38473793355936453
-0.0055557417183518965 -0.8415279896227315
0.2504238518970249 -1.2983180456860985
0.5741627497047073 -1.7116042868862875
0.935545705397004 -2.1466424355180656
1.3646879652816062 -2.516424861855077
1.8314742830508226 -2.8209515658973214
2.3434334702815764 -3.147230177371155
2.85539265751233 -3.2559897145290995
3.3522942215892377 -3.212485899665922
3.7588500467430714 -2.907959195623677
4.014829640358449 -2.472921046991899
4.075060132973831 -2.124890528086477
3.7964941046276857 -1.7551081017494654
3.156545120589244 -1.4505813977072208
2.1928572387431196 -1.2765661382545095
1.229169356896995 -1.0590470639386205
0.2654814750508706 -0.9720394342122649
-0.6982064067952538 -0.6892646376016092
-1.2854537097952359 -0.47174556328572015
-1.2402808403336987 -0.16721885924347551
-0.9391283772567849 0.02854830764082462
-0.5250437405260283 0.33307501168306924
-0.18624721956450022 0.44183454884101375
0.0019730698585709505 0.5288421785673694
0.06220356247395373 0.5070902711357804
-0.028142176449120437 0.4635864562726027
-0.16366078483373167 0.44183454884101375
-0.28412177006449724 0.39833073397783597
-0.38199632056449423 0.35482691911465813
-0.3970539437183399 0.44183454884101375
-0.3895251321414171 0.5505940859989583
-0.36693869741064855 0.5070902711357804
-0.36693869741064855 0.5288421785673694
-0.32176582794911146 0.5288421785673694
-0.3142370163721886 0.5288421785673694
-0.32176582794911146 0.5505940859989583
-0.2991793932183429 0.6593536231569028
-0.3142370163721886 0.615849808293725
-0.2991793932183429 0.6593536231569028
-0.3067082047952658 0.6593536231569028
-0.29165058164142005 0.5505940859989583
-0.3292946395260343 0.5070902711357804
-0.3292946395260343 0.5505940859989583
-0.33682345110295714 0.5288421785673694
-0.33682345110295714 0.6376017157253139
-0.3067082047952658 0.6593536231569028
-0.27659295848757437 0.7028574380200806
-0.26906414691065156 0.7681131603148473
-0.22389127744911444 0.7898650677464362
-0.2163624658721916 0.7681131603148473
-0.2163624658721916 0.7681131603148473
-0.2163624658721916 0.7246093454516696
-0.23894890060296015 0.7681131603148473
-0.23894890060296015 0.7028574380200806
-0.22389127744911444 0.7246093454516696
-0.22389127744911444 0.7898650677464362
-0.2163624658721916 0.7681131603148473
-0.22389127744911444 0.7898650677464362
-0.20130484271834592 0.9203765123359696
-0.16366078483373167 0.9421284197675586
-0.15613197325680883 0.9856322346307363
-0.13354553852604029 0.9203765123359696
-0.1184879153721946 0.8986246049043807
-0.11095910379527175 0.9203765123359696
-0.1034302922183489 0.8768726974727918
-0.11095910379527175 0.8768726974727918
-0.09590148064142606 0.9421284197675586
-0.07331504591065752 0.9203765123359696
-0.058257422756811825 0.8986246049043807
-0.02061336487219759 1.0291360494939141
0.0019730698585709505 1.0943917717886809
0.02455950458933949 1.2031513089466253
0.07726118562779942 1.3336627535361587
0.09984762035856795 1.3119108461045699
0.1224340550893365 1.2466551238098031
0.12996286666625934 1.2031513089466253
0.12996286666625934 1.1813994015150364
0.11490524351241366 1.1378955866518587
0.1224340550893365 1.1813994015150364
0.14502048982010504 1.1813994015150364
0.16007811297395072 1.3119108461045699
0.18266454770471927 1.3771665683993366
0.2353662287431792 1.3989184758309254
0.2504238518970249 1.485926105557281
0.29559672135856196 1.4641741981256922
0.3332407792431762 1.50767801298887
0.3257119676662534 1.485926105557281
0.3181831560893305 1.4424222906941033
0.28806790978163915 1.4206703832625145
0.2805390982047163 1.3554146609677478
0.29559672135856196 1.4206703832625145
0.28806790978163915 1.3989184758309254
0.28806790978163915 1.3771665683993366
0.2805390982047163 1.3989184758309254
0.28806790978163915 1.4424222906941033
0.2730102866277934 1.5729337352836368
0.30312553293548483 1.485926105557281
0.2805390982047163 1.4641741981256922
0.2504238518970249 1.3771665683993366
0.2654814750508706 1.2466551238098031
0.22030860558933352 1.1596474940834476
0.21277979401241065 1.050887956925503
0.2052509824354878 0.9421284197675586
0.1676069245508736 0.9203765123359696
0.12996286666625934 0.9421284197675586
0.09984762035856795 0.9638803271991474
0.07726118562779942 0.8768726974727918
0.054674750897030874 0.9421284197675586
0.054674750897030874 0.9203765123359696
0.017030693012416644 0.8551207900412029
-0.04319979960296613 0.8116169751780251
-0.06578623433373466 0.7246093454516696
-0.12601672694911745 0.615849808293725
-0.148603161679886 0.5940979008621361
-0.16366078483373167 0.5288421785673694
-0.20130484271834592 0.5723459934305472
-0.23894890060296015 0.5505940859989583
-0.20883365429526876 0.5940979008621361
-0.2314200890260373 0.5505940859989583
-0.26906414691065156 0.5723459934305472
-0.2615353353337287 0.6593536231569028
-0.2540065237568058 0.7246093454516696
-0.2615353353337287 0.7028574380200806
-0.2540065237568058 0.5505940859989583
-0.2540065237568058 0.4853383637041916
-0.27659295848757437 0.44183454884101375
-0.2991793932183429 0.5505940859989583
-0.3067082047952658 0.5505940859989583
-0.32176582794911146 0.5288421785673694
-0.3292946395260343 0.5505940859989583
-0.27659295848757437 0.6593536231569028
-0.2540065237568058 0.7463612528832584
-0.2314200890260373 0.6811055305884917
-0.22389127744911444 0.6593536231569028
-0.2314200890260373 0.6593536231569028
-0.2540065237568058 0.5723459934305472
-0.2991793932183429 0.4853383637041916
-0.3067082047952658 0.44183454884101375
-0.3292946395260343 0.5288421785673694
-0.32176582794911146 0.5288421785673694
-0.32176582794911146 0.5505940859989583
-0.27659295848757437 0.5723459934305472
-0.27659295848757437 0.6376017157253139
-0.26906414691065156 0.615849808293725
-0.24647771217988299 0.6593536231569028
-0.22389127744911444 0.6811055305884917
-0.22389127744911444 0.7028574380200806
-0.22389127744911444 0.5940979008621361
-0.2540065237568058 0.6811055305884917
-0.24647771217988299 0.6376017157253139
-0.2540065237568058 0.6593536231569028
-0.28412177006449724 0.5723459934305472
-0.28412177006449724 0.5505940859989583
-0.23894890060296015 0.5940979008621361
-0.22389127744911444 0.615849808293725
-0.19377603114142306 0.6811055305884917
-0.148603161679886 0.6376017157253139
-0.1034302922183489 0.615849808293725
-0.06578623433373466 0.6593536231569028
-0.013084553295274743 0.615849808293725
0.017030693012416644 0.6376017157253139
0.06220356247395373 0.5288421785673694
0.1224340550893365 0.42008264140942486
0.1901933592816421 0.31132310425148035
0.28806790978163915 0.24606738195671365
0.4010000834354818 0.18081165966194693
0.5289898802431702 0.22431547452512474
0.6494508654739358 0.22431547452512474
0.7924982854354699 0.07205212250400242
0.9054304590893125 -0.014955507222353184
1.0861219369354609 -0.0802112295171199
1.2517557916277635 -0.12371504438029769
1.4550337042046804 -0.03670741465394209
1.6357251820508287 0.006796400209235718
1.8691183409354368 0.18081165966194693
2.0723962535123537 0.31132310425148035
2.3283758471277305 0.6593536231569028
2.5768266291661845 1.1161436792202697
2.8779790922430983 1.3989184758309254
3.133958685858475 1.725197087304759
3.389938279473852 1.9862199764838258
3.6308602499353833 1.9209642541890593
3.871782220396914 1.5729337352836368
4.120233002435368 1.2031513089466253
4.353626161319976 0.5723459934305472
4.541846450743048 -0.12371504438029769
4.677365059127659 -0.732768452464787
4.805354855935347 -1.2330623233913318
4.9032294064353446 -1.6898523794546987
5.008632768512264 -1.842115731475821
5.061334449550724 -1.842115731475821
5.098978507435338 -1.7333561943178766
5.0839208842814925 -1.407077582844043
5.038748014819955 -1.0590470639386205
4.880642971704575 -0.5370012855804869
4.564432885473816 -0.2107226741066533
3.984714394050757 0.05030021507241352
3.088785816396938 0.07205212250400242
2.125097934550814 0.11555593736718023
1.1614100527046893 0.11555593736718023
0.19772217085856497 0.09380402993559132
-0.4723420594875684 0.11555593736718023
-0.6530335373337167 0.15905975223035804
-0.6831487836414081 0.28957119681989146
-0.637975914179871 0.24606738195671365
-0.6304471026029482 0.24606738195671365
-0.6906775952183309 0.24606738195671365
-0.788552145718328 0.24606738195671365
-0.9240707541029392 0.28957119681989146
-1.0445317393337048 0.35482691911465813
-1.1122910435260103 0.42008264140942486
-1.1725215361413932 0.42008264140942486
-1.1951079708721617 0.5505940859989583
-1.1725215361413932 0.615849808293725
-1.1424062898337017 0.6811055305884917
-1.0972334203721648 0.8333688826096141
-1.0445317393337048 0.9421284197675586
-1.0671181740644733 0.9421284197675586
-1.0520605509106276 0.7898650677464362
-1.0671181740644733 0.6593536231569028
-1.1122910435260103 0.6376017157253139
-1.1424062898337017 0.5723459934305472
-1.1951079708721617 0.5723459934305472
-1.2402808403336987 0.615849808293725
-1.2703960866413901 0.6593536231569028
-1.3080401445260044 0.615849808293725
-1.3080401445260044 0.7681131603148473
-1.2929825213721586 0.8116169751780251
-1.2929825213721586 0.8333688826096141
-1.3155689561029271 0.8116169751780251
-1.3306265792567729 0.7463612528832584
-1.3532130139875416 0.7246093454516696
-1.4059146950260013 0.6376017157253139
-1.420972318179847 0.5940979008621361
-1.4435587529106155 0.5723459934305472
-1.4586163760644613 0.5723459934305472
-1.4962604339490755 0.5723459934305472
-1.5113180571029212 0.5940979008621361
-1.5113180571029212 0.7028574380200806
-1.5113180571029212 0.6376017157253139
-1.4962604339490755 0.7246093454516696
-1.5489621149875354 0.7463612528832584
-1.5564909265644584 0.7681131603148473
-1.5941349844490726 0.7463612528832584
-1.624250230756764 0.7681131603148473
-1.669423100218301 0.7028574380200806
-1.7070671581029153 0.7028574380200806
-1.7522400275644523 0.7246093454516696
-1.7748264622952208 0.7681131603148473
-1.7974128970259895 0.8551207900412029
-1.7974128970259895 0.8986246049043807
-1.819999331756758 0.9856322346307363
-1.812470520179835 1.0291360494939141
-1.8501145780644495 1.0291360494939141
-1.8802298243721407 1.0073841420623253
-1.8952874475259864 1.0291360494939141
-1.925402693833678 1.0073841420623253
-1.9630467517182921 0.9856322346307363
-1.9856331864490606 0.9638803271991474
-2.0383348674875204 1.0291360494939141
-2.060921302218289 1.2031513089466253
-2.068450113795212 1.3119108461045699
-2.0533924906413663 1.3771665683993366
-2.0533924906413663 1.50767801298887
-2.015748432756752 1.4641741981256922
-2.015748432756752 1.4424222906941033
-2.0082196211798293 1.3771665683993366
-1.9856331864490606 1.3336627535361587
-2.0082196211798293 1.3336627535361587
-2.000690809602906 1.290158938672981
-1.9404603169875234 1.3119108461045699
-1.9028162591029092 1.3771665683993366
-1.8425857664875265 1.3554146609677478
-1.7898840854490665 1.3989184758309254
-1.7296535928336838 1.4424222906941033
-1.6844807233721468 1.2466551238098031
-1.6317790423336869 1.268407031241392
-1.5941349844490726 1.1161436792202697
-1.5113180571029212 1.1161436792202697
-1.4510875644875385 1.050887956925503
-1.37579944871831 1.050887956925503
-1.3306265792567729 0.8986246049043807
-1.2402808403336987 0.8333688826096141
-1.180050347718316 0.8333688826096141
-1.0897046087952418 0.6811055305884917
-1.0144164930260133 0.6811055305884917
-0.931599565679862 0.6593536231569028
-0.8788978846414022 0.7246093454516696
-0.8111385804490965 0.7246093454516696
-0.7810233341414051 0.7028574380200806
-0.7433792762567909 0.6811055305884917
-0.7057352183721767 0.5723459934305472
-0.6756199720644852 0.5070902711357804
-0.6906775952183309 0.42008264140942486
-0.6831487836414081 0.42008264140942486
-0.6906775952183309 0.39833073397783597
-0.7132640299490995 0.44183454884101375
-0.6906775952183309 0.44183454884101375
-0.6605623489106396 0.5070902711357804
-0.6304471026029482 0.5288421785673694
-0.6153894794491025 0.5723459934305472
-0.6003318562952568 0.5288421785673694
-0.6003318562952568 0.5070902711357804
-0.6078606678721796 0.4635864562726027
-0.6304471026029482 0.3765788265462471
-0.637975914179871 0.3765788265462471
-0.6530335373337167 0.2678192893883026
-0.6680911604875625 0.3765788265462471
-0.6304471026029482 0.31132310425148035
-0.6756199720644852 0.35482691911465813
-0.6605623489106396 0.35482691911465813
-0.6455047257567939 0.39833073397783597
-0.6153894794491025 0.44183454884101375
-0.6078606678721796 0.3765788265462471
-0.5928030447183339 0.42008264140942486
-0.5777454215644883 0.44183454884101375
-0.5852742331414111 0.39833073397783597
-0.5928030447183339 0.33307501168306924
-0.6003318562952568 0.28957119681989146
-0.6229182910260254 0.2678192893883026
-0.6304471026029482 0.33307501168306924
-0.6455047257567939 0.35482691911465813
-0.6229182910260254 0.3765788265462471
-0.6078606678721796 0.44183454884101375
-0.5928030447183339 0.4853383637041916
-0.5928030447183339 0.39833073397783597
-0.6153894794491025 0.3765788265462471
-0.6003318562952568 0.33307501168306924
-0.6153894794491025 0.31132310425148035
-0.6003318562952568 0.28957119681989146
-0.6153894794491025 0.31132310425148035
-0.6229182910260254 0.31132310425148035
-0.6229182910260254 0.24606738195671365
-0.637975914179871 0.31132310425148035
-0.6229182910260254 0.2678192893883026
-0.6153894794491025 0.31132310425148035
-0.6078606678721796 0.3765788265462471
-0.6078606678721796 0.33307501168306924
-0.6153894794491025 0.22431547452512474
-0.637975914179871 0.15905975223035804
-0.6153894794491025 0.15905975223035804
-0.6304471026029482 0.20256356709353585
-0.6229182910260254 0.13730784479876915
-0.6304471026029482 0.13730784479876915
-0.6229182910260254 0.15905975223035804
-0.6003318562952568 0.22431547452512474
-0.5928030447183339 0.20256356709353585
-0.5777454215644883 0.35482691911465813
-0.5551589868337197 0.3765788265462471
-0.5476301752567969 0.2678192893883026
-0.5551589868337197 0.2678192893883026
-0.5626877984106425 0.18081165966194693
-0.5702166099875654 0.15905975223035804
-0.5626877984106425 0.05030021507241352
-0.5928030447183339 0.09380402993559132
-0.6003318562952568 0.13730784479876915
-0.5702166099875654 0.15905975223035804
-0.5626877984106425 0.18081165966194693
-0.5551589868337197 0.11555593736718023
-0.5551589868337197 0.18081165966194693
-0.540101363679874 0.24606738195671365
-0.5476301752567969 0.24606738195671365
-0.5325725521029512 0.15905975223035804
-0.5175149289491054 0.15905975223035804
-0.540101363679874 0.11555593736718023
-0.5551589868337197 0.05030021507241352
-0.540101363679874 0.02854830764082462
-0.5476301752567969 0.006796400209235718
-0.5250437405260283 0.07205212250400242
-0.5099861173721826 0.13730784479876915
-0.5099861173721826 0.22431547452512474
-0.4873996826414141 0.2678192893883026
-0.4572844363337227 0.31132310425148035
-0.44975562475679987 0.2678192893883026
-0.46481324791064554 0.22431547452512474
-0.46481324791064554 0.09380402993559132
-0.46481324791064554 0.15905975223035804
-0.4723420594875684 0.006796400209235718
-0.4798708710644912 0.09380402993559132
-0.49492849421833696 0.11555593736718023
-0.4723420594875684 0.05030021507241352
-0.4572844363337227 0.11555593736718023
-0.44975562475679987 0.15905975223035804
-0.4346980016029542 0.15905975223035804
-0.4045827552952628 0.18081165966194693
-0.41964037844910845 0.20256356709353585
-0.3895251321414171 0.15905975223035804
-0.4045827552952628 0.15905975223035804
-0.4271691900260313 0.07205212250400242
-0.4346980016029542 0.07205212250400242
-0.4271691900260313 0.07205212250400242
-0.44975562475679987 0.11555593736718023
-0.44975562475679987 0.07205212250400242
-0.41964037844910845 0.05030021507241352
-0.41964037844910845 0.13730784479876915
-0.41964037844910845 0.11555593736718023
-0.37446750898757136 0.11555593736718023
-0.36693869741064855 0.07205212250400242
-0.37446750898757136 0.13730784479876915
-0.36693869741064855 0.006796400209235718
-0.38199632056449423 -0.03670741465394209
-0.41211156687218564 -0.05845932208553099
-0.4045827552952628 -0.03670741465394209
-0.4045827552952628 -0.10196313694870879
-0.4271691900260313 -0.014955507222353184
-0.41964037844910845 0.02854830764082462
-0.38199632056449423 0.02854830764082462
-0.36693869741064855 0.15905975223035804
-0.33682345110295714 0.22431547452512474
-0.3292946395260343 0.22431547452512474
-0.32176582794911146 0.15905975223035804
-0.33682345110295714 0.05030021507241352
-0.3594098858337257 0.05030021507241352
-0.3594098858337257 -0.014955507222353184
-0.3594098858337257 -0.05845932208553099
-0.37446750898757136 -0.10196313694870879
-0.3895251321414171 -0.10196313694870879
-0.3594098858337257 -0.10196313694870879
-0.34435226267988 -0.05845932208553099
-0.3067082047952658 0.07205212250400242
-0.3067082047952658 0.11555593736718023
-0.2991793932183429 0.11555593736718023
-0.32176582794911146 0.05030021507241352
-0.3142370163721886 -0.0802112295171199
-0.3292946395260343 -0.12371504438029769
-0.3292946395260343 -0.1889707666750644
-0.32176582794911146 -0.12371504438029769
-0.3518810742568029 -0.1889707666750644
-0.3292946395260343 -0.0802112295171199
-0.3142370163721886 -0.10196313694870879
-0.2991793932183429 0.006796400209235718
-0.28412177006449724 0.13730784479876915
-0.27659295848757437 0.09380402993559132
-0.28412177006449724 0.07205212250400242
-0.3067082047952658 0.006796400209235718
-0.3292946395260343 -0.0802112295171199
-0.2991793932183429 -0.12371504438029769
-0.3067082047952658 -0.16721885924347551
-0.3292946395260343 -0.12371504438029769
-0.3594098858337257 -0.0802112295171199
-0.36693869741064855 0.006796400209235718
-0.32176582794911146 0.006796400209235718
-0.27659295848757437 -0.03670741465394209
-0.26906414691065156 0.006796400209235718
-0.23894890060296015 0.02854830764082462
-0.22389127744911444 0.02854830764082462
-0.2314200890260373 0.05030021507241352
-0.23894890060296015 0.05030021507241352
-0.2615353353337287 -0.014955507222353184
-0.2991793932183429 -0.10196313694870879
-0.3142370163721886 -0.05845932208553099
-0.32176582794911146 -0.1454669518118866
-0.3067082047952658 -0.16721885924347551
-0.3067082047952658 -0.10196313694870879
-0.27659295848757437 -0.0802112295171199
-0.2540065237568058 0.006796400209235718
-0.24647771217988299 0.05030021507241352
-0.24647771217988299 0.006796400209235718
-0.23894890060296015 0.006796400209235718
-0.24647771217988299 -0.0802112295171199
-0.24647771217988299 -0.12371504438029769
-0.27659295848757437 -0.1454669518118866
-0.27659295848757437 -0.1454669518118866
-0.27659295848757437 -0.10196313694870879
-0.28412177006449724 -0.12371504438029769
-0.27659295848757437 -0.10196313694870879
-0.2615353353337287 -0.0802112295171199
-0.26906414691065156 0.006796400209235718
-0.2314200890260373 -0.0802112295171199
-0.20130484271834592 -0.03670741465394209
-0.20883365429526876 -0.1454669518118866
-0.22389127744911444 -0.12371504438029769
-0.22389127744911444 -0.10196313694870879
-0.24647771217988299 -0.1889707666750644
-0.24647771217988299 -0.16721885924347551
-0.24647771217988299 -0.12371504438029769
-0.23894890060296015 -0.10196313694870879
-0.2540065237568058 -0.05845932208553099
-0.2163624658721916 -0.014955507222353184
-0.2163624658721916 0.05030021507241352
-0.22389127744911444 0.09380402993559132
-0.20130484271834592 0.18081165966194693
-0.18624721956450022 0.13730784479876915
-0.148603161679886 0.13730784479876915
-0.17118959641065454 0.05030021507241352
-0.14107435010296313 0.07205212250400242
-0.11095910379527175 0.07205212250400242
-0.08084385748758037 0.09380402993559132
-0.058257422756811825 0.09380402993559132
-0.058257422756811825 0.09380402993559132
-0.04319979960296613 0.13730784479876915
-0.028142176449120437 0.20256356709353585
0.0019730698585709505 0.24606738195671365
0.009501881435493797 0.24606738195671365
-0.0055557417183518965 0.2678192893883026
-0.0055557417183518965 0.11555593736718023
-0.013084553295274743 0.006796400209235718
0.009501881435493797 0.006796400209235718
0.02455950458933949 0.02854830764082462
0.032088316166262336 -0.03670741465394209
0.07726118562779942 -0.10196313694870879
0.07726118562779942 -0.16721885924347551
0.07726118562779942 -0.10196313694870879
0.06973237405087657 -0.03670741465394209
0.07726118562779942 0.07205212250400242
0.06973237405087657 0.18081165966194693
0.054674750897030874 0.13730784479876915
0.06220356247395373 0.18081165966194693
0.02455950458933949 0.05030021507241352
0.009501881435493797 -0.0802112295171199
0.0019730698585709505 -0.12371504438029769
-0.028142176449120437 -0.1454669518118866
-0.04319979960296613 -0.16721885924347551
-0.06578623433373466 -0.0802112295171199
-0.08084385748758037 -0.014955507222353184
-0.09590148064142606 0.02854830764082462
-0.12601672694911745 0.05030021507241352
-0.14107435010296313 0.02854830764082462
-0.17871840798757738 0.006796400209235718
-0.2163624658721916 -0.05845932208553099
-0.26906414691065156 -0.2107226741066533
-0.2615353353337287 -0.1889707666750644
-0.26906414691065156 -0.23247458153824221
-0.26906414691065156 -0.23247458153824221
-0.2540065237568058 -0.2107226741066533
-0.22389127744911444 -0.1454669518118866
-0.20130484271834592 -0.014955507222353184
-0.20130484271834592 -0.014955507222353184
-0.17871840798757738 0.09380402993559132
-0.17871840798757738 0.13730784479876915
-0.18624721956450022 0.09380402993559132
-0.19377603114142306 0.18081165966194693
-0.22389127744911444 0.13730784479876915
-0.2314200890260373 0.006796400209235718
-0.20883365429526876 -0.0802112295171199
-0.17871840798757738 -0.23247458153824221
-0.1184879153721946 -0.49349747071730904
0.009501881435493797 -0.6892646376016092
0.2730102866277934 -1.1243027862333872
0.5440475033970159 -1.4288294902756318
0.9280168938200811 -1.7551081017494654
1.3195150958200692 -2.081386713223299
1.7486573557046714 -2.472921046991899
2.1777996155892736 -2.8644553807604995
2.5994130638969533 -3.212485899665922
3.0134977006277097 -3.408253066550222
3.389938279473852 -3.3647492516870443
3.683561930973843 -3.1254782699395665
3.8341381625123 -2.733943936170966
3.7513212351661487 -2.1901462503812437
3.3071213521277008 -1.7768600091810542
2.4714232670892646 -1.4288294902756318
1.5077353852431403 -1.2113104159597428
0.5440475033970159 -1.0372951565070316
-0.41964037844910845 -0.8197760821911426
-1.029474116179859 -0.5805051004436647
-1.0144164930260133 -0.36298602612777564
-0.7132640299490995 -0.34123411869618675
-0.3518810742568029 -0.1454669518118866
-0.058257422756811825 -0.12371504438029769
0.09984762035856795 -0.1889707666750644
0.1224340550893365 -0.16721885924347551
0.032088316166262336 -0.014955507222353184
-0.058257422756811825 0.02854830764082462
-0.148603161679886 0.13730784479876915
-0.20130484271834592 0.07205212250400242
-0.22389127744911444 0.11555593736718023
-0.2314200890260373 0.11555593736718023
-0.2314200890260373 0.02854830764082462
-0.22389127744911444 0.02854830764082462
-0.20883365429526876 -0.014955507222353184
-0.23894890060296015 0.09380402993559132
-0.23894890060296015 0.11555593736718023
-0.23894890060296015 0.18081165966194693
-0.22389127744911444 0.2678192893883026
-0.2163624658721916 0.24606738195671365
-0.18624721956450022 0.33307501168306924
-0.17118959641065454 0.33307501168306924
-0.148603161679886 0.35482691911465813
-0.13354553852604029 0.31132310425148035
-0.13354553852604029 0.35482691911465813
-0.14107435010296313 0.31132310425148035
-0.148603161679886 0.28957119681989146
-0.17118959641065454 0.2678192893883026
-0.20130484271834592 0.15905975223035804
-0.17118959641065454 0.24606738195671365
-0.148603161679886 0.20256356709353585
-0.1034302922183489 0.28957119681989146
-0.09590148064142606 0.31132310425148035
-0.08837266906450321 0.3765788265462471
-0.08084385748758037 0.35482691911465813
-0.08837266906450321 0.28957119681989146
-0.13354553852604029 0.20256356709353585
-0.12601672694911745 0.18081165966194693
-0.08084385748758037 0.15905975223035804
-0.07331504591065752 0.18081165966194693
-0.058257422756811825 0.20256356709353585
-0.02061336487219759 0.33307501168306924
0.0019730698585709505 0.42008264140942486
0.02455950458933949 0.44183454884101375
0.06973237405087657 0.4853383637041916
0.08478999720472226 0.35482691911465813
0.09231880878164511 0.3765788265462471
0.07726118562779942 0.31132310425148035
0.08478999720472226 0.28957119681989146
0.09231880878164511 0.2678192893883026
0.08478999720472226 0.3765788265462471
0.1224340550893365 0.3765788265462471
0.11490524351241366 0.4635864562726027
0.12996286666625934 0.4853383637041916
0.1374916782431822 0.5070902711357804
0.1676069245508736 0.5288421785673694
0.22030860558933352 0.6593536231569028
0.2504238518970249 0.615849808293725
0.2805390982047163 0.5505940859989583
0.29559672135856196 0.6376017157253139
0.2654814750508706 0.6593536231569028
0.2730102866277934 0.7028574380200806
0.2805390982047163 0.6593536231569028
0.31065434451240764 0.7028574380200806
0.34076959082009906 0.6811055305884917
0.3633560255508676 0.7246093454516696
0.3784136487047133 0.8551207900412029
0.4010000834354818 0.8986246049043807
0.4537017644739417 0.9856322346307363
0.47628819920471027 0.9856322346307363
0.5064034455124017 0.9638803271991474
0.4988746339354788 0.8986246049043807
0.5064034455124017 0.8768726974727918
0.5139322570893246 0.8551207900412029
0.5064034455124017 0.9203765123359696
0.5214610686662474 0.8768726974727918
0.5214610686662474 0.8116169751780251
0.5289898802431702 0.8986246049043807
0.5440475033970159 0.8768726974727918
0.6042779960123987 0.8768726974727918
0.6042779960123987 0.8986246049043807
0.6193356191662444 0.8768726974727918
0.6193356191662444 0.8986246049043807
0.6193356191662444 0.8551207900412029
0.6118068075893215 0.7246093454516696
0.589220372858553 0.7463612528832584
0.5666339381277845 0.6376017157253139
0.5666339381277845 0.5505940859989583
0.5741627497047073 0.5505940859989583
0.5741627497047073 0.5723459934305472
0.5591051265508616 0.5940979008621361
0.5515763149739388 0.615849808293725
0.536518691820093 0.5505940859989583
0.5515763149739388 0.5723459934305472
0.5214610686662474 0.5070902711357804
0.47628819920471027 0.3765788265462471
0.4537017644739417 0.33307501168306924
0.39347127185855896 0.22431547452512474
0.3332407792431762 0.15905975223035804
0.29559672135856196 0.15905975223035804
0.2730102866277934 0.15905975223035804
0.24289504032010203 0.24606738195671365
0.22783741716625636 0.24606738195671365
0.2052509824354878 0.2678192893883026
0.1901933592816421 0.35482691911465813
0.1676069245508736 0.24606738195671365
0.1676069245508736 0.20256356709353585
0.14502048982010504 0.18081165966194693
0.15254930139702788 0.11555593736718023
0.09984762035856795 0.07205212250400242
0.054674750897030874 0.09380402993559132
0.03961712774318518 0.05030021507241352
0.02455950458933949 0.09380402993559132
0.032088316166262336 0.09380402993559132
0.03961712774318518 0.15905975223035804
0.032088316166262336 0.22431547452512474
0.054674750897030874 0.31132310425148035
0.07726118562779942 0.22431547452512474
0.032088316166262336 0.18081165966194693
0.03961712774318518 0.22431547452512474
0.0019730698585709505 0.15905975223035804
0.0019730698585709505 0.006796400209235718
-0.028142176449120437 0.07205212250400242
-0.013084553295274743 0.05030021507241352
-0.0055557417183518965 0.09380402993559132
-0.013084553295274743 0.2678192893883026
0.02455950458933949 0.24606738195671365
0.04714593932010803 0.33307501168306924
0.07726118562779942 0.31132310425148035
0.03961712774318518 0.28957119681989146
0.03961712774318518 0.18081165966194693
0.06220356247395373 0.13730784479876915
0.032088316166262336 0.20256356709353585
-0.013084553295274743 0.09380402993559132
-0.013084553295274743 0.13730784479876915
-0.028142176449120437 0.11555593736718023
-0.058257422756811825 0.15905975223035804
-0.06578623433373466 0.20256356709353585
-0.058257422756811825 0.2678192893883026
-0.058257422756811825 0.22431547452512474
-0.035670988026043286 0.28957119681989146
-0.013084553295274743 0.31132310425148035
-0.028142176449120437 0.28957119681989146
-0.04319979960296613 0.20256356709353585
-0.09590148064142606 0.11555593736718023
-0.1034302922183489 0.09380402993559132
-0.1184879153721946 0.13730784479876915
-0.13354553852604029 0.13730784479876915
-0.15613197325680883 0.11555593736718023
-0.15613197325680883 0.20256356709353585
-0.11095910379527175 0.22431547452512474
-0.11095910379527175 0.24606738195671365
-0.1034302922183489 0.24606738195671365
-0.1184879153721946 0.28957119681989146
-0.11095910379527175 0.22431547452512474
-0.11095910379527175 0.11555593736718023
-0.16366078483373167 0.13730784479876915
-0.15613197325680883 0.11555593736718023
-0.16366078483373167 0.05030021507241352
-0.18624721956450022 0.006796400209235718
-0.20130484271834592 0.07205212250400242
-0.19377603114142306 0.11555593736718023
-0.17871840798757738 0.13730784479876915
-0.17871840798757738 0.20256356709353585
-0.16366078483373167 0.15905975223035804
-0.17871840798757738 0.09380402993559132
-0.17871840798757738 0.05030021507241352
-0.19377603114142306 0.07205212250400242
-0.17118959641065454 -0.014955507222353184
-0.18624721956450022 0.05030021507241352
-0.23894890060296015 0.07205212250400242
-0.24647771217988299 0.11555593736718023
-0.24647771217988299 0.18081165966194693
-0.24647771217988299 0.15905975223035804
-0.22389127744911444 0.18081165966194693
-0.22389127744911444 0.13730784479876915
-0.20130484271834592 0.22431547452512474
-0.18624721956450022 0.13730784479876915
-0.19377603114142306 0.09380402993559132
-0.2163624658721916 -0.0802112295171199
-0.22389127744911444 -0.05845932208553099
-0.23894890060296015 -0.0802112295171199
-0.2615353353337287 -0.10196313694870879
-0.27659295848757437 -0.05845932208553099
-0.2540065237568058 -0.014955507222353184
-0.26906414691065156 0.05030021507241352
-0.2540065237568058 0.07205212250400242
-0.24647771217988299 0.13730784479876915
-0.2163624658721916 0.22431547452512474
-0.22389127744911444 0.15905975223035804
-0.20883365429526876 0.13730784479876915
-0.22389127744911444 0.15905975223035804
-0.2163624658721916 0.15905975223035804
-0.20883365429526876 0.11555593736718023
-0.22389127744911444 0.18081165966194693
-0.20883365429526876 0.20256356709353585
-0.15613197325680883 0.15905975223035804
-0.14107435010296313 0.24606738195671365
-0.11095910379527175 0.31132310425148035
-0.08837266906450321 0.42008264140942486
-0.06578623433373466 0.44183454884101375
-0.04319979960296613 0.42008264140942486
-0.058257422756811825 0.42008264140942486
-0.08084385748758037 0.44183454884101375
-0.1034302922183489 0.2678192893883026
-0.09590148064142606 0.24606738195671365
-0.09590148064142606 0.18081165966194693
-0.06578623433373466 0.13730784479876915
0.0019730698585709505 0.09380402993559132
0.032088316166262336 0.11555593736718023
0.07726118562779942 0.18081165966194693
0.07726118562779942 0.20256356709353585
0.06973237405087657 0.33307501168306924
0.054674750897030874 0.33307501168306924
0.032088316166262336 0.35482691911465813
-0.04319979960296613 0.3765788265462471
-0.07331504591065752 0.24606738195671365
-0.07331504591065752 0.20256356709353585
-0.1034302922183489 0.20256356709353585
-0.1034302922183489 0.07205212250400242
-0.12601672694911745 0.006796400209235718
-0.12601672694911745 0.02854830764082462
-0.16366078483373167 0.07205212250400242
-0.19377603114142306 0.09380402993559132
-0.2615353353337287 0.24606738195671365
-0.2615353353337287 0.24606738195671365
-0.2615353353337287 0.20256356709353585
-0.2991793932183429 0.18081165966194693
-0.34435226267988 0.11555593736718023
-0.3518810742568029 0.02854830764082462
-0.37446750898757136 0.006796400209235718
-0.3594098858337257 -0.05845932208553099
-0.3518810742568029 -0.03670741465394209
-0.33682345110295714 0.006796400209235718
-0.33682345110295714 0.11555593736718023
-0.32176582794911146 0.13730784479876915
-0.32176582794911146 0.15905975223035804
-0.32176582794911146 0.15905975223035804
-0.3292946395260343 0.15905975223035804
-0.33682345110295714 0.18081165966194693
-0.34435226267988 0.20256356709353585
-0.34435226267988 0.2678192893883026
-0.3594098858337257 0.2678192893883026
-0.36693869741064855 0.28957119681989146
-0.36693869741064855 0.31132310425148035
-0.36693869741064855 0.18081165966194693
-0.3292946395260343 0.07205212250400242
-0.2540065237568058 -0.12371504438029769
-0.13354553852604029 -0.38473793355936453
0.06220356247395373 -0.732768452464787
0.3332407792431762 -1.1243027862333872
0.6795661117816272 -1.7116042868862875
1.0635355022046924 -2.037882898360121
1.4926777620892946 -2.559928676718255
1.9971081377431252 -2.907959195623677
2.509067324973879 -3.1037263625079774
3.0134977006277097 -3.0602225476447997
3.450168772089235 -2.8427034733289105
3.6986195541276885 -2.4294172321287215
3.6685043078199975 -1.9508752686337656
3.3146501637046235 -1.5593409348651652
2.5391825712815703 -1.2983180456860985
1.575494689435446 -1.1025508788017984
0.6118068075893215 -1.1025508788017984
-0.3518810742568029 -1.0155432490754428
-1.3155689561029271 -0.950287526780676
-1.5188468686798442 -0.7110165450331981
-1.3005113329490816 -0.4282417484225423
-0.9090131309490935 -0.1889707666750644
-0.5175149289491054 -0.014955507222353184
-0.22389127744911444 0.13730784479876915
-0.058257422756811825 0.18081165966194693
-0.08084385748758037 0.18081165966194693
-0.16366078483373167 0.13730784479876915
-0.2540065237568058 0.05030021507241352
-0.3067082047952658 0.05030021507241352
-0.34435226267988 0.07205212250400242
-0.37446750898757136 0.05030021507241352
-0.38199632056449423 0.15905975223035804
-0.3518810742568029 0.18081165966194693
-0.34435226267988 0.20256356709353585
-0.3518810742568029 0.24606738195671365
-0.36693869741064855 0.24606738195671365
-0.38199632056449423 0.31132310425148035
-0.3518810742568029 0.3765788265462471
-0.3142370163721886 0.3765788265462471
-0.3067082047952658 0.3765788265462471
-0.3067082047952658 0.33307501168306924
-0.3142370163721886 0.28957119681989146
-0.3067082047952658 0.22431547452512474
-0.3142370163721886 0.20256356709353585
-0.33682345110295714 0.22431547452512474
-0.3292946395260343 0.31132310425148035
-0.32176582794911146 0.44183454884101375
-0.2991793932183429 0.4635864562726027
-0.2991793932183429 0.4853383637041916
-0.2540065237568058 0.5505940859989583
-0.24647771217988299 0.5505940859989583
-0.24647771217988299 0.39833073397783597
-0.2615353353337287 0.39833073397783597
-0.28412177006449724 0.33307501168306924
-0.28412177006449724 0.28957119681989146
-0.2615353353337287 0.35482691911465813
-0.23894890060296015 0.39833073397783597
-0.2314200890260373 0.4853383637041916
-0.2163624658721916 0.4853383637041916
-0.20883365429526876 0.5505940859989583
-0.20130484271834592 0.5505940859989583
-0.17118959641065454 0.5940979008621361
-0.17118959641065454 0.5940979008621361
-0.15613197325680883 0.5723459934305472
-0.13354553852604029 0.4853383637041916
-0.12601672694911745 0.5723459934305472
-0.1184879153721946 0.4853383637041916
-0.1184879153721946 0.5723459934305472
-0.1184879153721946 0.5505940859989583
-0.12601672694911745 0.5723459934305472
-0.1034302922183489 0.615849808293725
-0.058257422756811825 0.6593536231569028
-0.013084553295274743 0.8551207900412029
0.0019730698585709505 0.8768726974727918
0.03961712774318518 0.9203765123359696
0.02455950458933949 0.8551207900412029
0.054674750897030874 0.7681131603148473
0.03961712774318518 0.7681131603148473
0.07726118562779942 0.7463612528832584
0.06973237405087657 0.7681131603148473
0.09984762035856795 0.7681131603148473
0.09984762035856795 0.8551207900412029
0.12996286666625934 0.9203765123359696
0.16007811297395072 1.0291360494939141
0.1676069245508736 1.072639864357092
0.18266454770471927 1.1378955866518587
0.21277979401241065 1.1161436792202697
0.2052509824354878 1.0943917717886809
0.21277979401241065 1.0943917717886809
0.22030860558933352 1.072639864357092
0.22030860558933352 1.0073841420623253
0.19772217085856497 1.0073841420623253
0.19772217085856497 0.9856322346307363
0.2052509824354878 1.0073841420623253
0.21277979401241065 0.9638803271991474
0.21277979401241065 1.050887956925503
0.22783741716625636 1.072639864357092
0.22783741716625636 1.1378955866518587
0.25795266347394774 1.1813994015150364
0.22783741716625636 1.0943917717886809
0.24289504032010203 1.0073841420623253
0.19772217085856497 0.8333688826096141
0.16007811297395072 0.8116169751780251
0.14502048982010504 0.6811055305884917
0.12996286666625934 0.615849808293725
0.1224340550893365 0.6811055305884917
0.11490524351241366 0.6593536231569028
0.1374916782431822 0.6811055305884917
0.1073764319354908 0.615849808293725
0.09984762035856795 0.5940979008621361
0.09231880878164511 0.4853383637041916
0.06973237405087657 0.42008264140942486
0.04714593932010803 0.2678192893883026
0.017030693012416644 0.24606738195671365
-0.02061336487219759 0.24606738195671365
-0.05072861117988898 0.2678192893883026
-0.06578623433373466 0.28957119681989146
-0.11095910379527175 0.31132310425148035
-0.1184879153721946 0.33307501168306924
-0.13354553852604029 0.31132310425148035
-0.13354553852604029 0.24606738195671365
-0.13354553852604029 0.24606738195671365
-0.1034302922183489 0.2678192893883026
-0.12601672694911745 0.33307501168306924
-0.148603161679886 0.31132310425148035
-0.17118959641065454 0.18081165966194693
-0.18624721956450022 0.13730784479876915
-0.20883365429526876 0.13730784479876915
-0.18624721956450022 0.07205212250400242
-0.19377603114142306 0.13730784479876915
-0.19377603114142306 0.15905975223035804
-0.16366078483373167 0.15905975223035804
-0.17118959641065454 0.20256356709353585
-0.16366078483373167 0.22431547452512474
-0.17871840798757738 0.24606738195671365
-0.15613197325680883 0.2678192893883026
-0.15613197325680883 0.22431547452512474
-0.16366078483373167 0.11555593736718023
-0.16366078483373167 0.09380402993559132
-0.20130484271834592 0.07205212250400242
-0.22389127744911444 0.15905975223035804
-0.22389127744911444 0.24606738195671365
-0.22389127744911444 0.22431547452512474
-0.2163624658721916 0.28957119681989146
-0.20883365429526876 0.31132310425148035
-0.19377603114142306 0.28957119681989146
-0.16366078483373167 0.24606738195671365
-0.16366078483373167 0.24606738195671365
-0.18624721956450022 0.2678192893883026
-0.23894890060296015 0.20256356709353585
-0.2314200890260373 0.15905975223035804
-0.2314200890260373 0.15905975223035804
-0.24647771217988299 0.11555593736718023
-0.2540065237568058 0.11555593736718023
-0.24647771217988299 0.11555593736718023
-0.2314200890260373 0.20256356709353585
-0.20883365429526876 0.2678192893883026
-0.17871840798757738 0.33307501168306924
-0.17118959641065454 0.35482691911465813
-0.18624721956450022 0.42008264140942486
-0.18624721956450022 0.33307501168306924
-0.19377603114142306 0.24606738195671365
-0.20883365429526876 0.15905975223035804
-0.2163624658721916 0.13730784479876915
-0.23894890060296015 0.11555593736718023
-0.26906414691065156 0.15905975223035804
-0.27659295848757437 0.11555593736718023
-0.3067082047952658 0.20256356709353585
-0.29165058164142005 0.22431547452512474
-0.26906414691065156 0.33307501168306924
-0.24647771217988299 0.35482691911465813
-0.24647771217988299 0.33307501168306924
-0.2314200890260373 0.2678192893883026
-0.2540065237568058 0.20256356709353585
-0.26906414691065156 0.15905975223035804
-0.28412177006449724 0.11555593736718023
-0.28412177006449724 0.09380402993559132
-0.2991793932183429 0.15905975223035804
-0.2991793932183429 0.24606738195671365
-0.2991793932183429 0.28957119681989146
-0.29165058164142005 0.24606738195671365
-0.29165058164142005 0.24606738195671365
-0.29165058164142005 0.13730784479876915
-0.2540065237568058 0.20256356709353585
-0.2615353353337287 0.13730784479876915
-0.24647771217988299 0.07205212250400242
-0.26906414691065156 0.09380402993559132
-0.28412177006449724 0.09380402993559132
-0.3067082047952658 0.11555593736718023
-0.29165058164142005 0.20256356709353585
-0.29165058164142005 0.18081165966194693
-0.29165058164142005 0.20256356709353585
-0.26906414691065156 0.22431547452512474
-0.26906414691065156 0.24606738195671365
-0.28412177006449724 0.28957119681989146
-0.2615353353337287 0.24606738195671365
-0.27659295848757437 0.2678192893883026
-0.3067082047952658 0.18081165966194693
-0.3292946395260343 0.07205212250400242
-0.3292946395260343 0.09380402993559132
-0.3142370163721886 0.02854830764082462
-0.32176582794911146 0.07205212250400242
-0.3067082047952658 0.15905975223035804
-0.2991793932183429 0.18081165966194693
-0.26906414691065156 0.20256356709353585
-0.24647771217988299 0.31132310425148035
-0.23894890060296015 0.31132310425148035
-0.24647771217988299 0.22431547452512474
-0.28412177006449724 0.20256356709353585
-0.29165058164142005 0.13730784479876915
-0.3142370163721886 0.05030021507241352
-0.3518810742568029 0.09380402993559132
-0.32176582794911146 0.02854830764082462
-0.3067082047952658 0.20256356709353585
-0.3067082047952658 0.13730784479876915
-0.29165058164142005 0.20256356709353585
-0.2615353353337287 0.22431547452512474
-0.24647771217988299 0.28957119681989146
-0.19377603114142306 0.33307501168306924
-0.13354553852604029 0.3765788265462471
-0.09590148064142606 0.35482691911465813
-0.09590148064142606 0.3765788265462471
-0.09590148064142606 0.28957119681989146
-0.08837266906450321 0.2678192893883026
-0.11095910379527175 0.2678192893883026
-0.11095910379527175 0.24606738195671365
-0.12601672694911745 0.31132310425148035
-0.14107435010296313 0.33307501168306924
-0.14107435010296313 0.39833073397783597
-0.13354553852604029 0.3765788265462471
-0.1034302922183489 0.44183454884101375
-0.05072861117988898 0.35482691911465813
-0.013084553295274743 0.24606738195671365
0.017030693012416644 0.15905975223035804
0.03961712774318518 0.22431547452512474
0.032088316166262336 0.11555593736718023
0.009501881435493797 0.20256356709353585
-0.02061336487219759 0.24606738195671365
-0.05072861117988898 0.31132310425148035
-0.05072861117988898 0.3765788265462471
-0.05072861117988898 0.4635864562726027
-0.05072861117988898 0.42008264140942486
-0.058257422756811825 0.35482691911465813
-0.058257422756811825 0.18081165966194693
-0.07331504591065752 0.11555593736718023
-0.12601672694911745 0.05030021507241352
-0.14107435010296313 0.02854830764082462
-0.19377603114142306 -0.014955507222353184
-0.2314200890260373 0.07205212250400242
-0.26906414691065156 0.02854830764082462
-0.3067082047952658 0.07205212250400242
-0.33682345110295714 0.09380402993559132
-0.3518810742568029 0.18081165966194693
-0.3594098858337257 0.31132310425148035
-0.33682345110295714 0.24606738195671365
-0.33682345110295714 0.22431547452512474
-0.32176582794911146 0.22431547452512474
-0.32176582794911146 0.15905975223035804
-0.3142370163721886 0.11555593736718023
-0.34435226267988 0.07205212250400242
-0.3594098858337257 0.05030021507241352
-0.37446750898757136 0.09380402993559132
-0.3970539437183399 0.09380402993559132
-0.38199632056449423 0.20256356709353585
-0.34435226267988 0.2678192893883026
-0.34435226267988 0.42008264140942486
-0.3292946395260343 0.4635864562726027
-0.36693869741064855 0.5070902711357804
-0.32176582794911146 0.33307501168306924
-0.3518810742568029 0.18081165966194693
-0.3292946395260343 0.05030021507241352
-0.2540065237568058 -0.23247458153824221
-0.11095910379527175 -0.5805051004436647
0.1224340550893365 -0.9285356193490871
0.43864414132009605 -1.2983180456860985
0.8301423433200841 -1.581092842296754
1.2592846032046863 -1.8638676389074098
1.673369239935443 -2.103138620654888
2.1326267461277366 -2.364161509833955
2.606941875473876 -2.712192028739377
3.0586705700892467 -2.799199658465733
3.4576975836661576 -2.886207288192088
3.7588500467430714 -2.6469363064446103
3.8642534088199914 -2.1901462503812437
3.6459178730892288 -1.7986119166126433
3.0586705700892467 -1.363573767980865
2.0949826882431224 -1.1243027862333872
1.1312948063969979 -0.9285356193490871
0.1676069245508736 -0.732768452464787
-0.7960809572952509 -0.47174556328572015
-1.3155689561029271 -0.27597839640142
-1.180050347718316 -0.12371504438029769
-0.8186673920260193 0.02854830764082462
-0.4045827552952628 0.09380402993559132
-0.1034302922183489 0.05030021507241352
0.009501881435493797 0.11555593736718023
-0.035670988026043286 0.18081165966194693
-0.12601672694911745 0.22431547452512474
-0.26906414691065156 0.2678192893883026
-0.3142370163721886 0.2678192893883026
-0.34435226267988 0.33307501168306924
-0.37446750898757136 0.35482691911465813
-0.3142370163721886 0.42008264140942486
-0.2991793932183429 0.35482691911465813
-0.2991793932183429 0.2678192893883026
-0.3067082047952658 0.28957119681989146
-0.32176582794911146 0.31132310425148035
-0.33682345110295714 0.2678192893883026
-0.33682345110295714 0.35482691911465813
-0.38199632056449423 0.33307501168306924
-0.37446750898757136 0.33307501168306924
-0.36693869741064855 0.3765788265462471
-0.32176582794911146 0.35482691911465813
-0.29165058164142005 0.4853383637041916
-0.2540065237568058 0.5505940859989583
-0.24647771217988299 0.5723459934305472
-0.22389127744911444 0.5288421785673694
-0.2540065237568058 0.39833073397783597
-0.29165058164142005 0.33307501168306924
-0.2991793932183429 0.35482691911465813
-0.3142370163721886 0.3765788265462471
-0.29165058164142005 0.35482691911465813
-0.27659295848757437 0.42008264140942486
-0.26906414691065156 0.4853383637041916
-0.20883365429526876 0.4853383637041916
-0.20883365429526876 0.5070902711357804
-0.17871840798757738 0.615849808293725
-0.19377603114142306 0.5940979008621361
-0.17871840798757738 0.6376017157253139
-0.17871840798757738 0.5288421785673694
-0.17871840798757738 0.4853383637041916
-0.17871840798757738 0.4853383637041916
-0.17118959641065454 0.5288421785673694
-0.14107435010296313 0.615849808293725
-0.148603161679886 0.6376017157253139
-0.12601672694911745 0.6811055305884917
-0.09590148064142606 0.7463612528832584
-0.05072861117988898 0.8333688826096141
-0.035670988026043286 0.8333688826096141
0.0019730698585709505 0.8116169751780251
0.032088316166262336 0.7246093454516696
0.017030693012416644 0.7028574380200806
0.0019730698585709505 0.6376017157253139
0.0019730698585709505 0.6593536231569028
0.0019730698585709505 0.6811055305884917
0.02455950458933949 0.8116169751780251
0.06220356247395373 0.8551207900412029
0.12996286666625934 0.9856322346307363
0.1676069245508736 1.0073841420623253
0.1901933592816421 1.050887956925503
0.25795266347394774 1.0943917717886809
0.2730102866277934 1.0943917717886809
0.29559672135856196 1.072639864357092
0.28806790978163915 1.050887956925503
0.2805390982047163 1.0291360494939141
0.2654814750508706 1.0073841420623253
0.28806790978163915 0.9638803271991474
0.2654814750508706 0.9856322346307363
0.2730102866277934 0.9638803271991474
0.28806790978163915 1.0943917717886809
0.3332407792431762 1.1378955866518587
0.3332407792431762 1.268407031241392
0.35582721397394473 1.3119108461045699
0.3633560255508676 1.2466551238098031
0.3633560255508676 1.1813994015150364
0.3633560255508676 1.0943917717886809
0.3257119676662534 0.9856322346307363
0.3181831560893305 1.0291360494939141
0.3181831560893305 0.9638803271991474
0.2805390982047163 0.9856322346307363
0.2730102866277934 0.9638803271991474
0.2654814750508706 1.0073841420623253
0.2805390982047163 0.9856322346307363
0.2730102866277934 0.9203765123359696
0.2730102866277934 0.8768726974727918
0.25795266347394774 0.8551207900412029
0.2353662287431792 0.7246093454516696
0.21277979401241065 0.6811055305884917
0.19772217085856497 0.5940979008621361
0.18266454770471927 0.5940979008621361
0.16007811297395072 0.5940979008621361
0.11490524351241366 0.5723459934305472
0.07726118562779942 0.4853383637041916
0.054674750897030874 0.4635864562726027
0.032088316166262336 0.4853383637041916
0.02455950458933949 0.5070902711357804
0.03961712774318518 0.42008264140942486
0.017030693012416644 0.39833073397783597
-0.013084553295274743 0.44183454884101375
-0.04319979960296613 0.33307501168306924
-0.08837266906450321 0.28957119681989146
-0.08837266906450321 0.2678192893883026
-0.11095910379527175 0.28957119681989146
-0.12601672694911745 0.28957119681989146
-0.1034302922183489 0.28957119681989146
-0.11095910379527175 0.42008264140942486
-0.09590148064142606 0.42008264140942486
-0.08837266906450321 0.4853383637041916
-0.08084385748758037 0.42008264140942486
-0.07331504591065752 0.39833073397783597
-0.08837266906450321 0.39833073397783597
-0.1034302922183489 0.28957119681989146
-0.12601672694911745 0.28957119681989146
-0.1184879153721946 0.24606738195671365
-0.16366078483373167 0.31132310425148035
-0.15613197325680883 0.33307501168306924
-0.17118959641065454 0.33307501168306924
-0.13354553852604029 0.3765788265462471
-0.12601672694911745 0.3765788265462471
-0.09590148064142606 0.3765788265462471
-0.06578623433373466 0.35482691911465813
-0.08084385748758037 0.33307501168306924
-0.06578623433373466 0.33307501168306924
-0.07331504591065752 0.2678192893883026
-0.12601672694911745 0.31132310425148035
-0.1184879153721946 0.2678192893883026
-0.12601672694911745 0.28957119681989146
-0.14107435010296313 0.35482691911465813
-0.148603161679886 0.3765788265462471
-0.148603161679886 0.39833073397783597
-0.11095910379527175 0.39833073397783597
-0.13354553852604029 0.4635864562726027
-0.11095910379527175 0.5070902711357804
-0.14107435010296313 0.4853383637041916
-0.13354553852604029 0.44183454884101375
-0.12601672694911745 0.4635864562726027
-0.16366078483373167 0.39833073397783597
-0.14107435010296313 0.24606738195671365
-0.16366078483373167 0.3765788265462471
-0.17871840798757738 0.35482691911465813
-0.19377603114142306 0.3765788265462471
-0.17871840798757738 0.39833073397783597
-0.17871840798757738 0.35482691911465813
-0.17118959641065454 0.42008264140942486
-0.14107435010296313 0.4635864562726027
-0.14107435010296313 0.44183454884101375
-0.15613197325680883 0.44183454884101375
-0.14107435010296313 0.44183454884101375
-0.17118959641065454 0.42008264140942486
-0.17871840798757738 0.3765788265462471
-0.19377603114142306 0.33307501168306924
-0.20130484271834592 0.35482691911465813
-0.2314200890260373 0.3765788265462471
-0.2314200890260373 0.3765788265462471
-0.23894890060296015 0.44183454884101375
-0.23894890060296015 0.39833073397783597
-0.2314200890260373 0.39833073397783597
-0.19377603114142306 0.4635864562726027
-0.2163624658721916 0.39833073397783597
-0.2163624658721916 0.33307501168306924
-0.2163624658721916 0.31132310425148035
-0.24647771217988299 0.2678192893883026
-0.2314200890260373 0.22431547452512474
-0.2991793932183429 0.2678192893883026
-0.32176582794911146 0.35482691911465813
-0.3142370163721886 0.33307501168306924
-0.24647771217988299 0.4635864562726027
-0.24647771217988299 0.44183454884101375
-0.20130484271834592 0.4853383637041916
-0.2314200890260373 0.4635864562726027
-0.20883365429526876 0.35482691911465813
-0.24647771217988299 0.22431547452512474
-0.2615353353337287 0.24606738195671365
-0.29165058164142005 0.24606738195671365
-0.29165058164142005 0.2678192893883026
-0.27659295848757437 0.2678192893883026
-0.28412177006449724 0.28957119681989146
-0.2540065237568058 0.2678192893883026
-0.24647771217988299 0.24606738195671365
-0.2314200890260373 0.33307501168306924
-0.22389127744911444 0.33307501168306924
-0.23894890060296015 0.35482691911465813
-0.26906414691065156 0.33307501168306924
-0.23894890060296015 0.31132310425148035
-0.2615353353337287 0.24606738195671365
-0.26906414691065156 0.24606738195671365
-0.28412177006449724 0.24606738195671365
-0.26906414691065156 0.33307501168306924
-0.2540065237568058 0.31132310425148035
-0.2163624658721916 0.42008264140942486
-0.20883365429526876 0.5070902711357804
-0.19377603114142306 0.615849808293725
-0.17118959641065454 0.615849808293725
-0.17118959641065454 0.5723459934305472
-0.15613197325680883 0.5940979008621361
-0.148603161679886 0.44183454884101375
-0.13354553852604029 0.5288421785673694
-0.11095910379527175 0.42008264140942486
-0.08084385748758037 0.4853383637041916
-0.07331504591065752 0.5288421785673694
-0.09590148064142606 0.5070902711357804
-0.09590148064142606 0.5070902711357804
-0.08084385748758037 0.5070902711357804
-0.06578623433373466 0.6376017157253139
-0.058257422756811825 0.5723459934305472
0.0019730698585709505 0.5505940859989583
0.017030693012416644 0.5288421785673694
0.04714593932010803 0.5070902711357804
0.06973237405087657 0.44183454884101375
0.07726118562779942 0.35482691911465813
0.07726118562779942 0.33307501168306924
0.054674750897030874 0.35482691911465813
0.02455950458933949 0.44183454884101375
0.0019730698585709505 0.5070902711357804
0.009501881435493797 0.5070902711357804
0.0019730698585709505 0.5505940859989583
0.017030693012416644 0.5940979008621361
0.009501881435493797 0.4635864562726027
-0.0055557417183518965 0.4853383637041916
-0.02061336487219759 0.3765788265462471
-0.058257422756811825 0.2678192893883026
-0.06578623433373466 0.33307501168306924
-0.1034302922183489 0.24606738195671365
-0.13354553852604029 0.24606738195671365
-0.17871840798757738 0.31132310425148035
-0.2163624658721916 0.39833073397783597
-0.2314200890260373 0.4635864562726027
-0.26906414691065156 0.42008264140942486
-0.29165058164142005 0.42008264140942486
-0.3292946395260343 0.28957119681989146
-0.3142370163721886 0.24606738195671365
-0.3142370163721886 0.13730784479876915
-0.34435226267988 0.18081165966194693
-0.3518810742568029 0.24606738195671365
-0.3518810742568029 0.2678192893883026
-0.34435226267988 0.33307501168306924
-0.33682345110295714 0.28957119681989146
-0.3292946395260343 0.31132310425148035
-0.32176582794911146 0.31132310425148035
-0.29165058164142005 0.31132310425148035
-0.26906414691065156 0.5070902711357804
-0.28412177006449724 0.5723459934305472
-0.2991793932183429 0.6811055305884917
-0.3142370163721886 0.6811055305884917
-0.3594098858337257 0.6593536231569028
-0.3594098858337257 0.4853383637041916
-0.36693869741064855 0.44183454884101375
-0.33682345110295714 0.28957119681989146
-0.28412177006449724 0.20256356709353585
-0.19377603114142306 0.07205212250400242
-0.04319979960296613 -0.10196313694870879
0.1901933592816421 -0.47174556328572015
0.46875938762778746 -0.7762722673279647
0.8075559085893156 -1.1243027862333872
1.1839964874354578 -1.5593409348651652
1.575494689435446 -1.9508752686337656
1.9895793261662025 -2.3424096024023657
2.463894455512342 -2.733943936170966
2.9984400774738638 -2.712192028739377
3.487812829973849 -2.6034324915814326
3.8190805393584544 -2.124890528086477
3.977185582473834 -1.6028447497283431
3.743792423589226 -1.2113104159597428
3.051141758512324 -0.8197760821911426
2.0874538766661996 -0.6675127301700202
1.123765994820075 -0.47174556328572015
0.16007811297395072 -0.4064898409909534
-0.8036097688721736 -0.2977303038330089
-1.37579944871831 -0.12371504438029769
-1.187579159295239 0.05030021507241352
-0.7810233341414051 0.13730784479876915
-0.37446750898757136 0.31132310425148035
-0.09590148064142606 0.42008264140942486
0.032088316166262336 0.42008264140942486
0.032088316166262336 0.39833073397783597
-0.05072861117988898 0.4635864562726027
-0.148603161679886 0.5940979008621361
-0.22389127744911444 0.615849808293725
-0.27659295848757437 0.5505940859989583
-0.2991793932183429 0.5940979008621361
-0.2991793932183429 0.4853383637041916
-0.3292946395260343 0.42008264140942486
-0.3142370163721886 0.44183454884101375
-0.33682345110295714 0.3765788265462471
-0.29165058164142005 0.5505940859989583
-0.28412177006449724 0.615849808293725
-0.27659295848757437 0.6593536231569028
-0.23894890060296015 0.7028574380200806
-0.17118959641065454 0.7246093454516696
-0.12601672694911745 0.7246093454516696
-0.06578623433373466 0.5940979008621361
-0.04319979960296613 0.5505940859989583
-0.05072861117988898 0.5288421785673694
-0.06578623433373466 0.44183454884101375
-0.06578623433373466 0.4635864562726027
-0.08837266906450321 0.5288421785673694
-0.08084385748758037 0.615849808293725
-0.07331504591065752 0.615849808293725
-0.05072861117988898 0.6593536231569028
-0.05072861117988898 0.7246093454516696
-0.02061336487219759 0.7463612528832584
-0.0055557417183518965 0.7681131603148473
0.0019730698585709505 0.8551207900412029
0.0019730698585709505 0.7898650677464362
0.009501881435493797 0.7898650677464362
-0.013084553295274743 0.8116169751780251
-0.013084553295274743 0.7028574380200806
-0.0055557417183518965 0.7246093454516696
0.0019730698585709505 0.7246093454516696
0.02455950458933949 0.8116169751780251
0.04714593932010803 0.8768726974727918
0.08478999720472226 0.9203765123359696
0.08478999720472226 0.9638803271991474
0.1073764319354908 0.9203765123359696
0.09984762035856795 0.9421284197675586
0.12996286666625934 0.8551207900412029
0.11490524351241366 0.7681131603148473
0.12996286666625934 0.7681131603148473
0.12996286666625934 0.8116169751780251
0.1676069245508736 0.8551207900412029
0.17513573612779643 0.8768726974727918
0.22030860558933352 1.050887956925503
0.22030860558933352 1.0291360494939141
0.25795266347394774 1.1161436792202697
0.31065434451240764 1.268407031241392
0.34076959082009906 1.2031513089466253
0.3482984023970219 1.2249032163782143
0.3633560255508676 1.1813994015150364
0.3633560255508676 1.1161436792202697
0.3482984023970219 1.1378955866518587
0.3633560255508676 1.1813994015150364
0.3633560255508676 1.1813994015150364
0.3784136487047133 1.1813994015150364
0.43111532974317324 1.3119108461045699
0.4537017644739417 1.3771665683993366
0.4988746339354788 1.4641741981256922
0.5139322570893246 1.50767801298887
0.491345822358556 1.5294299204204589
0.5214610686662474 1.485926105557281
0.5139322570893246 1.4641741981256922
0.48381701078163314 1.3336627535361587
0.4537017644739417 1.268407031241392
0.4537017644739417 1.290158938672981
0.4160577065893275 1.268407031241392
0.42358651816625037 1.3119108461045699
0.42358651816625037 1.290158938672981
0.4085288950124047 1.3119108461045699
0.43864414132009605 1.268407031241392
0.43864414132009605 1.2466551238098031
0.43111532974317324 1.3119108461045699
0.4160577065893275 1.1161436792202697
0.4010000834354818 1.0073841420623253
0.35582721397394473 0.9421284197675586
0.3482984023970219 0.8333688826096141
0.29559672135856196 0.8116169751780251
0.2805390982047163 0.7463612528832584
0.2504238518970249 0.7463612528832584
0.22783741716625636 0.7246093454516696
0.22030860558933352 0.7898650677464362
0.2052509824354878 0.8116169751780251
0.19772217085856497 0.8333688826096141
0.18266454770471927 0.8116169751780251
0.14502048982010504 0.7028574380200806
0.1224340550893365 0.6593536231569028
0.09984762035856795 0.4853383637041916
0.07726118562779942 0.42008264140942486
0.03961712774318518 0.44183454884101375
0.04714593932010803 0.5505940859989583
0.02455950458933949 0.5288421785673694
0.032088316166262336 0.5723459934305472
0.032088316166262336 0.6811055305884917
0.03961712774318518 0.6593536231569028
0.02455950458933949 0.6811055305884917
0.009501881435493797 0.5723459934305472
-0.0055557417183518965 0.5505940859989583
-0.013084553295274743 0.4853383637041916
0.0019730698585709505 0.4853383637041916
0.017030693012416644 0.5070902711357804
0.009501881435493797 0.5723459934305472
-0.013084553295274743 0.5505940859989583
-0.035670988026043286 0.5288421785673694
-0.02061336487219759 0.6376017157253139
0.017030693012416644 0.615849808293725
0.02455950458933949 0.6811055305884917
0.04714593932010803 0.7028574380200806
0.04714593932010803 0.6811055305884917
0.04714593932010803 0.5940979008621361
-0.0055557417183518965 0.5505940859989583
-0.04319979960296613 0.5505940859989583
-0.05072861117988898 0.5070902711357804
-0.06578623433373466 0.4635864562726027
-0.058257422756811825 0.4853383637041916
-0.035670988026043286 0.5288421785673694
-0.05072861117988898 0.5940979008621361
-0.013084553295274743 0.5723459934305472
0.017030693012416644 0.7463612528832584
0.02455950458933949 0.7681131603148473
0.02455950458933949 0.7681131603148473
0.0019730698585709505 0.7246093454516696
-0.013084553295274743 0.6811055305884917
-0.028142176449120437 0.5940979008621361
-0.08084385748758037 0.5505940859989583
-0.05072861117988898 0.5940979008621361
-0.06578623433373466 0.5940979008621361
-0.06578623433373466 0.615849808293725
-0.058257422756811825 0.7246093454516696
-0.04319979960296613 0.7246093454516696
-0.06578623433373466 0.7681131603148473
-0.05072861117988898 0.8551207900412029
-0.058257422756811825 0.7681131603148473
-0.05072861117988898 0.7246093454516696
-0.08084385748758037 0.5940979008621361
-0.08084385748758037 0.5940979008621361
-0.11095910379527175 0.5505940859989583
-0.08837266906450321 0.5505940859989583
-0.12601672694911745 0.615849808293725
-0.13354553852604029 0.5723459934305472
-0.13354553852604029 0.6811055305884917
-0.12601672694911745 0.7463612528832584
-0.1184879153721946 0.7463612528832584
-0.1034302922183489 0.7246093454516696
-0.11095910379527175 0.7028574380200806
-0.08837266906450321 0.615849808293725
-0.1184879153721946 0.6376017157253139
-0.12601672694911745 0.5723459934305472
-0.12601672694911745 0.5505940859989583
-0.1184879153721946 0.5723459934305472
-0.14107435010296313 0.4635864562726027
-0.1184879153721946 0.5723459934305472
-0.1034302922183489 0.5723459934305472
-0.1184879153721946 0.6376017157253139
-0.1034302922183489 0.6593536231569028
-0.11095910379527175 0.7028574380200806
-0.12601672694911745 0.6593536231569028
-0.14107435010296313 0.615849808293725
-0.13354553852604029 0.5288421785673694
-0.16366078483373167 0.4635864562726027
-0.17871840798757738 0.35482691911465813
-0.17871840798757738 0.4635864562726027
-0.18624721956450022 0.5505940859989583
-0.17871840798757738 0.4853383637041916
-0.17118959641065454 0.5723459934305472
-0.148603161679886 0.615849808293725
-0.15613197325680883 0.6376017157253139
-0.13354553852604029 0.6593536231569028
-0.1184879153721946 0.6376017157253139
-0.13354553852604029 0.6593536231569028
-0.15613197325680883 0.615849808293725
-0.17118959641065454 0.5723459934305472
-0.20883365429526876 0.5505940859989583
-0.22389127744911444 0.5070902711357804
-0.20883365429526876 0.5723459934305472
-0.20883365429526876 0.5940979008621361
-0.15613197325680883 0.5940979008621361
-0.11095910379527175 0.7681131603148473
-0.058257422756811825 0.8333688826096141
-0.028142176449120437 0.9203765123359696
-0.0055557417183518965 0.9856322346307363
-0.013084553295274743 0.9638803271991474
-0.02061336487219759 0.8551207900412029
-0.035670988026043286 0.7681131603148473
-0.035670988026043286 0.6811055305884917
-0.035670988026043286 0.6376017157253139
-0.02061336487219759 0.7028574380200806
-0.02061336487219759 0.7028574380200806
0.009501881435493797 0.7898650677464362
0.009501881435493797 0.9203765123359696
0.0019730698585709505 0.8551207900412029
0.03961712774318518 0.7898650677464362
0.04714593932010803 0.6376017157253139
0.06220356247395373 0.5723459934305472
0.06973237405087657 0.4853383637041916
0.07726118562779942 0.5288421785673694
0.06220356247395373 0.5505940859989583
0.04714593932010803 0.6376017157253139
0.04714593932010803 0.7246093454516696
0.009501881435493797 0.7898650677464362
0.017030693012416644 0.8986246049043807
0.017030693012416644 0.8333688826096141
0.017030693012416644 0.8333688826096141
0.0019730698585709505 0.8551207900412029
0.0019730698585709505 0.8551207900412029
-0.013084553295274743 0.7246093454516696
-0.05072861117988898 0.6593536231569028
-0.07331504591065752 0.6593536231569028
-0.11095910379527175 0.5505940859989583
-0.14107435010296313 0.5723459934305472
-0.17871840798757738 0.5288421785673694
-0.18624721956450022 0.4635864562726027
-0.2314200890260373 0.5288421785673694
-0.24647771217988299 0.5940979008621361
-0.26906414691065156 0.6811055305884917
-0.27659295848757437 0.7028574380200806
-0.29165058164142005 0.6811055305884917
-0.2991793932183429 0.6593536231569028
-0.2991793932183429 0.5505940859989583
-0.3067082047952658 0.5940979008621361
-0.32176582794911146 0.5723459934305472
-0.3142370163721886 0.5505940859989583
-0.32176582794911146 0.5288421785673694
-0.32176582794911146 0.5505940859989583
-0.3142370163721886 0.6376017157253139
-0.29165058164142005 0.8116169751780251
-0.27659295848757437 0.8768726974727918
-0.26906414691065156 0.9856322346307363
-0.27659295848757437 0.9856322346307363
-0.3067082047952658 1.0073841420623253
-0.3142370163721886 0.8333688826096141
-0.3142370163721886 0.7246093454516696
-0.32176582794911146 0.615849808293725
-0.2615353353337287 0.4853383637041916
-0.20883365429526876 0.20256356709353585
-0.05072861117988898 -0.16721885924347551
0.16007811297395072 -0.49349747071730904
0.48381701078163314 -0.8197760821911426
0.8677864012046983 -1.146054693664976
1.3119862842431462 -1.4505813977072208
1.8013590367431314 -1.8856195463389989
2.2756741660892708 -2.103138620654888
2.7876333533200244 -2.3859134172655434
3.284534917396932 -2.4294172321287215
3.6986195541276885 -2.277153880107599
3.9470703361661426 -1.9943790834969433
4.014829640358449 -1.4940852125703985
3.8040229162046084 -1.1243027862333872
3.2619484826661638 -0.7545203598963759
2.418721586050805 -0.47174556328572015
1.4550337042046804 -0.4064898409909534
0.491345822358556 -0.25422648896983113
-0.4723420594875684 -0.16721885924347551
-1.232752028756776 -0.05845932208553099
-1.3155689561029271 0.07205212250400242
-1.074646985641396 0.2678192893883026
-0.6906775952183309 0.3765788265462471
-0.3518810742568029 0.5288421785673694
-0.12601672694911745 0.5940979008621361
-0.058257422756811825 0.5723459934305472
-0.07331504591065752 0.7463612528832584
-0.13354553852604029 0.7246093454516696
-0.23894890060296015 0.7246093454516696
-0.3142370163721886 0.7681131603148473
-0.3594098858337257 0.7898650677464362
-0.3518810742568029 0.7463612528832584
-0.3292946395260343 0.7681131603148473
-0.3067082047952658 0.7246093454516696
-0.2991793932183429 0.6593536231569028
-0.32176582794911146 0.6811055305884917
-0.34435226267988 0.6811055305884917
-0.34435226267988 0.7028574380200806
-0.34435226267988 0.8551207900412029
-0.32176582794911146 0.7898650677464362
-0.32176582794911146 0.9203765123359696
-0.29165058164142005 1.0073841420623253
-0.26906414691065156 1.0291360494939141
-0.26906414691065156 0.8986246049043807
-0.26906414691065156 0.8116169751780251
-0.27659295848757437 0.7246093454516696
-0.28412177006449724 0.7463612528832584
-0.28412177006449724 0.7028574380200806
-0.26906414691065156 0.7898650677464362
-0.26906414691065156 0.8333688826096141
-0.23894890060296015 0.8986246049043807
-0.2163624658721916 0.9638803271991474
-0.20130484271834592 1.0073841420623253
-0.18624721956450022 0.9421284197675586
-0.19377603114142306 0.9203765123359696
-0.2163624658721916 0.8333688826096141
-0.2163624658721916 0.7681131603148473
-0.26906414691065156 0.7898650677464362
-0.2314200890260373 0.8551207900412029
-0.2163624658721916 0.8986246049043807
-0.22389127744911444 0.9638803271991474
-0.20883365429526876 0.9421284197675586
-0.17118959641065454 0.9421284197675586
-0.17118959641065454 1.0073841420623253
-0.148603161679886 1.050887956925503
-0.11095910379527175 1.072639864357092
-0.09590148064142606 1.0291360494939141
-0.08837266906450321 1.0943917717886809
-0.06578623433373466 1.0291360494939141
-0.06578623433373466 0.9638803271991474
-0.08084385748758037 0.8986246049043807
-0.08837266906450321 0.8986246049043807
-0.05072861117988898 0.8986246049043807
-0.05072861117988898 0.9638803271991474
-0.035670988026043286 1.0291360494939141
0.017030693012416644 1.1161436792202697
0.06220356247395373 1.1596474940834476
0.1073764319354908 1.2249032163782143
0.1073764319354908 1.2031513089466253
0.1224340550893365 1.1813994015150364
0.15254930139702788 1.1378955866518587
0.1901933592816421 1.1161436792202697
0.2504238518970249 1.1596474940834476
0.30312553293548483 1.2031513089466253
0.3332407792431762 1.3336627535361587
0.3633560255508676 1.3119108461045699
0.3784136487047133 1.4206703832625145
0.38594246028163615 1.4641741981256922
0.4160577065893275 1.5294299204204589
0.4461729528970189 1.5946856427152256
0.43864414132009605 1.5294299204204589
0.4461729528970189 1.5294299204204589
0.43111532974317324 1.485926105557281
0.43111532974317324 1.3771665683993366
0.43864414132009605 1.3771665683993366
0.4537017644739417 1.3336627535361587
0.47628819920471027 1.3336627535361587
0.491345822358556 1.3989184758309254
0.5289898802431702 1.485926105557281
0.5440475033970159 1.50767801298887
0.4988746339354788 1.50767801298887
0.536518691820093 1.50767801298887
0.5214610686662474 1.4424222906941033
0.4988746339354788 1.3554146609677478
0.46875938762778746 1.290158938672981
0.47628819920471027 1.1378955866518587
0.4461729528970189 1.0291360494939141
0.43864414132009605 1.0073841420623253
0.4085288950124047 1.0291360494939141
0.3482984023970219 1.050887956925503
0.35582721397394473 1.072639864357092
0.35582721397394473 1.1161436792202697
0.3482984023970219 1.072639864357092
0.34076959082009906 1.2031513089466253
0.3482984023970219 1.1596474940834476
0.3332407792431762 1.1161436792202697
0.3257119676662534 1.0073841420623253
0.2805390982047163 0.8768726974727918
0.2353662287431792 0.8116169751780251
0.2052509824354878 0.8768726974727918
0.17513573612779643 0.9203765123359696
0.1676069245508736 0.9203765123359696
0.1676069245508736 1.0073841420623253
0.1676069245508736 0.8986246049043807
0.1676069245508736 0.9638803271991474
0.14502048982010504 0.9638803271991474
0.16007811297395072 0.8986246049043807
0.1374916782431822 0.9203765123359696
0.1224340550893365 0.8333688826096141
0.1224340550893365 0.8986246049043807
0.1374916782431822 0.8551207900412029
0.15254930139702788 0.8333688826096141
0.1374916782431822 0.8116169751780251
0.1224340550893365 0.8551207900412029
0.1224340550893365 0.9421284197675586
0.16007811297395072 1.050887956925503
0.18266454770471927 1.0943917717886809
0.21277979401241065 1.1813994015150364
0.21277979401241065 1.1161436792202697
0.21277979401241065 1.0291360494939141
0.1901933592816421 0.9856322346307363
0.19772217085856497 0.9421284197675586
0.2052509824354878 0.8986246049043807
0.2052509824354878 0.9638803271991474
0.2353662287431792 0.9421284197675586
0.24289504032010203 1.0073841420623253
0.2805390982047163 1.1161436792202697
0.3181831560893305 1.1378955866518587
0.34076959082009906 1.0943917717886809
0.3633560255508676 1.1378955866518587
0.35582721397394473 1.1378955866518587
0.3633560255508676 1.1378955866518587
0.35582721397394473 1.1378955866518587
0.3633560255508676 1.0943917717886809
0.3633560255508676 1.0943917717886809
0.3633560255508676 1.1378955866518587
0.34076959082009906 1.2249032163782143
0.3257119676662534 1.1596474940834476
0.3257119676662534 1.2031513089466253
0.37088483712779047 1.2466551238098031
0.3784136487047133 1.268407031241392
0.39347127185855896 1.2466551238098031
0.4085288950124047 1.2249032163782143
0.43111532974317324 1.2031513089466253
0.43111532974317324 1.1378955866518587
0.42358651816625037 1.072639864357092
0.4461729528970189 1.050887956925503
0.42358651816625037 1.0073841420623253
0.4160577065893275 1.050887956925503
0.3784136487047133 1.1378955866518587
0.39347127185855896 1.2031513089466253
0.39347127185855896 1.290158938672981
0.4010000834354818 1.3554146609677478
0.4160577065893275 1.268407031241392
0.43111532974317324 1.2466551238098031
0.43111532974317324 1.2031513089466253
0.42358651816625037 1.1596474940834476
0.4085288950124047 1.1378955866518587
0.4010000834354818 1.1596474940834476
0.39347127185855896 1.2249032163782143
0.4010000834354818 1.2031513089466253
0.4010000834354818 1.2249032163782143
0.4085288950124047 1.3336627535361587
0.4160577065893275 1.3554146609677478
0.39347127185855896 1.3336627535361587
0.43864414132009605 1.4206703832625145
0.43864414132009605 1.4424222906941033
0.4461729528970189 1.3336627535361587
0.42358651816625037 1.290158938672981
0.4160577065893275 1.2249032163782143
0.4085288950124047 1.2249032163782143
0.39347127185855896 1.2249032163782143
0.4085288950124047 1.1596474940834476
0.4010000834354818 1.1813994015150364
0.4085288950124047 1.2249032163782143
0.4537017644739417 1.3119108461045699
0.47628819920471027 1.3771665683993366
0.47628819920471027 1.50767801298887
0.46875938762778746 1.3989184758309254
0.47628819920471027 1.3771665683993366
0.43864414132009605 1.2466551238098031
0.42358651816625037 1.1813994015150364
0.42358651816625037 1.0073841420623253
0.4085288950124047 1.0073841420623253
0.4085288950124047 1.0073841420623253
0.42358651816625037 1.0073841420623253
0.43864414132009605 1.1596474940834476
0.4537017644739417 1.2031513089466253
0.43111532974317324 1.268407031241392
0.4612305760508646 1.3119108461045699
0.47628819920471027 1.268407031241392
0.4988746339354788 1.2031513089466253
0.5440475033970159 1.2031513089466253
0.589220372858553 1.1596474940834476
0.641922053897013 1.1596474940834476
0.6795661117816272 1.2031513089466253
0.7397966043970099 1.2466551238098031
0.7397966043970099 1.290158938672981
0.7623830391277785 1.3771665683993366
0.8000270970123927 1.485926105557281
0.8075559085893156 1.50767801298887
0.8150847201662385 1.50767801298887
0.8000270970123927 1.485926105557281
0.8075559085893156 1.3771665683993366
0.8000270970123927 1.3336627535361587
0.784969473858547 1.3554146609677478
0.8075559085893156 1.3336627535361587
0.8376711548970069 1.3771665683993366
0.8677864012046983 1.268407031241392
0.8979016475123897 1.290158938672981
0.9129592706662354 1.268407031241392
0.9054304590893125 1.3771665683993366
0.9054304590893125 1.4424222906941033
0.935545705397004 1.6164375501468145
0.9506033285508496 1.5729337352836368
0.9581321401277725 1.5946856427152256
0.9731897632816182 1.5294299204204589
0.9656609517046953 1.4424222906941033
0.9731897632816182 1.268407031241392
0.9581321401277725 1.2466551238098031
0.980718574858541 1.2031513089466253
0.9882473864354638 1.1596474940834476
1.0033050095893095 1.268407031241392
0.9957761980123867 1.3119108461045699
1.0108338211662324 1.268407031241392
1.033420255897001 1.3554146609677478
1.033420255897001 1.3771665683993366
1.0258914443200782 1.2466551238098031
1.0484778790508467 1.268407031241392
1.040949067473924 1.290158938672981
1.0710643137816152 1.268407031241392
1.0936507485123836 1.3119108461045699
1.1162371832431524 1.3771665683993366
1.1614100527046893 1.3989184758309254
1.1538812411277666 1.4641741981256922
1.168938864281612 1.50767801298887
1.1839964874354578 1.485926105557281
1.176467675858535 1.5294299204204589
1.2065829221662265 1.5511818278520477
1.2517557916277635 1.50767801298887
1.2366981684739178 1.50767801298887
1.2442269800508408 1.5294299204204589
1.2592846032046863 1.5511818278520477
1.2517557916277635 1.5729337352836368
1.2668134147816092 1.3989184758309254
1.281871037935455 1.2031513089466253
1.3948032115892977 0.8768726974727918
1.5453794431277545 0.6376017157253139
1.7561861672815942 0.28957119681989146
2.057338630358508 -0.014955507222353184
2.4111927744738817 -0.36298602612777564
2.80269097647387 -0.8415279896227315
3.2318332363584723 -1.167806601096565
3.6986195541276885 -1.4505813977072208
4.135290625589214 -1.7551081017494654
4.587019320204584 -1.842115731475821
4.895700594858421 -1.6898523794546987
5.1140361305891835 -1.2765661382545095
5.174266623204566 -0.6675127301700202
4.986046333781496 -0.25422648896983113
4.459029523396897 0.20256356709353585
3.5631009457430776 0.5070902711357804
2.5994130638969533 0.5940979008621361
1.6357251820508287 0.7028574380200806
0.6720373002047043 0.8116169751780251
0.032088316166262336 0.8986246049043807
0.11490524351241366 1.0291360494939141
0.491345822358556 1.290158938672981
0.882844024358544 1.4206703832625145
1.2141117337431493 1.50767801298887
1.3421015305508377 1.4641741981256922
1.3421015305508377 1.5729337352836368
1.229169356896995 1.5946856427152256
1.123765994820075 1.5511818278520477
1.0108338211662324 1.5729337352836368
0.935545705397004 1.5511818278520477
0.8677864012046983 1.485926105557281
0.8903728359354669 1.4206703832625145
0.8903728359354669 1.3771665683993366
0.9129592706662354 1.3989184758309254
0.9204880822431583 1.3989184758309254
0.9054304590893125 1.5294299204204589
0.9129592706662354 1.6164375501468145
0.9280168938200811 1.6816932724415812
0.9280168938200811 1.725197087304759
0.9280168938200811 1.6816932724415812
0.9280168938200811 1.6599413650099923
0.9129592706662354 1.5946856427152256
0.9129592706662354 1.5511818278520477
0.882844024358544 1.485926105557281
0.8753152127816212 1.4641741981256922
0.8602575896277754 1.4641741981256922
0.9204880822431583 1.5511818278520477
0.8903728359354669 1.5729337352836368
0.9280168938200811 1.6816932724415812
0.9882473864354638 1.7687009021679367
0.9731897632816182 1.7904528095995258
1.0033050095893095 1.8339566244627035
1.0183626327431552 1.70344517987317
1.0183626327431552 1.6381894575784035
1.0635355022046924 1.70344517987317
1.0484778790508467 1.6816932724415812
1.0635355022046924 1.6816932724415812
1.0785931253585381 1.7904528095995258
1.1011795600893066 1.725197087304759
1.1011795600893066 1.725197087304759
1.1162371832431524 1.8339566244627035
1.1538812411277666 1.8339566244627035
1.176467675858535 1.7687009021679367
1.2141117337431493 1.8557085318942925
1.281871037935455 1.8339566244627035
1.3496303421277605 1.8992123467574702
1.379745588435452 1.8992123467574702
1.3948032115892977 1.70344517987317
1.4173896463200661 1.9209642541890593
1.4475048926277576 1.9209642541890593
1.4851489505123718 1.964468069052237
1.522793008396986 1.942716161620648
1.5604370662816003 2.0297237913470036
1.620667558896983 2.0297237913470036
1.6884268630892887 2.0732276062101813
1.7787726020123629 2.160235235936537
1.8766471525123598 2.160235235936537
1.9895793261662025 2.2907466805260706
2.0949826882431224 2.181987143368126
2.1777996155892736 2.160235235936537
2.2380301082046565 2.0732276062101813
2.298260600820039 2.160235235936537
2.3359046587046532 2.2037390507997148
2.448836832358496 2.2689947730944815
2.546711382858493 2.3342504953892482
2.652114744935413 2.4430100325471926
2.7650469185892557 2.5300176622735484
2.8779790922430983 2.5517695697051375
2.9607960195892495 2.4430100325471926
3.036084135358478 2.4430100325471926
3.0812570048200154 2.421258125115604
3.141487497435398 2.377754310252426
3.194189178473858 2.247242865662893
3.2619484826661638 2.247242865662893
3.3673518447430832 2.2907466805260706
3.4802840183969264 2.247242865662893
3.6082738152046145 2.2907466805260706
3.766378858319994 2.4430100325471926
3.916955089858451 2.3342504953892482
4.0524736982430625 2.3560024028208373
4.210578741358442 2.3342504953892482
4.361154972896899 2.2689947730944815
4.481615958127665 2.0949795136417704
4.60207694335843 2.0949795136417704
4.722537928589196 2.0732276062101813
4.842998913819962 2.0079718839154146
4.963459899050727 1.9862199764838258
5.091449695858415 2.0079718839154146
5.219439492666104 2.0079718839154146
5.332371666319946 2.0297237913470036
5.452832651550712 2.0732276062101813
5.550707202050709 2.160235235936537
5.610937694666092 2.0949795136417704
5.693754622012243 2.0514756987785927
5.769042737781471 1.942716161620648
5.821744418819931 1.8774604393258814
5.881974911435314 1.8339566244627035
5.9346765924737745 1.7904528095995258
5.994907085089157 1.8339566244627035
6.047608766127617 1.8992123467574702
6.107839258743 2.0514756987785927
6.175598562935305 2.0079718839154146
6.205713809242996 2.160235235936537
6.265944301858379 2.138483328504948
6.29605954816607 2.0732276062101813
6.326174794473762 2.0732276062101813
6.348761229204531 1.964468069052237
6.348761229204531 1.8557085318942925
6.363818852358376 1.942716161620648
6.3713476639353 1.8774604393258814
6.348761229204531 1.9209642541890593
6.363818852358376 1.964468069052237
6.363818852358376 1.964468069052237
6.4089917218199135 2.0514756987785927
6.431578156550682 2.0949795136417704
6.454164591281451 2.181987143368126
6.454164591281451 2.181987143368126
6.454164591281451 2.225490958231304
6.4391069681276045 2.138483328504948
6.431578156550682 2.1167314210733594
6.431578156550682 2.0732276062101813
6.424049344973759 2.0732276062101813
6.416520533396836 2.0514756987785927
6.461693402858374 2.0732276062101813
6.454164591281451 2.138483328504948
6.476751026012219 2.160235235936537
6.469222214435296 2.1167314210733594
6.484279837589142 2.1167314210733594
6.469222214435296 2.160235235936537
6.461693402858374 2.160235235936537
6.461693402858374 2.181987143368126
6.484279837589142 2.138483328504948
6.484279837589142 2.0732276062101813
6.446635779704528 2.0949795136417704
6.416520533396836 2.0297237913470036
6.4089917218199135 2.1167314210733594
6.393934098666068 2.138483328504948
6.4391069681276045 2.247242865662893
6.454164591281451 2.2907466805260706
6.484279837589142 2.2689947730944815
6.491808649166065 2.247242865662893
6.50686627231991 2.181987143368126
6.4993374607429875 2.0732276062101813
6.4993374607429875 2.0514756987785927
6.4993374607429875 1.8774604393258814
6.4993374607429875 1.8992123467574702
6.484279837589142 1.9209642541890593
6.469222214435296 2.0079718839154146
6.461693402858374 2.138483328504948
6.484279837589142 2.225490958231304
6.491808649166065 2.3124985879576596
6.4993374607429875 2.2907466805260706
6.491808649166065 2.247242865662893
6.484279837589142 2.0732276062101813
6.476751026012219 1.9862199764838258
6.454164591281451 2.0079718839154146
6.454164591281451 1.9209642541890593
6.4391069681276045 1.9209642541890593
6.431578156550682 1.964468069052237
6.431578156550682 2.0514756987785927
6.424049344973759 2.1167314210733594
6.431578156550682 2.1167314210733594
6.4391069681276045 2.247242865662893
6.446635779704528 2.247242865662893
6.446635779704528 2.225490958231304
6.446635779704528 2.160235235936537
6.4391069681276045 2.0297237913470036
6.416520533396836 2.0079718839154146
6.4089917218199135 1.9209642541890593
6.401462910242991 2.0297237913470036
6.393934098666068 2.0514756987785927
6.393934098666068 2.0949795136417704
6.401462910242991 2.160235235936537
6.401462910242991 2.225490958231304
6.4089917218199135 2.2037390507997148
6.4089917218199135 2.247242865662893
6.424049344973759 2.181987143368126
6.416520533396836 2.138483328504948
6.416520533396836 2.1167314210733594
6.3713476639353 2.0514756987785927
6.348761229204531 2.0514756987785927
6.333703606050685 2.0514756987785927
6.348761229204531 2.1167314210733594
6.326174794473762 2.247242865662893
6.348761229204531 2.247242865662893
6.363818852358376 2.2689947730944815
6.363818852358376 2.2037390507997148
6.3713476639353 2.2037390507997148
6.3713476639353 2.2037390507997148
6.363818852358376 2.247242865662893
6.3713476639353 2.2689947730944815
6.341232417627608 2.181987143368126
6.333703606050685 2.181987143368126
6.326174794473762 2.247242865662893
6.326174794473762 2.247242865662893
6.326174794473762 2.225490958231304
6.3186459828968395 2.181987143368126
6.326174794473762 2.160235235936537
6.3186459828968395 2.247242865662893
6.326174794473762 2.2907466805260706
6.356290040781453 2.399506217684015
6.348761229204531 2.421258125115604
6.333703606050685 2.3560024028208373
6.3186459828968395 2.225490958231304
6.3186459828968395 2.0949795136417704
6.258415490281457 1.9862199764838258
6.243357867127611 2.0297237913470036
6.258415490281457 2.0514756987785927
6.288530736589148 2.2037390507997148
6.288530736589148 2.247242865662893
6.288530736589148 2.377754310252426
6.303588359742994 2.399506217684015
6.3186459828968395 2.3560024028208373
6.311117171319917 2.3124985879576596
6.281001925012225 2.225490958231304
6.265944301858379 2.1167314210733594
6.243357867127611 2.0949795136417704
6.243357867127611 2.1167314210733594
6.243357867127611 2.181987143368126
6.213242620819919 2.247242865662893
6.228300243973766 2.247242865662893
6.220771432396842 2.3342504953892482
6.220771432396842 2.3560024028208373
6.235829055550688 2.2907466805260706
6.235829055550688 2.2689947730944815
6.235829055550688 2.2037390507997148
6.213242620819919 2.181987143368126
6.183127374512228 2.0732276062101813
6.168069751358383 2.0514756987785927
6.175598562935305 2.0732276062101813
6.168069751358383 2.138483328504948
6.16054093978146 2.2037390507997148
6.16054093978146 2.2907466805260706
6.16054093978146 2.3124985879576596
6.168069751358383 2.3342504953892482
6.198184997666074 2.399506217684015
6.175598562935305 2.4430100325471926
6.16054093978146 2.399506217684015
6.1454833166276135 2.421258125115604
6.137954505050691 2.399506217684015
6.130425693473768 2.2907466805260706
6.137954505050691 2.160235235936537
6.1153680703199225 1.964468069052237
6.085252824012231 1.8339566244627035
6.1153680703199225 1.4641741981256922
6.107839258743 1.0291360494939141
6.1153680703199225 0.6811055305884917
6.092781635589154 0.3765788265462471
6.107839258743 -0.014955507222353184
6.130425693473768 -0.4064898409909534
6.107839258743 -0.7980241747595537
6.077724012435309 -1.0155432490754428
6.077724012435309 -1.2983180456860985
6.062666389281462 -1.2330623233913318
6.047608766127617 -1.0155432490754428
6.040079954550694 -0.6240089153068424
6.0250223313968485 -0.0802112295171199
6.062666389281462 0.4635864562726027
6.070195200858385 0.9638803271991474
6.077724012435309 1.3989184758309254
6.085252824012231 1.6381894575784035
6.070195200858385 1.8339566244627035
6.062666389281462 1.964468069052237
6.0551375777045395 2.0949795136417704
6.0551375777045395 2.1167314210733594
6.0250223313968485 2.181987143368126
6.009964708243003 2.225490958231304
6.009964708243003 2.225490958231304
6.0250223313968485 2.2689947730944815
6.032551142973771 2.2907466805260706
5.987378273512234 2.3560024028208373
6.009964708243003 2.3342504953892482
6.040079954550694 2.4647619399787817
6.017493519819926 2.399506217684015
6.0250223313968485 2.399506217684015
5.994907085089157 2.421258125115604
5.987378273512234 2.421258125115604
5.964791838781466 2.4647619399787817
5.942205404050697 2.4430100325471926
5.94973421562762 2.4865138474103707
5.94973421562762 2.5082657548419593
5.964791838781466 2.4865138474103707
5.9346765924737745 2.5082657548419593
5.9346765924737745 2.573521477136726
5.957263027204543 2.573521477136726
5.957263027204543 2.595273384568315
5.94973421562762 2.595273384568315
5.927147780896851 2.7257848291578486
5.904561346166083 2.5517695697051375
5.889503723012237 2.595273384568315
5.889503723012237 2.5082657548419593
5.881974911435314 2.5082657548419593
5.881974911435314 2.5517695697051375
5.904561346166083 2.5517695697051375
5.89703253458916 2.682281014294671
5.89703253458916 2.8127924588842044
5.927147780896851 2.7910405514526153
5.904561346166083 2.7040329217262595
5.89703253458916 2.638777199431493
5.89703253458916 2.573521477136726
5.859388476704546 2.5300176622735484
5.8518596651276225 2.4865138474103707
5.8518596651276225 2.4865138474103707
5.814215607243009 2.4865138474103707
5.821744418819931 2.5517695697051375
5.8443308535507 2.7040329217262595
5.859388476704546 2.7475367365894376
5.859388476704546 2.834544366315793
5.8518596651276225 2.856296273747382
5.866917288281469 2.834544366315793
5.859388476704546 2.7910405514526153
5.799157984089163 2.7475367365894376
5.814215607243009 2.682281014294671
5.79162917251224 2.573521477136726
5.784100360935318 2.595273384568315
5.769042737781471 2.660529106863082
5.776571549358394 2.638777199431493
5.776571549358394 2.7257848291578486
5.753985114627626 2.7475367365894376
5.7615139262045485 2.834544366315793
5.7615139262045485 2.8780481811789707
5.746456303050703 2.9433039034737374
5.7313986798968575 2.9215519960421488
5.708812245166089 2.7692886440210263
5.693754622012243 2.682281014294671
5.648581752550706 2.7257848291578486
5.648581752550706 2.638777199431493
5.663639375704552 2.7910405514526153
5.656110564127629 2.8780481811789707
5.663639375704552 2.8998000886105597
5.693754622012243 2.9650558109053264
5.701283433589166 3.030311533200093
5.716341056743012 2.9868077183369155
5.708812245166089 3.073815348063271
5.716341056743012 2.9433039034737374
5.701283433589166 2.9433039034737374
5.663639375704552 2.7692886440210263
5.663639375704552 2.856296273747382
5.6410529409737835 2.7040329217262595
5.610937694666092 2.7475367365894376
5.595880071512246 2.8127924588842044
5.610937694666092 2.856296273747382
5.625995317819937 2.8998000886105597
5.63352412939686 2.9650558109053264
5.648581752550706 2.9215519960421488
5.625995317819937 2.8780481811789707
5.625995317819937 2.7910405514526153
5.618466506243014 2.660529106863082
5.595880071512246 2.595273384568315
5.580822448358401 2.5517695697051375
5.558236013627631 2.4865138474103707
5.565764825204555 2.5300176622735484
5.543178390473786 2.573521477136726
5.543178390473786 2.573521477136726
5.550707202050709 2.573521477136726
5.550707202050709 2.5517695697051375
5.550707202050709 2.4430100325471926
5.550707202050709 2.3560024028208373
5.558236013627631 2.3124985879576596
5.520591955743018 2.3560024028208373
5.498005521012249 2.3342504953892482
5.490476709435327 2.3560024028208373
5.482947897858403 2.3342504953892482
5.482947897858403 2.2907466805260706
5.47541908628148 2.3342504953892482
5.482947897858403 2.399506217684015
5.4678902747045575 2.4647619399787817
5.490476709435327 2.4647619399787817
5.490476709435327 2.399506217684015
5.482947897858403 2.5082657548419593
5.490476709435327 2.377754310252426
5.460361463127635 2.377754310252426
5.460361463127635 2.3124985879576596
5.437775028396866 2.2907466805260706
5.415188593666098 2.3124985879576596
5.4076597820891745 2.247242865662893
5.385073347358406 2.2689947730944815
5.400130970512252 2.2689947730944815
5.415188593666098 2.377754310252426
5.422717405243021 2.377754310252426
5.430246216819944 2.5300176622735484
5.415188593666098 2.4865138474103707
5.4076597820891745 2.421258125115604
5.385073347358406 2.3560024028208373
5.3775445357814835 2.225490958231304
5.362486912627638 2.2037390507997148
5.3474292894737925 2.2689947730944815
5.362486912627638 2.3342504953892482
5.354958101050715 2.4430100325471926
5.362486912627638 2.4430100325471926
5.362486912627638 2.5517695697051375
5.370015724204561 2.5082657548419593
5.385073347358406 2.4865138474103707
5.362486912627638 2.421258125115604
5.3474292894737925 2.3342504953892482
5.324842854743023 2.2907466805260706
5.317314043166101 2.2037390507997148
5.317314043166101 2.2037390507997148
5.2871987968584095 2.160235235936537
5.279669985281487 2.138483328504948
5.26461236212764 2.181987143368126
5.279669985281487 2.2037390507997148
5.272141173704564 2.2689947730944815
5.272141173704564 2.421258125115604
5.279669985281487 2.5082657548419593
5.279669985281487 2.4430100325471926
5.272141173704564 2.3124985879576596
5.249554738973795 2.3560024028208373
5.234497115819949 2.3342504953892482
5.234497115819949 2.247242865662893
5.242025927396872 2.225490958231304
5.226968304243027 2.225490958231304
5.234497115819949 2.225490958231304
5.257083550550718 2.2907466805260706
5.257083550550718 2.225490958231304
5.257083550550718 2.3124985879576596
5.249554738973795 2.2689947730944815
5.226968304243027 2.247242865662893
5.249554738973795 2.2037390507997148
5.242025927396872 2.2037390507997148
5.219439492666104 2.2037390507997148
5.204381869512258 2.181987143368126
5.196853057935336 2.181987143368126
5.159209000050721 2.138483328504948
5.159209000050721 2.0949795136417704
5.151680188473798 2.0949795136417704
5.189324246358412 2.160235235936537
5.181795434781489 2.3124985879576596
5.181795434781489 2.2907466805260706
5.189324246358412 2.2037390507997148
5.174266623204566 2.181987143368126
5.166737811627644 2.1167314210733594
5.136622565319953 2.1167314210733594
5.12909375374303 2.0514756987785927
5.1140361305891835 2.0079718839154146
5.106507319012261 2.138483328504948
5.121564942166107 2.181987143368126
5.121564942166107 2.2907466805260706
5.121564942166107 2.399506217684015
5.12909375374303 2.3124985879576596
5.151680188473798 2.2689947730944815
5.1140361305891835 2.160235235936537
5.106507319012261 2.1167314210733594
5.12909375374303 2.0297237913470036
5.106507319012261 2.0297237913470036
5.07639207270457 2.0079718839154146
5.068863261127647 2.0079718839154146
5.0538056379738014 2.0297237913470036
5.07639207270457 2.138483328504948
5.061334449550724 2.160235235936537
5.061334449550724 2.1167314210733594
5.0839208842814925 2.160235235936537
5.0839208842814925 2.181987143368126
5.061334449550724 2.0514756987785927
5.068863261127647 2.0732276062101813
