0.9280168938200811 -2.081386713223299
0.9280168938200811 -2.081386713223299
0.9280168938200811 -2.081386713223299
0.9280168938200811 -2.081386713223299
0.9280168938200811 -2.081386713223299
0.9280168938200811 -2.081386713223299
0.9280168938200811 -2.081386713223299
0.9280168938200811 -2.3859134172655434
1.3722167768585292 -2.6686882138761994
1.8088878483200541 -2.973214917918444
2.2832029776661935 -3.2777416219606885
2.80269097647387 -3.4952606962765778
3.382409467896929 -3.5387645111397554
3.9244839014353743 -3.5387645111397554
4.4364430886661275 -3.386501159118633
4.782768421204579 -3.0602225476447997
4.895700594858421 -2.6251843990130217
4.6999514938584275 -2.103138620654888
4.075060132973831 -1.6681004720231098
3.1113722511277064 -1.2765661382545095
2.147684369281582 -1.1243027862333872
1.1839964874354578 -0.9285356193490871
0.22030860558933352 -0.7980241747595537
-0.7433792762567909 -0.6457608227384314
-1.0595893624875505 -0.47174556328572015
-0.6756199720644852 -0.38473793355936453
-0.2540065237568058 -0.38473793355936453
0.02455950458933949 -0.44999365585413126
0.1224340550893365 -0.5152493781488979
0.054674750897030874 -0.5370012855804869
-0.08837266906450321 -0.49349747071730904
-0.2314200890260373 -0.38473793355936453
-0.3518810742568029 -0.3194822112645978
-0.3970539437183399 -0.25422648896983113
-0.36693869741064855 -0.16721885924347551
-0.37446750898757136 -0.1889707666750644
-0.3292946395260343 -0.014955507222353184
-0.3142370163721886 -0.014955507222353184
-0.28412177006449724 -0.05845932208553099
-0.2991793932183429 -0.10196313694870879
-0.3292946395260343 -0.1454669518118866
-0.34435226267988 -0.12371504438029769
-0.3594098858337257 -0.12371504438029769
-0.37446750898757136 -0.05845932208553099
-0.37446750898757136 -0.0802112295171199
-0.37446750898757136 0.02854830764082462
-0.3142370163721886 0.02854830764082462
-0.2991793932183429 0.11555593736718023
-0.27659295848757437 0.02854830764082462
-0.24647771217988299 0.006796400209235718
-0.20883365429526876 0.006796400209235718
-0.2314200890260373 -0.03670741465394209
-0.24647771217988299 -0.12371504438029769
-0.2540065237568058 -0.1454669518118866
-0.2615353353337287 -0.0802112295171199
-0.2615353353337287 -0.05845932208553099
-0.26906414691065156 0.006796400209235718
-0.2615353353337287 0.09380402993559132
-0.20883365429526876 0.15905975223035804
-0.2163624658721916 0.11555593736718023
-0.17118959641065454 0.13730784479876915
-0.148603161679886 0.13730784479876915
-0.148603161679886 0.09380402993559132
-0.13354553852604029 0.05030021507241352
-0.12601672694911745 0.13730784479876915
-0.11095910379527175 0.006796400209235718
-0.09590148064142606 0.02854830764082462
-0.09590148064142606 0.02854830764082462
-0.06578623433373466 0.13730784479876915
-0.035670988026043286 0.18081165966194693
0.0019730698585709505 0.31132310425148035
0.02455950458933949 0.35482691911465813
0.06220356247395373 0.35482691911465813
0.07726118562779942 0.31132310425148035
0.06220356247395373 0.24606738195671365
0.1073764319354908 0.22431547452512474
0.14502048982010504 0.22431547452512474
0.16007811297395072 0.2678192893883026
0.17513573612779643 0.28957119681989146
0.1901933592816421 0.39833073397783597
0.24289504032010203 0.4635864562726027
0.30312553293548483 0.5288421785673694
0.3633560255508676 0.5505940859989583
0.42358651816625037 0.5940979008621361
0.491345822358556 0.615849808293725
0.5440475033970159 0.5940979008621361
0.5741627497047073 0.5723459934305472
0.6343932423200901 0.5288421785673694
0.6343932423200901 0.5288421785673694
0.6720373002047043 0.4853383637041916
0.6795661117816272 0.5070902711357804
0.7021525465123957 0.5288421785673694
0.7021525465123957 0.5940979008621361
0.7397966043970099 0.6376017157253139
0.7699118507047014 0.7028574380200806
0.8150847201662385 0.8116169751780251
0.8753152127816212 0.8116169751780251
0.8979016475123897 0.7463612528832584
0.9054304590893125 0.7246093454516696
0.8979016475123897 0.5940979008621361
0.882844024358544 0.5288421785673694
0.8451999664739298 0.4853383637041916
0.8226135317431612 0.5288421785673694
0.784969473858547 0.5940979008621361
0.7473254159739328 0.5940979008621361
0.68709492335855 0.5940979008621361
0.6645084886277814 0.5723459934305472
0.6118068075893215 0.5070902711357804
0.5591051265508616 0.5070902711357804
0.4988746339354788 0.44183454884101375
0.4160577065893275 0.35482691911465813
0.35582721397394473 0.2678192893883026
0.29559672135856196 0.22431547452512474
0.2052509824354878 0.09380402993559132
0.15254930139702788 0.11555593736718023
0.06220356247395373 0.22431547452512474
-0.013084553295274743 0.15905975223035804
-0.08084385748758037 0.15905975223035804
-0.12601672694911745 0.15905975223035804
-0.17118959641065454 0.13730784479876915
-0.18624721956450022 0.2678192893883026
-0.2314200890260373 0.28957119681989146
-0.27659295848757437 0.35482691911465813
-0.27659295848757437 0.22431547452512474
-0.3142370163721886 0.09380402993559132
-0.3518810742568029 -0.12371504438029769
-0.4045827552952628 -0.2107226741066533
-0.4798708710644912 -0.25422648896983113
-0.4873996826414141 -0.12371504438029769
-0.4873996826414141 -0.05845932208553099
-0.46481324791064554 0.15905975223035804
-0.4346980016029542 0.18081165966194693
-0.41964037844910845 0.11555593736718023
-0.41964037844910845 0.05030021507241352
-0.442226813179877 0.006796400209235718
-0.4572844363337227 -0.014955507222353184
-0.46481324791064554 -0.0802112295171199
-0.4873996826414141 -0.05845932208553099
-0.49492849421833696 -0.05845932208553099
-0.5099861173721826 0.11555593736718023
-0.5024573057952598 0.07205212250400242
-0.5175149289491054 0.07205212250400242
-0.4873996826414141 0.07205212250400242
-0.4873996826414141 0.09380402993559132
-0.44975562475679987 0.05030021507241352
-0.4572844363337227 0.11555593736718023
-0.4572844363337227 0.13730784479876915
-0.44975562475679987 0.11555593736718023
-0.46481324791064554 0.05030021507241352
-0.46481324791064554 0.07205212250400242
-0.4723420594875684 0.05030021507241352
-0.5024573057952598 0.02854830764082462
-0.49492849421833696 0.09380402993559132
-0.46481324791064554 0.13730784479876915
-0.442226813179877 0.18081165966194693
-0.41211156687218564 0.20256356709353585
-0.4045827552952628 0.22431547452512474
-0.41964037844910845 0.2678192893883026
-0.442226813179877 0.18081165966194693
-0.44975562475679987 0.13730784479876915
-0.4723420594875684 0.15905975223035804
-0.49492849421833696 0.09380402993559132
-0.49492849421833696 0.18081165966194693
-0.5024573057952598 0.24606738195671365
-0.5024573057952598 0.18081165966194693
-0.49492849421833696 0.24606738195671365
-0.4723420594875684 0.22431547452512474
-0.4572844363337227 0.15905975223035804
-0.4346980016029542 0.11555593736718023
-0.44975562475679987 0.006796400209235718
-0.46481324791064554 0.006796400209235718
-0.4873996826414141 0.09380402993559132
-0.5175149289491054 0.006796400209235718
-0.5476301752567969 0.05030021507241352
-0.5476301752567969 0.02854830764082462
-0.5551589868337197 -0.05845932208553099
-0.5551589868337197 -0.10196313694870879
-0.5250437405260283 -0.05845932208553099
-0.5325725521029512 0.02854830764082462
-0.540101363679874 0.07205212250400242
-0.540101363679874 0.15905975223035804
-0.5476301752567969 0.20256356709353585
-0.5551589868337197 0.20256356709353585
-0.5626877984106425 0.006796400209235718
-0.5852742331414111 -0.03670741465394209
-0.5702166099875654 -0.12371504438029769
-0.6078606678721796 -0.12371504438029769
-0.6078606678721796 -0.05845932208553099
-0.6153894794491025 -0.0802112295171199
-0.5852742331414111 0.05030021507241352
-0.5928030447183339 0.11555593736718023
-0.5702166099875654 0.18081165966194693
-0.5551589868337197 0.2678192893883026
-0.540101363679874 0.22431547452512474
-0.5551589868337197 0.15905975223035804
-0.5476301752567969 0.09380402993559132
-0.5551589868337197 0.006796400209235718
-0.5777454215644883 -0.014955507222353184
-0.6003318562952568 -0.014955507222353184
-0.6003318562952568 0.02854830764082462
-0.637975914179871 -0.05845932208553099
-0.6304471026029482 0.006796400209235718
-0.6229182910260254 0.13730784479876915
-0.6304471026029482 0.13730784479876915
-0.6078606678721796 0.20256356709353585
-0.6153894794491025 0.24606738195671365
-0.6229182910260254 0.24606738195671365
-0.6605623489106396 0.15905975223035804
-0.6756199720644852 0.11555593736718023
-0.6756199720644852 -0.0802112295171199
-0.6455047257567939 0.02854830764082462
-0.6455047257567939 0.006796400209235718
-0.6530335373337167 0.05030021507241352
-0.637975914179871 0.15905975223035804
-0.6153894794491025 0.2678192893883026
-0.5852742331414111 0.39833073397783597
-0.5551589868337197 0.42008264140942486
-0.5024573057952598 0.4853383637041916
-0.5024573057952598 0.42008264140942486
-0.49492849421833696 0.4853383637041916
-0.5099861173721826 0.39833073397783597
-0.5551589868337197 0.31132310425148035
-0.5852742331414111 0.28957119681989146
-0.5928030447183339 0.2678192893883026
-0.5852742331414111 0.18081165966194693
-0.5476301752567969 0.20256356709353585
-0.5024573057952598 0.24606738195671365
-0.4798708710644912 0.24606738195671365
-0.4572844363337227 0.28957119681989146
-0.44975562475679987 0.33307501168306924
-0.41211156687218564 0.2678192893883026
-0.3895251321414171 0.35482691911465813
-0.3895251321414171 0.31132310425148035
-0.3970539437183399 0.2678192893883026
-0.4045827552952628 0.18081165966194693
-0.3970539437183399 0.09380402993559132
-0.3970539437183399 -0.05845932208553099
-0.4045827552952628 0.006796400209235718
-0.41964037844910845 0.09380402993559132
-0.41211156687218564 0.2678192893883026
-0.41964037844910845 0.31132310425148035
-0.442226813179877 0.31132310425148035
-0.46481324791064554 0.28957119681989146
-0.4873996826414141 0.15905975223035804
-0.5175149289491054 0.11555593736718023
-0.5476301752567969 0.02854830764082462
-0.5626877984106425 -0.03670741465394209
-0.6229182910260254 -0.014955507222353184
-0.6605623489106396 -0.03670741465394209
-0.6756199720644852 0.07205212250400242
-0.6982064067952538 0.05030021507241352
-0.6982064067952538 0.09380402993559132
-0.6982064067952538 0.02854830764082462
-0.6982064067952538 0.05030021507241352
-0.6831487836414081 0.006796400209235718
-0.6605623489106396 0.006796400209235718
-0.6756199720644852 -0.05845932208553099
-0.6680911604875625 -0.0802112295171199
-0.6831487836414081 -0.05845932208553099
-0.7132640299490995 -0.05845932208553099
-0.735850464679868 0.006796400209235718
-0.7433792762567909 0.09380402993559132
-0.7283216531029452 0.09380402993559132
-0.7283216531029452 0.20256356709353585
-0.6982064067952538 0.28957119681989146
-0.6756199720644852 0.2678192893883026
-0.6906775952183309 0.22431547452512474
-0.6906775952183309 0.09380402993559132
-0.6906775952183309 -0.05845932208553099
-0.6605623489106396 -0.27597839640142
-0.6078606678721796 -0.4282417484225423
-0.5325725521029512 -0.6240089153068424
-0.4045827552952628 -0.7980241747595537
-0.16366078483373167 -0.9067837119174982
0.09984762035856795 -1.0590470639386205
0.46875938762778746 -1.189558508528154
0.8376711548970069 -1.385325675412454
1.2517557916277635 -1.624596657159932
1.6131387473200602 -1.8856195463389989
2.004636949320048 -2.25540197267601
2.4111927744738817 -2.559928676718255
2.8779790922430983 -2.6034324915814326
3.299592540550778 -2.3859134172655434
3.5631009457430776 -1.9291233612021765
3.593216192050769 -1.385325675412454
3.2243044247815495 -0.9067837119174982
2.4111927744738817 -0.6892646376016092
1.4475048926277576 -0.5370012855804869
0.48381701078163314 -0.5587531930120757
-0.4798708710644912 -0.49349747071730904
-1.4435587529106155 -0.47174556328572015
-1.7070671581029153 -0.4064898409909534
-1.4510875644875385 -0.27597839640142
-1.0595893624875505 -0.10196313694870879
-0.6831487836414081 0.07205212250400242
-0.44975562475679987 0.15905975223035804
-0.37446750898757136 0.18081165966194693
-0.3970539437183399 0.18081165966194693
-0.4572844363337227 0.18081165966194693
-0.5250437405260283 0.09380402993559132
-0.5777454215644883 0.20256356709353585
-0.6229182910260254 0.18081165966194693
-0.637975914179871 0.22431547452512474
-0.637975914179871 0.22431547452512474
-0.6455047257567939 0.22431547452512474
-0.6455047257567939 0.28957119681989146
-0.6455047257567939 0.18081165966194693
-0.6906775952183309 0.22431547452512474
-0.6906775952183309 0.20256356709353585
-0.6680911604875625 0.28957119681989146
-0.6680911604875625 0.31132310425148035
-0.6455047257567939 0.28957119681989146
-0.6003318562952568 0.3765788265462471
-0.5551589868337197 0.33307501168306924
-0.5325725521029512 0.33307501168306924
-0.5250437405260283 0.28957119681989146
-0.540101363679874 0.28957119681989146
-0.5476301752567969 0.20256356709353585
-0.5325725521029512 0.22431547452512474
-0.5325725521029512 0.20256356709353585
-0.540101363679874 0.28957119681989146
-0.5099861173721826 0.33307501168306924
-0.4873996826414141 0.44183454884101375
-0.44975562475679987 0.3765788265462471
-0.4346980016029542 0.5723459934305472
-0.4346980016029542 0.5505940859989583
-0.41964037844910845 0.4853383637041916
-0.41211156687218564 0.42008264140942486
-0.442226813179877 0.31132310425148035
-0.41964037844910845 0.28957119681989146
-0.3895251321414171 0.24606738195671365
-0.38199632056449423 0.24606738195671365
-0.36693869741064855 0.28957119681989146
-0.3292946395260343 0.35482691911465813
-0.2991793932183429 0.42008264140942486
-0.24647771217988299 0.42008264140942486
-0.20883365429526876 0.42008264140942486
-0.19377603114142306 0.4635864562726027
-0.16366078483373167 0.35482691911465813
-0.148603161679886 0.39833073397783597
-0.15613197325680883 0.33307501168306924
-0.16366078483373167 0.3765788265462471
-0.13354553852604029 0.42008264140942486
-0.13354553852604029 0.3765788265462471
-0.1184879153721946 0.4853383637041916
-0.06578623433373466 0.5288421785673694
-0.013084553295274743 0.5940979008621361
0.017030693012416644 0.6376017157253139
0.09231880878164511 0.7246093454516696
0.1224340550893365 0.6811055305884917
0.16007811297395072 0.6376017157253139
0.1901933592816421 0.7028574380200806
0.2504238518970249 0.6593536231569028
0.2805390982047163 0.5940979008621361
0.31065434451240764 0.5723459934305472
0.2730102866277934 0.615849808293725
0.35582721397394473 0.615849808293725
0.3482984023970219 0.7463612528832584
0.3784136487047133 0.8116169751780251
0.4160577065893275 0.8551207900412029
0.4537017644739417 0.8116169751780251
0.491345822358556 0.7246093454516696
0.5064034455124017 0.7028574380200806
0.5064034455124017 0.615849808293725
0.5064034455124017 0.6376017157253139
0.5064034455124017 0.615849808293725
0.4988746339354788 0.6811055305884917
0.47628819920471027 0.7246093454516696
0.48381701078163314 0.7681131603148473
0.4461729528970189 0.7681131603148473
0.4461729528970189 0.7028574380200806
0.43111532974317324 0.5940979008621361
0.4085288950124047 0.6593536231569028
0.35582721397394473 0.615849808293725
0.2805390982047163 0.5940979008621361
0.2504238518970249 0.5723459934305472
0.16007811297395072 0.4635864562726027
0.07726118562779942 0.3765788265462471
0.017030693012416644 0.31132310425148035
-0.058257422756811825 0.35482691911465813
-0.08837266906450321 0.3765788265462471
-0.11095910379527175 0.3765788265462471
-0.17871840798757738 0.3765788265462471
-0.19377603114142306 0.35482691911465813
-0.20130484271834592 0.31132310425148035
-0.2163624658721916 0.31132310425148035
-0.26906414691065156 0.28957119681989146
-0.29165058164142005 0.24606738195671365
-0.3292946395260343 0.20256356709353585
-0.36693869741064855 0.15905975223035804
-0.41211156687218564 0.20256356709353585
-0.44975562475679987 0.05030021507241352
-0.4572844363337227 0.11555593736718023
-0.442226813179877 0.07205212250400242
-0.4346980016029542 -0.014955507222353184
-0.4271691900260313 0.07205212250400242
-0.41964037844910845 0.11555593736718023
-0.4271691900260313 0.11555593736718023
-0.41211156687218564 0.07205212250400242
-0.442226813179877 0.07205212250400242
-0.44975562475679987 0.09380402993559132
-0.46481324791064554 0.07205212250400242
-0.4723420594875684 0.09380402993559132
-0.4723420594875684 0.13730784479876915
-0.4798708710644912 0.15905975223035804
-0.4723420594875684 0.20256356709353585
-0.4572844363337227 0.18081165966194693
-0.442226813179877 0.18081165966194693
-0.41964037844910845 0.18081165966194693
-0.3970539437183399 0.20256356709353585
-0.4045827552952628 0.07205212250400242
-0.3970539437183399 -0.014955507222353184
-0.41964037844910845 -0.03670741465394209
-0.4271691900260313 0.02854830764082462
-0.38199632056449423 0.05030021507241352
-0.3970539437183399 0.13730784479876915
-0.38199632056449423 0.18081165966194693
-0.37446750898757136 0.18081165966194693
-0.34435226267988 0.31132310425148035
-0.32176582794911146 0.39833073397783597
-0.32176582794911146 0.31132310425148035
-0.3067082047952658 0.24606738195671365
-0.3142370163721886 0.2678192893883026
-0.3142370163721886 0.15905975223035804
-0.3292946395260343 0.07205212250400242
-0.34435226267988 0.02854830764082462
-0.3292946395260343 -0.0802112295171199
-0.32176582794911146 -0.03670741465394209
-0.32176582794911146 -0.05845932208553099
-0.32176582794911146 0.006796400209235718
-0.33682345110295714 0.02854830764082462
-0.33682345110295714 0.09380402993559132
-0.3292946395260343 0.20256356709353585
-0.3142370163721886 0.20256356709353585
-0.3067082047952658 0.13730784479876915
-0.27659295848757437 0.15905975223035804
-0.2991793932183429 0.15905975223035804
-0.2991793932183429 0.15905975223035804
-0.2991793932183429 0.15905975223035804
-0.34435226267988 0.11555593736718023
-0.33682345110295714 0.18081165966194693
-0.32176582794911146 0.20256356709353585
-0.3142370163721886 0.24606738195671365
-0.3142370163721886 0.28957119681989146
-0.2991793932183429 0.35482691911465813
-0.3067082047952658 0.35482691911465813
-0.3594098858337257 0.35482691911465813
-0.3518810742568029 0.24606738195671365
-0.37446750898757136 0.15905975223035804
-0.3895251321414171 -0.014955507222353184
-0.38199632056449423 -0.0802112295171199
-0.38199632056449423 -0.12371504438029769
-0.41211156687218564 -0.05845932208553099
-0.4045827552952628 0.006796400209235718
-0.36693869741064855 0.05030021507241352
-0.3594098858337257 0.05030021507241352
-0.33682345110295714 0.07205212250400242
-0.3518810742568029 0.05030021507241352
-0.3594098858337257 0.13730784479876915
-0.37446750898757136 0.13730784479876915
-0.3594098858337257 0.18081165966194693
-0.37446750898757136 0.02854830764082462
-0.3895251321414171 -0.10196313694870879
-0.3970539437183399 -0.16721885924347551
-0.3970539437183399 -0.25422648896983113
-0.4045827552952628 -0.25422648896983113
-0.41211156687218564 -0.10196313694870879
-0.41211156687218564 0.02854830764082462
-0.3594098858337257 0.11555593736718023
-0.3594098858337257 0.22431547452512474
-0.34435226267988 0.28957119681989146
-0.32176582794911146 0.18081165966194693
-0.34435226267988 0.13730784479876915
-0.38199632056449423 0.07205212250400242
-0.4045827552952628 -0.014955507222353184
-0.44975562475679987 -0.12371504438029769
-0.4572844363337227 -0.10196313694870879
-0.4271691900260313 -0.03670741465394209
-0.4045827552952628 0.006796400209235718
-0.3970539437183399 0.05030021507241352
-0.38199632056449423 0.11555593736718023
-0.4045827552952628 0.13730784479876915
-0.3895251321414171 0.09380402993559132
-0.3970539437183399 0.07205212250400242
-0.4346980016029542 -0.014955507222353184
-0.4045827552952628 -0.014955507222353184
-0.41964037844910845 0.006796400209235718
-0.41211156687218564 0.13730784479876915
-0.4045827552952628 0.24606738195671365
-0.3970539437183399 0.39833073397783597
-0.33682345110295714 0.3765788265462471
-0.3067082047952658 0.35482691911465813
-0.28412177006449724 0.22431547452512474
-0.27659295848757437 0.22431547452512474
-0.26906414691065156 0.18081165966194693
-0.2540065237568058 0.20256356709353585
-0.2314200890260373 0.28957119681989146
-0.2314200890260373 0.28957119681989146
-0.2540065237568058 0.33307501168306924
-0.2540065237568058 0.28957119681989146
-0.2615353353337287 0.28957119681989146
-0.26906414691065156 0.2678192893883026
-0.23894890060296015 0.20256356709353585
-0.2314200890260373 0.20256356709353585
-0.20883365429526876 0.24606738195671365
-0.17118959641065454 0.20256356709353585
-0.17118959641065454 0.13730784479876915
-0.1184879153721946 0.09380402993559132
-0.08837266906450321 0.02854830764082462
-0.07331504591065752 -0.014955507222353184
-0.05072861117988898 -0.05845932208553099
-0.04319979960296613 -0.03670741465394209
-0.08084385748758037 -0.014955507222353184
-0.1034302922183489 0.09380402993559132
-0.1184879153721946 0.18081165966194693
-0.08837266906450321 0.20256356709353585
-0.08837266906450321 0.24606738195671365
-0.07331504591065752 0.24606738195671365
-0.08084385748758037 0.13730784479876915
-0.1034302922183489 0.13730784479876915
-0.148603161679886 0.07205212250400242
-0.19377603114142306 0.07205212250400242
-0.20883365429526876 0.05030021507241352
-0.2615353353337287 0.07205212250400242
-0.3142370163721886 0.09380402993559132
-0.3292946395260343 0.11555593736718023
-0.37446750898757136 0.15905975223035804
-0.36693869741064855 0.09380402993559132
-0.37446750898757136 0.11555593736718023
-0.3970539437183399 0.006796400209235718
-0.41211156687218564 0.05030021507241352
-0.41211156687218564 0.05030021507241352
-0.4271691900260313 0.02854830764082462
-0.4045827552952628 0.02854830764082462
-0.41211156687218564 0.02854830764082462
-0.4045827552952628 0.05030021507241352
-0.4045827552952628 0.09380402993559132
-0.3970539437183399 0.09380402993559132
-0.3970539437183399 0.20256356709353585
-0.3970539437183399 0.18081165966194693
-0.37446750898757136 0.24606738195671365
-0.3594098858337257 0.18081165966194693
-0.3594098858337257 0.09380402993559132
-0.3518810742568029 0.09380402993559132
-0.4045827552952628 0.05030021507241352
-0.442226813179877 -0.03670741465394209
-0.41964037844910845 -0.16721885924347551
-0.4045827552952628 -0.27597839640142
-0.38199632056449423 -0.27597839640142
-0.2991793932183429 -0.5587531930120757
-0.12601672694911745 -0.7762722673279647
0.09984762035856795 -1.1025508788017984
0.4160577065893275 -1.4288294902756318
0.8677864012046983 -1.842115731475821
1.379745588435452 -2.1466424355180656
1.9368776451277425 -2.516424861855077
2.524124948127725 -2.8644553807604995
3.1113722511277064 -3.2559897145290995
3.6986195541276885 -3.408253066550222
4.23316517608921 -3.4735087888449887
4.624663378089199 -3.2559897145290995
4.895700594858421 -2.8644553807604995
4.986046333781496 -2.277153880107599
4.9032294064353446 -1.7768600091810542
4.526788827589201 -1.167806601096565
3.766378858319994 -0.8197760821911426
2.80269097647387 -0.6675127301700202
1.8390030946277456 -0.6675127301700202
0.8753152127816212 -0.6240089153068424
-0.08837266906450321 -0.5370012855804869
-1.0520605509106276 -0.4064898409909534
-1.1047622319490875 -0.16721885924347551
-0.6982064067952538 -0.014955507222353184
-0.2540065237568058 0.15905975223035804
0.08478999720472226 0.18081165966194693
0.2052509824354878 0.31132310425148035
0.14502048982010504 0.22431547452512474
0.032088316166262336 0.15905975223035804
-0.12601672694911745 0.07205212250400242
-0.2540065237568058 0.05030021507241352
-0.33682345110295714 -0.014955507222353184
-0.33682345110295714 0.02854830764082462
-0.34435226267988 0.13730784479876915
-0.3142370163721886 0.18081165966194693
-0.32176582794911146 0.24606738195671365
-0.2991793932183429 0.3765788265462471
-0.3067082047952658 0.44183454884101375
-0.3142370163721886 0.44183454884101375
-0.2991793932183429 0.3765788265462471
-0.28412177006449724 0.42008264140942486
-0.2991793932183429 0.35482691911465813
-0.27659295848757437 0.33307501168306924
-0.2540065237568058 0.24606738195671365
-0.24647771217988299 0.24606738195671365
-0.24647771217988299 0.31132310425148035
-0.27659295848757437 0.22431547452512474
-0.26906414691065156 0.2678192893883026
-0.24647771217988299 0.24606738195671365
-0.22389127744911444 0.2678192893883026
-0.19377603114142306 0.3765788265462471
-0.18624721956450022 0.42008264140942486
-0.15613197325680883 0.4635864562726027
-0.15613197325680883 0.4635864562726027
-0.15613197325680883 0.5288421785673694
-0.15613197325680883 0.42008264140942486
-0.14107435010296313 0.35482691911465813
-0.15613197325680883 0.31132310425148035
-0.15613197325680883 0.2678192893883026
-0.13354553852604029 0.24606738195671365
-0.12601672694911745 0.3765788265462471
-0.1034302922183489 0.39833073397783597
-0.09590148064142606 0.5288421785673694
-0.058257422756811825 0.5505940859989583
-0.02061336487219759 0.5288421785673694
-0.028142176449120437 0.5288421785673694
0.009501881435493797 0.39833073397783597
0.02455950458933949 0.35482691911465813
0.032088316166262336 0.3765788265462471
0.06220356247395373 0.39833073397783597
0.09231880878164511 0.4635864562726027
0.11490524351241366 0.4853383637041916
0.1224340550893365 0.615849808293725
0.14502048982010504 0.6811055305884917
0.1676069245508736 0.6376017157253139
0.22030860558933352 0.6593536231569028
0.2504238518970249 0.6593536231569028
0.3257119676662534 0.6593536231569028
0.35582721397394473 0.6376017157253139
0.4160577065893275 0.5940979008621361
0.4160577065893275 0.615849808293725
0.4160577065893275 0.5723459934305472
0.43864414132009605 0.5288421785673694
0.4612305760508646 0.5070902711357804
0.4988746339354788 0.615849808293725
0.5591051265508616 0.7246093454516696
0.6343932423200901 0.7246093454516696
0.6946237349354728 0.8768726974727918
0.784969473858547 0.8768726974727918
0.8376711548970069 0.8768726974727918
0.8753152127816212 0.8986246049043807
0.9054304590893125 0.8551207900412029
0.9129592706662354 0.7463612528832584
0.9204880822431583 0.8116169751780251
0.9656609517046953 0.8333688826096141
0.9957761980123867 0.8768726974727918
1.033420255897001 0.9856322346307363
1.0635355022046924 1.0073841420623253
1.0936507485123836 1.0291360494939141
1.1011795600893066 0.9203765123359696
1.123765994820075 0.8986246049043807
1.0936507485123836 0.8116169751780251
1.1312948063969979 0.7681131603148473
1.0710643137816152 0.7898650677464362
1.0710643137816152 0.7681131603148473
1.033420255897001 0.7463612528832584
0.9882473864354638 0.7463612528832584
0.9506033285508496 0.6376017157253139
0.882844024358544 0.6811055305884917
0.8376711548970069 0.5723459934305472
0.7548542275508556 0.5723459934305472
0.6795661117816272 0.5288421785673694
0.6042779960123987 0.5723459934305472
0.48381701078163314 0.5288421785673694
0.38594246028163615 0.42008264140942486
0.2805390982047163 0.33307501168306924
0.18266454770471927 0.20256356709353585
0.07726118562779942 0.09380402993559132
0.009501881435493797 0.006796400209235718
-0.058257422756811825 0.09380402993559132
-0.08084385748758037 0.13730784479876915
-0.08837266906450321 0.22431547452512474
-0.12601672694911745 0.35482691911465813
-0.12601672694911745 0.3765788265462471
-0.12601672694911745 0.3765788265462471
-0.15613197325680883 0.2678192893883026
-0.17118959641065454 0.22431547452512474
-0.19377603114142306 0.09380402993559132
-0.2314200890260373 0.11555593736718023
-0.2540065237568058 0.07205212250400242
-0.28412177006449724 0.13730784479876915
-0.28412177006449724 0.13730784479876915
-0.3067082047952658 0.20256356709353585
-0.3067082047952658 0.22431547452512474
-0.2991793932183429 0.28957119681989146
-0.29165058164142005 0.42008264140942486
-0.2615353353337287 0.39833073397783597
-0.2615353353337287 0.2678192893883026
-0.2615353353337287 0.20256356709353585
-0.27659295848757437 0.07205212250400242
-0.3142370163721886 -0.014955507222353184
-0.2991793932183429 -0.03670741465394209
-0.2991793932183429 0.07205212250400242
-0.3142370163721886 0.18081165966194693
-0.29165058164142005 0.18081165966194693
-0.29165058164142005 0.33307501168306924
-0.26906414691065156 0.3765788265462471
-0.2615353353337287 0.39833073397783597
-0.24647771217988299 0.39833073397783597
-0.23894890060296015 0.2678192893883026
-0.2615353353337287 0.28957119681989146
-0.2615353353337287 0.22431547452512474
-0.2615353353337287 0.18081165966194693
-0.2540065237568058 0.09380402993559132
-0.23894890060296015 0.15905975223035804
-0.2540065237568058 0.13730784479876915
-0.2615353353337287 0.13730784479876915
-0.23894890060296015 0.22431547452512474
-0.22389127744911444 0.22431547452512474
-0.2163624658721916 0.31132310425148035
-0.19377603114142306 0.31132310425148035
-0.18624721956450022 0.31132310425148035
-0.2163624658721916 0.33307501168306924
-0.20883365429526876 0.31132310425148035
-0.2314200890260373 0.2678192893883026
-0.23894890060296015 0.24606738195671365
-0.2615353353337287 0.28957119681989146
-0.26906414691065156 0.22431547452512474
-0.2540065237568058 0.2678192893883026
-0.26906414691065156 0.2678192893883026
-0.28412177006449724 0.31132310425148035
-0.2540065237568058 0.3765788265462471
-0.23894890060296015 0.39833073397783597
-0.20883365429526876 0.2678192893883026
-0.2615353353337287 0.24606738195671365
-0.2540065237568058 0.18081165966194693
-0.26906414691065156 0.24606738195671365
-0.2991793932183429 0.15905975223035804
-0.3292946395260343 0.18081165966194693
-0.33682345110295714 0.2678192893883026
-0.3292946395260343 0.2678192893883026
-0.32176582794911146 0.24606738195671365
-0.3142370163721886 0.24606738195671365
-0.3067082047952658 0.24606738195671365
-0.27659295848757437 0.20256356709353585
-0.2991793932183429 0.22431547452512474
-0.3067082047952658 0.28957119681989146
-0.3067082047952658 0.18081165966194693
-0.33682345110295714 0.18081165966194693
-0.36693869741064855 0.13730784479876915
-0.36693869741064855 0.18081165966194693
-0.3594098858337257 0.18081165966194693
-0.37446750898757136 0.20256356709353585
-0.37446750898757136 0.24606738195671365
-0.37446750898757136 0.31132310425148035
-0.36693869741064855 0.33307501168306924
-0.3594098858337257 0.35482691911465813
-0.38199632056449423 0.39833073397783597
-0.37446750898757136 0.33307501168306924
-0.38199632056449423 0.31132310425148035
-0.37446750898757136 0.28957119681989146
-0.3895251321414171 0.13730784479876915
-0.3895251321414171 0.13730784479876915
-0.3970539437183399 0.15905975223035804
-0.3895251321414171 0.13730784479876915
-0.3970539437183399 0.15905975223035804
-0.38199632056449423 0.22431547452512474
-0.38199632056449423 0.28957119681989146
-0.38199632056449423 0.31132310425148035
-0.3970539437183399 0.28957119681989146
-0.4045827552952628 0.33307501168306924
-0.41211156687218564 0.28957119681989146
-0.41211156687218564 0.18081165966194693
-0.4271691900260313 0.11555593736718023
-0.442226813179877 0.20256356709353585
-0.44975562475679987 0.18081165966194693
-0.4346980016029542 0.24606738195671365
-0.41211156687218564 0.3765788265462471
-0.3895251321414171 0.44183454884101375
-0.3594098858337257 0.5070902711357804
-0.2991793932183429 0.615849808293725
-0.28412177006449724 0.6811055305884917
-0.2540065237568058 0.6811055305884917
-0.23894890060296015 0.6811055305884917
-0.26906414691065156 0.6376017157253139
-0.27659295848757437 0.5070902711357804
-0.26906414691065156 0.4635864562726027
-0.29165058164142005 0.44183454884101375
-0.2615353353337287 0.42008264140942486
-0.2615353353337287 0.42008264140942486
-0.24647771217988299 0.42008264140942486
-0.2163624658721916 0.5723459934305472
-0.19377603114142306 0.5070902711357804
-0.15613197325680883 0.4853383637041916
-0.14107435010296313 0.42008264140942486
-0.1034302922183489 0.31132310425148035
-0.11095910379527175 0.22431547452512474
-0.09590148064142606 0.20256356709353585
-0.1184879153721946 0.22431547452512474
-0.11095910379527175 0.2678192893883026
-0.09590148064142606 0.33307501168306924
-0.1034302922183489 0.31132310425148035
-0.09590148064142606 0.4635864562726027
-0.11095910379527175 0.4635864562726027
-0.11095910379527175 0.44183454884101375
-0.14107435010296313 0.35482691911465813
-0.20130484271834592 0.28957119681989146
-0.22389127744911444 0.22431547452512474
-0.2314200890260373 0.2678192893883026
-0.2615353353337287 0.31132310425148035
-0.2540065237568058 0.31132310425148035
-0.28412177006449724 0.35482691911465813
-0.33682345110295714 0.35482691911465813
-0.36693869741064855 0.33307501168306924
-0.3895251321414171 0.3765788265462471
-0.4346980016029542 0.33307501168306924
-0.442226813179877 0.35482691911465813
-0.442226813179877 0.31132310425148035
-0.4723420594875684 0.22431547452512474
-0.49492849421833696 0.15905975223035804
-0.5099861173721826 0.11555593736718023
-0.5099861173721826 0.13730784479876915
-0.5024573057952598 0.15905975223035804
-0.5250437405260283 0.28957119681989146
-0.5325725521029512 0.35482691911465813
-0.49492849421833696 0.3765788265462471
-0.49492849421833696 0.4635864562726027
-0.4572844363337227 0.4853383637041916
-0.4346980016029542 0.4635864562726027
-0.4346980016029542 0.3765788265462471
-0.41211156687218564 0.35482691911465813
-0.41964037844910845 0.3765788265462471
-0.4346980016029542 0.39833073397783597
-0.4572844363337227 0.33307501168306924
-0.442226813179877 0.18081165966194693
-0.4045827552952628 -0.014955507222353184
-0.34435226267988 -0.2107226741066533
-0.20130484271834592 -0.49349747071730904
0.017030693012416644 -0.9720394342122649
0.3257119676662534 -1.2983180456860985
0.784969473858547 -1.6463485645915208
1.3119862842431462 -1.9943790834969433
1.8841759640892826 -2.364161509833955
2.5316537597046476 -2.712192028739377
3.179131555320012 -3.0384706402132107
3.8341381625123 -3.234237807097511
4.383741407627668 -3.2994935293922776
4.81288366751227 -3.0384706402132107
5.07639207270457 -2.6034324915814326
5.166737811627644 -2.016130990928532
5.0839208842814925 -1.3418218605492762
4.752653174896888 -0.732768452464787
4.105175379281523 -0.2977303038330089
3.141487497435398 -0.10196313694870879
2.1777996155892736 -0.1454669518118866
1.2141117337431493 -0.16721885924347551
0.2504238518970249 -0.1454669518118866
-0.7132640299490995 0.006796400209235718
-1.2252232171798532 0.09380402993559132
-0.8563114499106336 0.2678192893883026
-0.3970539437183399 0.44183454884101375
-0.013084553295274743 0.615849808293725
0.17513573612779643 0.6376017157253139
0.17513573612779643 0.6811055305884917
0.06973237405087657 0.5940979008621361
-0.12601672694911745 0.5940979008621361
-0.2615353353337287 0.5288421785673694
-0.34435226267988 0.6376017157253139
-0.37446750898757136 0.6376017157253139
-0.37446750898757136 0.6593536231569028
-0.34435226267988 0.7246093454516696
-0.32176582794911146 0.7246093454516696
-0.2991793932183429 0.7246093454516696
-0.26906414691065156 0.7463612528832584
-0.3142370163721886 0.7463612528832584
-0.32176582794911146 0.8551207900412029
-0.34435226267988 0.8551207900412029
-0.3594098858337257 0.7898650677464362
-0.3594098858337257 0.7463612528832584
-0.3518810742568029 0.6593536231569028
-0.34435226267988 0.6376017157253139
-0.33682345110295714 0.5288421785673694
-0.26906414691065156 0.6376017157253139
-0.24647771217988299 0.6376017157253139
-0.2615353353337287 0.7681131603148473
-0.24647771217988299 0.8333688826096141
-0.24647771217988299 0.9203765123359696
-0.2314200890260373 0.9638803271991474
-0.17118959641065454 0.9856322346307363
-0.17871840798757738 0.9638803271991474
-0.15613197325680883 0.8333688826096141
-0.17871840798757738 0.7246093454516696
-0.17118959641065454 0.615849808293725
-0.17118959641065454 0.5940979008621361
-0.17118959641065454 0.7246093454516696
-0.17118959641065454 0.8333688826096141
-0.14107435010296313 0.9203765123359696
-0.12601672694911745 0.9856322346307363
-0.09590148064142606 0.9421284197675586
-0.05072861117988898 0.9638803271991474
-0.02061336487219759 0.9203765123359696
0.009501881435493797 0.7898650677464362
0.02455950458933949 0.7246093454516696
0.009501881435493797 0.7246093454516696
0.017030693012416644 0.7246093454516696
0.009501881435493797 0.7246093454516696
0.03961712774318518 0.7463612528832584
0.06973237405087657 0.8116169751780251
0.1073764319354908 0.8768726974727918
0.14502048982010504 0.8768726974727918
0.1676069245508736 0.9856322346307363
0.21277979401241065 1.0073841420623253
0.2504238518970249 1.0943917717886809
0.28806790978163915 1.1378955866518587
0.35582721397394473 1.1378955866518587
0.38594246028163615 1.1161436792202697
0.39347127185855896 1.0291360494939141
0.39347127185855896 0.9856322346307363
0.4612305760508646 0.9638803271991474
0.48381701078163314 0.9638803271991474
0.536518691820093 1.0291360494939141
0.5967491844354759 1.0943917717886809
0.6569796770508586 1.1378955866518587
0.7322677928200871 1.1596474940834476
0.8075559085893156 1.1596474940834476
0.8602575896277754 1.2249032163782143
0.9204880822431583 1.268407031241392
0.9430745169739267 1.268407031241392
0.9506033285508496 1.2249032163782143
0.9882473864354638 1.2031513089466253
1.0033050095893095 1.1596474940834476
0.9957761980123867 1.2249032163782143
1.0258914443200782 1.3336627535361587
1.033420255897001 1.3336627535361587
1.0635355022046924 1.3771665683993366
1.0635355022046924 1.3554146609677478
1.0710643137816152 1.3336627535361587
1.0484778790508467 1.268407031241392
1.0635355022046924 1.1813994015150364
1.0484778790508467 1.1596474940834476
0.9957761980123867 1.1378955866518587
0.9430745169739267 1.1378955866518587
0.8753152127816212 1.0291360494939141
0.8226135317431612 0.9421284197675586
0.7397966043970099 0.8768726974727918
0.6795661117816272 0.7681131603148473
0.5816915612816301 0.8768726974727918
0.5064034455124017 0.9421284197675586
0.43111532974317324 0.9203765123359696
0.3332407792431762 0.7681131603148473
0.2654814750508706 0.7681131603148473
0.1901933592816421 0.615849808293725
0.08478999720472226 0.5723459934305472
0.0019730698585709505 0.5505940859989583
-0.08837266906450321 0.5940979008621361
-0.14107435010296313 0.5723459934305472
-0.19377603114142306 0.7028574380200806
-0.17871840798757738 0.7681131603148473
-0.20883365429526876 0.8116169751780251
-0.20883365429526876 0.8551207900412029
-0.2314200890260373 0.8768726974727918
-0.22389127744911444 0.7463612528832584
-0.2540065237568058 0.7246093454516696
-0.28412177006449724 0.6376017157253139
-0.28412177006449724 0.615849808293725
-0.32176582794911146 0.5288421785673694
-0.33682345110295714 0.4853383637041916
-0.34435226267988 0.5288421785673694
-0.34435226267988 0.5070902711357804
-0.3594098858337257 0.6593536231569028
-0.3518810742568029 0.7898650677464362
-0.3594098858337257 0.7463612528832584
-0.3594098858337257 0.7898650677464362
-0.2991793932183429 0.7246093454516696
-0.33682345110295714 0.5723459934305472
-0.3594098858337257 0.5505940859989583
-0.3594098858337257 0.44183454884101375
-0.3594098858337257 0.44183454884101375
-0.36693869741064855 0.5288421785673694
-0.3594098858337257 0.6811055305884917
-0.33682345110295714 0.7463612528832584
-0.2991793932183429 0.7681131603148473
-0.29165058164142005 0.7898650677464362
-0.2615353353337287 0.7246093454516696
-0.24647771217988299 0.7246093454516696
-0.27659295848757437 0.615849808293725
-0.2615353353337287 0.5505940859989583
-0.3067082047952658 0.6376017157253139
-0.32176582794911146 0.6811055305884917
-0.3142370163721886 0.7246093454516696
-0.32176582794911146 0.6811055305884917
-0.32176582794911146 0.7028574380200806
-0.33682345110295714 0.7463612528832584
-0.3142370163721886 0.7028574380200806
-0.3067082047952658 0.7028574380200806
-0.3067082047952658 0.6811055305884917
-0.3142370163721886 0.7246093454516696
-0.3067082047952658 0.7681131603148473
-0.3142370163721886 0.7898650677464362
-0.27659295848757437 0.7681131603148473
-0.2991793932183429 0.7681131603148473
-0.32176582794911146 0.7681131603148473
-0.32176582794911146 0.7246093454516696
-0.3518810742568029 0.7028574380200806
-0.3292946395260343 0.7246093454516696
-0.33682345110295714 0.7898650677464362
-0.3142370163721886 0.7898650677464362
-0.32176582794911146 0.8333688826096141
-0.3142370163721886 0.8551207900412029
-0.32176582794911146 0.8333688826096141
-0.3518810742568029 0.7681131603148473
-0.38199632056449423 0.7463612528832584
-0.41964037844910845 0.7028574380200806
-0.4346980016029542 0.6811055305884917
-0.44975562475679987 0.7028574380200806
-0.41211156687218564 0.7028574380200806
-0.4346980016029542 0.7898650677464362
-0.4271691900260313 0.8116169751780251
-0.3970539437183399 0.8768726974727918
-0.3970539437183399 0.8333688826096141
-0.4045827552952628 0.7681131603148473
-0.3895251321414171 0.7246093454516696
-0.4045827552952628 0.7246093454516696
-0.4346980016029542 0.6811055305884917
-0.442226813179877 0.615849808293725
-0.44975562475679987 0.7028574380200806
-0.4723420594875684 0.7246093454516696
-0.4873996826414141 0.7898650677464362
-0.5175149289491054 0.8116169751780251
-0.4798708710644912 0.9203765123359696
-0.46481324791064554 1.0073841420623253
-0.4346980016029542 0.9421284197675586
-0.44975562475679987 0.7898650677464362
-0.46481324791064554 0.7028574380200806
-0.4873996826414141 0.615849808293725
-0.5099861173721826 0.6376017157253139
-0.5175149289491054 0.6376017157253139
-0.5551589868337197 0.7246093454516696
-0.5626877984106425 0.8116169751780251
-0.5626877984106425 0.7898650677464362
-0.5250437405260283 0.8333688826096141
-0.5250437405260283 0.8768726974727918
-0.5099861173721826 0.8333688826096141
-0.4873996826414141 0.9421284197675586
-0.49492849421833696 0.9203765123359696
-0.4873996826414141 0.8768726974727918
-0.5024573057952598 0.9421284197675586
-0.5099861173721826 0.8551207900412029
-0.5325725521029512 0.8551207900412029
-0.5476301752567969 0.8116169751780251
-0.540101363679874 0.8116169751780251
-0.5325725521029512 0.9421284197675586
-0.5175149289491054 1.0073841420623253
-0.4798708710644912 1.0943917717886809
-0.4572844363337227 1.2249032163782143
-0.4271691900260313 1.290158938672981
-0.3895251321414171 1.290158938672981
-0.37446750898757136 1.1813994015150364
-0.41211156687218564 1.072639864357092
-0.41964037844910845 1.072639864357092
-0.41964037844910845 0.9638803271991474
-0.4346980016029542 0.9856322346307363
-0.41211156687218564 0.9421284197675586
-0.41211156687218564 0.9856322346307363
-0.36693869741064855 1.050887956925503
-0.33682345110295714 1.050887956925503
-0.3067082047952658 1.1596474940834476
-0.27659295848757437 1.050887956925503
-0.2540065237568058 0.8768726974727918
-0.23894890060296015 0.8333688826096141
-0.2314200890260373 0.8116169751780251
-0.24647771217988299 0.7681131603148473
-0.3067082047952658 0.8116169751780251
-0.3142370163721886 0.9421284197675586
-0.36693869741064855 0.9421284197675586
-0.41211156687218564 1.0073841420623253
-0.41964037844910845 0.9856322346307363
-0.41964037844910845 1.0291360494939141
-0.442226813179877 1.0073841420623253
-0.41964037844910845 0.9638803271991474
-0.4572844363337227 1.0073841420623253
-0.4873996826414141 0.9856322346307363
-0.5250437405260283 0.9203765123359696
-0.5777454215644883 0.9203765123359696
-0.6153894794491025 0.9638803271991474
-0.6229182910260254 1.0073841420623253
-0.6455047257567939 0.9638803271991474
-0.6756199720644852 0.9638803271991474
-0.6831487836414081 0.9421284197675586
-0.7057352183721767 0.9856322346307363
-0.6982064067952538 0.9638803271991474
-0.6605623489106396 1.0291360494939141
-0.6756199720644852 1.072639864357092
-0.6455047257567939 1.0943917717886809
-0.6455047257567939 1.0943917717886809
-0.6530335373337167 1.0943917717886809
-0.6680911604875625 0.9638803271991474
-0.6831487836414081 0.9421284197675586
-0.7057352183721767 0.9203765123359696
-0.7057352183721767 0.9421284197675586
-0.6982064067952538 0.9856322346307363
-0.6831487836414081 1.0943917717886809
-0.6530335373337167 1.050887956925503
-0.6078606678721796 1.050887956925503
-0.5551589868337197 0.7898650677464362
-0.4271691900260313 0.42008264140942486
-0.3067082047952658 -0.05845932208553099
-0.1034302922183489 -0.49349747071730904
0.22783741716625636 -0.8850318044859092
0.6946237349354728 -1.3418218605492762
1.2969286610893005 -1.6681004720231098
1.9820505145892797 -2.016130990928532
2.7876333533200244 -2.25540197267601
3.5706297573200003 -2.25540197267601
4.270809233973825 -1.9073714537705877
4.76018198647381 -1.2765661382545095
4.91828702958919 -0.6675127301700202
4.617134566512276 -0.1454669518118866
3.788965293050763 0.24606738195671365
2.8252774112046386 0.4635864562726027
1.861589529358514 0.4635864562726027
0.8979016475123897 0.4635864562726027
-0.06578623433373466 0.4635864562726027
-1.029474116179859 0.6811055305884917
-1.5640197381413812 0.8333688826096141
-1.0370029277567818 0.9421284197675586
-0.5175149289491054 1.1596474940834476
-0.17118959641065454 1.2249032163782143
-0.06578623433373466 1.2466551238098031
-0.13354553852604029 1.2249032163782143
-0.28412177006449724 1.1596474940834476
-0.4723420594875684 1.050887956925503
-0.6304471026029482 0.9421284197675586
-0.6906775952183309 1.0291360494939141
-0.7057352183721767 1.0943917717886809
-0.6680911604875625 1.2466551238098031
-0.6229182910260254 1.3554146609677478
-0.6003318562952568 1.3989184758309254
-0.5626877984106425 1.4641741981256922
-0.5626877984106425 1.4424222906941033
-0.5476301752567969 1.3336627535361587
-0.6003318562952568 1.268407031241392
-0.5852742331414111 1.1813994015150364
-0.6229182910260254 1.1378955866518587
-0.6078606678721796 1.1596474940834476
-0.6229182910260254 1.1596474940834476
-0.6003318562952568 1.2031513089466253
-0.6078606678721796 1.1813994015150364
-0.6078606678721796 1.290158938672981
-0.5626877984106425 1.3554146609677478
-0.5551589868337197 1.3771665683993366
-0.4798708710644912 1.6164375501468145
-0.4798708710644912 1.5729337352836368
-0.4873996826414141 1.4641741981256922
-0.46481324791064554 1.485926105557281
-0.46481324791064554 1.3771665683993366
-0.4723420594875684 1.3554146609677478
-0.46481324791064554 1.2466551238098031
-0.4572844363337227 1.3119108461045699
-0.442226813179877 1.3119108461045699
-0.4271691900260313 1.3554146609677478
-0.37446750898757136 1.485926105557281
-0.37446750898757136 1.5946856427152256
-0.32176582794911146 1.5294299204204589
-0.29165058164142005 1.50767801298887
-0.28412177006449724 1.4641741981256922
-0.28412177006449724 1.3554146609677478
-0.2540065237568058 1.3554146609677478
-0.2540065237568058 1.3554146609677478
-0.2314200890260373 1.3554146609677478
-0.2163624658721916 1.3554146609677478
-0.19377603114142306 1.3989184758309254
-0.17118959641065454 1.5294299204204589
-0.13354553852604029 1.50767801298887
-0.11095910379527175 1.485926105557281
-0.058257422756811825 1.6164375501468145
-0.058257422756811825 1.5511818278520477
-0.02061336487219759 1.5946856427152256
-0.028142176449120437 1.5729337352836368
0.054674750897030874 1.5511818278520477
0.09231880878164511 1.5511818278520477
0.14502048982010504 1.6164375501468145
0.17513573612779643 1.6599413650099923
0.1901933592816421 1.6816932724415812
0.24289504032010203 1.6816932724415812
0.2805390982047163 1.70344517987317
0.3482984023970219 1.7687009021679367
0.42358651816625037 1.8122047170311146
0.491345822358556 1.7904528095995258
0.5064034455124017 1.725197087304759
0.5139322570893246 1.6599413650099923
0.5139322570893246 1.5946856427152256
0.536518691820093 1.6381894575784035
0.5741627497047073 1.6816932724415812
0.589220372858553 1.6599413650099923
0.5967491844354759 1.6816932724415812
0.6494508654739358 1.6816932724415812
0.6946237349354728 1.746948994736348
0.7322677928200871 1.7687009021679367
0.7623830391277785 1.8557085318942925
0.7623830391277785 1.8774604393258814
0.7623830391277785 1.7687009021679367
0.7397966043970099 1.8339566244627035
0.7021525465123957 1.725197087304759
0.6645084886277814 1.6816932724415812
0.6268644307431672 1.5294299204204589
0.5515763149739388 1.5294299204204589
0.491345822358556 1.485926105557281
0.39347127185855896 1.6381894575784035
0.3332407792431762 1.725197087304759
0.29559672135856196 1.725197087304759
0.22783741716625636 1.6599413650099923
0.15254930139702788 1.6599413650099923
0.032088316166262336 1.50767801298887
-0.04319979960296613 1.3771665683993366
-0.08837266906450321 1.3554146609677478
-0.148603161679886 1.268407031241392
-0.24647771217988299 1.3119108461045699
-0.3292946395260343 1.3771665683993366
-0.3895251321414171 1.3554146609677478
-0.4346980016029542 1.4206703832625145
-0.4572844363337227 1.4206703832625145
-0.4873996826414141 1.3989184758309254
-0.5099861173721826 1.3771665683993366
-0.540101363679874 1.3336627535361587
-0.5626877984106425 1.268407031241392
-0.6003318562952568 1.2249032163782143
-0.6229182910260254 1.290158938672981
-0.6680911604875625 1.268407031241392
-0.6680911604875625 1.2249032163782143
-0.6906775952183309 1.268407031241392
-0.6982064067952538 1.3119108461045699
-0.6756199720644852 1.290158938672981
-0.6680911604875625 1.3554146609677478
-0.6906775952183309 1.3119108461045699
-0.6455047257567939 1.3771665683993366
-0.6455047257567939 1.3119108461045699
-0.6455047257567939 1.3119108461045699
-0.6530335373337167 1.2249032163782143
-0.6906775952183309 1.2466551238098031
-0.6831487836414081 1.2466551238098031
-0.7057352183721767 1.3554146609677478
-0.7207928415260223 1.3119108461045699
-0.7207928415260223 1.3119108461045699
-0.6982064067952538 1.3771665683993366
-0.6605623489106396 1.3119108461045699
-0.6455047257567939 1.3336627535361587
-0.6229182910260254 1.3336627535361587
-0.6153894794491025 1.2466551238098031
-0.6153894794491025 1.1378955866518587
-0.6229182910260254 1.1813994015150364
-0.6153894794491025 1.1378955866518587
-0.6304471026029482 1.1378955866518587
-0.6229182910260254 1.1813994015150364
-0.6304471026029482 1.1813994015150364
-0.6455047257567939 1.290158938672981
-0.6530335373337167 1.3554146609677478
-0.637975914179871 1.3771665683993366
-0.6153894794491025 1.3771665683993366
-0.6078606678721796 1.3771665683993366
-0.5928030447183339 1.3336627535361587
-0.5928030447183339 1.268407031241392
-0.6003318562952568 1.3336627535361587
-0.6153894794491025 1.268407031241392
-0.637975914179871 1.2466551238098031
-0.6455047257567939 1.268407031241392
-0.6455047257567939 1.2466551238098031
-0.6605623489106396 1.2466551238098031
-0.6455047257567939 1.290158938672981
-0.6229182910260254 1.268407031241392
-0.6229182910260254 1.290158938672981
-0.6229182910260254 1.3554146609677478
-0.637975914179871 1.3771665683993366
-0.6906775952183309 1.3554146609677478
-0.7057352183721767 1.268407031241392
-0.7283216531029452 1.2249032163782143
-0.7283216531029452 1.1813994015150364
-0.7509080878337138 1.268407031241392
-0.7207928415260223 1.2031513089466253
-0.7433792762567909 1.2466551238098031
-0.7509080878337138 1.290158938672981
-0.7433792762567909 1.3119108461045699
-0.7057352183721767 1.3119108461045699
-0.6756199720644852 1.3554146609677478
-0.6756199720644852 1.290158938672981
-0.6756199720644852 1.3119108461045699
-0.7057352183721767 1.268407031241392
-0.7132640299490995 1.268407031241392
-0.7283216531029452 1.2031513089466253
-0.7283216531029452 1.3336627535361587
-0.7659657109875594 1.3119108461045699
-0.7659657109875594 1.3119108461045699
-0.7659657109875594 1.3554146609677478
-0.7433792762567909 1.3771665683993366
-0.7509080878337138 1.3771665683993366
-0.7283216531029452 1.3771665683993366
-0.735850464679868 1.3771665683993366
-0.7057352183721767 1.3554146609677478
-0.7207928415260223 1.3119108461045699
-0.735850464679868 1.2466551238098031
-0.7132640299490995 1.2249032163782143
-0.735850464679868 1.2466551238098031
-0.7509080878337138 1.1813994015150364
-0.7584368994106365 1.1161436792202697
-0.7659657109875594 1.2466551238098031
-0.7584368994106365 1.2249032163782143
-0.7584368994106365 1.3554146609677478
-0.7509080878337138 1.3771665683993366
-0.7509080878337138 1.3989184758309254
-0.735850464679868 1.3989184758309254
-0.7584368994106365 1.3336627535361587
-0.7433792762567909 1.3989184758309254
-0.735850464679868 1.3989184758309254
-0.6982064067952538 1.5294299204204589
-0.7057352183721767 1.5511818278520477
-0.6831487836414081 1.6164375501468145
-0.637975914179871 1.725197087304759
-0.5928030447183339 1.6599413650099923
-0.5852742331414111 1.725197087304759
-0.5551589868337197 1.6164375501468145
-0.5626877984106425 1.6164375501468145
-0.5626877984106425 1.50767801298887
-0.5626877984106425 1.4641741981256922
-0.5928030447183339 1.4424222906941033
-0.5852742331414111 1.3771665683993366
-0.5852742331414111 1.3119108461045699
-0.5928030447183339 1.3336627535361587
-0.5852742331414111 1.3336627535361587
-0.6003318562952568 1.3771665683993366
-0.5551589868337197 1.3771665683993366
-0.5099861173721826 1.485926105557281
-0.46481324791064554 1.4641741981256922
-0.41964037844910845 1.485926105557281
-0.4045827552952628 1.4424222906941033
-0.3895251321414171 1.4206703832625145
-0.41211156687218564 1.3336627535361587
-0.442226813179877 1.2031513089466253
-0.46481324791064554 1.2249032163782143
-0.5099861173721826 1.2249032163782143
-0.5476301752567969 1.268407031241392
-0.5551589868337197 1.2466551238098031
-0.540101363679874 1.3554146609677478
-0.540101363679874 1.3554146609677478
-0.5175149289491054 1.4206703832625145
-0.540101363679874 1.3989184758309254
-0.5702166099875654 1.3336627535361587
-0.6003318562952568 1.2466551238098031
-0.6530335373337167 1.268407031241392
-0.7057352183721767 1.2249032163782143
-0.7132640299490995 1.268407031241392
-0.7207928415260223 1.268407031241392
-0.7509080878337138 1.3119108461045699
-0.7433792762567909 1.2031513089466253
-0.7509080878337138 1.3336627535361587
-0.7509080878337138 1.290158938672981
-0.7283216531029452 1.4424222906941033
-0.7433792762567909 1.4641741981256922
-0.7433792762567909 1.3989184758309254
-0.735850464679868 1.2466551238098031
-0.7283216531029452 1.1813994015150364
-0.735850464679868 1.1378955866518587
-0.735850464679868 1.1813994015150364
-0.7509080878337138 1.3554146609677478
-0.735850464679868 1.4424222906941033
-0.7132640299490995 1.485926105557281
-0.6982064067952538 1.4641741981256922
-0.6756199720644852 1.4206703832625145
-0.6455047257567939 1.3554146609677478
-0.6078606678721796 1.0943917717886809
-0.5175149289491054 0.8333688826096141
-0.442226813179877 0.5070902711357804
-0.28412177006449724 0.18081165966194693
-0.04319979960296613 -0.16721885924347551
0.37088483712779047 -0.47174556328572015
0.8226135317431612 -0.8197760821911426
1.4324472694739119 -1.1243027862333872
2.1175691229738907 -1.4288294902756318
2.8102197880507926 -1.6028447497283431
3.5103992647046174 -1.624596657159932
4.187992306627674 -1.385325675412454
4.60207694335843 -0.8850318044859092
4.6999514938584275 -0.2107226741066533
4.421385465512282 0.31132310425148035
3.6308602499353833 0.7463612528832584
2.6671723680892585 0.8768726974727918
1.7034844862431344 0.8986246049043807
0.7397966043970099 0.7681131603148473
-0.22389127744911444 0.9203765123359696
-1.187579159295239 1.050887956925503
-1.7447112159875295 1.2031513089466253
-1.2553384634875444 1.290158938672981
-0.7283216531029452 1.3336627535361587
-0.33682345110295714 1.290158938672981
-0.17118959641065454 1.3336627535361587
-0.16366078483373167 1.3554146609677478
-0.24647771217988299 1.3771665683993366
-0.3895251321414171 1.3554146609677478
-0.49492849421833696 1.3554146609677478
-0.6078606678721796 1.3989184758309254
-0.637975914179871 1.3554146609677478
-0.6530335373337167 1.4206703832625145
-0.6304471026029482 1.4206703832625145
-0.5626877984106425 1.4641741981256922
-0.5551589868337197 1.5729337352836368
-0.540101363679874 1.5511818278520477
-0.540101363679874 1.5946856427152256
-0.5476301752567969 1.6164375501468145
-0.5551589868337197 1.485926105557281
-0.5476301752567969 1.485926105557281
-0.5325725521029512 1.4641741981256922
-0.5250437405260283 1.50767801298887
-0.5250437405260283 1.4424222906941033
-0.5099861173721826 1.5294299204204589
-0.4873996826414141 1.5511818278520477
-0.4798708710644912 1.6381894575784035
-0.4346980016029542 1.6164375501468145
-0.41964037844910845 1.6381894575784035
-0.41964037844910845 1.6816932724415812
-0.41211156687218564 1.6381894575784035
-0.4271691900260313 1.6164375501468145
-0.4346980016029542 1.5946856427152256
-0.4271691900260313 1.5511818278520477
-0.41211156687218564 1.5729337352836368
-0.38199632056449423 1.5729337352836368
-0.36693869741064855 1.6381894575784035
-0.2991793932183429 1.725197087304759
-0.2540065237568058 1.746948994736348
-0.22389127744911444 1.70344517987317
-0.17871840798757738 1.6381894575784035
-0.17118959641065454 1.5294299204204589
-0.17118959641065454 1.4641741981256922
-0.17871840798757738 1.50767801298887
-0.19377603114142306 1.5294299204204589
-0.18624721956450022 1.6381894575784035
-0.18624721956450022 1.6164375501468145
-0.18624721956450022 1.746948994736348
-0.16366078483373167 1.7687009021679367
-0.08837266906450321 1.8339566244627035
-0.05072861117988898 1.8122047170311146
-0.0055557417183518965 1.8122047170311146
0.032088316166262336 1.6599413650099923
0.1073764319354908 1.6816932724415812
0.1374916782431822 1.6816932724415812
0.16007811297395072 1.6381894575784035
0.1901933592816421 1.6816932724415812
0.21277979401241065 1.7687009021679367
0.22030860558933352 1.8122047170311146
0.22783741716625636 1.8339566244627035
0.30312553293548483 1.964468069052237
0.3633560255508676 1.964468069052237
0.42358651816625037 2.0079718839154146
0.491345822358556 2.0297237913470036
0.536518691820093 1.9862199764838258
0.589220372858553 1.9862199764838258
0.6268644307431672 1.942716161620648
0.6494508654739358 1.942716161620648
0.6645084886277814 1.942716161620648
0.7096813580893185 1.964468069052237
0.7172101696662414 2.0732276062101813
0.7397966043970099 2.138483328504948
0.784969473858547 2.160235235936537
0.8150847201662385 2.2037390507997148
0.8226135317431612 2.1167314210733594
0.8527287780508527 2.1167314210733594
0.8376711548970069 2.0514756987785927
0.8226135317431612 2.0079718839154146
0.8000270970123927 1.942716161620648
0.7774406622816241 1.9209642541890593
0.7473254159739328 1.9209642541890593
0.7021525465123957 1.964468069052237
0.6569796770508586 1.942716161620648
0.6042779960123987 1.942716161620648
0.5666339381277845 2.0079718839154146
0.4988746339354788 1.9209642541890593
0.43864414132009605 1.964468069052237
0.39347127185855896 1.9862199764838258
0.34076959082009906 1.8992123467574702
0.2730102866277934 1.8339566244627035
0.19772217085856497 1.6599413650099923
0.1073764319354908 1.5511818278520477
0.017030693012416644 1.485926105557281
-0.058257422756811825 1.5511818278520477
-0.15613197325680883 1.5729337352836368
-0.2163624658721916 1.5511818278520477
-0.28412177006449724 1.6381894575784035
-0.3292946395260343 1.5729337352836368
-0.3594098858337257 1.6599413650099923
-0.3518810742568029 1.6381894575784035
-0.3895251321414171 1.6599413650099923
-0.41964037844910845 1.6164375501468145
-0.442226813179877 1.5946856427152256
-0.4798708710644912 1.485926105557281
-0.5024573057952598 1.3554146609677478
-0.5250437405260283 1.3336627535361587
-0.540101363679874 1.3989184758309254
-0.5852742331414111 1.4641741981256922
-0.5702166099875654 1.5729337352836368
-0.5777454215644883 1.5511818278520477
-0.5702166099875654 1.6164375501468145
-0.5175149289491054 1.5946856427152256
-0.5250437405260283 1.5294299204204589
-0.5099861173721826 1.5511818278520477
-0.49492849421833696 1.3554146609677478
-0.5175149289491054 1.3336627535361587
-0.5325725521029512 1.3989184758309254
-0.5175149289491054 1.3989184758309254
-0.5551589868337197 1.4424222906941033
-0.5626877984106425 1.5294299204204589
-0.540101363679874 1.6164375501468145
-0.4873996826414141 1.5511818278520477
-0.46481324791064554 1.5294299204204589
-0.44975562475679987 1.5511818278520477
-0.4346980016029542 1.5511818278520477
-0.4346980016029542 1.5729337352836368
-0.44975562475679987 1.6381894575784035
-0.4346980016029542 1.5294299204204589
-0.442226813179877 1.485926105557281
-0.4346980016029542 1.4206703832625145
-0.44975562475679987 1.3554146609677478
-0.4723420594875684 1.3336627535361587
-0.4723420594875684 1.4641741981256922
-0.4572844363337227 1.485926105557281
-0.46481324791064554 1.50767801298887
-0.442226813179877 1.5511818278520477
-0.4346980016029542 1.5511818278520477
-0.4271691900260313 1.5294299204204589
-0.4346980016029542 1.5729337352836368
-0.44975562475679987 1.5729337352836368
-0.4572844363337227 1.5946856427152256
-0.4723420594875684 1.6164375501468145
-0.4798708710644912 1.4641741981256922
-0.5024573057952598 1.3989184758309254
-0.4873996826414141 1.3771665683993366
-0.4723420594875684 1.3554146609677478
-0.4723420594875684 1.3554146609677478
-0.4572844363337227 1.3771665683993366
-0.49492849421833696 1.4424222906941033
-0.4873996826414141 1.5946856427152256
-0.49492849421833696 1.5511818278520477
-0.5099861173721826 1.6164375501468145
-0.5325725521029512 1.5729337352836368
-0.5702166099875654 1.50767801298887
-0.5777454215644883 1.3771665683993366
-0.5928030447183339 1.3119108461045699
-0.5777454215644883 1.3771665683993366
-0.5777454215644883 1.3554146609677478
-0.5777454215644883 1.4206703832625145
-0.5551589868337197 1.5511818278520477
-0.5325725521029512 1.5511818278520477
-0.5476301752567969 1.5946856427152256
-0.5476301752567969 1.5294299204204589
-0.5476301752567969 1.4206703832625145
-0.5626877984106425 1.3336627535361587
-0.5928030447183339 1.3554146609677478
-0.6078606678721796 1.3554146609677478
-0.6229182910260254 1.4641741981256922
-0.637975914179871 1.50767801298887
-0.6153894794491025 1.5946856427152256
-0.6003318562952568 1.5729337352836368
-0.5852742331414111 1.6381894575784035
-0.5777454215644883 1.5511818278520477
-0.5777454215644883 1.5946856427152256
-0.5702166099875654 1.485926105557281
-0.5928030447183339 1.4424222906941033
-0.6078606678721796 1.290158938672981
-0.6078606678721796 1.1813994015150364
-0.6304471026029482 1.2249032163782143
-0.6229182910260254 1.268407031241392
-0.6078606678721796 1.3554146609677478
-0.5928030447183339 1.50767801298887
-0.5852742331414111 1.5729337352836368
-0.5928030447183339 1.6381894575784035
-0.5852742331414111 1.5729337352836368
-0.5928030447183339 1.5511818278520477
-0.5852742331414111 1.485926105557281
-0.6078606678721796 1.3771665683993366
-0.6078606678721796 1.2249032163782143
-0.637975914179871 1.2249032163782143
-0.6455047257567939 1.290158938672981
-0.6605623489106396 1.3771665683993366
-0.6530335373337167 1.485926105557281
-0.6680911604875625 1.5946856427152256
-0.6153894794491025 1.6816932724415812
-0.5777454215644883 1.7687009021679367
-0.5626877984106425 1.70344517987317
-0.5325725521029512 1.6381894575784035
-0.5325725521029512 1.5946856427152256
-0.5175149289491054 1.5729337352836368
-0.49492849421833696 1.5729337352836368
-0.49492849421833696 1.6381894575784035
-0.5250437405260283 1.6164375501468145
-0.5099861173721826 1.6816932724415812
-0.5250437405260283 1.6816932724415812
-0.5175149289491054 1.746948994736348
-0.4873996826414141 1.6816932724415812
-0.44975562475679987 1.5729337352836368
-0.442226813179877 1.3989184758309254
-0.41964037844910845 1.290158938672981
-0.41211156687218564 1.268407031241392
-0.3970539437183399 1.3336627535361587
-0.4045827552952628 1.4206703832625145
-0.4045827552952628 1.4424222906941033
-0.37446750898757136 1.4206703832625145
-0.3292946395260343 1.5294299204204589
-0.28412177006449724 1.4424222906941033
-0.27659295848757437 1.50767801298887
-0.28412177006449724 1.4641741981256922
-0.28412177006449724 1.4641741981256922
-0.3292946395260343 1.4641741981256922
-0.37446750898757136 1.3989184758309254
-0.41211156687218564 1.3989184758309254
-0.4572844363337227 1.290158938672981
-0.4873996826414141 1.290158938672981
-0.5024573057952598 1.3336627535361587
-0.5175149289491054 1.3554146609677478
-0.5325725521029512 1.3336627535361587
-0.5626877984106425 1.3989184758309254
-0.6078606678721796 1.3336627535361587
-0.6304471026029482 1.3554146609677478
-0.6455047257567939 1.4424222906941033
-0.6680911604875625 1.3554146609677478
-0.6605623489106396 1.268407031241392
-0.6982064067952538 1.2466551238098031
-0.7283216531029452 1.2466551238098031
-0.6982064067952538 1.1813994015150364
-0.7057352183721767 1.268407031241392
-0.6831487836414081 1.2466551238098031
-0.6982064067952538 1.1596474940834476
-0.6982064067952538 1.2249032163782143
-0.7132640299490995 1.268407031241392
-0.6982064067952538 1.3119108461045699
-0.6530335373337167 1.3989184758309254
-0.6680911604875625 1.485926105557281
-0.6530335373337167 1.6164375501468145
-0.6831487836414081 1.5294299204204589
-0.6906775952183309 1.50767801298887
-0.6680911604875625 1.3554146609677478
-0.6530335373337167 1.0943917717886809
-0.5852742331414111 0.8333688826096141
-0.4873996826414141 0.6593536231569028
-0.3067082047952658 0.44183454884101375
-0.035670988026043286 0.11555593736718023
0.31065434451240764 -0.12371504438029769
0.7473254159739328 -0.47174556328572015
1.281871037935455 -0.9720394342122649
1.861589529358514 -1.4288294902756318
2.4789520786661874 -1.8638676389074098
3.1716027437430894 -2.124890528086477
3.8567245972430686 -2.2118981578128323
4.406327842358436 -1.9726271760653544
4.782768421204579 -1.3200699531176874
4.888171783281498 -0.6675127301700202
4.647249812819967 0.11555593736718023
3.9244839014353743 0.5505940859989583
2.9607960195892495 0.8116169751780251
1.9971081377431252 0.8986246049043807
1.033420255897001 0.8768726974727918
0.06973237405087657 0.9421284197675586
-0.8939555077952478 1.050887956925503
-1.4134435066029243 1.1161436792202697
-1.0068876814490906 1.1596474940834476
-0.5325725521029512 1.268407031241392
-0.20130484271834592 1.3119108461045699
-0.08084385748758037 1.4424222906941033
-0.09590148064142606 1.50767801298887
-0.2314200890260373 1.5946856427152256
-0.3895251321414171 1.725197087304759
-0.5175149289491054 1.725197087304759
-0.5626877984106425 1.6816932724415812
-0.6078606678721796 1.6599413650099923
-0.5852742331414111 1.6599413650099923
-0.5852742331414111 1.5946856427152256
-0.5476301752567969 1.725197087304759
-0.5626877984106425 1.70344517987317
-0.5551589868337197 1.6816932724415812
-0.5777454215644883 1.746948994736348
-0.5702166099875654 1.746948994736348
-0.5476301752567969 1.7904528095995258
-0.5476301752567969 1.8122047170311146
-0.540101363679874 1.7687009021679367
-0.49492849421833696 1.746948994736348
-0.49492849421833696 1.70344517987317
-0.4723420594875684 1.5946856427152256
-0.4873996826414141 1.50767801298887
-0.49492849421833696 1.5729337352836368
-0.5024573057952598 1.5294299204204589
-0.5024573057952598 1.6381894575784035
-0.4873996826414141 1.5946856427152256
-0.4873996826414141 1.6599413650099923
-0.4572844363337227 1.725197087304759
-0.41964037844910845 1.7687009021679367
-0.3970539437183399 1.7687009021679367
-0.3518810742568029 1.7904528095995258
-0.34435226267988 1.8122047170311146
-0.3518810742568029 1.725197087304759
-0.3594098858337257 1.7687009021679367
-0.34435226267988 1.8339566244627035
-0.3594098858337257 1.7904528095995258
-0.3518810742568029 1.8122047170311146
-0.3292946395260343 1.8774604393258814
-0.3142370163721886 1.942716161620648
-0.28412177006449724 1.8557085318942925
-0.2163624658721916 1.9209642541890593
-0.2163624658721916 1.8339566244627035
-0.14107435010296313 1.746948994736348
-0.14107435010296313 1.6381894575784035
-0.1184879153721946 1.725197087304759
-0.1184879153721946 1.70344517987317
-0.11095910379527175 1.725197087304759
-0.09590148064142606 1.725197087304759
-0.08837266906450321 1.8339566244627035
-0.058257422756811825 1.8774604393258814
-0.02061336487219759 1.9862199764838258
0.0019730698585709505 2.0297237913470036
0.06220356247395373 2.0732276062101813
0.1224340550893365 2.0732276062101813
0.17513573612779643 2.0949795136417704
0.22030860558933352 2.1167314210733594
0.2654814750508706 2.0079718839154146
0.30312553293548483 1.964468069052237
0.35582721397394473 1.942716161620648
0.4010000834354818 1.8992123467574702
0.4461729528970189 1.8339566244627035
0.46875938762778746 1.8774604393258814
0.5139322570893246 1.9862199764838258
0.5741627497047073 2.138483328504948
0.5967491844354759 2.225490958231304
0.641922053897013 2.247242865662893
0.6569796770508586 2.2037390507997148
0.7322677928200871 2.247242865662893
0.7699118507047014 2.247242865662893
0.7699118507047014 2.160235235936537
0.8075559085893156 2.0949795136417704
0.8075559085893156 2.0732276062101813
0.8150847201662385 2.1167314210733594
0.8376711548970069 2.181987143368126
0.8602575896277754 2.138483328504948
0.8677864012046983 2.181987143368126
0.8903728359354669 2.2037390507997148
0.9054304590893125 2.181987143368126
0.8527287780508527 2.2037390507997148
0.8075559085893156 2.0949795136417704
0.7548542275508556 2.0297237913470036
0.6795661117816272 1.9209642541890593
0.6343932423200901 1.9209642541890593
0.5816915612816301 1.8557085318942925
0.5139322570893246 1.8992123467574702
0.43111532974317324 1.8774604393258814
0.35582721397394473 1.8774604393258814
0.31065434451240764 1.8992123467574702
0.2353662287431792 1.8557085318942925
0.2052509824354878 1.9862199764838258
0.1224340550893365 1.942716161620648
0.04714593932010803 1.7904528095995258
-0.028142176449120437 1.70344517987317
-0.148603161679886 1.5729337352836368
-0.22389127744911444 1.5294299204204589
-0.27659295848757437 1.4641741981256922
-0.34435226267988 1.5946856427152256
-0.3895251321414171 1.6599413650099923
-0.41964037844910845 1.7687009021679367
-0.4346980016029542 1.8122047170311146
-0.442226813179877 1.746948994736348
-0.442226813179877 1.70344517987317
-0.44975562475679987 1.5729337352836368
-0.4798708710644912 1.5294299204204589
-0.4873996826414141 1.4641741981256922
-0.4873996826414141 1.5511818278520477
-0.5024573057952598 1.50767801298887
-0.49492849421833696 1.70344517987317
-0.5250437405260283 1.6381894575784035
-0.5250437405260283 1.70344517987317
-0.540101363679874 1.70344517987317
-0.5476301752567969 1.70344517987317
-0.5325725521029512 1.6816932724415812
-0.5325725521029512 1.746948994736348
-0.5325725521029512 1.70344517987317
-0.49492849421833696 1.725197087304759
-0.5099861173721826 1.746948994736348
-0.5099861173721826 1.6599413650099923
-0.5175149289491054 1.5729337352836368
-0.5024573057952598 1.485926105557281
-0.5175149289491054 1.4641741981256922
-0.5024573057952598 1.5729337352836368
-0.4873996826414141 1.6381894575784035
-0.46481324791064554 1.746948994736348
-0.46481324791064554 1.8992123467574702
-0.4346980016029542 1.8774604393258814
-0.4271691900260313 1.942716161620648
-0.4271691900260313 1.7904528095995258
-0.4346980016029542 1.70344517987317
-0.44975562475679987 1.6164375501468145
-0.4798708710644912 1.485926105557281
-0.5024573057952598 1.5511818278520477
-0.5099861173721826 1.50767801298887
-0.5175149289491054 1.5946856427152256
-0.49492849421833696 1.6164375501468145
-0.4798708710644912 1.725197087304759
-0.44975562475679987 1.70344517987317
-0.4346980016029542 1.746948994736348
-0.41964037844910845 1.725197087304759
-0.46481324791064554 1.725197087304759
-0.4798708710644912 1.725197087304759
-0.4873996826414141 1.6599413650099923
-0.4798708710644912 1.5729337352836368
-0.5024573057952598 1.50767801298887
-0.5099861173721826 1.50767801298887
-0.5175149289491054 1.5294299204204589
-0.5175149289491054 1.5511818278520477
-0.5250437405260283 1.6164375501468145
-0.5175149289491054 1.70344517987317
-0.5024573057952598 1.746948994736348
-0.49492849421833696 1.746948994736348
-0.4798708710644912 1.70344517987317
-0.5099861173721826 1.70344517987317
-0.5250437405260283 1.70344517987317
-0.5476301752567969 1.6381894575784035
-0.5928030447183339 1.6599413650099923
-0.6078606678721796 1.6599413650099923
-0.6229182910260254 1.6381894575784035
-0.6153894794491025 1.70344517987317
-0.6003318562952568 1.5946856427152256
-0.5626877984106425 1.6164375501468145
-0.5702166099875654 1.5729337352836368
-0.5626877984106425 1.4424222906941033
-0.5928030447183339 1.6164375501468145
-0.6003318562952568 1.5729337352836368
-0.6078606678721796 1.6816932724415812
-0.6078606678721796 1.6816932724415812
-0.6078606678721796 1.6816932724415812
-0.6153894794491025 1.6381894575784035
-0.6605623489106396 1.6381894575784035
-0.6680911604875625 1.6164375501468145
-0.6605623489106396 1.5946856427152256
-0.6530335373337167 1.70344517987317
-0.6680911604875625 1.70344517987317
-0.6003318562952568 1.725197087304759
-0.6003318562952568 1.7687009021679367
-0.6153894794491025 1.746948994736348
-0.6153894794491025 1.5729337352836368
-0.637975914179871 1.5294299204204589
-0.6455047257567939 1.50767801298887
-0.6680911604875625 1.50767801298887
-0.6680911604875625 1.5511818278520477
-0.6756199720644852 1.6164375501468145
-0.6455047257567939 1.6381894575784035
-0.6078606678721796 1.6381894575784035
-0.6003318562952568 1.746948994736348
-0.6003318562952568 1.6816932724415812
-0.6304471026029482 1.725197087304759
-0.637975914179871 1.746948994736348
-0.6229182910260254 1.746948994736348
-0.637975914179871 1.725197087304759
-0.6003318562952568 1.70344517987317
-0.5928030447183339 1.7904528095995258
-0.5852742331414111 1.8122047170311146
-0.5626877984106425 1.8557085318942925
-0.540101363679874 1.942716161620648
-0.5175149289491054 1.942716161620648
-0.49492849421833696 1.964468069052237
-0.4798708710644912 1.8992123467574702
-0.4873996826414141 1.7687009021679367
-0.4873996826414141 1.6816932724415812
-0.5024573057952598 1.6381894575784035
-0.4723420594875684 1.6599413650099923
-0.4873996826414141 1.70344517987317
-0.4271691900260313 1.7687009021679367
-0.4271691900260313 1.8122047170311146
-0.3895251321414171 1.8122047170311146
-0.3594098858337257 1.8774604393258814
-0.3292946395260343 1.8339566244627035
-0.2991793932183429 1.8122047170311146
-0.29165058164142005 1.6816932724415812
-0.3067082047952658 1.6599413650099923
-0.3518810742568029 1.6164375501468145
-0.41211156687218564 1.5946856427152256
-0.44975562475679987 1.6164375501468145
-0.4873996826414141 1.6599413650099923
-0.5175149289491054 1.5729337352836368
-0.5099861173721826 1.5729337352836368
-0.5175149289491054 1.6381894575784035
-0.5250437405260283 1.6164375501468145
-0.5024573057952598 1.725197087304759
-0.5250437405260283 1.725197087304759
-0.540101363679874 1.725197087304759
-0.5928030447183339 1.725197087304759
-0.6605623489106396 1.5946856427152256
-0.7132640299490995 1.5511818278520477
-0.7132640299490995 1.5511818278520477
-0.7584368994106365 1.5946856427152256
-0.7734945225644823 1.6381894575784035
-0.7584368994106365 1.6381894575784035
-0.7132640299490995 1.6164375501468145
-0.6831487836414081 1.6599413650099923
-0.6605623489106396 1.6381894575784035
-0.6304471026029482 1.70344517987317
-0.6455047257567939 1.725197087304759
-0.6304471026029482 1.7687009021679367
-0.6605623489106396 1.725197087304759
-0.6831487836414081 1.725197087304759
-0.7132640299490995 1.6381894575784035
-0.7207928415260223 1.6816932724415812
-0.735850464679868 1.6816932724415812
-0.7207928415260223 1.746948994736348
-0.6982064067952538 1.7687009021679367
-0.6756199720644852 1.70344517987317
-0.6304471026029482 1.6164375501468145
-0.5777454215644883 1.5729337352836368
-0.4873996826414141 1.268407031241392
-0.37446750898757136 0.9856322346307363
-0.20130484271834592 0.7463612528832584
0.0019730698585709505 0.33307501168306924
0.29559672135856196 -0.05845932208553099
0.6569796770508586 -0.3194822112645978
1.0710643137816152 -0.5805051004436647
1.5453794431277545 -0.8415279896227315
2.0723962535123537 -1.0807989713702093
2.6747011796661817 -1.3418218605492762
3.329707786858469 -1.363573767980865
3.93954152458922 -1.1025508788017984
4.406327842358436 -0.7110165450331981
4.6397210012430445 -0.12371504438029769
4.481615958127665 0.5070902711357804
3.8416669740892226 0.9638803271991474
2.8779790922430983 1.1161436792202697
1.914291210396974 1.0943917717886809
0.9506033285508496 0.9203765123359696
-0.013084553295274743 0.8333688826096141
-0.9767724351413991 1.050887956925503
-1.6844807233721468 1.2031513089466253
-1.32309776767985 1.4424222906941033
-0.8111385804490965 1.6599413650099923
-0.4271691900260313 1.8557085318942925
-0.17871840798757738 1.8122047170311146
-0.12601672694911745 1.8339566244627035
-0.2314200890260373 1.8339566244627035
-0.38199632056449423 1.7687009021679367
-0.540101363679874 1.6599413650099923
-0.6229182910260254 1.6381894575784035
-0.6906775952183309 1.5946856427152256
-0.6756199720644852 1.6599413650099923
-0.6680911604875625 1.746948994736348
-0.6078606678721796 1.746948994736348
-0.6003318562952568 1.8774604393258814
-0.6003318562952568 1.9209642541890593
-0.6153894794491025 1.8992123467574702
-0.637975914179871 1.9209642541890593
-0.6229182910260254 1.7687009021679367
-0.6078606678721796 1.746948994736348
-0.6229182910260254 1.8122047170311146
-0.6078606678721796 1.7687009021679367
-0.6003318562952568 1.8122047170311146
-0.5702166099875654 1.8557085318942925
-0.5476301752567969 1.8557085318942925
-0.5250437405260283 1.8339566244627035
-0.5024573057952598 1.9209642541890593
-0.49492849421833696 1.9209642541890593
-0.5024573057952598 1.9862199764838258
-0.5099861173721826 1.8774604393258814
-0.5175149289491054 1.8557085318942925
-0.5175149289491054 1.8557085318942925
-0.5325725521029512 1.8774604393258814
-0.5175149289491054 1.7904528095995258
-0.5024573057952598 1.8122047170311146
-0.4873996826414141 1.8557085318942925
-0.4723420594875684 1.8774604393258814
-0.41964037844910845 1.964468069052237
-0.4045827552952628 2.138483328504948
-0.3594098858337257 2.1167314210733594
-0.33682345110295714 2.0079718839154146
-0.3292946395260343 1.8557085318942925
-0.33682345110295714 1.7904528095995258
-0.32176582794911146 1.6816932724415812
-0.2991793932183429 1.70344517987317
-0.3142370163721886 1.9209642541890593
-0.28412177006449724 1.9862199764838258
-0.2540065237568058 2.138483328504948
-0.24647771217988299 2.138483328504948
-0.19377603114142306 2.160235235936537
-0.15613197325680883 2.0949795136417704
-0.1034302922183489 2.0079718839154146
-0.08084385748758037 1.9862199764838258
-0.05072861117988898 1.8992123467574702
-0.05072861117988898 2.0079718839154146
-0.04319979960296613 1.9209642541890593
-0.035670988026043286 2.0079718839154146
-0.028142176449120437 1.9862199764838258
0.032088316166262336 2.0297237913470036
0.07726118562779942 2.0732276062101813
0.16007811297395072 2.0514756987785927
0.21277979401241065 2.2037390507997148
0.2654814750508706 2.3342504953892482
0.3332407792431762 2.4430100325471926
0.3482984023970219 2.5300176622735484
0.3784136487047133 2.421258125115604
0.4010000834354818 2.399506217684015
0.4461729528970189 2.3124985879576596
0.46875938762778746 2.247242865662893
0.5139322570893246 2.1167314210733594
0.5440475033970159 2.138483328504948
0.5440475033970159 2.0949795136417704
0.5515763149739388 2.138483328504948
0.589220372858553 2.3560024028208373
0.6268644307431672 2.421258125115604
0.6343932423200901 2.4647619399787817
0.6720373002047043 2.5300176622735484
0.6720373002047043 2.4430100325471926
0.641922053897013 2.4647619399787817
0.6343932423200901 2.3124985879576596
0.5967491844354759 2.3124985879576596
0.589220372858553 2.2907466805260706
0.5591051265508616 2.2689947730944815
0.5440475033970159 2.247242865662893
0.5064034455124017 2.160235235936537
0.46875938762778746 2.138483328504948
0.43111532974317324 2.138483328504948
0.35582721397394473 2.1167314210733594
0.2805390982047163 2.181987143368126
0.2052509824354878 2.138483328504948
0.1224340550893365 2.138483328504948
0.06220356247395373 2.0297237913470036
-0.013084553295274743 2.0297237913470036
-0.11095910379527175 2.0514756987785927
-0.17118959641065454 2.0732276062101813
-0.2314200890260373 2.138483328504948
-0.26906414691065156 2.0949795136417704
-0.33682345110295714 1.9862199764838258
-0.3518810742568029 1.9209642541890593
-0.36693869741064855 1.8122047170311146
-0.4271691900260313 1.8339566244627035
-0.4572844363337227 1.70344517987317
-0.5024573057952598 1.6816932724415812
-0.540101363679874 1.6164375501468145
-0.5626877984106425 1.725197087304759
-0.5777454215644883 1.70344517987317
-0.5928030447183339 1.7904528095995258
-0.6003318562952568 1.8122047170311146
-0.5852742331414111 1.7904528095995258
-0.6003318562952568 1.8557085318942925
-0.6003318562952568 1.9209642541890593
-0.5777454215644883 1.8992123467574702
-0.6003318562952568 1.8339566244627035
-0.6003318562952568 1.8557085318942925
-0.6153894794491025 1.8122047170311146
-0.6153894794491025 1.7687009021679367
-0.6153894794491025 1.746948994736348
-0.6304471026029482 1.6816932724415812
-0.6078606678721796 1.725197087304759
-0.6078606678721796 1.746948994736348
-0.5928030447183339 1.8774604393258814
-0.5777454215644883 1.8557085318942925
-0.5702166099875654 1.942716161620648
-0.5626877984106425 1.8557085318942925
-0.5626877984106425 1.8122047170311146
-0.5702166099875654 1.6599413650099923
-0.5777454215644883 1.6816932724415812
-0.5928030447183339 1.6599413650099923
-0.6003318562952568 1.725197087304759
-0.6229182910260254 1.6816932724415812
-0.6530335373337167 1.7687009021679367
-0.6229182910260254 1.8557085318942925
-0.6003318562952568 1.9209642541890593
-0.5551589868337197 1.8992123467574702
-0.540101363679874 1.8339566244627035
-0.5099861173721826 1.8122047170311146
-0.49492849421833696 1.8339566244627035
-0.5099861173721826 1.7687009021679367
-0.5175149289491054 1.7687009021679367
-0.540101363679874 1.746948994736348
-0.5702166099875654 1.6816932724415812
-0.5626877984106425 1.7687009021679367
-0.5777454215644883 1.746948994736348
-0.5626877984106425 1.8122047170311146
-0.5551589868337197 1.8774604393258814
-0.540101363679874 1.8774604393258814
-0.5476301752567969 1.9209642541890593
-0.5325725521029512 1.8122047170311146
-0.5551589868337197 1.725197087304759
-0.5551589868337197 1.70344517987317
-0.5626877984106425 1.6816932724415812
-0.5777454215644883 1.6164375501468145
-0.5626877984106425 1.6599413650099923
-0.5702166099875654 1.5946856427152256
-0.5702166099875654 1.725197087304759
-0.6003318562952568 1.746948994736348
-0.6153894794491025 1.8122047170311146
-0.6455047257567939 1.8339566244627035
-0.6530335373337167 1.8557085318942925
-0.6605623489106396 1.8122047170311146
-0.6756199720644852 1.7904528095995258
-0.6680911604875625 1.6816932724415812
-0.6906775952183309 1.725197087304759
-0.6831487836414081 1.6164375501468145
-0.6982064067952538 1.6599413650099923
-0.6982064067952538 1.6381894575784035
-0.7132640299490995 1.6164375501468145
-0.7283216531029452 1.6381894575784035
-0.6982064067952538 1.7687009021679367
-0.7057352183721767 1.8339566244627035
-0.6982064067952538 1.9209642541890593
-0.6831487836414081 1.8339566244627035
-0.6756199720644852 1.725197087304759
-0.6982064067952538 1.6599413650099923
-0.6982064067952538 1.6164375501468145
-0.7132640299490995 1.5946856427152256
-0.735850464679868 1.6381894575784035
-0.7207928415260223 1.5946856427152256
-0.7283216531029452 1.5946856427152256
-0.7207928415260223 1.6381894575784035
-0.6982064067952538 1.746948994736348
-0.7057352183721767 1.746948994736348
-0.6831487836414081 1.8557085318942925
-0.6680911604875625 1.8122047170311146
-0.6756199720644852 1.746948994736348
-0.6756199720644852 1.70344517987317
-0.6906775952183309 1.5729337352836368
-0.7207928415260223 1.5729337352836368
-0.7207928415260223 1.5946856427152256
-0.7132640299490995 1.5946856427152256
-0.7509080878337138 1.725197087304759
-0.7734945225644823 1.70344517987317
-0.7584368994106365 1.8122047170311146
-0.7509080878337138 1.7904528095995258
-0.7433792762567909 1.8557085318942925
-0.7057352183721767 1.9209642541890593
-0.6680911604875625 1.8992123467574702
-0.6605623489106396 1.942716161620648
-0.6003318562952568 1.942716161620648
-0.5777454215644883 1.8774604393258814
-0.5928030447183339 1.8774604393258814
-0.5928030447183339 1.8774604393258814
-0.6003318562952568 1.8557085318942925
-0.6078606678721796 1.9209642541890593
-0.6078606678721796 1.9862199764838258
-0.6153894794491025 1.964468069052237
-0.5777454215644883 2.0514756987785927
-0.5702166099875654 2.0514756987785927
-0.5551589868337197 2.0079718839154146
-0.5626877984106425 1.8122047170311146
-0.5626877984106425 1.725197087304759
-0.5551589868337197 1.6599413650099923
-0.5325725521029512 1.5946856427152256
-0.4723420594875684 1.6381894575784035
-0.4572844363337227 1.70344517987317
-0.44975562475679987 1.8557085318942925
-0.44975562475679987 1.8557085318942925
-0.4271691900260313 1.8774604393258814
-0.442226813179877 1.8122047170311146
-0.44975562475679987 1.746948994736348
-0.4723420594875684 1.6816932724415812
-0.4873996826414141 1.70344517987317
-0.5476301752567969 1.7904528095995258
-0.5852742331414111 1.70344517987317
-0.5928030447183339 1.70344517987317
-0.5702166099875654 1.70344517987317
-0.5626877984106425 1.5294299204204589
-0.6078606678721796 1.5729337352836368
-0.6003318562952568 1.50767801298887
-0.6304471026029482 1.5511818278520477
-0.6680911604875625 1.5946856427152256
-0.6982064067952538 1.6164375501468145
-0.7433792762567909 1.5946856427152256
-0.7810233341414051 1.5511818278520477
-0.788552145718328 1.5729337352836368
-0.8111385804490965 1.6164375501468145
-0.8186673920260193 1.6164375501468145
-0.8186673920260193 1.6381894575784035
-0.7960809572952509 1.6381894575784035
-0.7960809572952509 1.6599413650099923
-0.7810233341414051 1.70344517987317
-0.7659657109875594 1.746948994736348
-0.7283216531029452 1.746948994736348
-0.7132640299490995 1.7904528095995258
-0.7207928415260223 1.8339566244627035
-0.735850464679868 1.8992123467574702
-0.7659657109875594 1.7687009021679367
-0.7960809572952509 1.6816932724415812
-0.7734945225644823 1.5511818278520477
-0.7207928415260223 1.3336627535361587
-0.6455047257567939 1.1596474940834476
-0.49492849421833696 0.8768726974727918
-0.28412177006449724 0.5070902711357804
0.0019730698585709505 0.18081165966194693
0.4085288950124047 -0.12371504438029769
0.9129592706662354 -0.5152493781488979
1.4776201389354489 -0.8415279896227315
2.1175691229738907 -1.189558508528154
2.734931672281564 -1.5375890274335764
3.3522942215892377 -1.7116042868862875
3.88683984355076 -1.624596657159932
4.270809233973825 -1.407077582844043
4.519260016012279 -0.950287526780676
4.564432885473816 -0.34123411869618675
4.285866857127671 0.22431547452512474
3.6158026267815373 0.6376017157253139
2.652114744935413 0.7898650677464362
1.6884268630892887 0.9856322346307363
0.7247389812431643 0.9856322346307363
-0.23894890060296015 1.0291360494939141
-1.2026367824490845 1.1378955866518587
-1.5941349844490726 1.3554146609677478
-1.2026367824490845 1.5511818278520477
-0.7734945225644823 1.6816932724415812
-0.442226813179877 1.8557085318942925
-0.3142370163721886 1.8557085318942925
-0.3142370163721886 1.8122047170311146
-0.4271691900260313 1.7904528095995258
-0.5626877984106425 1.7687009021679367
-0.6530335373337167 1.725197087304759
-0.7207928415260223 1.725197087304759
-0.735850464679868 1.746948994736348
-0.7283216531029452 1.725197087304759
-0.7132640299490995 1.725197087304759
-0.7132640299490995 1.70344517987317
-0.7057352183721767 1.7904528095995258
-0.6982064067952538 1.8992123467574702
-0.6906775952183309 1.964468069052237
-0.6982064067952538 2.0297237913470036
-0.6756199720644852 2.0297237913470036
-0.6831487836414081 2.0732276062101813
-0.6229182910260254 2.0514756987785927
-0.5928030447183339 1.964468069052237
-0.5852742331414111 1.8557085318942925
-0.5852742331414111 1.7687009021679367
-0.5928030447183339 1.725197087304759
-0.6078606678721796 1.725197087304759
-0.5852742331414111 1.7904528095995258
-0.6003318562952568 1.8122047170311146
-0.6153894794491025 1.8339566244627035
-0.5928030447183339 1.8557085318942925
-0.5777454215644883 1.9862199764838258
-0.5551589868337197 2.0297237913470036
-0.5250437405260283 2.0732276062101813
-0.4873996826414141 2.0514756987785927
-0.49492849421833696 2.0949795136417704
-0.4798708710644912 2.0079718839154146
-0.4798708710644912 1.964468069052237
-0.49492849421833696 1.8992123467574702
-0.4572844363337227 1.8339566244627035
-0.44975562475679987 1.7904528095995258
-0.4346980016029542 1.8122047170311146
-0.38199632056449423 1.8992123467574702
-0.34435226267988 2.0514756987785927
-0.29165058164142005 2.0949795136417704
-0.2615353353337287 2.2037390507997148
-0.23894890060296015 2.225490958231304
-0.2314200890260373 2.2907466805260706
-0.2314200890260373 2.181987143368126
-0.20883365429526876 2.1167314210733594
-0.19377603114142306 2.0297237913470036
-0.15613197325680883 1.9862199764838258
-0.14107435010296313 1.9862199764838258
-0.1034302922183489 1.8339566244627035
-0.058257422756811825 1.964468069052237
-0.028142176449120437 2.0297237913470036
-0.02061336487219759 2.1167314210733594
0.032088316166262336 2.2037390507997148
0.08478999720472226 2.225490958231304
0.1374916782431822 2.2907466805260706
0.16007811297395072 2.181987143368126
0.19772217085856497 2.3124985879576596
0.1901933592816421 2.2689947730944815
0.25795266347394774 2.3124985879576596
0.31065434451240764 2.225490958231304
0.34076959082009906 2.2907466805260706
0.39347127185855896 2.3124985879576596
0.43864414132009605 2.3560024028208373
0.4988746339354788 2.4865138474103707
0.5139322570893246 2.4647619399787817
0.5591051265508616 2.5300176622735484
0.5591051265508616 2.5082657548419593
0.5515763149739388 2.3342504953892482
0.5289898802431702 2.3124985879576596
0.5064034455124017 2.2689947730944815
0.4988746339354788 2.3124985879576596
0.47628819920471027 2.3342504953892482
0.48381701078163314 2.377754310252426
0.4988746339354788 2.4865138474103707
0.5139322570893246 2.573521477136726
0.46875938762778746 2.4647619399787817
0.4988746339354788 2.377754310252426
0.4537017644739417 2.2907466805260706
0.39347127185855896 2.247242865662893
0.3181831560893305 2.160235235936537
0.22030860558933352 2.0732276062101813
0.1374916782431822 1.9862199764838258
0.04714593932010803 1.9209642541890593
-0.013084553295274743 1.8557085318942925
-0.07331504591065752 1.8339566244627035
-0.1184879153721946 1.70344517987317
-0.18624721956450022 1.6816932724415812
-0.24647771217988299 1.6164375501468145
-0.2540065237568058 1.6599413650099923
-0.28412177006449724 1.746948994736348
-0.33682345110295714 1.725197087304759
-0.38199632056449423 1.7687009021679367
-0.41211156687218564 1.70344517987317
-0.4723420594875684 1.70344517987317
-0.4798708710644912 1.6381894575784035
-0.5250437405260283 1.5946856427152256
-0.540101363679874 1.6164375501468145
-0.5325725521029512 1.70344517987317
-0.540101363679874 1.746948994736348
-0.540101363679874 1.7687009021679367
-0.5250437405260283 1.7687009021679367
-0.540101363679874 1.746948994736348
-0.5551589868337197 1.6164375501468145
-0.6078606678721796 1.5294299204204589
-0.6078606678721796 1.725197087304759
-0.6003318562952568 1.6381894575784035
-0.6078606678721796 1.6599413650099923
-0.6153894794491025 1.6164375501468145
-0.6153894794491025 1.6599413650099923
-0.5852742331414111 1.70344517987317
-0.5626877984106425 1.746948994736348
-0.5476301752567969 1.6816932724415812
-0.5325725521029512 1.6599413650099923
-0.5325725521029512 1.6599413650099923
-0.540101363679874 1.6164375501468145
-0.5551589868337197 1.5294299204204589
-0.5852742331414111 1.5946856427152256
-0.5702166099875654 1.5294299204204589
-0.5702166099875654 1.50767801298887
-0.5702166099875654 1.5511818278520477
-0.5626877984106425 1.5511818278520477
-0.5476301752567969 1.5294299204204589
-0.5099861173721826 1.6599413650099923
-0.5024573057952598 1.70344517987317
-0.5325725521029512 1.746948994736348
-0.5175149289491054 1.70344517987317
-0.5175149289491054 1.70344517987317
-0.5024573057952598 1.6599413650099923
-0.5099861173721826 1.5729337352836368
-0.5250437405260283 1.5294299204204589
-0.5476301752567969 1.4424222906941033
-0.540101363679874 1.3771665683993366
-0.5250437405260283 1.485926105557281
-0.5175149289491054 1.5946856427152256
-0.5175149289491054 1.6381894575784035
-0.4798708710644912 1.6599413650099923
-0.4723420594875684 1.6816932724415812
-0.4798708710644912 1.70344517987317
-0.4798708710644912 1.70344517987317
-0.49492849421833696 1.6381894575784035
-0.5175149289491054 1.6599413650099923
-0.540101363679874 1.6599413650099923
-0.5325725521029512 1.6381894575784035
-0.5325725521029512 1.6164375501468145
-0.5551589868337197 1.5946856427152256
-0.540101363679874 1.5729337352836368
-0.5551589868337197 1.5729337352836368
-0.5250437405260283 1.6599413650099923
-0.5175149289491054 1.6381894575784035
-0.5250437405260283 1.5729337352836368
-0.5175149289491054 1.5294299204204589
-0.5626877984106425 1.4641741981256922
-0.5852742331414111 1.485926105557281
-0.5928030447183339 1.4641741981256922
-0.6003318562952568 1.485926105557281
-0.5777454215644883 1.5729337352836368
-0.5777454215644883 1.6164375501468145
-0.5551589868337197 1.6381894575784035
-0.5476301752567969 1.5729337352836368
-0.5476301752567969 1.6164375501468145
-0.5626877984106425 1.5294299204204589
-0.5702166099875654 1.50767801298887
-0.6003318562952568 1.5294299204204589
-0.6078606678721796 1.4424222906941033
-0.6003318562952568 1.50767801298887
-0.6003318562952568 1.4424222906941033
-0.6153894794491025 1.485926105557281
-0.6078606678721796 1.3989184758309254
-0.6153894794491025 1.4424222906941033
-0.6003318562952568 1.5511818278520477
-0.5702166099875654 1.5729337352836368
-0.5702166099875654 1.6164375501468145
-0.5626877984106425 1.5946856427152256
-0.5702166099875654 1.6381894575784035
-0.540101363679874 1.5946856427152256
-0.5702166099875654 1.5729337352836368
-0.5852742331414111 1.485926105557281
-0.5777454215644883 1.4424222906941033
-0.6003318562952568 1.5294299204204589
-0.6153894794491025 1.4641741981256922
-0.6003318562952568 1.50767801298887
-0.6078606678721796 1.50767801298887
-0.5852742331414111 1.5729337352836368
-0.5852742331414111 1.6381894575784035
-0.5626877984106425 1.6599413650099923
-0.5476301752567969 1.70344517987317
-0.5476301752567969 1.725197087304759
-0.540101363679874 1.70344517987317
-0.5325725521029512 1.725197087304759
-0.5175149289491054 1.6816932724415812
-0.5175149289491054 1.746948994736348
-0.49492849421833696 1.7687009021679367
-0.4723420594875684 1.746948994736348
-0.4572844363337227 1.725197087304759
-0.44975562475679987 1.725197087304759
-0.4346980016029542 1.7687009021679367
-0.4271691900260313 1.7904528095995258
-0.41211156687218564 1.7904528095995258
-0.41211156687218564 1.7687009021679367
-0.4271691900260313 1.7687009021679367
-0.4346980016029542 1.6816932724415812
-0.41211156687218564 1.6164375501468145
-0.41964037844910845 1.5946856427152256
-0.3895251321414171 1.5294299204204589
-0.36693869741064855 1.6381894575784035
-0.33682345110295714 1.6381894575784035
-0.28412177006449724 1.725197087304759
-0.27659295848757437 1.725197087304759
-0.28412177006449724 1.746948994736348
-0.26906414691065156 1.6816932724415812
-0.3142370163721886 1.6381894575784035
-0.33682345110295714 1.6599413650099923
-0.3594098858337257 1.5511818278520477
-0.4045827552952628 1.485926105557281
-0.41964037844910845 1.485926105557281
-0.4346980016029542 1.4206703832625145
-0.41964037844910845 1.3554146609677478
-0.4346980016029542 1.3989184758309254
-0.41211156687218564 1.4424222906941033
-0.4271691900260313 1.5294299204204589
-0.44975562475679987 1.5511818278520477
-0.4873996826414141 1.5294299204204589
-0.5175149289491054 1.485926105557281
-0.5702166099875654 1.4206703832625145
-0.6153894794491025 1.3771665683993366
-0.6455047257567939 1.3554146609677478
-0.6756199720644852 1.3771665683993366
-0.6831487836414081 1.4206703832625145
-0.6756199720644852 1.3989184758309254
-0.6680911604875625 1.3989184758309254
-0.6530335373337167 1.4424222906941033
-0.6304471026029482 1.5294299204204589
-0.6078606678721796 1.6381894575784035
-0.5928030447183339 1.6164375501468145
-0.5928030447183339 1.5294299204204589
-0.6153894794491025 1.4641741981256922
-0.6153894794491025 1.4424222906941033
-0.6304471026029482 1.485926105557281
-0.6003318562952568 1.485926105557281
-0.6153894794491025 1.4641741981256922
-0.5928030447183339 1.4424222906941033
-0.5702166099875654 1.3554146609677478
-0.5325725521029512 1.1378955866518587
-0.44975562475679987 0.8551207900412029
-0.2991793932183429 0.42008264140942486
-0.09590148064142606 -0.05845932208553099
0.22030860558933352 -0.4282417484225423
0.641922053897013 -0.8415279896227315
1.1839964874354578 -1.2765661382545095
1.77124379043544 -1.6028447497283431
2.441308020781573 -1.9291233612021765
3.141487497435398 -2.05963480579171
3.8642534088199914 -2.05963480579171
4.451500711819973 -1.7986119166126433
4.850527725396884 -1.363573767980865
5.008632768512264 -0.7980241747595537
4.835470102243039 -0.34123411869618675
4.278338045550748 -0.014955507222353184
3.3522942215892377 0.22431547452512474
2.3886063397431134 0.35482691911465813
1.424918457896989 0.3765788265462471
0.4612305760508646 0.4635864562726027
-0.5024573057952598 0.5940979008621361
-1.3908570718721558 0.8551207900412029
-1.2703960866413901 1.072639864357092
-0.8788978846414022 1.3336627535361587
-0.4798708710644912 1.5511818278520477
-0.19377603114142306 1.5729337352836368
-0.07331504591065752 1.485926105557281
-0.09590148064142606 1.4206703832625145
-0.22389127744911444 1.3554146609677478
-0.3895251321414171 1.4206703832625145
-0.49492849421833696 1.4424222906941033
-0.5626877984106425 1.4206703832625145
-0.5626877984106425 1.4641741981256922
-0.5928030447183339 1.5511818278520477
-0.5476301752567969 1.70344517987317
-0.5024573057952598 1.70344517987317
-0.4723420594875684 1.70344517987317
-0.4723420594875684 1.6816932724415812
-0.4798708710644912 1.6381894575784035
-0.4798708710644912 1.6381894575784035
-0.49492849421833696 1.6164375501468145
-0.4873996826414141 1.6381894575784035
-0.5024573057952598 1.6164375501468145
-0.5024573057952598 1.5946856427152256
-0.4873996826414141 1.5511818278520477
-0.49492849421833696 1.5511818278520477
-0.46481324791064554 1.6381894575784035
-0.442226813179877 1.7904528095995258
-0.41964037844910845 1.8557085318942925
-0.3970539437183399 1.942716161620648
-0.38199632056449423 1.964468069052237
-0.37446750898757136 1.8122047170311146
-0.37446750898757136 1.70344517987317
-0.3895251321414171 1.6381894575784035
-0.37446750898757136 1.6164375501468145
-0.38199632056449423 1.746948994736348
-0.38199632056449423 1.8557085318942925
-0.36693869741064855 1.8339566244627035
-0.34435226267988 1.8339566244627035
-0.33682345110295714 1.8122047170311146
-0.2991793932183429 1.725197087304759
-0.2540065237568058 1.70344517987317
-0.2163624658721916 1.746948994736348
-0.20883365429526876 1.8122047170311146
-0.20130484271834592 1.746948994736348
-0.16366078483373167 1.746948994736348
-0.17118959641065454 1.7687009021679367
-0.148603161679886 1.70344517987317
-0.15613197325680883 1.6816932724415812
-0.1184879153721946 1.746948994736348
-0.11095910379527175 1.8122047170311146
-0.058257422756811825 1.942716161620648
-0.028142176449120437 1.9862199764838258
0.02455950458933949 2.0297237913470036
0.09984762035856795 1.9862199764838258
0.16007811297395072 2.0297237913470036
0.18266454770471927 2.0079718839154146
0.1901933592816421 1.9862199764838258
0.21277979401241065 2.0514756987785927
0.2353662287431792 1.964468069052237
0.30312553293548483 1.9862199764838258
0.28806790978163915 2.0732276062101813
0.3257119676662534 2.160235235936537
0.38594246028163615 2.3124985879576596
0.43864414132009605 2.2907466805260706
0.5214610686662474 2.2907466805260706
0.5741627497047073 2.2907466805260706
0.589220372858553 2.225490958231304
0.6193356191662444 2.181987143368126
0.6343932423200901 2.181987143368126
0.6795661117816272 2.225490958231304
0.6795661117816272 2.138483328504948
0.7021525465123957 2.2037390507997148
0.6946237349354728 2.138483328504948
0.7096813580893185 2.247242865662893
0.7172101696662414 2.3560024028208373
0.7096813580893185 2.3342504953892482
0.6946237349354728 2.2689947730944815
0.6795661117816272 2.3342504953892482
0.68709492335855 2.3342504953892482
0.6494508654739358 2.247242865662893
0.5967491844354759 2.0732276062101813
0.5289898802431702 1.9209642541890593
0.48381701078163314 1.7904528095995258
0.42358651816625037 1.70344517987317
0.3482984023970219 1.6816932724415812
0.2654814750508706 1.8122047170311146
0.1901933592816421 1.7904528095995258
0.1224340550893365 1.8122047170311146
0.04714593932010803 1.746948994736348
0.02455950458933949 1.6164375501468145
-0.058257422756811825 1.6164375501468145
-0.1184879153721946 1.5294299204204589
-0.19377603114142306 1.4424222906941033
-0.2540065237568058 1.3554146609677478
-0.32176582794911146 1.3119108461045699
-0.37446750898757136 1.290158938672981
-0.3895251321414171 1.290158938672981
-0.4346980016029542 1.3554146609677478
-0.41964037844910845 1.3554146609677478
-0.4271691900260313 1.3771665683993366
-0.442226813179877 1.485926105557281
-0.44975562475679987 1.50767801298887
-0.46481324791064554 1.50767801298887
-0.49492849421833696 1.4424222906941033
-0.49492849421833696 1.4424222906941033
-0.5175149289491054 1.3336627535361587
-0.5175149289491054 1.3771665683993366
-0.540101363679874 1.3119108461045699
-0.5626877984106425 1.3336627535361587
-0.5702166099875654 1.3554146609677478
-0.5626877984106425 1.485926105557281
-0.5325725521029512 1.4206703832625145
-0.5175149289491054 1.4206703832625145
-0.5175149289491054 1.50767801298887
-0.5099861173721826 1.3989184758309254
-0.49492849421833696 1.4424222906941033
-0.5099861173721826 1.3119108461045699
-0.5325725521029512 1.2466551238098031
-0.5250437405260283 1.268407031241392
-0.5325725521029512 1.1813994015150364
-0.540101363679874 1.1378955866518587
-0.5175149289491054 1.2249032163782143
-0.5175149289491054 1.3119108461045699
-0.49492849421833696 1.3554146609677478
-0.4873996826414141 1.4206703832625145
-0.46481324791064554 1.50767801298887
-0.4798708710644912 1.4424222906941033
-0.4723420594875684 1.4424222906941033
-0.4572844363337227 1.290158938672981
-0.4723420594875684 1.2466551238098031
-0.4723420594875684 1.2466551238098031
-0.4723420594875684 1.268407031241392
-0.49492849421833696 1.3554146609677478
-0.49492849421833696 1.4641741981256922
-0.5175149289491054 1.485926105557281
-0.49492849421833696 1.5294299204204589
-0.49492849421833696 1.485926105557281
-0.46481324791064554 1.4424222906941033
-0.4271691900260313 1.3554146609677478
-0.4271691900260313 1.290158938672981
-0.442226813179877 1.268407031241392
-0.4572844363337227 1.268407031241392
-0.4798708710644912 1.3989184758309254
-0.5024573057952598 1.3336627535361587
-0.5250437405260283 1.3989184758309254
-0.5250437405260283 1.3771665683993366
-0.5250437405260283 1.290158938672981
-0.49492849421833696 1.290158938672981
-0.5099861173721826 1.290158938672981
-0.5024573057952598 1.290158938672981
-0.540101363679874 1.3554146609677478
-0.5476301752567969 1.3771665683993366
-0.5702166099875654 1.268407031241392
-0.5777454215644883 1.290158938672981
-0.540101363679874 1.2031513089466253
-0.5325725521029512 1.1161436792202697
-0.5702166099875654 1.072639864357092
-0.5702166099875654 1.1378955866518587
-0.5852742331414111 1.1596474940834476
-0.5551589868337197 1.290158938672981
-0.5551589868337197 1.3554146609677478
-0.5325725521029512 1.4206703832625145
-0.5099861173721826 1.3989184758309254
-0.5024573057952598 1.290158938672981
-0.5175149289491054 1.1813994015150364
-0.5476301752567969 1.2031513089466253
-0.5626877984106425 1.0943917717886809
-0.5777454215644883 1.1161436792202697
-0.5928030447183339 1.1378955866518587
-0.6003318562952568 1.0073841420623253
-0.5928030447183339 1.1378955866518587
-0.5777454215644883 1.1161436792202697
-0.5777454215644883 1.2031513089466253
-0.5852742331414111 1.1813994015150364
-0.6003318562952568 1.1813994015150364
-0.5852742331414111 1.1813994015150364
-0.5852742331414111 1.1378955866518587
-0.5852742331414111 1.2031513089466253
-0.5852742331414111 1.1378955866518587
-0.5777454215644883 1.1378955866518587
-0.6003318562952568 1.1813994015150364
-0.5928030447183339 1.1378955866518587
-0.5928030447183339 1.1596474940834476
-0.5777454215644883 1.1161436792202697
-0.5551589868337197 1.1813994015150364
-0.5476301752567969 1.1596474940834476
-0.5476301752567969 1.1596474940834476
-0.5702166099875654 1.1813994015150364
-0.5476301752567969 1.2249032163782143
-0.5702166099875654 1.1378955866518587
-0.5928030447183339 1.1596474940834476
-0.6153894794491025 1.2031513089466253
-0.6304471026029482 1.1813994015150364
-0.6229182910260254 1.2466551238098031
-0.5777454215644883 1.3336627535361587
-0.5099861173721826 1.3771665683993366
-0.4572844363337227 1.4424222906941033
-0.4346980016029542 1.485926105557281
-0.41211156687218564 1.5511818278520477
-0.41211156687218564 1.5729337352836368
-0.41211156687218564 1.485926105557281
-0.442226813179877 1.4206703832625145
-0.442226813179877 1.3554146609677478
-0.4572844363337227 1.2466551238098031
-0.46481324791064554 1.2466551238098031
-0.442226813179877 1.3336627535361587
-0.41211156687218564 1.4424222906941033
-0.38199632056449423 1.485926105557281
-0.3518810742568029 1.50767801298887
-0.3067082047952658 1.4424222906941033
-0.2991793932183429 1.290158938672981
-0.3067082047952658 1.2249032163782143
-0.29165058164142005 1.1378955866518587
-0.2991793932183429 1.072639864357092
-0.3142370163721886 1.1161436792202697
-0.34435226267988 1.1378955866518587
-0.36693869741064855 1.2031513089466253
-0.37446750898757136 1.2249032163782143
-0.38199632056449423 1.290158938672981
-0.38199632056449423 1.2466551238098031
-0.4045827552952628 1.2249032163782143
-0.36693869741064855 1.2031513089466253
-0.3895251321414171 1.1161436792202697
-0.4045827552952628 1.072639864357092
-0.41964037844910845 1.0073841420623253
-0.4572844363337227 0.9421284197675586
-0.5099861173721826 0.8768726974727918
-0.5476301752567969 0.9421284197675586
-0.5928030447183339 0.9203765123359696
-0.6304471026029482 0.9856322346307363
-0.6304471026029482 1.0291360494939141
-0.6455047257567939 1.072639864357092
-0.6455047257567939 1.0943917717886809
-0.6229182910260254 1.0943917717886809
-0.6003318562952568 0.9421284197675586
-0.6078606678721796 0.8986246049043807
-0.5928030447183339 0.9203765123359696
-0.6153894794491025 0.9638803271991474
-0.6153894794491025 0.9856322346307363
-0.637975914179871 0.9856322346307363
-0.6455047257567939 0.9638803271991474
-0.6455047257567939 0.9856322346307363
-0.637975914179871 1.0073841420623253
-0.6003318562952568 1.1161436792202697
-0.5777454215644883 1.1378955866518587
-0.5551589868337197 1.1596474940834476
-0.5777454215644883 1.1596474940834476
-0.5777454215644883 1.1596474940834476
-0.5626877984106425 0.9203765123359696
-0.5325725521029512 0.7463612528832584
-0.4798708710644912 0.4635864562726027
-0.3594098858337257 0.13730784479876915
-0.18624721956450022 -0.10196313694870879
0.03961712774318518 -0.4282417484225423
0.35582721397394473 -0.49349747071730904
0.7397966043970099 -0.6892646376016092
1.1312948063969979 -0.8415279896227315
1.5529082547046773 -1.167806601096565
1.9745217030123567 -1.4940852125703985
2.4111927744738817 -1.8638676389074098
2.9156231501277126 -2.1466424355180656
3.435111148935389 -2.103138620654888
3.879311031973837 -1.8203638240442321
4.172934683473828 -1.3200699531176874
4.187992306627674 -0.732768452464787
3.78143648147384 -0.38473793355936453
2.945738396435404 -0.0802112295171199
1.9820505145892797 -0.014955507222353184
1.0183626327431552 0.09380402993559132
0.054674750897030874 0.22431547452512474
-0.9090131309490935 0.42008264140942486
-1.4661451876413842 0.5723459934305472
-1.2628672750644674 0.7463612528832584
-0.8864266962183249 0.7681131603148473
-0.4798708710644912 0.8116169751780251
-0.20883365429526876 0.7681131603148473
-0.12601672694911745 0.8551207900412029
-0.16366078483373167 0.9203765123359696
-0.24647771217988299 0.9421284197675586
-0.3518810742568029 0.9856322346307363
-0.4346980016029542 1.050887956925503
-0.46481324791064554 1.0943917717886809
-0.4873996826414141 1.050887956925503
-0.46481324791064554 1.0291360494939141
-0.4723420594875684 1.0291360494939141
-0.44975562475679987 0.9638803271991474
-0.4723420594875684 0.8333688826096141
-0.4798708710644912 0.8768726974727918
-0.49492849421833696 0.8986246049043807
-0.49492849421833696 0.9638803271991474
-0.4873996826414141 1.050887956925503
-0.4572844363337227 1.1378955866518587
-0.44975562475679987 1.1813994015150364
-0.4271691900260313 1.2249032163782143
-0.4572844363337227 1.1378955866518587
-0.4271691900260313 1.072639864357092
-0.4271691900260313 0.9638803271991474
-0.4346980016029542 0.8768726974727918
-0.4045827552952628 0.8333688826096141
-0.38199632056449423 0.8986246049043807
-0.3895251321414171 0.9203765123359696
-0.3594098858337257 0.9421284197675586
-0.33682345110295714 1.050887956925503
-0.3518810742568029 1.1813994015150364
-0.29165058164142005 1.2249032163782143
-0.3067082047952658 1.2466551238098031
-0.2615353353337287 1.2249032163782143
-0.28412177006449724 1.1596474940834476
-0.27659295848757437 1.072639864357092
-0.29165058164142005 1.0943917717886809
-0.2615353353337287 1.050887956925503
-0.24647771217988299 1.072639864357092
-0.22389127744911444 1.072639864357092
-0.20883365429526876 1.0291360494939141
-0.17871840798757738 1.072639864357092
-0.15613197325680883 1.1813994015150364
-0.1184879153721946 1.1596474940834476
-0.09590148064142606 1.2031513089466253
-0.07331504591065752 1.2466551238098031
-0.058257422756811825 1.2249032163782143
-0.028142176449120437 1.2031513089466253
0.0019730698585709505 1.1596474940834476
0.02455950458933949 1.1813994015150364
0.06220356247395373 1.2031513089466253
0.06973237405087657 1.2249032163782143
0.09231880878164511 1.1596474940834476
0.1224340550893365 1.1813994015150364
0.14502048982010504 1.2466551238098031
0.18266454770471927 1.3554146609677478
0.22783741716625636 1.485926105557281
0.2805390982047163 1.4641741981256922
0.3181831560893305 1.5294299204204589
0.34076959082009906 1.4424222906941033
0.4010000834354818 1.290158938672981
0.43111532974317324 1.290158938672981
0.48381701078163314 1.268407031241392
0.4988746339354788 1.3119108461045699
0.536518691820093 1.3554146609677478
0.5816915612816301 1.4206703832625145
0.6343932423200901 1.4424222906941033
0.6720373002047043 1.5511818278520477
0.7548542275508556 1.6599413650099923
0.7924982854354699 1.6164375501468145
0.8376711548970069 1.5946856427152256
0.8677864012046983 1.5946856427152256
0.882844024358544 1.5294299204204589
0.8903728359354669 1.5511818278520477
0.882844024358544 1.5946856427152256
0.882844024358544 1.5294299204204589
0.8677864012046983 1.6164375501468145
0.882844024358544 1.5511818278520477
0.9204880822431583 1.6164375501468145
0.935545705397004 1.6381894575784035
0.9731897632816182 1.6816932724415812
0.9656609517046953 1.6164375501468145
0.935545705397004 1.5294299204204589
0.9054304590893125 1.3989184758309254
0.8376711548970069 1.4206703832625145
0.7397966043970099 1.3554146609677478
0.6645084886277814 1.2249032163782143
0.589220372858553 1.268407031241392
0.5064034455124017 1.268407031241392
0.4612305760508646 1.2249032163782143
0.4010000834354818 1.1813994015150364
0.34076959082009906 1.268407031241392
0.31065434451240764 1.268407031241392
0.25795266347394774 1.2031513089466253
0.18266454770471927 1.1161436792202697
0.11490524351241366 0.9856322346307363
0.06220356247395373 0.8768726974727918
0.009501881435493797 0.8333688826096141
-0.02061336487219759 0.8333688826096141
-0.07331504591065752 0.7681131603148473
-0.08837266906450321 0.7898650677464362
-0.08084385748758037 0.9421284197675586
-0.1034302922183489 0.9856322346307363
-0.11095910379527175 1.0291360494939141
-0.14107435010296313 1.050887956925503
-0.16366078483373167 1.0291360494939141
-0.17118959641065454 0.8768726974727918
-0.20130484271834592 0.8551207900412029
-0.2163624658721916 0.8116169751780251
-0.20883365429526876 0.6811055305884917
-0.2163624658721916 0.7246093454516696
-0.22389127744911444 0.7898650677464362
-0.2314200890260373 0.8116169751780251
-0.2314200890260373 0.9203765123359696
-0.20883365429526876 0.8986246049043807
-0.20883365429526876 0.9203765123359696
-0.17118959641065454 0.9856322346307363
-0.15613197325680883 0.8768726974727918
-0.148603161679886 0.8333688826096141
-0.17118959641065454 0.7898650677464362
-0.19377603114142306 0.6811055305884917
-0.20130484271834592 0.6376017157253139
-0.22389127744911444 0.7028574380200806
-0.2163624658721916 0.7028574380200806
-0.20883365429526876 0.8116169751780251
-0.18624721956450022 0.8116169751780251
-0.16366078483373167 0.9421284197675586
-0.148603161679886 1.0073841420623253
-0.1184879153721946 0.9856322346307363
-0.11095910379527175 0.9203765123359696
-0.09590148064142606 0.8986246049043807
-0.1034302922183489 0.9203765123359696
-0.12601672694911745 0.8116169751780251
-0.12601672694911745 0.7463612528832584
-0.13354553852604029 0.6811055305884917
-0.13354553852604029 0.6811055305884917
-0.14107435010296313 0.7463612528832584
-0.14107435010296313 0.7681131603148473
-0.1184879153721946 0.8333688826096141
-0.07331504591065752 0.8986246049043807
-0.05072861117988898 1.0291360494939141
-0.04319979960296613 0.9856322346307363
-0.07331504591065752 1.0073841420623253
-0.08837266906450321 0.9203765123359696
-0.11095910379527175 0.7681131603148473
-0.11095910379527175 0.7463612528832584
-0.12601672694911745 0.7028574380200806
-0.148603161679886 0.6593536231569028
-0.15613197325680883 0.6376017157253139
-0.14107435010296313 0.6376017157253139
-0.148603161679886 0.7898650677464362
-0.15613197325680883 0.8551207900412029
-0.148603161679886 0.9421284197675586
-0.12601672694911745 0.9638803271991474
-0.12601672694911745 0.9856322346307363
-0.14107435010296313 0.9203765123359696
-0.17118959641065454 0.8768726974727918
-0.17118959641065454 0.8333688826096141
-0.19377603114142306 0.7463612528832584
-0.18624721956450022 0.7028574380200806
-0.19377603114142306 0.615849808293725
-0.18624721956450022 0.6376017157253139
-0.17871840798757738 0.7681131603148473
-0.15613197325680883 0.7028574380200806
-0.14107435010296313 0.7028574380200806
-0.16366078483373167 0.7898650677464362
-0.17871840798757738 0.7681131603148473
-0.20130484271834592 0.7246093454516696
-0.2163624658721916 0.6593536231569028
-0.22389127744911444 0.615849808293725
-0.20883365429526876 0.6376017157253139
-0.2314200890260373 0.7028574380200806
-0.22389127744911444 0.7463612528832584
-0.22389127744911444 0.7681131603148473
-0.20883365429526876 0.7681131603148473
-0.20130484271834592 0.7681131603148473
-0.17118959641065454 0.7463612528832584
-0.17871840798757738 0.6811055305884917
-0.17871840798757738 0.7028574380200806
-0.18624721956450022 0.615849808293725
-0.22389127744911444 0.5723459934305472
-0.23894890060296015 0.5288421785673694
-0.23894890060296015 0.5505940859989583
-0.2314200890260373 0.615849808293725
-0.22389127744911444 0.7246093454516696
-0.2163624658721916 0.7681131603148473
-0.2314200890260373 0.7898650677464362
-0.20883365429526876 0.7246093454516696
-0.15613197325680883 0.7246093454516696
-0.17871840798757738 0.6811055305884917
-0.17118959641065454 0.6593536231569028
-0.20130484271834592 0.7246093454516696
-0.19377603114142306 0.6593536231569028
-0.17871840798757738 0.7463612528832584
-0.16366078483373167 0.8116169751780251
-0.13354553852604029 0.8986246049043807
-0.08084385748758037 0.9856322346307363
-0.08084385748758037 1.050887956925503
-0.035670988026043286 1.0943917717886809
-0.035670988026043286 1.0291360494939141
-0.0055557417183518965 0.9421284197675586
0.02455950458933949 0.8333688826096141
0.02455950458933949 0.8333688826096141
0.0019730698585709505 0.8116169751780251
-0.0055557417183518965 0.7681131603148473
-0.035670988026043286 0.8116169751780251
-0.02061336487219759 0.7898650677464362
-0.0055557417183518965 0.7463612528832584
0.032088316166262336 0.6376017157253139
0.06973237405087657 0.6593536231569028
0.09984762035856795 0.6593536231569028
0.09984762035856795 0.615849808293725
0.11490524351241366 0.7463612528832584
0.09231880878164511 0.7898650677464362
0.09231880878164511 0.8551207900412029
0.09231880878164511 0.8551207900412029
0.06973237405087657 0.6811055305884917
0.04714593932010803 0.6593536231569028
0.04714593932010803 0.6376017157253139
-0.013084553295274743 0.5723459934305472
-0.035670988026043286 0.615849808293725
-0.06578623433373466 0.6811055305884917
-0.08837266906450321 0.6593536231569028
-0.12601672694911745 0.7246093454516696
-0.13354553852604029 0.6811055305884917
-0.16366078483373167 0.6811055305884917
-0.18624721956450022 0.5288421785673694
-0.18624721956450022 0.42008264140942486
-0.22389127744911444 0.39833073397783597
-0.24647771217988299 0.39833073397783597
-0.29165058164142005 0.44183454884101375
-0.3142370163721886 0.4853383637041916
-0.29165058164142005 0.5723459934305472
-0.28412177006449724 0.5940979008621361
-0.23894890060296015 0.6376017157253139
-0.2314200890260373 0.615849808293725
-0.2163624658721916 0.6376017157253139
-0.22389127744911444 0.6376017157253139
-0.20883365429526876 0.6376017157253139
-0.23894890060296015 0.6376017157253139
-0.2540065237568058 0.6376017157253139
-0.29165058164142005 0.5723459934305472
-0.2991793932183429 0.5940979008621361
-0.2991793932183429 0.5505940859989583
-0.29165058164142005 0.44183454884101375
-0.22389127744911444 0.39833073397783597
-0.14107435010296313 0.20256356709353585
-0.013084553295274743 0.02854830764082462
0.16007811297395072 -0.2977303038330089
0.38594246028163615 -0.7110165450331981
0.7021525465123957 -1.1243027862333872
1.0936507485123836 -1.5593409348651652
1.5905523125892915 -2.081386713223299
2.1401555577046594 -2.3859134172655434
2.74998929543541 -2.7556958436025547
3.4125247142046207 -2.973214917918444
4.0223584519353714 -2.994966825350033
4.571961697050739 -2.7774477510341438
4.940873464319958 -2.3206576949707767
5.07639207270457 -1.7768600091810542
4.895700594858421 -1.189558508528154
4.270809233973825 -0.7762722673279647
3.3071213521277008 -0.47174556328572015
2.3434334702815764 -0.3194822112645978
1.379745588435452 -0.25422648896983113
0.4160577065893275 -0.1889707666750644
-0.5476301752567969 0.006796400209235718
-1.1122910435260103 0.13730784479876915
-0.735850464679868 0.39833073397783597
-0.22389127744911444 0.5940979008621361
0.2052509824354878 0.5505940859989583
0.4160577065893275 0.5723459934305472
0.43111532974317324 0.5288421785673694
0.3181831560893305 0.5940979008621361
0.1374916782431822 0.5505940859989583
-0.035670988026043286 0.4853383637041916
-0.148603161679886 0.5288421785673694
-0.20130484271834592 0.5505940859989583
-0.22389127744911444 0.5505940859989583
-0.2163624658721916 0.5723459934305472
-0.18624721956450022 0.7246093454516696
-0.16366078483373167 0.7898650677464362
-0.14107435010296313 0.8333688826096141
-0.13354553852604029 0.8551207900412029
-0.1184879153721946 0.8986246049043807
-0.1034302922183489 0.7463612528832584
-0.09590148064142606 0.6811055305884917
-0.08084385748758037 0.6811055305884917
-0.08084385748758037 0.5940979008621361
-0.09590148064142606 0.6376017157253139
-0.09590148064142606 0.6811055305884917
-0.08837266906450321 0.6811055305884917
-0.1184879153721946 0.6593536231569028
-0.12601672694911745 0.7246093454516696
-0.1034302922183489 0.7898650677464362
-0.1184879153721946 0.7898650677464362
-0.08084385748758037 0.8333688826096141
-0.07331504591065752 0.9421284197675586
-0.04319979960296613 0.8986246049043807
-0.035670988026043286 0.9421284197675586
-0.035670988026043286 0.9421284197675586
-0.035670988026043286 0.8986246049043807
-0.02061336487219759 0.8551207900412029
0.0019730698585709505 0.7898650677464362
0.02455950458933949 0.7028574380200806
0.03961712774318518 0.7463612528832584
0.054674750897030874 0.8551207900412029
0.06220356247395373 0.8551207900412029
0.09984762035856795 1.0073841420623253
0.09984762035856795 1.0943917717886809
0.1073764319354908 1.0291360494939141
0.12996286666625934 1.0073841420623253
0.09984762035856795 0.9203765123359696
0.1073764319354908 0.8768726974727918
0.14502048982010504 0.8551207900412029
0.16007811297395072 0.8333688826096141
0.1901933592816421 0.8986246049043807
0.2052509824354878 0.9203765123359696
0.24289504032010203 1.0073841420623253
0.29559672135856196 1.1161436792202697
0.3482984023970219 1.1813994015150364
0.38594246028163615 1.1813994015150364
0.4085288950124047 1.290158938672981
0.43864414132009605 1.2249032163782143
0.4537017644739417 1.1161436792202697
0.48381701078163314 1.2031513089466253
0.491345822358556 1.1596474940834476
0.536518691820093 1.2031513089466253
0.5816915612816301 1.2249032163782143
0.6343932423200901 1.290158938672981
0.6720373002047043 1.3119108461045699
0.7322677928200871 1.3336627535361587
0.7623830391277785 1.3771665683993366
0.8451999664739298 1.3989184758309254
0.8979016475123897 1.3771665683993366
0.9280168938200811 1.3989184758309254
0.9506033285508496 1.3119108461045699
0.9731897632816182 1.2249032163782143
