0.7103099548378335 -0.7567882057593822
0.765464993798 -0.8591761822995315
0.7838500067847222 -0.9103701705696061
0.8206200327581665 -0.9871611529747181
0.8390050457448887 -1.0127581471097555
0.8941600847050551 -0.9871611529747181
0.9309301106784994 -1.06395213537983
0.9309301106784994 -1.0127581471097555
1.0228551756121103 -1.0383551412447927
1.1331652535324432 -0.9615641588396808
1.1699352795058875 -1.0383551412447927
1.2067053054793317 -1.0383551412447927
1.2986303704129425 -1.0895491295148674
1.3170153833996647 -1.1919371060550168
1.3170153833996647 -1.1663401119199794
1.353785409373109 -1.2175341001900541
1.335400396386387 -1.1919371060550168
1.3721704223598312 -1.2431310943250913
1.4273254613199977 -1.1919371060550168
1.464095487293442 -1.1919371060550168
1.5008655132668862 -1.1663401119199794
1.5560205522270527 -1.1151461236499047
1.6111755911872192 -1.0895491295148674
1.6295606041739414 -1.0895491295148674
1.6479456171606635 -1.0895491295148674
1.6295606041739414 -1.140743117784942
1.6295606041739414 -1.1919371060550168
1.6295606041739414 -1.1663401119199794
1.6111755911872192 -1.1919371060550168
1.6295606041739414 -1.0383551412447927
1.574405565213775 -1.0383551412447927
1.5376355392403307 -0.9359671647046435
1.5376355392403307 -0.8847731764345688
1.5008655132668862 -0.9103701705696061
1.464095487293442 -0.7823851998944195
1.4089404483332755 -0.7567882057593822
1.335400396386387 -0.7823851998944195
1.243475331452776 -0.7311912116243449
1.1699352795058875 -0.7311912116243449
1.114780240545721 -0.6544002292192329
0.9860851496386659 -0.6288032350841956
0.9493151236652216 -0.5776092468141208
0.8390050457448887 -0.4496242761389343
0.7470799808112779 -0.39843028786885964
0.6735399288643893 -0.29604231132871034
0.5816148639307785 -0.270445317193673
0.5264598249706121 -0.193654334788561
0.4529197730237234 -0.16805734065352368
0.34260969510339045 -0.14246034651848635
0.30583966912994615 -0.11686335238344903
0.23229961718305753 -0.14246034651848635
0.1587595652361689 -0.0912663582484117
0.06683450030255814 -0.11686335238344903
0.04844948731583598 -0.11686335238344903
-0.006705551644330489 -0.06566936411337437
-0.0434755776177748 0.011121618291737601
-0.09863061657794127 0.011121618291737601
-0.0434755776177748 0.13910658896692424
-0.08024560359121911 0.06231560656181225
-0.11701562956466342 0.08791260069684959
-0.1354006425513856 0.036718612426774926
-0.24571072047171852 0.011121618291737601
-0.2824807464451628 0.011121618291737601
-0.300865759431885 0.011121618291737601
-0.300865759431885 0.011121618291737601
-0.2824807464451628 0.036718612426774926
-0.2824807464451628 0.11350959483188691
-0.24571072047171852 0.06231560656181225
-0.2824807464451628 0.06231560656181225
-0.22732570748499636 0.1903005772369989
-0.2089406944982742 0.16470358310196156
-0.2089406944982742 0.11350959483188691
-0.24571072047171852 0.11350959483188691
-0.22732570748499636 0.036718612426774926
-0.2824807464451628 0.036718612426774926
-0.2640957334584407 -0.014475375843299726
-0.300865759431885 0.011121618291737601
-0.2640957334584407 0.011121618291737601
-0.22732570748499636 0.011121618291737601
-0.24571072047171852 0.08791260069684959
-0.2089406944982742 0.08791260069684959
-0.1721706685248299 0.08791260069684959
-0.19055568151155206 0.08791260069684959
-0.1354006425513856 0.11350959483188691
-0.1354006425513856 0.06231560656181225
-0.1354006425513856 0.011121618291737601
-0.1354006425513856 -0.014475375843299726
-0.1354006425513856 0.011121618291737601
-0.15378565553810775 -0.040072369978337054
-0.15378565553810775 -0.040072369978337054
-0.1354006425513856 0.011121618291737601
-0.09863061657794127 0.08791260069684959
-0.11701562956466342 0.08791260069684959
-0.09863061657794127 0.06231560656181225
-0.06186059060449695 0.011121618291737601
-0.06186059060449695 0.06231560656181225
-0.06186059060449695 0.08791260069684959
-0.1354006425513856 0.011121618291737601
-0.1721706685248299 -0.014475375843299726
-0.1354006425513856 -0.0912663582484117
-0.11701562956466342 -0.11686335238344903
-0.11701562956466342 -0.06566936411337437
-0.11701562956466342 -0.040072369978337054
-0.09863061657794127 -0.014475375843299726
-0.08024560359121911 0.06231560656181225
-0.09863061657794127 0.036718612426774926
-0.06186059060449695 0.011121618291737601
-0.11701562956466342 -0.014475375843299726
-0.08024560359121911 -0.014475375843299726
-0.15378565553810775 -0.06566936411337437
-0.1721706685248299 -0.11686335238344903
-0.2089406944982742 -0.11686335238344903
-0.2640957334584407 -0.11686335238344903
-0.2089406944982742 -0.11686335238344903
-0.2640957334584407 -0.14246034651848635
-0.2089406944982742 -0.014475375843299726
-0.2089406944982742 -0.06566936411337437
-0.1721706685248299 -0.06566936411337437
-0.15378565553810775 -0.06566936411337437
-0.1721706685248299 -0.06566936411337437
-0.19055568151155206 -0.0912663582484117
-0.19055568151155206 -0.0912663582484117
-0.2824807464451628 -0.14246034651848635
-0.300865759431885 -0.193654334788561
-0.3560207983920515 -0.11686335238344903
-0.3192507724186071 -0.14246034651848635
-0.300865759431885 -0.14246034651848635
-0.3560207983920515 -0.11686335238344903
-0.3192507724186071 -0.0912663582484117
-0.3192507724186071 -0.06566936411337437
-0.2640957334584407 -0.0912663582484117
-0.2824807464451628 -0.16805734065352368
-0.300865759431885 -0.11686335238344903
-0.3376357854053293 -0.14246034651848635
-0.3744058113787736 -0.16805734065352368
-0.3927908243654958 -0.21925132892359833
-0.3927908243654958 -0.16805734065352368
-0.4295608503389401 -0.193654334788561
-0.4295608503389401 -0.21925132892359833
-0.3927908243654958 -0.0912663582484117
-0.3744058113787736 -0.11686335238344903
-0.3927908243654958 -0.0912663582484117
-0.3560207983920515 -0.0912663582484117
-0.3560207983920515 -0.06566936411337437
-0.3560207983920515 -0.16805734065352368
-0.3560207983920515 -0.14246034651848635
-0.3560207983920515 -0.193654334788561
-0.3927908243654958 -0.21925132892359833
-0.4111758373522179 -0.270445317193673
-0.4479458633256622 -0.24484832305863566
-0.4295608503389401 -0.193654334788561
-0.4111758373522179 -0.193654334788561
-0.4111758373522179 -0.11686335238344903
-0.3744058113787736 -0.06566936411337437
-0.3744058113787736 -0.11686335238344903
-0.3560207983920515 -0.0912663582484117
-0.3560207983920515 -0.14246034651848635
-0.3927908243654958 -0.193654334788561
-0.4111758373522179 -0.21925132892359833
-0.4663308763123844 -0.21925132892359833
-0.4663308763123844 -0.270445317193673
-0.4295608503389401 -0.21925132892359833
-0.4111758373522179 -0.24484832305863566
-0.4111758373522179 -0.21925132892359833
-0.4295608503389401 -0.14246034651848635
-0.3927908243654958 -0.16805734065352368
-0.3744058113787736 -0.21925132892359833
-0.3560207983920515 -0.193654334788561
-0.3744058113787736 -0.16805734065352368
-0.3560207983920515 -0.193654334788561
-0.4111758373522179 -0.24484832305863566
-0.4295608503389401 -0.270445317193673
-0.4479458633256622 -0.270445317193673
-0.4295608503389401 -0.24484832305863566
-0.4663308763123844 -0.21925132892359833
-0.4479458633256622 -0.193654334788561
-0.4111758373522179 -0.21925132892359833
-0.3744058113787736 -0.16805734065352368
-0.3744058113787736 -0.16805734065352368
-0.3560207983920515 -0.16805734065352368
-0.3560207983920515 -0.16805734065352368
-0.3560207983920515 -0.21925132892359833
-0.3927908243654958 -0.193654334788561
-0.4295608503389401 -0.193654334788561
-0.4479458633256622 -0.11686335238344903
-0.3927908243654958 -0.040072369978337054
-0.3744058113787736 0.011121618291737601
-0.3376357854053293 0.08791260069684959
-0.3192507724186071 0.16470358310196156
-0.24571072047171852 0.3182855479121855
-0.2089406944982742 0.2926885537771482
-0.15378565553810775 0.24149456550707354
-0.1354006425513856 0.16470358310196156
-0.1354006425513856 0.06231560656181225
-0.15378565553810775 -0.014475375843299726
-0.15378565553810775 -0.06566936411337437
-0.1721706685248299 -0.16805734065352368
-0.15378565553810775 -0.193654334788561
-0.11701562956466342 -0.16805734065352368
-0.0434755776177748 -0.193654334788561
0.04844948731583598 -0.11686335238344903
0.1587595652361689 -0.14246034651848635
0.23229961718305753 -0.21925132892359833
0.2506846301697797 -0.21925132892359833
0.287454656143224 -0.24484832305863566
0.287454656143224 -0.29604231132871034
0.23229961718305753 -0.29604231132871034
0.21391460419633537 -0.3728332937338223
0.17714457822289106 -0.3728332937338223
0.10360452627600245 -0.42402728200389694
0.06683450030255814 -0.3728332937338223
0.030064474329113824 -0.3728332937338223
0.011679461342391667 -0.270445317193673
-0.006705551644330489 -0.21925132892359833
-0.006705551644330489 -0.16805734065352368
-0.06186059060449695 -0.21925132892359833
-0.11701562956466342 -0.29604231132871034
-0.19055568151155206 -0.3728332937338223
-0.2640957334584407 -0.4496242761389343
-0.3560207983920515 -0.4496242761389343
-0.4479458633256622 -0.4496242761389343
-0.4663308763123844 -0.42402728200389694
-0.48471588929910653 -0.347236299598785
-0.48471588929910653 -0.347236299598785
-0.4479458633256622 -0.32163930546374764
-0.48471588929910653 -0.32163930546374764
-0.4663308763123844 -0.347236299598785
-0.48471588929910653 -0.3728332937338223
-0.5214859152725508 -0.3728332937338223
-0.5214859152725508 -0.4496242761389343
-0.5766409542327173 -0.4752212702739716
-0.5766409542327173 -0.4496242761389343
-0.6134109802061616 -0.42402728200389694
-0.6317959931928838 -0.42402728200389694
-0.6134109802061616 -0.3728332937338223
-0.5766409542327173 -0.347236299598785
-0.539870928259273 -0.32163930546374764
-0.5214859152725508 -0.270445317193673
-0.5214859152725508 -0.21925132892359833
-0.5214859152725508 -0.29604231132871034
-0.539870928259273 -0.270445317193673
-0.5031009022858287 -0.29604231132871034
-0.5214859152725508 -0.270445317193673
-0.5031009022858287 -0.32163930546374764
-0.5214859152725508 -0.32163930546374764
-0.5214859152725508 -0.21925132892359833
-0.539870928259273 -0.0912663582484117
-0.539870928259273 0.08791260069684959
-0.5582559412459952 0.3182855479121855
-0.6317959931928838 0.4974645068574468
-0.7972611100733832 0.5230615009924842
-1.0362662789007713 0.4206735244523348
-1.3120414737016035 0.2926885537771482
-1.4591215775953807 0.06231560656181225
-1.3120414737016035 -0.270445317193673
-0.7421060711132167 -0.6288032350841956
0.19552959120961322 -0.8591761822995315
1.5008655132668862 -1.0383551412447927
2.9532815392179366 -1.1663401119199794
4.442467591142432 -1.0895491295148674
5.600723409305927 -0.9615641588396808
6.0603487339739806 -0.8847731764345688
5.692648474239538 -0.7823851998944195
4.387312552182265 -0.7311912116243449
2.548811253510049 -0.42402728200389694
0.8022350197714444 0.011121618291737601
-0.539870928259273 0.8046284364778947
-1.146576356821104 1.7517172194742758
-1.4039665386352143 2.5452240376604327
-1.4223515516219365 3.2107458851714035
-1.4223515516219365 3.72268576787215
-1.5694316555157137 4.055446691627635
-1.9003618892767125 4.234625650572896
-2.2496771360244336 4.362610621248083
-2.7093024606924874 4.490595591923269
-3.0770027204269303 4.464998597788233
-3.2976228762675963 4.337013627113046
-3.389547941201207 3.978655709222523
-3.2976228762675963 3.645894785467038
-3.1873127983472633 3.2875368675765153
-2.911537603546431 2.8267909731458434
-2.5622223567987104 2.3660450787151714
-2.212907110050989 1.8285082018793877
-1.845206850316546 1.3933593015837533
-1.495891603568825 0.8558224247479693
-1.1833463827945485 0.6254494775326335
-0.9627262269538825 0.3182855479121855
-0.8156461230601053 0.16470358310196156
-0.6869510321530502 0.11350959483188691
-0.6317959931928838 -0.014475375843299726
-0.6317959931928838 -0.040072369978337054
-0.5766409542327173 -0.14246034651848635
-0.5950259672194395 -0.14246034651848635
-0.6134109802061616 -0.21925132892359833
-0.539870928259273 -0.270445317193673
-0.5031009022858287 -0.32163930546374764
-0.4479458633256622 -0.270445317193673
-0.3927908243654958 -0.21925132892359833
-0.3560207983920515 -0.270445317193673
-0.3192507724186071 -0.32163930546374764
-0.300865759431885 -0.347236299598785
-0.300865759431885 -0.39843028786885964
-0.3192507724186071 -0.4752212702739716
-0.3192507724186071 -0.4752212702739716
-0.3376357854053293 -0.4752212702739716
-0.3560207983920515 -0.5264152585440462
-0.3376357854053293 -0.4752212702739716
-0.3192507724186071 -0.42402728200389694
-0.2640957334584407 -0.3728332937338223
-0.2640957334584407 -0.3728332937338223
-0.19055568151155206 -0.42402728200389694
-0.2089406944982742 -0.39843028786885964
-0.19055568151155206 -0.4752212702739716
-0.1721706685248299 -0.5264152585440462
-0.1721706685248299 -0.5776092468141208
-0.2089406944982742 -0.6032062409491582
-0.19055568151155206 -0.5520122526790836
-0.1721706685248299 -0.6032062409491582
-0.15378565553810775 -0.5008182644090089
-0.15378565553810775 -0.42402728200389694
-0.09863061657794127 -0.4752212702739716
-0.08024560359121911 -0.42402728200389694
-0.08024560359121911 -0.4496242761389343
-0.0434755776177748 -0.4496242761389343
-0.025090564631052643 -0.5008182644090089
-0.06186059060449695 -0.5264152585440462
-0.0434755776177748 -0.5776092468141208
-0.025090564631052643 -0.5520122526790836
-0.0434755776177748 -0.6544002292192329
-0.0434755776177748 -0.6032062409491582
0.011679461342391667 -0.6032062409491582
0.04844948731583598 -0.5520122526790836
0.06683450030255814 -0.6032062409491582
0.10360452627600245 -0.5264152585440462
0.19552959120961322 -0.5776092468141208
0.17714457822289106 -0.6032062409491582
0.19552959120961322 -0.6288032350841956
0.21391460419633537 -0.6799972233542702
0.23229961718305753 -0.6799972233542702
0.21391460419633537 -0.7055942174893075
0.287454656143224 -0.7311912116243449
0.287454656143224 -0.7567882057593822
0.287454656143224 -0.7311912116243449
0.32422468211666833 -0.7311912116243449
0.37937972107683476 -0.7567882057593822
0.4161497470502791 -0.7055942174893075
0.4529197730237234 -0.7055942174893075
0.5080748119838898 -0.7823851998944195
0.5999998769175007 -0.7823851998944195
0.5632298509440563 -0.7567882057593822
0.5999998769175007 -0.8335791881644942
0.6183848899042228 -0.8847731764345688
0.6367699028909449 -0.8847731764345688
0.6919249418511114 -0.8847731764345688
0.7470799808112779 -0.9103701705696061
0.8206200327581665 -0.9103701705696061
0.9125450976917773 -0.9103701705696061
0.9493151236652216 -0.7823851998944195
1.004470162625388 -0.9615641588396808
1.0596252015855545 -0.9103701705696061
1.1331652535324432 -0.9615641588396808
1.1699352795058875 -1.0127581471097555
1.1883202924926097 -1.06395213537983
1.2067053054793317 -1.1919371060550168
1.2802453574262205 -1.2431310943250913
1.3721704223598312 -1.2431310943250913
1.4089404483332755 -1.2175341001900541
1.5008655132668862 -1.1919371060550168
1.5560205522270527 -1.1663401119199794
1.6111755911872192 -1.1663401119199794
1.6663306301473857 -1.1663401119199794
1.684715643134108 -1.2175341001900541
1.70310065612083 -1.3199220767302033
1.70310065612083 -1.2687280884601286
1.7214856691075522 -1.3455190708652407
1.7582556950809964 -1.3199220767302033
1.7950257210544407 -1.3199220767302033
1.8501807600146072 -1.3967130591353154
1.8685657730013294 -1.371116065000278
1.8685657730013294 -1.3455190708652407
1.923720811961496 -1.2687280884601286
1.942105824948218 -1.2687280884601286
1.9788758509216624 -1.2687280884601286
1.9972608639083844 -1.3199220767302033
2.0340308898818287 -1.3199220767302033
2.052415902868551 -1.3199220767302033
2.0340308898818287 -1.3199220767302033
1.9972608639083844 -1.3455190708652407
1.942105824948218 -1.3199220767302033
1.9604908379349402 -1.3455190708652407
1.942105824948218 -1.2175341001900541
1.923720811961496 -1.1663401119199794
1.923720811961496 -1.1151461236499047
1.8685657730013294 -0.9871611529747181
1.8317957470278852 -0.9359671647046435
1.8317957470278852 -0.9615641588396808
1.7950257210544407 -0.9103701705696061
1.70310065612083 -0.9359671647046435
1.6479456171606635 -0.9359671647046435
1.5560205522270527 -0.9103701705696061
1.4457104743067197 -0.8591761822995315
1.3721704223598312 -0.8335791881644942
1.3170153833996647 -0.7823851998944195
1.1883202924926097 -0.7567882057593822
1.1515502665191653 -0.6799972233542702
1.0963952275589988 -0.6032062409491582
1.0780102145722767 -0.5264152585440462
1.0228551756121103 -0.5776092468141208
0.9125450976917773 -0.5008182644090089
0.8022350197714444 -0.5008182644090089
0.7103099548378335 -0.4752212702739716
0.6367699028909449 -0.5264152585440462
0.5264598249706121 -0.4752212702739716
0.5080748119838898 -0.4752212702739716
0.47130478601044556 -0.3728332937338223
0.4161497470502791 -0.32163930546374764
0.37937972107683476 -0.32163930546374764
0.32422468211666833 -0.24484832305863566
0.23229961718305753 -0.21925132892359833
0.21391460419633537 -0.193654334788561
0.14037455224944675 -0.24484832305863566
0.10360452627600245 -0.24484832305863566
0.030064474329113824 -0.270445317193673
0.030064474329113824 -0.270445317193673
-0.006705551644330489 -0.29604231132871034
-0.06186059060449695 -0.193654334788561
-0.0434755776177748 -0.16805734065352368
-0.09863061657794127 -0.14246034651848635
-0.06186059060449695 -0.0912663582484117
-0.11701562956466342 -0.014475375843299726
-0.08024560359121911 0.011121618291737601
-0.11701562956466342 0.011121618291737601
-0.15378565553810775 -0.040072369978337054
-0.1354006425513856 -0.11686335238344903
-0.19055568151155206 -0.0912663582484117
-0.19055568151155206 -0.0912663582484117
-0.24571072047171852 -0.11686335238344903
-0.2640957334584407 -0.040072369978337054
-0.300865759431885 -0.06566936411337437
-0.2640957334584407 -0.014475375843299726
-0.22732570748499636 -0.014475375843299726
-0.2089406944982742 0.036718612426774926
-0.1721706685248299 0.11350959483188691
-0.1721706685248299 0.06231560656181225
-0.15378565553810775 0.06231560656181225
-0.15378565553810775 -0.014475375843299726
-0.15378565553810775 -0.06566936411337437
-0.15378565553810775 -0.06566936411337437
-0.1721706685248299 -0.040072369978337054
-0.15378565553810775 -0.040072369978337054
-0.19055568151155206 -0.040072369978337054
-0.15378565553810775 -0.014475375843299726
-0.1721706685248299 -0.014475375843299726
-0.1354006425513856 0.036718612426774926
-0.09863061657794127 0.011121618291737601
-0.09863061657794127 -0.014475375843299726
-0.09863061657794127 0.011121618291737601
-0.1354006425513856 -0.06566936411337437
-0.1354006425513856 -0.0912663582484117
-0.1721706685248299 -0.11686335238344903
-0.1721706685248299 -0.14246034651848635
-0.15378565553810775 -0.0912663582484117
-0.15378565553810775 -0.11686335238344903
-0.1354006425513856 -0.06566936411337437
-0.11701562956466342 -0.06566936411337437
-0.15378565553810775 -0.0912663582484117
-0.1354006425513856 -0.040072369978337054
-0.11701562956466342 -0.14246034651848635
-0.11701562956466342 -0.14246034651848635
-0.1721706685248299 -0.14246034651848635
-0.19055568151155206 -0.16805734065352368
-0.2089406944982742 -0.16805734065352368
-0.22732570748499636 -0.193654334788561
-0.22732570748499636 -0.193654334788561
-0.24571072047171852 -0.16805734065352368
-0.2640957334584407 -0.11686335238344903
-0.300865759431885 -0.0912663582484117
-0.2089406944982742 -0.14246034651848635
-0.19055568151155206 -0.193654334788561
-0.1721706685248299 -0.16805734065352368
-0.2089406944982742 -0.16805734065352368
-0.19055568151155206 -0.21925132892359833
-0.2089406944982742 -0.21925132892359833
-0.2640957334584407 -0.270445317193673
-0.300865759431885 -0.270445317193673
-0.2640957334584407 -0.270445317193673
-0.3560207983920515 -0.193654334788561
-0.2824807464451628 -0.16805734065352368
-0.2824807464451628 -0.193654334788561
-0.24571072047171852 -0.14246034651848635
-0.300865759431885 -0.06566936411337437
-0.2824807464451628 -0.11686335238344903
-0.3376357854053293 -0.16805734065352368
-0.3560207983920515 -0.21925132892359833
-0.4295608503389401 -0.21925132892359833
-0.4111758373522179 -0.270445317193673
-0.3560207983920515 -0.24484832305863566
-0.3560207983920515 -0.270445317193673
-0.3192507724186071 -0.29604231132871034
-0.3192507724186071 -0.21925132892359833
-0.3376357854053293 -0.21925132892359833
-0.3376357854053293 -0.21925132892359833
-0.3560207983920515 -0.16805734065352368
-0.300865759431885 -0.193654334788561
-0.3376357854053293 -0.21925132892359833
-0.3560207983920515 -0.24484832305863566
-0.3560207983920515 -0.270445317193673
-0.3927908243654958 -0.32163930546374764
-0.4111758373522179 -0.24484832305863566
-0.3927908243654958 -0.29604231132871034
-0.3927908243654958 -0.270445317193673
-0.4111758373522179 -0.24484832305863566
-0.3560207983920515 -0.193654334788561
-0.4111758373522179 -0.16805734065352368
-0.4111758373522179 -0.21925132892359833
-0.4111758373522179 -0.24484832305863566
-0.3927908243654958 -0.21925132892359833
-0.3927908243654958 -0.29604231132871034
-0.3744058113787736 -0.21925132892359833
-0.3744058113787736 -0.3728332937338223
-0.4295608503389401 -0.347236299598785
-0.4479458633256622 -0.270445317193673
-0.4295608503389401 -0.193654334788561
-0.4295608503389401 -0.193654334788561
-0.4111758373522179 -0.16805734065352368
-0.3927908243654958 -0.14246034651848635
-0.3560207983920515 -0.16805734065352368
-0.3560207983920515 -0.16805734065352368
-0.3192507724186071 -0.11686335238344903
-0.3560207983920515 -0.21925132892359833
-0.3376357854053293 -0.21925132892359833
-0.3927908243654958 -0.21925132892359833
-0.4479458633256622 -0.21925132892359833
-0.48471588929910653 -0.270445317193673
-0.48471588929910653 -0.270445317193673
-0.4479458633256622 -0.193654334788561
-0.3927908243654958 -0.21925132892359833
-0.4479458633256622 -0.21925132892359833
-0.3744058113787736 -0.16805734065352368
-0.3376357854053293 -0.193654334788561
-0.3376357854053293 -0.193654334788561
-0.3560207983920515 -0.16805734065352368
-0.4111758373522179 -0.193654334788561
-0.4111758373522179 -0.270445317193673
-0.4663308763123844 -0.270445317193673
-0.4663308763123844 -0.193654334788561
-0.3744058113787736 -0.16805734065352368
-0.3192507724186071 -0.014475375843299726
-0.24571072047171852 0.06231560656181225
-0.24571072047171852 0.08791260069684959
-0.19055568151155206 0.13910658896692424
-0.2089406944982742 0.24149456550707354
-0.2089406944982742 0.21589757137203622
-0.22732570748499636 0.16470358310196156
-0.2089406944982742 0.13910658896692424
-0.1721706685248299 -0.014475375843299726
-0.1354006425513856 -0.040072369978337054
-0.08024560359121911 -0.06566936411337437
-0.08024560359121911 -0.06566936411337437
-0.025090564631052643 -0.014475375843299726
0.030064474329113824 0.011121618291737601
0.06683450030255814 -0.014475375843299726
0.1219895392627246 -0.040072369978337054
0.21391460419633537 -0.11686335238344903
0.30583966912994615 -0.14246034651848635
0.37937972107683476 -0.24484832305863566
0.39776473406355695 -0.21925132892359833
0.39776473406355695 -0.270445317193673
0.36099470809011264 -0.270445317193673
0.2506846301697797 -0.347236299598785
0.2506846301697797 -0.347236299598785
0.2506846301697797 -0.3728332937338223
0.2506846301697797 -0.24484832305863566
0.1587595652361689 -0.16805734065352368
0.1587595652361689 -0.16805734065352368
0.1219895392627246 -0.11686335238344903
0.06683450030255814 -0.14246034651848635
-0.025090564631052643 -0.21925132892359833
-0.1354006425513856 -0.24484832305863566
-0.2089406944982742 -0.32163930546374764
-0.3560207983920515 -0.347236299598785
-0.4295608503389401 -0.39843028786885964
-0.5031009022858287 -0.39843028786885964
-0.539870928259273 -0.347236299598785
-0.4663308763123844 -0.270445317193673
-0.4663308763123844 -0.24484832305863566
-0.4111758373522179 -0.24484832305863566
-0.4111758373522179 -0.29604231132871034
-0.4295608503389401 -0.29604231132871034
-0.48471588929910653 -0.270445317193673
-0.539870928259273 -0.32163930546374764
-0.6317959931928838 -0.3728332937338223
-0.6685660191663281 -0.39843028786885964
-0.650181006179606 -0.42402728200389694
-0.6317959931928838 -0.29604231132871034
-0.5582559412459952 -0.32163930546374764
-0.5582559412459952 -0.193654334788561
-0.5031009022858287 -0.21925132892359833
-0.48471588929910653 -0.270445317193673
-0.4295608503389401 -0.14246034651848635
-0.4663308763123844 -0.16805734065352368
-0.539870928259273 -0.16805734065352368
-0.539870928259273 -0.21925132892359833
-0.539870928259273 -0.24484832305863566
-0.6134109802061616 -0.24484832305863566
-0.5950259672194395 -0.29604231132871034
-0.5766409542327173 -0.14246034651848635
-0.5214859152725508 -0.040072369978337054
-0.539870928259273 0.06231560656181225
-0.539870928259273 0.26709155964211084
-0.5950259672194395 0.3950765303172975
-0.7788760970866611 0.3950765303172975
-0.9627262269538825 0.44627051858737216
-1.2201164087679928 0.26709155964211084
-1.4407365646086587 -0.040072369978337054
-1.4407365646086587 -0.24484832305863566
-0.9994962529273269 -0.7055942174893075
-0.15378565553810775 -0.9871611529747181
1.0963952275589988 -1.1663401119199794
2.5120412275366046 -1.2175341001900541
3.9828422664743774 -1.140743117784942
5.28817818853165 -0.8847731764345688
6.078733746960703 -0.6799972233542702
6.0603487339739806 -0.42402728200389694
5.19625312359804 -0.347236299598785
3.57837198076649 -0.347236299598785
1.5008655132668862 -0.21925132892359833
-0.22732570748499636 0.1903005772369989
-1.2936564607148815 0.7278374540727828
-1.716511759409491 1.4957472781239025
-1.7348967723962132 2.3148510904450967
-1.5694316555157137 3.0059699320911046
-1.495891603568825 3.4667158265217766
-1.5142766165555472 3.7482827620071872
-1.6981267464227687 3.978655709222523
-2.0658270061572117 4.1578346681677845
-2.4886823048518214 4.260222644707934
-2.8379975515995426 4.311416632978008
-3.0770027204269303 4.362610621248083
-3.2056978113339856 4.260222644707934
-3.24246783730743 4.0298496974925975
-3.168927785360541 3.6714917796020754
-3.003462668480042 3.364327849981627
-2.7644574996526536 3.1595518969013288
-2.433527265891655 2.724402996605694
-2.1393670581041007 2.3660450787151714
-1.7716667983696575 1.7773142136093132
-1.477506590582103 1.2397773367735292
-1.2201164087679928 0.7790314423428574
-0.9627262269538825 0.4206735244523348
-0.8340311360468275 0.16470358310196156
-0.7237210581264946 0.11350959483188691
-0.7053360451397724 0.011121618291737601
-0.6869510321530502 -0.014475375843299726
-0.6869510321530502 -0.014475375843299726
-0.650181006179606 0.011121618291737601
-0.6134109802061616 -0.014475375843299726
-0.5214859152725508 -0.06566936411337437
-0.4663308763123844 -0.11686335238344903
-0.4295608503389401 -0.193654334788561
-0.3927908243654958 -0.193654334788561
-0.3927908243654958 -0.24484832305863566
-0.4295608503389401 -0.32163930546374764
-0.3927908243654958 -0.270445317193673
-0.3376357854053293 -0.3728332937338223
-0.3560207983920515 -0.3728332937338223
-0.3192507724186071 -0.32163930546374764
-0.300865759431885 -0.3728332937338223
-0.3376357854053293 -0.21925132892359833
-0.3560207983920515 -0.270445317193673
-0.300865759431885 -0.21925132892359833
-0.3192507724186071 -0.32163930546374764
-0.300865759431885 -0.39843028786885964
-0.2824807464451628 -0.3728332937338223
-0.2640957334584407 -0.39843028786885964
-0.2640957334584407 -0.4496242761389343
-0.2824807464451628 -0.5008182644090089
-0.300865759431885 -0.5008182644090089
-0.2640957334584407 -0.4752212702739716
-0.2089406944982742 -0.39843028786885964
-0.1721706685248299 -0.39843028786885964
-0.1721706685248299 -0.347236299598785
-0.09863061657794127 -0.32163930546374764
-0.09863061657794127 -0.39843028786885964
-0.09863061657794127 -0.42402728200389694
-0.08024560359121911 -0.4752212702739716
-0.09863061657794127 -0.5008182644090089
-0.09863061657794127 -0.5264152585440462
-0.11701562956466342 -0.5008182644090089
-0.1354006425513856 -0.4752212702739716
-0.15378565553810775 -0.5264152585440462
-0.09863061657794127 -0.4752212702739716
-0.06186059060449695 -0.42402728200389694
-0.0434755776177748 -0.4752212702739716
0.011679461342391667 -0.4496242761389343
0.08521951328928029 -0.4752212702739716
0.10360452627600245 -0.42402728200389694
0.17714457822289106 -0.5008182644090089
0.1587595652361689 -0.5008182644090089
0.14037455224944675 -0.5776092468141208
0.1219895392627246 -0.6544002292192329
0.1219895392627246 -0.6032062409491582
0.1219895392627246 -0.6288032350841956
0.1587595652361689 -0.6032062409491582
0.19552959120961322 -0.5776092468141208
0.23229961718305753 -0.6032062409491582
0.30583966912994615 -0.5776092468141208
0.36099470809011264 -0.5776092468141208
0.32422468211666833 -0.5776092468141208
0.36099470809011264 -0.6799972233542702
0.4161497470502791 -0.7055942174893075
0.47130478601044556 -0.8591761822995315
0.4529197730237234 -0.8079821940294568
0.5264598249706121 -0.7823851998944195
0.5448448379573342 -0.8079821940294568
0.5816148639307785 -0.7567882057593822
0.6551549158776672 -0.7567882057593822
0.7470799808112779 -0.7055942174893075
0.765464993798 -0.7567882057593822
0.8022350197714444 -0.8847731764345688
0.8573900587316108 -0.8847731764345688
0.9309301106784994 -0.9103701705696061
0.9493151236652216 -1.0127581471097555
0.9309301106784994 -1.06395213537983
0.9493151236652216 -1.0127581471097555
0.9677001366519438 -1.0127581471097555
1.0596252015855545 -1.06395213537983
1.0963952275589988 -1.0895491295148674
1.1883202924926097 -1.0383551412447927
1.3170153833996647 -0.9871611529747181
1.353785409373109 -1.06395213537983
1.4089404483332755 -1.0895491295148674
1.4824805002801642 -1.0895491295148674
1.464095487293442 -1.2687280884601286
1.5008655132668862 -1.2431310943250913
1.5008655132668862 -1.3199220767302033
1.5008655132668862 -1.2687280884601286
1.5192505262536085 -1.2687280884601286
1.5560205522270527 -1.294325082595166
1.6111755911872192 -1.294325082595166
1.684715643134108 -1.2431310943250913
1.7214856691075522 -1.2431310943250913
1.7398706820942742 -1.1663401119199794
1.7582556950809964 -1.1919371060550168
1.7582556950809964 -1.2175341001900541
1.7766407080677187 -1.2431310943250913
1.7582556950809964 -1.2687280884601286
1.7398706820942742 -1.294325082595166
1.7214856691075522 -1.294325082595166
1.684715643134108 -1.2431310943250913
1.684715643134108 -1.2175341001900541
1.684715643134108 -1.1663401119199794
1.6479456171606635 -1.140743117784942
1.592790578200497 -1.0895491295148674
1.592790578200497 -0.9871611529747181
1.574405565213775 -1.0127581471097555
1.4273254613199977 -0.9871611529747181
1.3905554353465532 -0.9615641588396808
1.335400396386387 -0.9359671647046435
1.2618603444394982 -0.9359671647046435
1.1883202924926097 -0.8847731764345688
1.0963952275589988 -0.7823851998944195
1.0596252015855545 -0.7567882057593822
0.9309301106784994 -0.6799972233542702
0.8573900587316108 -0.5776092468141208
0.8022350197714444 -0.5008182644090089
0.7470799808112779 -0.39843028786885964
0.6367699028909449 -0.39843028786885964
0.5632298509440563 -0.347236299598785
0.47130478601044556 -0.42402728200389694
0.37937972107683476 -0.39843028786885964
0.23229961718305753 -0.347236299598785
0.1587595652361689 -0.29604231132871034
0.1219895392627246 -0.29604231132871034
0.08521951328928029 -0.193654334788561
0.04844948731583598 -0.14246034651848635
0.030064474329113824 -0.040072369978337054
-0.006705551644330489 0.011121618291737601
-0.025090564631052643 0.011121618291737601
-0.06186059060449695 -0.040072369978337054
-0.09863061657794127 -0.014475375843299726
-0.1721706685248299 -0.014475375843299726
-0.1721706685248299 -0.040072369978337054
-0.24571072047171852 -0.014475375843299726
-0.2640957334584407 -0.0912663582484117
-0.2824807464451628 -0.040072369978337054
-0.3192507724186071 0.011121618291737601
-0.2824807464451628 -0.014475375843299726
-0.2824807464451628 0.036718612426774926
-0.2640957334584407 0.036718612426774926
-0.22732570748499636 0.11350959483188691
-0.22732570748499636 0.036718612426774926
-0.300865759431885 0.06231560656181225
-0.2640957334584407 0.08791260069684959
-0.2824807464451628 0.06231560656181225
-0.2824807464451628 -0.014475375843299726
-0.3376357854053293 0.011121618291737601
-0.3192507724186071 0.036718612426774926
-0.2640957334584407 0.036718612426774926
-0.24571072047171852 0.08791260069684959
-0.24571072047171852 0.11350959483188691
-0.2089406944982742 0.16470358310196156
-0.1721706685248299 0.16470358310196156
-0.1721706685248299 0.08791260069684959
-0.1721706685248299 0.036718612426774926
-0.1721706685248299 0.036718612426774926
-0.15378565553810775 0.036718612426774926
-0.1721706685248299 -0.040072369978337054
-0.1721706685248299 -0.040072369978337054
-0.1721706685248299 -0.040072369978337054
-0.1721706685248299 -0.014475375843299726
-0.1354006425513856 0.06231560656181225
-0.11701562956466342 0.036718612426774926
-0.08024560359121911 -0.014475375843299726
-0.06186059060449695 0.06231560656181225
-0.09863061657794127 0.06231560656181225
-0.08024560359121911 -0.014475375843299726
-0.09863061657794127 -0.014475375843299726
-0.1354006425513856 -0.040072369978337054
-0.1721706685248299 -0.0912663582484117
-0.1721706685248299 -0.0912663582484117
-0.2089406944982742 -0.11686335238344903
-0.2089406944982742 -0.14246034651848635
-0.2089406944982742 -0.06566936411337437
-0.22732570748499636 -0.040072369978337054
-0.19055568151155206 -0.014475375843299726
-0.15378565553810775 -0.014475375843299726
-0.15378565553810775 0.011121618291737601
-0.19055568151155206 0.011121618291737601
-0.24571072047171852 -0.0912663582484117
-0.24571072047171852 -0.0912663582484117
-0.2640957334584407 -0.14246034651848635
-0.3192507724186071 -0.11686335238344903
-0.3192507724186071 -0.16805734065352368
-0.3376357854053293 -0.193654334788561
-0.3560207983920515 -0.14246034651848635
-0.3376357854053293 -0.0912663582484117
-0.300865759431885 -0.040072369978337054
-0.300865759431885 -0.06566936411337437
-0.3192507724186071 -0.14246034651848635
-0.300865759431885 -0.16805734065352368
-0.3192507724186071 -0.14246034651848635
-0.3560207983920515 -0.193654334788561
-0.3927908243654958 -0.21925132892359833
-0.4663308763123844 -0.24484832305863566
-0.48471588929910653 -0.193654334788561
-0.48471588929910653 -0.14246034651848635
-0.4663308763123844 -0.0912663582484117
-0.4479458633256622 -0.11686335238344903
-0.4295608503389401 -0.0912663582484117
-0.4111758373522179 -0.11686335238344903
-0.3744058113787736 -0.0912663582484117
-0.4111758373522179 -0.06566936411337437
-0.4295608503389401 -0.11686335238344903
-0.4479458633256622 -0.14246034651848635
-0.48471588929910653 -0.14246034651848635
-0.5214859152725508 -0.24484832305863566
-0.48471588929910653 -0.21925132892359833
-0.539870928259273 -0.193654334788561
-0.48471588929910653 -0.16805734065352368
-0.48471588929910653 -0.0912663582484117
-0.4663308763123844 -0.14246034651848635
-0.4295608503389401 -0.06566936411337437
-0.4111758373522179 -0.0912663582484117
-0.4111758373522179 -0.16805734065352368
-0.4295608503389401 -0.21925132892359833
-0.4663308763123844 -0.21925132892359833
-0.4663308763123844 -0.270445317193673
-0.5031009022858287 -0.270445317193673
-0.48471588929910653 -0.270445317193673
-0.48471588929910653 -0.21925132892359833
-0.5214859152725508 -0.16805734065352368
-0.5031009022858287 -0.16805734065352368
-0.48471588929910653 -0.11686335238344903
-0.4479458633256622 -0.0912663582484117
-0.4479458633256622 -0.14246034651848635
-0.4479458633256622 -0.11686335238344903
-0.48471588929910653 -0.193654334788561
-0.4663308763123844 -0.24484832305863566
-0.5031009022858287 -0.24484832305863566
-0.5031009022858287 -0.24484832305863566
-0.5031009022858287 -0.16805734065352368
-0.5214859152725508 -0.06566936411337437
-0.5031009022858287 -0.06566936411337437
-0.4479458633256622 0.011121618291737601
-0.4295608503389401 0.08791260069684959
-0.3927908243654958 0.11350959483188691
-0.3744058113787736 0.16470358310196156
-0.3376357854053293 0.13910658896692424
-0.300865759431885 0.16470358310196156
-0.300865759431885 0.13910658896692424
-0.300865759431885 0.08791260069684959
-0.300865759431885 0.011121618291737601
-0.2824807464451628 -0.040072369978337054
-0.2824807464451628 -0.040072369978337054
-0.22732570748499636 -0.014475375843299726
-0.1354006425513856 -0.06566936411337437
-0.15378565553810775 -0.014475375843299726
-0.06186059060449695 -0.06566936411337437
0.011679461342391667 -0.0912663582484117
0.08521951328928029 -0.16805734065352368
0.17714457822289106 -0.24484832305863566
0.17714457822289106 -0.24484832305863566
0.17714457822289106 -0.270445317193673
0.19552959120961322 -0.32163930546374764
0.14037455224944675 -0.39843028786885964
0.08521951328928029 -0.347236299598785
0.030064474329113824 -0.3728332937338223
-0.006705551644330489 -0.347236299598785
-0.025090564631052643 -0.24484832305863566
-0.0434755776177748 -0.21925132892359833
-0.0434755776177748 -0.21925132892359833
-0.11701562956466342 -0.24484832305863566
-0.1721706685248299 -0.270445317193673
-0.22732570748499636 -0.4496242761389343
-0.2824807464451628 -0.4752212702739716
-0.4295608503389401 -0.5008182644090089
-0.4663308763123844 -0.4496242761389343
-0.5582559412459952 -0.3728332937338223
-0.5950259672194395 -0.42402728200389694
-0.5766409542327173 -0.3728332937338223
-0.5766409542327173 -0.32163930546374764
-0.5214859152725508 -0.32163930546374764
-0.6134109802061616 -0.32163930546374764
-0.5582559412459952 -0.347236299598785
-0.5950259672194395 -0.42402728200389694
-0.6134109802061616 -0.42402728200389694
-0.650181006179606 -0.4496242761389343
-0.6869510321530502 -0.5008182644090089
-0.6685660191663281 -0.4752212702739716
-0.650181006179606 -0.4496242761389343
-0.650181006179606 -0.3728332937338223
-0.650181006179606 -0.347236299598785
-0.7237210581264946 -0.39843028786885964
-0.6685660191663281 -0.3728332937338223
-0.5950259672194395 -0.32163930546374764
-0.5950259672194395 -0.347236299598785
-0.6134109802061616 -0.42402728200389694
-0.6134109802061616 -0.4496242761389343
-0.650181006179606 -0.5008182644090089
-0.6685660191663281 -0.5008182644090089
-0.650181006179606 -0.42402728200389694
-0.6869510321530502 -0.39843028786885964
-0.6317959931928838 -0.3728332937338223
-0.650181006179606 -0.347236299598785
-0.6317959931928838 -0.193654334788561
-0.5582559412459952 -0.14246034651848635
-0.5950259672194395 -0.06566936411337437
-0.6317959931928838 0.16470358310196156
-0.7421060711132167 0.26709155964211084
-0.8708011620202718 0.34388254204722285
-1.1098063308476598 0.2926885537771482
-1.36719651266177 0.11350959483188691
-1.6429717074626025 -0.014475375843299726
-1.6429717074626025 -0.270445317193673
-1.36719651266177 -0.5264152585440462
-0.6317959931928838 -0.8335791881644942
0.4896897989971677 -1.06395213537983
1.8685657730013294 -1.1919371060550168
3.339366811939102 -1.2687280884601286
4.699857772956541 -1.1919371060550168
5.600723409305927 -1.140743117784942
5.950038656053648 -1.0383551412447927
5.472028318398872 -1.0127581471097555
4.148307383354877 -0.9871611529747181
2.328191097669383 -0.7567882057593822
0.6183848899042228 -0.32163930546374764
-0.6134109802061616 0.4206735244523348
-1.2201164087679928 1.367762307448716
-1.36719651266177 2.2124631139049478
-1.3120414737016035 2.95477594382103
-1.3488114996750478 3.3899248441166647
-1.477506590582103 3.7482827620071872
-1.8084368243431017 3.9018647268174114
-2.2864471619978777 4.081043685762673
-2.7276874736792096 4.183431662302822
-3.113772746400375 4.260222644707934
-3.4079329541879293 4.209028656437859
-3.4630879931480956 4.132237674032747
-3.4079329541879293 3.876267732682374
-3.2976228762675963 3.594700797196963
-3.0953877334136526 3.261939873441478
-2.8196125386128204 2.877984961415918
-2.5070673178385436 2.3404480845801343
-2.2312921230377114 1.8797021901494624
-1.9187469022634347 1.2653743309085665
-1.6429717074626025 0.75343444820782
-1.36719651266177 0.4206735244523348
-1.2017313957812705 0.08791260069684959
-1.0546512918874933 -0.014475375843299726
-0.9627262269538825 -0.14246034651848635
-0.8891861750069939 -0.14246034651848635
-0.8156461230601053 -0.11686335238344903
-0.8156461230601053 -0.11686335238344903
-0.7604910840999388 -0.11686335238344903
-0.7237210581264946 -0.270445317193673
-0.6685660191663281 -0.29604231132871034
-0.650181006179606 -0.3728332937338223
-0.6317959931928838 -0.39843028786885964
-0.6317959931928838 -0.4496242761389343
-0.6685660191663281 -0.4752212702739716
-0.6134109802061616 -0.5264152585440462
-0.6317959931928838 -0.5520122526790836
-0.5950259672194395 -0.5264152585440462
-0.539870928259273 -0.4752212702739716
-0.539870928259273 -0.4496242761389343
-0.48471588929910653 -0.5008182644090089
-0.5582559412459952 -0.5008182644090089
-0.5582559412459952 -0.5264152585440462
-0.5031009022858287 -0.5776092468141208
-0.5031009022858287 -0.6544002292192329
-0.5031009022858287 -0.6544002292192329
-0.5031009022858287 -0.6799972233542702
-0.539870928259273 -0.7311912116243449
-0.5031009022858287 -0.6288032350841956
-0.48471588929910653 -0.6799972233542702
-0.4479458633256622 -0.6032062409491582
-0.4295608503389401 -0.6032062409491582
-0.3744058113787736 -0.5776092468141208
-0.3560207983920515 -0.6288032350841956
-0.3560207983920515 -0.6544002292192329
-0.3560207983920515 -0.7311912116243449
-0.4295608503389401 -0.7567882057593822
-0.3376357854053293 -0.7567882057593822
-0.3560207983920515 -0.7567882057593822
-0.3560207983920515 -0.7567882057593822
-0.3376357854053293 -0.7567882057593822
-0.3192507724186071 -0.6544002292192329
-0.2640957334584407 -0.7055942174893075
-0.22732570748499636 -0.7055942174893075
-0.15378565553810775 -0.6799972233542702
-0.1354006425513856 -0.6799972233542702
-0.1354006425513856 -0.7311912116243449
-0.09863061657794127 -0.7311912116243449
-0.09863061657794127 -0.8591761822995315
-0.11701562956466342 -0.8591761822995315
-0.08024560359121911 -0.8591761822995315
-0.1354006425513856 -0.8591761822995315
-0.06186059060449695 -0.8079821940294568
-0.0434755776177748 -0.8079821940294568
-0.025090564631052643 -0.8335791881644942
0.04844948731583598 -0.7823851998944195
0.10360452627600245 -0.8079821940294568
0.17714457822289106 -0.8079821940294568
0.17714457822289106 -0.8847731764345688
0.14037455224944675 -0.8847731764345688
0.1587595652361689 -0.8847731764345688
0.19552959120961322 -0.9359671647046435
0.19552959120961322 -0.9871611529747181
0.23229961718305753 -0.9871611529747181
0.30583966912994615 -1.0383551412447927
0.32422468211666833 -1.0127581471097555
0.37937972107683476 -0.9871611529747181
0.4529197730237234 -0.9359671647046435
0.5632298509440563 -0.9871611529747181
0.5999998769175007 -1.06395213537983
0.6183848899042228 -1.06395213537983
0.6367699028909449 -1.140743117784942
0.6919249418511114 -1.1919371060550168
0.6551549158776672 -1.1919371060550168
0.7103099548378335 -1.2687280884601286
0.8206200327581665 -1.2175341001900541
0.8390050457448887 -1.3199220767302033
0.8941600847050551 -1.2687280884601286
0.9860851496386659 -1.294325082595166
1.0412401885988325 -1.294325082595166
1.1515502665191653 -1.2687280884601286
1.1883202924926097 -1.3199220767302033
1.243475331452776 -1.3455190708652407
1.243475331452776 -1.3455190708652407
1.2618603444394982 -1.44790704740539
1.2986303704129425 -1.44790704740539
1.335400396386387 -1.44790704740539
1.353785409373109 -1.44790704740539
1.3905554353465532 -1.4735040415404272
1.4273254613199977 -1.44790704740539
1.4824805002801642 -1.4223100532703528
1.5560205522270527 -1.371116065000278
1.6111755911872192 -1.371116065000278
1.6111755911872192 -1.3199220767302033
1.6663306301473857 -1.4223100532703528
1.6479456171606635 -1.4735040415404272
1.6479456171606635 -1.44790704740539
1.6295606041739414 -1.524698029810502
1.6295606041739414 -1.4991010356754646
1.6295606041739414 -1.4735040415404272
1.6111755911872192 -1.44790704740539
1.592790578200497 -1.4223100532703528
1.592790578200497 -1.3967130591353154
1.6111755911872192 -1.294325082595166
1.6111755911872192 -1.2687280884601286
1.574405565213775 -1.294325082595166
1.4824805002801642 -1.2431310943250913
1.4824805002801642 -1.294325082595166
1.3721704223598312 -1.2431310943250913
1.2802453574262205 -1.2687280884601286
1.2067053054793317 -1.1919371060550168
1.1515502665191653 -1.1151461236499047
1.0963952275589988 -1.1151461236499047
1.0412401885988325 -1.0383551412447927
1.004470162625388 -0.9359671647046435
0.9677001366519438 -0.8847731764345688
0.9125450976917773 -0.8079821940294568
0.8390050457448887 -0.7567882057593822
0.7838500067847222 -0.7567882057593822
0.6735399288643893 -0.8079821940294568
0.5816148639307785 -0.7567882057593822
0.47130478601044556 -0.7823851998944195
0.37937972107683476 -0.7823851998944195
0.30583966912994615 -0.7311912116243449
0.2506846301697797 -0.6288032350841956
0.1587595652361689 -0.5520122526790836
0.1219895392627246 -0.5520122526790836
0.06683450030255814 -0.5008182644090089
0.08521951328928029 -0.42402728200389694
0.011679461342391667 -0.347236299598785
-0.006705551644330489 -0.42402728200389694
-0.06186059060449695 -0.4496242761389343
-0.1354006425513856 -0.4496242761389343
-0.19055568151155206 -0.42402728200389694
-0.22732570748499636 -0.42402728200389694
-0.2824807464451628 -0.39843028786885964
-0.3192507724186071 -0.39843028786885964
-0.3192507724186071 -0.32163930546374764
-0.3376357854053293 -0.32163930546374764
-0.3376357854053293 -0.21925132892359833
-0.3192507724186071 -0.24484832305863566
-0.3560207983920515 -0.24484832305863566
-0.4111758373522179 -0.24484832305863566
-0.4295608503389401 -0.270445317193673
-0.4479458633256622 -0.29604231132871034
-0.4663308763123844 -0.3728332937338223
-0.4663308763123844 -0.347236299598785
-0.5031009022858287 -0.39843028786885964
-0.5031009022858287 -0.347236299598785
-0.5214859152725508 -0.270445317193673
-0.4663308763123844 -0.21925132892359833
-0.4663308763123844 -0.21925132892359833
-0.4295608503389401 -0.16805734065352368
-0.4295608503389401 -0.16805734065352368
-0.4295608503389401 -0.16805734065352368
-0.4663308763123844 -0.270445317193673
-0.4663308763123844 -0.32163930546374764
-0.4295608503389401 -0.270445317193673
-0.4663308763123844 -0.347236299598785
-0.48471588929910653 -0.29604231132871034
-0.4479458633256622 -0.32163930546374764
-0.4295608503389401 -0.24484832305863566
-0.4111758373522179 -0.270445317193673
-0.4111758373522179 -0.193654334788561
-0.3560207983920515 -0.21925132892359833
-0.3744058113787736 -0.32163930546374764
-0.3560207983920515 -0.29604231132871034
-0.3744058113787736 -0.270445317193673
-0.3744058113787736 -0.29604231132871034
-0.3927908243654958 -0.32163930546374764
-0.4111758373522179 -0.39843028786885964
-0.3927908243654958 -0.32163930546374764
-0.3927908243654958 -0.347236299598785
-0.3744058113787736 -0.347236299598785
-0.3927908243654958 -0.29604231132871034
-0.3376357854053293 -0.29604231132871034
-0.3376357854053293 -0.29604231132871034
-0.3376357854053293 -0.29604231132871034
-0.3927908243654958 -0.32163930546374764
-0.4111758373522179 -0.347236299598785
-0.3560207983920515 -0.3728332937338223
-0.3744058113787736 -0.42402728200389694
-0.4479458633256622 -0.39843028786885964
-0.4295608503389401 -0.42402728200389694
-0.4479458633256622 -0.3728332937338223
-0.3927908243654958 -0.3728332937338223
-0.3927908243654958 -0.347236299598785
-0.3744058113787736 -0.32163930546374764
-0.3560207983920515 -0.24484832305863566
-0.3927908243654958 -0.347236299598785
-0.3927908243654958 -0.347236299598785
-0.4295608503389401 -0.42402728200389694
-0.4295608503389401 -0.4496242761389343
-0.4295608503389401 -0.4496242761389343
-0.5214859152725508 -0.5264152585440462
-0.5214859152725508 -0.4752212702739716
-0.5031009022858287 -0.5008182644090089
-0.5031009022858287 -0.4496242761389343
-0.48471588929910653 -0.42402728200389694
-0.4663308763123844 -0.39843028786885964
-0.4663308763123844 -0.3728332937338223
-0.5031009022858287 -0.3728332937338223
-0.48471588929910653 -0.39843028786885964
-0.4663308763123844 -0.4752212702739716
-0.5031009022858287 -0.4752212702739716
-0.5214859152725508 -0.5008182644090089
-0.539870928259273 -0.5008182644090089
-0.5582559412459952 -0.5008182644090089
-0.5766409542327173 -0.42402728200389694
-0.539870928259273 -0.39843028786885964
-0.539870928259273 -0.39843028786885964
-0.539870928259273 -0.4496242761389343
-0.5582559412459952 -0.4496242761389343
-0.5582559412459952 -0.39843028786885964
-0.5582559412459952 -0.4752212702739716
-0.5766409542327173 -0.4496242761389343
-0.5950259672194395 -0.5264152585440462
-0.5950259672194395 -0.5520122526790836
-0.5582559412459952 -0.5264152585440462
-0.5950259672194395 -0.5520122526790836
-0.650181006179606 -0.5520122526790836
-0.5950259672194395 -0.4752212702739716
-0.5766409542327173 -0.5264152585440462
-0.5582559412459952 -0.4752212702739716
-0.5214859152725508 -0.42402728200389694
-0.5214859152725508 -0.4496242761389343
-0.5031009022858287 -0.5264152585440462
-0.539870928259273 -0.5520122526790836
-0.5766409542327173 -0.5264152585440462
-0.5950259672194395 -0.5776092468141208
-0.6317959931928838 -0.6544002292192329
-0.650181006179606 -0.6288032350841956
-0.6685660191663281 -0.5520122526790836
-0.6134109802061616 -0.5520122526790836
-0.6134109802061616 -0.5008182644090089
-0.539870928259273 -0.5520122526790836
-0.5582559412459952 -0.4496242761389343
-0.5214859152725508 -0.5264152585440462
-0.539870928259273 -0.4752212702739716
-0.6134109802061616 -0.5008182644090089
-0.6134109802061616 -0.6032062409491582
-0.6317959931928838 -0.6032062409491582
-0.6317959931928838 -0.5776092468141208
-0.6134109802061616 -0.5264152585440462
-0.6317959931928838 -0.5776092468141208
-0.6134109802061616 -0.5520122526790836
-0.5766409542327173 -0.5264152585440462
-0.5582559412459952 -0.4496242761389343
-0.5214859152725508 -0.4496242761389343
-0.5766409542327173 -0.4752212702739716
-0.539870928259273 -0.42402728200389694
-0.5766409542327173 -0.4496242761389343
-0.5950259672194395 -0.5008182644090089
-0.6134109802061616 -0.4752212702739716
-0.6317959931928838 -0.5520122526790836
-0.650181006179606 -0.5520122526790836
-0.6685660191663281 -0.4752212702739716
-0.6134109802061616 -0.5264152585440462
-0.6134109802061616 -0.39843028786885964
-0.5950259672194395 -0.3728332937338223
-0.539870928259273 -0.39843028786885964
-0.5031009022858287 -0.39843028786885964
-0.5214859152725508 -0.3728332937338223
-0.5214859152725508 -0.42402728200389694
-0.539870928259273 -0.5008182644090089
-0.5766409542327173 -0.5008182644090089
-0.5950259672194395 -0.4752212702739716
-0.6317959931928838 -0.5264152585440462
-0.6317959931928838 -0.4752212702739716
-0.5766409542327173 -0.4496242761389343
-0.6134109802061616 -0.4496242761389343
-0.5582559412459952 -0.347236299598785
-0.5031009022858287 -0.39843028786885964
-0.5031009022858287 -0.39843028786885964
-0.5214859152725508 -0.3728332937338223
-0.539870928259273 -0.39843028786885964
-0.539870928259273 -0.4752212702739716
-0.5582559412459952 -0.4496242761389343
-0.5950259672194395 -0.4752212702739716
-0.5766409542327173 -0.5264152585440462
-0.5950259672194395 -0.4752212702739716
-0.5950259672194395 -0.39843028786885964
-0.539870928259273 -0.39843028786885964
-0.539870928259273 -0.347236299598785
-0.5214859152725508 -0.270445317193673
-0.48471588929910653 -0.24484832305863566
-0.4663308763123844 -0.16805734065352368
-0.5031009022858287 -0.16805734065352368
-0.4663308763123844 -0.11686335238344903
-0.4479458633256622 -0.11686335238344903
-0.4479458633256622 -0.14246034651848635
-0.4663308763123844 -0.14246034651848635
-0.4479458633256622 -0.0912663582484117
-0.4111758373522179 -0.06566936411337437
-0.3744058113787736 -0.11686335238344903
-0.3192507724186071 -0.14246034651848635
-0.22732570748499636 -0.21925132892359833
-0.2089406944982742 -0.270445317193673
-0.19055568151155206 -0.270445317193673
-0.15378565553810775 -0.270445317193673
-0.08024560359121911 -0.3728332937338223
-0.08024560359121911 -0.4496242761389343
-0.006705551644330489 -0.5264152585440462
0.030064474329113824 -0.5520122526790836
0.08521951328928029 -0.5008182644090089
0.14037455224944675 -0.4752212702739716
0.1219895392627246 -0.42402728200389694
0.04844948731583598 -0.5264152585440462
0.08521951328928029 -0.4496242761389343
-0.006705551644330489 -0.5008182644090089
-0.006705551644330489 -0.5008182644090089
-0.08024560359121911 -0.5008182644090089
-0.11701562956466342 -0.4752212702739716
-0.11701562956466342 -0.4752212702739716
-0.2089406944982742 -0.5264152585440462
-0.24571072047171852 -0.5008182644090089
-0.3376357854053293 -0.5008182644090089
-0.3744058113787736 -0.5008182644090089
-0.4111758373522179 -0.5008182644090089
-0.4663308763123844 -0.4752212702739716
-0.5031009022858287 -0.5008182644090089
-0.539870928259273 -0.5008182644090089
-0.5582559412459952 -0.42402728200389694
-0.5950259672194395 -0.5264152585440462
-0.5950259672194395 -0.5776092468141208
-0.6317959931928838 -0.5264152585440462
-0.6685660191663281 -0.5776092468141208
-0.6869510321530502 -0.6032062409491582
-0.6869510321530502 -0.5776092468141208
-0.6869510321530502 -0.5264152585440462
-0.6685660191663281 -0.5520122526790836
-0.6134109802061616 -0.4496242761389343
-0.6134109802061616 -0.4496242761389343
-0.6134109802061616 -0.42402728200389694
-0.6317959931928838 -0.42402728200389694
-0.6317959931928838 -0.4752212702739716
-0.6317959931928838 -0.4752212702739716
-0.7053360451397724 -0.4752212702739716
-0.6869510321530502 -0.5008182644090089
-0.7053360451397724 -0.5008182644090089
-0.6869510321530502 -0.4752212702739716
-0.6869510321530502 -0.42402728200389694
-0.6317959931928838 -0.347236299598785
-0.5766409542327173 -0.3728332937338223
-0.5950259672194395 -0.270445317193673
-0.6134109802061616 -0.193654334788561
-0.5950259672194395 -0.040072369978337054
-0.650181006179606 0.036718612426774926
-0.7421060711132167 0.16470358310196156
-0.9259562009804383 0.24149456550707354
-1.1833463827945485 0.16470358310196156
-1.4591215775953807 0.036718612426774926
-1.587816668502436 -0.193654334788561
-1.3304264866883257 -0.4496242761389343
-0.6134109802061616 -0.8079821940294568
0.4529197730237234 -1.1151461236499047
1.8869507859880517 -1.294325082595166
3.4129068638859903 -1.3199220767302033
4.77339782490343 -1.3455190708652407
5.71103348722626 -1.2175341001900541
5.8397285781333155 -1.140743117784942
4.994017980744096 -1.1151461236499047
3.4129068638859903 -0.9359671647046435
1.5008655132668862 -0.6032062409491582
-0.06186059060449695 0.08791260069684959
-1.017881265914049 1.0094043895581932
-1.4223515516219365 1.930896178419537
-1.477506590582103 2.7755969848757687
-1.3855815256484922 3.3899248441166647
-1.3855815256484922 3.7482827620071872
-1.6613567204493245 3.978655709222523
-2.084212019143934 4.132237674032747
-2.5622223567987104 4.183431662302822
-3.003462668480042 4.209028656437859
-3.2976228762675963 4.183431662302822
-3.4447029801613738 4.0298496974925975
-3.4263179671746515 3.7738797561422244
-3.279237863280874 3.492312820656814
-3.021847681466764 3.082760914496217
-2.690917447705765 2.5964180259305074
-2.323217187971322 2.1100751373647983
-1.955516928236879 1.5725382605290146
-1.6613567204493245 0.983807395423156
-1.36719651266177 0.5742554892625588
-1.1649613698078263 0.1903005772369989
-0.9994962529273269 0.036718612426774926
-0.9259562009804383 -0.0912663582484117
-0.8340311360468275 -0.16805734065352368
-0.7972611100733832 -0.14246034651848635
-0.7604910840999388 -0.14246034651848635
-0.7053360451397724 -0.11686335238344903
-0.6869510321530502 -0.193654334788561
-0.6317959931928838 -0.16805734065352368
-0.5950259672194395 -0.193654334788561
-0.5950259672194395 -0.24484832305863566
-0.5582559412459952 -0.42402728200389694
-0.5582559412459952 -0.39843028786885964
-0.5582559412459952 -0.5264152585440462
-0.5766409542327173 -0.5264152585440462
-0.5950259672194395 -0.5008182644090089
-0.5766409542327173 -0.42402728200389694
-0.5766409542327173 -0.5008182644090089
-0.539870928259273 -0.39843028786885964
-0.5214859152725508 -0.347236299598785
-0.4479458633256622 -0.39843028786885964
-0.4295608503389401 -0.4496242761389343
-0.4295608503389401 -0.42402728200389694
-0.4663308763123844 -0.4752212702739716
-0.4663308763123844 -0.5008182644090089
-0.4663308763123844 -0.5520122526790836
-0.4663308763123844 -0.5776092468141208
-0.4663308763123844 -0.5520122526790836
-0.48471588929910653 -0.5264152585440462
-0.4111758373522179 -0.5264152585440462
-0.3744058113787736 -0.4752212702739716
-0.3927908243654958 -0.4752212702739716
-0.3560207983920515 -0.4496242761389343
-0.3192507724186071 -0.4752212702739716
-0.3744058113787736 -0.4752212702739716
-0.3192507724186071 -0.4752212702739716
-0.3192507724186071 -0.5520122526790836
-0.3376357854053293 -0.5776092468141208
-0.3560207983920515 -0.6288032350841956
-0.3192507724186071 -0.5776092468141208
-0.3192507724186071 -0.5776092468141208
-0.2824807464451628 -0.5776092468141208
-0.2640957334584407 -0.5264152585440462
-0.24571072047171852 -0.5520122526790836
-0.1721706685248299 -0.5520122526790836
-0.1354006425513856 -0.6032062409491582
-0.1354006425513856 -0.5520122526790836
-0.1354006425513856 -0.6032062409491582
-0.11701562956466342 -0.6288032350841956
-0.1354006425513856 -0.6799972233542702
-0.11701562956466342 -0.7567882057593822
-0.1354006425513856 -0.7567882057593822
-0.09863061657794127 -0.7055942174893075
-0.08024560359121911 -0.6288032350841956
0.030064474329113824 -0.6544002292192329
0.06683450030255814 -0.6032062409491582
0.10360452627600245 -0.6032062409491582
0.1219895392627246 -0.6799972233542702
0.14037455224944675 -0.6799972233542702
0.1587595652361689 -0.7055942174893075
0.1587595652361689 -0.7055942174893075
0.19552959120961322 -0.8079821940294568
0.17714457822289106 -0.7823851998944195
0.19552959120961322 -0.8335791881644942
0.26906964315650184 -0.8079821940294568
0.36099470809011264 -0.7823851998944195
0.39776473406355695 -0.8335791881644942
0.4529197730237234 -0.8079821940294568
0.5264598249706121 -0.6544002292192329
0.5448448379573342 -0.8079821940294568
0.5999998769175007 -0.8079821940294568
0.6183848899042228 -0.8591761822995315
0.6735399288643893 -0.9103701705696061
0.7103099548378335 -0.9359671647046435
0.765464993798 -0.9871611529747181
0.7470799808112779 -1.0383551412447927
0.765464993798 -1.0127581471097555
0.8390050457448887 -1.0383551412447927
0.8941600847050551 -1.0127581471097555
1.004470162625388 -1.0383551412447927
1.0596252015855545 -0.9871611529747181
1.1515502665191653 -1.0127581471097555
1.1883202924926097 -1.06395213537983
1.243475331452776 -1.1151461236499047
1.2618603444394982 -1.1663401119199794
1.335400396386387 -1.1919371060550168
1.335400396386387 -1.1919371060550168
1.3905554353465532 -1.2175341001900541
1.3905554353465532 -1.1663401119199794
1.3721704223598312 -1.1663401119199794
1.464095487293442 -1.1663401119199794
1.5376355392403307 -1.1151461236499047
1.5560205522270527 -1.140743117784942
1.6295606041739414 -1.0895491295148674
1.6295606041739414 -1.2175341001900541
1.6663306301473857 -1.1919371060550168
1.6479456171606635 -1.294325082595166
1.684715643134108 -1.3199220767302033
1.684715643134108 -1.294325082595166
1.7214856691075522 -1.2687280884601286
1.7398706820942742 -1.2687280884601286
1.70310065612083 -1.1919371060550168
1.7214856691075522 -1.1919371060550168
1.6663306301473857 -1.1663401119199794
1.684715643134108 -1.0895491295148674
1.6663306301473857 -1.140743117784942
1.6479456171606635 -1.0895491295148674
1.6479456171606635 -1.140743117784942
1.6111755911872192 -1.0895491295148674
1.6663306301473857 -1.1151461236499047
1.6479456171606635 -1.0895491295148674
1.5192505262536085 -1.0383551412447927
1.464095487293442 -0.9615641588396808
1.3721704223598312 -0.9615641588396808
1.2986303704129425 -0.8591761822995315
1.2067053054793317 -0.7823851998944195
1.1883202924926097 -0.7055942174893075
1.1515502665191653 -0.7311912116243449
1.0596252015855545 -0.6799972233542702
1.004470162625388 -0.7055942174893075
0.9309301106784994 -0.6799972233542702
0.8390050457448887 -0.6288032350841956
0.7470799808112779 -0.5776092468141208
0.6919249418511114 -0.5776092468141208
0.5999998769175007 -0.5008182644090089
0.5080748119838898 -0.42402728200389694
0.4161497470502791 -0.3728332937338223
0.37937972107683476 -0.32163930546374764
0.36099470809011264 -0.24484832305863566
0.32422468211666833 -0.270445317193673
0.30583966912994615 -0.193654334788561
0.19552959120961322 -0.16805734065352368
0.14037455224944675 -0.193654334788561
0.08521951328928029 -0.193654334788561
0.04844948731583598 -0.193654334788561
-0.0434755776177748 -0.11686335238344903
-0.09863061657794127 -0.14246034651848635
-0.1354006425513856 -0.0912663582484117
-0.1354006425513856 -0.040072369978337054
-0.11701562956466342 -0.014475375843299726
-0.09863061657794127 0.036718612426774926
-0.08024560359121911 0.11350959483188691
-0.11701562956466342 -0.014475375843299726
-0.15378565553810775 0.011121618291737601
-0.15378565553810775 0.011121618291737601
-0.22732570748499636 0.011121618291737601
-0.24571072047171852 0.011121618291737601
-0.3376357854053293 0.036718612426774926
-0.2824807464451628 0.06231560656181225
-0.300865759431885 0.08791260069684959
-0.24571072047171852 0.08791260069684959
-0.24571072047171852 0.11350959483188691
-0.2089406944982742 0.16470358310196156
-0.24571072047171852 0.13910658896692424
-0.24571072047171852 0.13910658896692424
-0.22732570748499636 0.06231560656181225
-0.24571072047171852 0.011121618291737601
-0.2824807464451628 -0.014475375843299726
-0.2824807464451628 -0.014475375843299726
-0.2824807464451628 0.036718612426774926
-0.2640957334584407 0.06231560656181225
-0.2824807464451628 0.08791260069684959
-0.24571072047171852 0.11350959483188691
-0.2640957334584407 0.11350959483188691
-0.2089406944982742 0.11350959483188691
-0.1721706685248299 0.011121618291737601
-0.1721706685248299 0.036718612426774926
-0.15378565553810775 0.036718612426774926
-0.1721706685248299 0.011121618291737601
-0.19055568151155206 -0.014475375843299726
-0.22732570748499636 0.036718612426774926
-0.300865759431885 -0.014475375843299726
-0.3560207983920515 -0.040072369978337054
-0.300865759431885 -0.014475375843299726
-0.24571072047171852 0.011121618291737601
-0.24571072047171852 0.011121618291737601
-0.2089406944982742 0.06231560656181225
-0.1721706685248299 0.011121618291737601
-0.19055568151155206 0.011121618291737601
-0.2089406944982742 -0.040072369978337054
-0.2824807464451628 -0.040072369978337054
-0.24571072047171852 -0.11686335238344903
-0.24571072047171852 -0.11686335238344903
-0.300865759431885 -0.0912663582484117
-0.22732570748499636 -0.014475375843299726
-0.2640957334584407 -0.040072369978337054
-0.2824807464451628 -0.040072369978337054
-0.3376357854053293 0.011121618291737601
-0.3744058113787736 0.036718612426774926
-0.3744058113787736 -0.014475375843299726
-0.3376357854053293 0.036718612426774926
-0.300865759431885 -0.014475375843299726
-0.2824807464451628 -0.06566936411337437
-0.2824807464451628 -0.040072369978337054
-0.3560207983920515 -0.0912663582484117
-0.3560207983920515 -0.06566936411337437
-0.4111758373522179 -0.0912663582484117
-0.4111758373522179 -0.040072369978337054
-0.4295608503389401 0.06231560656181225
-0.4111758373522179 0.08791260069684959
-0.3744058113787736 0.011121618291737601
-0.3927908243654958 0.036718612426774926
-0.4295608503389401 0.011121618291737601
-0.3927908243654958 -0.040072369978337054
-0.4295608503389401 -0.040072369978337054
-0.3744058113787736 -0.014475375843299726
-0.3560207983920515 -0.0912663582484117
-0.3744058113787736 -0.0912663582484117
-0.3560207983920515 -0.0912663582484117
-0.3744058113787736 0.011121618291737601
-0.4111758373522179 -0.014475375843299726
-0.4479458633256622 0.011121618291737601
-0.3927908243654958 0.011121618291737601
-0.3927908243654958 -0.014475375843299726
-0.3744058113787736 0.06231560656181225
-0.3744058113787736 -0.040072369978337054
-0.4295608503389401 -0.040072369978337054
-0.4111758373522179 -0.0912663582484117
-0.4479458633256622 -0.014475375843299726
-0.4479458633256622 -0.040072369978337054
-0.4295608503389401 0.036718612426774926
-0.3744058113787736 0.036718612426774926
-0.3192507724186071 0.036718612426774926
-0.3192507724186071 0.06231560656181225
-0.2824807464451628 0.036718612426774926
-0.3376357854053293 -0.014475375843299726
-0.3376357854053293 -0.014475375843299726
-0.3927908243654958 0.011121618291737601
-0.3927908243654958 -0.014475375843299726
-0.4479458633256622 -0.0912663582484117
-0.4479458633256622 -0.14246034651848635
-0.4663308763123844 -0.0912663582484117
-0.4111758373522179 -0.040072369978337054
-0.4479458633256622 -0.040072369978337054
-0.3927908243654958 -0.040072369978337054
-0.4111758373522179 0.08791260069684959
-0.3927908243654958 0.06231560656181225
-0.3744058113787736 0.06231560656181225
-0.4111758373522179 0.08791260069684959
-0.4111758373522179 0.036718612426774926
-0.4111758373522179 0.011121618291737601
-0.4111758373522179 -0.06566936411337437
-0.4663308763123844 -0.06566936411337437
-0.4479458633256622 -0.0912663582484117
-0.4663308763123844 -0.06566936411337437
-0.4663308763123844 -0.014475375843299726
-0.4479458633256622 -0.014475375843299726
-0.4295608503389401 0.036718612426774926
-0.3744058113787736 -0.040072369978337054
-0.3927908243654958 0.011121618291737601
-0.3744058113787736 0.011121618291737601
-0.4111758373522179 0.036718612426774926
-0.3744058113787736 -0.014475375843299726
-0.4111758373522179 -0.06566936411337437
-0.4663308763123844 -0.040072369978337054
-0.4663308763123844 -0.06566936411337437
-0.5031009022858287 0.011121618291737601
-0.48471588929910653 0.13910658896692424
-0.4111758373522179 0.16470358310196156
-0.3744058113787736 0.16470358310196156
-0.2640957334584407 0.26709155964211084
-0.2640957334584407 0.36947953618226015
-0.24571072047171852 0.44627051858737216
-0.22732570748499636 0.4206735244523348
-0.2089406944982742 0.3950765303172975
-0.2089406944982742 0.3182855479121855
-0.2089406944982742 0.21589757137203622
-0.22732570748499636 0.24149456550707354
-0.2089406944982742 0.16470358310196156
-0.1721706685248299 0.21589757137203622
-0.11701562956466342 0.24149456550707354
-0.0434755776177748 0.16470358310196156
0.011679461342391667 0.1903005772369989
0.06683450030255814 0.1903005772369989
0.10360452627600245 0.11350959483188691
0.10360452627600245 0.036718612426774926
0.14037455224944675 -0.014475375843299726
0.1587595652361689 -0.06566936411337437
0.14037455224944675 -0.06566936411337437
0.19552959120961322 -0.06566936411337437
0.23229961718305753 -0.014475375843299726
0.23229961718305753 -0.014475375843299726
0.23229961718305753 0.011121618291737601
0.23229961718305753 0.011121618291737601
0.2506846301697797 0.11350959483188691
0.19552959120961322 0.16470358310196156
0.10360452627600245 0.16470358310196156
0.030064474329113824 0.21589757137203622
-0.06186059060449695 0.13910658896692424
-0.09863061657794127 0.011121618291737601
-0.1354006425513856 0.011121618291737601
-0.22732570748499636 0.036718612426774926
-0.22732570748499636 0.036718612426774926
-0.2824807464451628 0.036718612426774926
-0.3744058113787736 0.036718612426774926
-0.3927908243654958 0.036718612426774926
-0.3560207983920515 0.036718612426774926
-0.3376357854053293 0.011121618291737601
-0.3560207983920515 0.13910658896692424
-0.3744058113787736 0.06231560656181225
-0.4295608503389401 -0.014475375843299726
-0.5214859152725508 -0.040072369978337054
-0.539870928259273 -0.11686335238344903
-0.539870928259273 -0.06566936411337437
-0.48471588929910653 -0.06566936411337437
-0.4295608503389401 -0.040072369978337054
-0.3927908243654958 0.011121618291737601
-0.3376357854053293 0.06231560656181225
-0.3376357854053293 0.06231560656181225
-0.3560207983920515 0.11350959483188691
-0.4479458633256622 0.036718612426774926
-0.4663308763123844 -0.040072369978337054
-0.4295608503389401 -0.014475375843299726
-0.4663308763123844 0.011121618291737601
-0.5031009022858287 0.08791260069684959
-0.48471588929910653 0.06231560656181225
-0.5031009022858287 0.08791260069684959
-0.5214859152725508 0.036718612426774926
-0.4663308763123844 0.16470358310196156
-0.4663308763123844 0.21589757137203622
-0.4295608503389401 0.24149456550707354
-0.4479458633256622 0.2926885537771482
-0.4663308763123844 0.3182855479121855
-0.4663308763123844 0.36947953618226015
-0.48471588929910653 0.5486584951275214
-0.5950259672194395 0.5998524833975961
-0.7421060711132167 0.5998524833975961
-0.9627262269538825 0.5998524833975961
-1.2017313957812705 0.5230615009924842
-1.3855815256484922 0.3182855479121855
-1.2936564607148815 0.08791260069684959
-0.8524161490335497 -0.24484832305863566
-0.0434755776177748 -0.4752212702739716
1.0780102145722767 -0.7567882057593822
2.4752712015631606 -0.9103701705696061
3.798992136607156 -0.7823851998944195
5.067558032690984 -0.6032062409491582
5.8397285781333155 -0.347236299598785
5.950038656053648 -0.11686335238344903
5.122713071651151 -0.014475375843299726
3.57837198076649 0.036718612426774926
1.6663306301473857 0.21589757137203622
-0.006705551644330489 0.5486584951275214
-1.0730363048742155 1.1629863543684174
-1.495891603568825 1.9820901666896118
-1.495891603568825 2.6732090083356197
-1.3488114996750478 3.261939873441478
-1.2752714477281593 3.72268576787215
-1.36719651266177 3.9274617209524485
-1.6613567204493245 4.183431662302822
-2.0106719671970454 4.362610621248083
-2.3783722269314884 4.5417895801933446
-2.7644574996526536 4.644177556733494
-2.9483076295198756 4.7465655332736425
-3.0586177074402086 4.720968539138606
-3.021847681466764 4.644177556733494
-2.893152590559709 4.337013627113046
-2.7276874736792096 3.9530587150874856
-2.4886823048518214 3.6202977913320007
-2.2496771360244336 3.185148891036366
-1.937131915250157 2.6732090083356197
-1.6797417334360467 2.0332841549596865
-1.4039665386352143 1.4701502839888652
-1.1649613698078263 1.0094043895581932
-0.9994962529273269 0.6766434658027081
-0.7972611100733832 0.4974645068574468
-0.6317959931928838 0.3950765303172975
-0.5766409542327173 0.3950765303172975
-0.539870928259273 0.34388254204722285
-0.5214859152725508 0.3182855479121855
-0.48471588929910653 0.24149456550707354
-0.4479458633256622 0.21589757137203622
-0.4111758373522179 0.16470358310196156
-0.3744058113787736 0.11350959483188691
-0.3192507724186071 0.06231560656181225
-0.300865759431885 0.011121618291737601
-0.300865759431885 0.011121618291737601
-0.3192507724186071 -0.014475375843299726
-0.3192507724186071 0.06231560656181225
-0.3192507724186071 0.08791260069684959
-0.3927908243654958 0.011121618291737601
-0.22732570748499636 0.036718612426774926
-0.2640957334584407 0.011121618291737601
-0.300865759431885 0.011121618291737601
-0.2824807464451628 -0.014475375843299726
-0.2640957334584407 -0.014475375843299726
-0.24571072047171852 -0.0912663582484117
-0.2089406944982742 -0.06566936411337437
-0.19055568151155206 -0.0912663582484117
-0.1721706685248299 -0.040072369978337054
-0.11701562956466342 -0.06566936411337437
-0.1354006425513856 0.011121618291737601
-0.09863061657794127 0.011121618291737601
-0.09863061657794127 -0.040072369978337054
-0.025090564631052643 -0.014475375843299726
-0.0434755776177748 -0.014475375843299726
-0.025090564631052643 -0.0912663582484117
-0.025090564631052643 -0.16805734065352368
-0.0434755776177748 -0.16805734065352368
-0.09863061657794127 -0.193654334788561
-0.06186059060449695 -0.16805734065352368
-0.08024560359121911 -0.0912663582484117
-0.06186059060449695 -0.06566936411337437
0.011679461342391667 -0.11686335238344903
0.04844948731583598 -0.06566936411337437
0.14037455224944675 -0.0912663582484117
0.17714457822289106 -0.0912663582484117
0.17714457822289106 -0.14246034651848635
0.17714457822289106 -0.16805734065352368
0.19552959120961322 -0.16805734065352368
0.19552959120961322 -0.270445317193673
0.17714457822289106 -0.32163930546374764
0.21391460419633537 -0.24484832305863566
0.21391460419633537 -0.21925132892359833
0.287454656143224 -0.193654334788561
0.34260969510339045 -0.16805734065352368
0.36099470809011264 -0.11686335238344903
0.36099470809011264 -0.14246034651848635
0.34260969510339045 -0.24484832305863566
0.39776473406355695 -0.21925132892359833
0.37937972107683476 -0.32163930546374764
0.4529197730237234 -0.39843028786885964
0.4161497470502791 -0.42402728200389694
0.5264598249706121 -0.32163930546374764
0.5999998769175007 -0.39843028786885964
0.5999998769175007 -0.3728332937338223
0.6367699028909449 -0.3728332937338223
0.7103099548378335 -0.3728332937338223
0.7838500067847222 -0.42402728200389694
0.8022350197714444 -0.42402728200389694
0.8022350197714444 -0.4496242761389343
0.8206200327581665 -0.4752212702739716
0.8390050457448887 -0.5776092468141208
0.8941600847050551 -0.5776092468141208
0.9125450976917773 -0.6544002292192329
0.8941600847050551 -0.7055942174893075
1.0228551756121103 -0.7055942174893075
1.0596252015855545 -0.6544002292192329
1.114780240545721 -0.6032062409491582
1.1699352795058875 -0.6544002292192329
1.225090318466054 -0.5776092468141208
1.2986303704129425 -0.6799972233542702
1.2986303704129425 -0.6544002292192329
1.335400396386387 -0.7823851998944195
1.3170153833996647 -0.7823851998944195
1.2986303704129425 -0.8335791881644942
1.3170153833996647 -0.8335791881644942
1.335400396386387 -0.8591761822995315
1.3721704223598312 -0.8335791881644942
1.3905554353465532 -0.7567882057593822
1.464095487293442 -0.8079821940294568
1.5008655132668862 -0.7823851998944195
1.5192505262536085 -0.7311912116243449
1.6111755911872192 -0.7567882057593822
1.6479456171606635 -0.7567882057593822
1.6479456171606635 -0.7823851998944195
1.6295606041739414 -0.8079821940294568
1.6663306301473857 -0.8335791881644942
1.6663306301473857 -0.8591761822995315
1.6295606041739414 -0.8591761822995315
1.6479456171606635 -0.8335791881644942
1.6663306301473857 -0.8335791881644942
1.6663306301473857 -0.7567882057593822
1.6663306301473857 -0.7055942174893075
1.684715643134108 -0.7055942174893075
1.6479456171606635 -0.6799972233542702
1.5560205522270527 -0.6544002292192329
1.5376355392403307 -0.6799972233542702
1.5008655132668862 -0.6544002292192329
1.4273254613199977 -0.6288032350841956
1.335400396386387 -0.5776092468141208
1.243475331452776 -0.5264152585440462
1.1883202924926097 -0.5264152585440462
1.1699352795058875 -0.32163930546374764
1.1515502665191653 -0.29604231132871034
1.0963952275589988 -0.21925132892359833
1.0412401885988325 -0.16805734065352368
0.9493151236652216 -0.14246034651848635
0.875775071718333 -0.040072369978337054
0.8390050457448887 -0.040072369978337054
0.7286949678245558 -0.040072369978337054
0.6551549158776672 0.011121618291737601
0.5448448379573342 0.011121618291737601
0.47130478601044556 0.11350959483188691
0.4161497470502791 0.11350959483188691
0.34260969510339045 0.26709155964211084
0.30583966912994615 0.2926885537771482
0.2506846301697797 0.34388254204722285
0.23229961718305753 0.36947953618226015
0.23229961718305753 0.36947953618226015
0.19552959120961322 0.4206735244523348
0.10360452627600245 0.3950765303172975
0.10360452627600245 0.3950765303172975
0.011679461342391667 0.4206735244523348
-0.006705551644330489 0.34388254204722285
-0.06186059060449695 0.34388254204722285
-0.08024560359121911 0.3950765303172975
-0.0434755776177748 0.47186751272240945
-0.06186059060449695 0.4974645068574468
-0.08024560359121911 0.4974645068574468
-0.006705551644330489 0.5230615009924842
-0.025090564631052643 0.4974645068574468
-0.0434755776177748 0.5230615009924842
-0.06186059060449695 0.47186751272240945
-0.09863061657794127 0.47186751272240945
-0.11701562956466342 0.4206735244523348
-0.11701562956466342 0.3950765303172975
-0.1354006425513856 0.3950765303172975
-0.15378565553810775 0.44627051858737216
-0.1354006425513856 0.47186751272240945
-0.08024560359121911 0.4974645068574468
-0.08024560359121911 0.47186751272240945
-0.025090564631052643 0.4974645068574468
-0.006705551644330489 0.5486584951275214
0.011679461342391667 0.4974645068574468
0.011679461342391667 0.47186751272240945
-0.006705551644330489 0.47186751272240945
-0.025090564631052643 0.3950765303172975
-0.0434755776177748 0.3182855479121855
-0.025090564631052643 0.36947953618226015
-0.0434755776177748 0.3950765303172975
-0.025090564631052643 0.36947953618226015
-0.006705551644330489 0.44627051858737216
0.011679461342391667 0.47186751272240945
0.030064474329113824 0.5230615009924842
0.06683450030255814 0.44627051858737216
0.06683450030255814 0.5230615009924842
0.08521951328928029 0.44627051858737216
0.04844948731583598 0.4206735244523348
0.011679461342391667 0.4206735244523348
0.011679461342391667 0.34388254204722285
-0.0434755776177748 0.36947953618226015
-0.0434755776177748 0.34388254204722285
-0.025090564631052643 0.44627051858737216
0.030064474329113824 0.44627051858737216
-0.006705551644330489 0.4974645068574468
0.030064474329113824 0.4974645068574468
0.030064474329113824 0.5230615009924842
-0.006705551644330489 0.44627051858737216
-0.0434755776177748 0.3950765303172975
-0.0434755776177748 0.36947953618226015
-0.09863061657794127 0.36947953618226015
-0.11701562956466342 0.3950765303172975
-0.1354006425513856 0.2926885537771482
-0.1721706685248299 0.34388254204722285
-0.15378565553810775 0.3182855479121855
-0.11701562956466342 0.36947953618226015
-0.15378565553810775 0.4206735244523348
-0.1354006425513856 0.5230615009924842
-0.11701562956466342 0.3950765303172975
-0.1354006425513856 0.44627051858737216
-0.11701562956466342 0.36947953618226015
-0.15378565553810775 0.4206735244523348
-0.2089406944982742 0.36947953618226015
-0.2089406944982742 0.26709155964211084
-0.24571072047171852 0.36947953618226015
-0.24571072047171852 0.34388254204722285
-0.24571072047171852 0.34388254204722285
-0.22732570748499636 0.36947953618226015
-0.22732570748499636 0.47186751272240945
-0.22732570748499636 0.47186751272240945
-0.24571072047171852 0.4206735244523348
-0.24571072047171852 0.44627051858737216
-0.24571072047171852 0.34388254204722285
-0.2824807464451628 0.3182855479121855
-0.300865759431885 0.26709155964211084
-0.3192507724186071 0.2926885537771482
-0.3560207983920515 0.26709155964211084
-0.3376357854053293 0.26709155964211084
-0.3376357854053293 0.2926885537771482
-0.3376357854053293 0.34388254204722285
-0.2640957334584407 0.3950765303172975
-0.300865759431885 0.4206735244523348
-0.24571072047171852 0.3950765303172975
-0.300865759431885 0.36947953618226015
-0.3192507724186071 0.3182855479121855
-0.3192507724186071 0.26709155964211084
-0.3560207983920515 0.26709155964211084
-0.3560207983920515 0.21589757137203622
-0.3744058113787736 0.24149456550707354
-0.3744058113787736 0.3182855479121855
-0.3560207983920515 0.3182855479121855
-0.3560207983920515 0.34388254204722285
-0.3376357854053293 0.4206735244523348
-0.3560207983920515 0.36947953618226015
-0.3192507724186071 0.36947953618226015
-0.3376357854053293 0.4206735244523348
-0.300865759431885 0.2926885537771482
-0.3560207983920515 0.2926885537771482
-0.3744058113787736 0.26709155964211084
-0.3744058113787736 0.1903005772369989
-0.3927908243654958 0.24149456550707354
-0.3927908243654958 0.24149456550707354
-0.4295608503389401 0.26709155964211084
-0.3560207983920515 0.36947953618226015
-0.3744058113787736 0.4206735244523348
-0.3376357854053293 0.36947953618226015
-0.3376357854053293 0.44627051858737216
-0.3376357854053293 0.36947953618226015
-0.3376357854053293 0.3182855479121855
-0.3376357854053293 0.26709155964211084
-0.3560207983920515 0.2926885537771482
-0.4111758373522179 0.2926885537771482
-0.3927908243654958 0.26709155964211084
-0.4111758373522179 0.3182855479121855
-0.4111758373522179 0.34388254204722285
-0.3927908243654958 0.34388254204722285
-0.3376357854053293 0.4206735244523348
-0.3376357854053293 0.4206735244523348
-0.3376357854053293 0.4206735244523348
-0.3376357854053293 0.34388254204722285
-0.3192507724186071 0.36947953618226015
-0.3560207983920515 0.2926885537771482
-0.3376357854053293 0.3182855479121855
-0.3744058113787736 0.34388254204722285
-0.4111758373522179 0.44627051858737216
-0.3927908243654958 0.47186751272240945
-0.3560207983920515 0.5486584951275214
-0.24571072047171852 0.7278374540727828
-0.24571072047171852 0.7278374540727828
-0.19055568151155206 0.75343444820782
-0.19055568151155206 0.7790314423428574
-0.11701562956466342 0.6510464716676707
-0.09863061657794127 0.5998524833975961
-0.09863061657794127 0.5230615009924842
-0.09863061657794127 0.4206735244523348
-0.09863061657794127 0.4206735244523348
-0.06186059060449695 0.3950765303172975
-0.0434755776177748 0.3182855479121855
0.030064474329113824 0.2926885537771482
0.08521951328928029 0.3182855479121855
0.17714457822289106 0.3182855479121855
0.287454656143224 0.34388254204722285
0.34260969510339045 0.2926885537771482
0.34260969510339045 0.24149456550707354
0.30583966912994615 0.24149456550707354
0.19552959120961322 0.13910658896692424
0.19552959120961322 0.16470358310196156
0.06683450030255814 0.11350959483188691
0.04844948731583598 0.11350959483188691
0.030064474329113824 0.21589757137203622
-0.006705551644330489 0.2926885537771482
-0.025090564631052643 0.34388254204722285
-0.08024560359121911 0.36947953618226015
-0.08024560359121911 0.2926885537771482
-0.19055568151155206 0.21589757137203622
-0.2824807464451628 0.21589757137203622
-0.3376357854053293 0.24149456550707354
-0.4295608503389401 0.21589757137203622
-0.4295608503389401 0.13910658896692424
-0.4663308763123844 0.13910658896692424
-0.48471588929910653 0.16470358310196156
-0.48471588929910653 0.16470358310196156
-0.5214859152725508 0.21589757137203622
-0.539870928259273 0.26709155964211084
-0.5214859152725508 0.24149456550707354
-0.4663308763123844 0.26709155964211084
-0.4663308763123844 0.3182855479121855
-0.5031009022858287 0.26709155964211084
-0.5214859152725508 0.21589757137203622
-0.539870928259273 0.21589757137203622
-0.539870928259273 0.1903005772369989
-0.539870928259273 0.11350959483188691
-0.5582559412459952 0.21589757137203622
-0.5582559412459952 0.24149456550707354
-0.5766409542327173 0.34388254204722285
-0.5766409542327173 0.34388254204722285
-0.539870928259273 0.36947953618226015
-0.48471588929910653 0.3182855479121855
-0.4479458633256622 0.34388254204722285
-0.4479458633256622 0.3950765303172975
-0.4479458633256622 0.3950765303172975
-0.4663308763123844 0.3950765303172975
-0.5031009022858287 0.5230615009924842
-0.6134109802061616 0.6254494775326335
-0.7237210581264946 0.8302254306129321
-0.8340311360468275 0.907016413018044
-1.0730363048742155 0.907016413018044
-1.3120414737016035 0.8302254306129321
-1.4407365646086587 0.5742554892625588
-1.36719651266177 0.36947953618226015
-0.8891861750069939 0.036718612426774926
-0.06186059060449695 -0.29604231132871034
1.114780240545721 -0.6032062409491582
2.4568861885764384 -0.7567882057593822
3.8541471755673222 -0.7823851998944195
5.030788006717541 -0.6799972233542702
5.71103348722626 -0.5776092468141208
5.6191084222926495 -0.4752212702739716
4.626317721009653 -0.32163930546374764
2.9532815392179366 -0.193654334788561
1.2067053054793317 0.13910658896692424
-0.15378565553810775 0.8046284364778947
-0.9075711879937162 1.5469412663939772
-1.2017313957812705 2.3660450787151714
-1.1649613698078263 3.108357908631254
-1.128191343834382 3.72268576787215
-1.256886434741437 4.004252703357561
-1.477506590582103 4.234625650572896
-1.9003618892767125 4.439401603653195
-2.3048321749846 4.644177556733494
-2.7276874736792096 4.77216252740868
-3.0586177074402086 4.823356515678755
-3.1873127983472633 4.797759521543718
-3.168927785360541 4.516192586058307
-3.0770027204269303 4.209028656437859
-2.893152590559709 3.72268576787215
-2.690917447705765 3.261939873441478
-2.3967572399182107 2.852387967280881
-2.157752071090823 2.2892540963100596
-1.845206850316546 1.7773142136093132
-1.606201681489158 1.2653743309085665
-1.3120414737016035 0.9582104012881186
-1.128191343834382 0.7790314423428574
-0.9443412139671604 0.6254494775326335
-0.7788760970866611 0.5230615009924842
-0.6869510321530502 0.4974645068574468
-0.650181006179606 0.44627051858737216
-0.6134109802061616 0.3950765303172975
-0.6134109802061616 0.3950765303172975
-0.5766409542327173 0.2926885537771482
-0.5766409542327173 0.1903005772369989
-0.5766409542327173 0.13910658896692424
-0.5582559412459952 0.08791260069684959
-0.5214859152725508 0.036718612426774926
-0.539870928259273 0.11350959483188691
-0.5214859152725508 0.11350959483188691
-0.4663308763123844 0.13910658896692424
-0.4295608503389401 0.13910658896692424
-0.4111758373522179 0.06231560656181225
-0.4295608503389401 0.13910658896692424
-0.3927908243654958 0.036718612426774926
-0.3744058113787736 0.011121618291737601
-0.3744058113787736 -0.014475375843299726
-0.3744058113787736 -0.0912663582484117
-0.3744058113787736 -0.06566936411337437
-0.3744058113787736 -0.0912663582484117
-0.3560207983920515 0.036718612426774926
-0.3376357854053293 -0.014475375843299726
-0.300865759431885 0.036718612426774926
-0.2640957334584407 0.036718612426774926
-0.2824807464451628 0.06231560656181225
-0.2824807464451628 0.08791260069684959
-0.24571072047171852 0.036718612426774926
-0.22732570748499636 -0.014475375843299726
-0.2640957334584407 -0.040072369978337054
-0.2824807464451628 -0.11686335238344903
-0.2824807464451628 -0.14246034651848635
-0.2824807464451628 -0.0912663582484117
-0.24571072047171852 -0.06566936411337437
-0.22732570748499636 -0.040072369978337054
-0.1721706685248299 -0.06566936411337437
-0.1354006425513856 0.011121618291737601
-0.09863061657794127 -0.06566936411337437
-0.09863061657794127 -0.06566936411337437
-0.06186059060449695 -0.11686335238344903
-0.08024560359121911 -0.16805734065352368
-0.09863061657794127 -0.21925132892359833
-0.08024560359121911 -0.16805734065352368
-0.06186059060449695 -0.21925132892359833
-0.0434755776177748 -0.16805734065352368
-0.0434755776177748 -0.16805734065352368
0.011679461342391667 -0.16805734065352368
0.06683450030255814 -0.14246034651848635
0.1219895392627246 -0.0912663582484117
0.14037455224944675 -0.14246034651848635
0.14037455224944675 -0.193654334788561
0.1587595652361689 -0.14246034651848635
0.17714457822289106 -0.24484832305863566
0.23229961718305753 -0.21925132892359833
0.1587595652361689 -0.270445317193673
0.23229961718305753 -0.32163930546374764
0.26906964315650184 -0.29604231132871034
0.26906964315650184 -0.270445317193673
0.30583966912994615 -0.29604231132871034
0.37937972107683476 -0.24484832305863566
0.43453476003700126 -0.21925132892359833
0.47130478601044556 -0.347236299598785
0.4896897989971677 -0.347236299598785
0.5448448379573342 -0.3728332937338223
0.5632298509440563 -0.42402728200389694
0.5632298509440563 -0.4752212702739716
0.5999998769175007 -0.4496242761389343
0.6183848899042228 -0.5008182644090089
0.6551549158776672 -0.5264152585440462
0.7103099548378335 -0.5008182644090089
0.7838500067847222 -0.5008182644090089
0.8573900587316108 -0.4752212702739716
0.8941600847050551 -0.5008182644090089
0.9860851496386659 -0.5008182644090089
1.004470162625388 -0.5520122526790836
1.0780102145722767 -0.5776092468141208
1.0963952275589988 -0.6799972233542702
1.1331652535324432 -0.6799972233542702
1.1515502665191653 -0.7567882057593822
1.1515502665191653 -0.7823851998944195
1.1699352795058875 -0.7311912116243449
1.2067053054793317 -0.7567882057593822
1.2986303704129425 -0.7823851998944195
1.3905554353465532 -0.7311912116243449
1.4273254613199977 -0.7055942174893075
1.464095487293442 -0.7055942174893075
1.4457104743067197 -0.7567882057593822
1.5008655132668862 -0.7567882057593822
1.5008655132668862 -0.8079821940294568
1.5008655132668862 -0.9103701705696061
1.5008655132668862 -0.8335791881644942
1.5008655132668862 -0.8847731764345688
1.5560205522270527 -0.9103701705696061
1.592790578200497 -0.8079821940294568
1.6295606041739414 -0.7823851998944195
1.6663306301473857 -0.7823851998944195
1.6663306301473857 -0.7567882057593822
1.7582556950809964 -0.7311912116243449
1.7214856691075522 -0.6799972233542702
1.70310065612083 -0.7311912116243449
1.684715643134108 -0.7567882057593822
1.684715643134108 -0.7567882057593822
1.684715643134108 -0.7823851998944195
1.592790578200497 -0.7311912116243449
1.5560205522270527 -0.6799972233542702
1.5008655132668862 -0.6799972233542702
1.5192505262536085 -0.6032062409491582
1.5192505262536085 -0.5008182644090089
1.464095487293442 -0.4496242761389343
1.4273254613199977 -0.4496242761389343
1.3905554353465532 -0.39843028786885964
1.2986303704129425 -0.347236299598785
1.2067053054793317 -0.42402728200389694
1.0963952275589988 -0.42402728200389694
1.0412401885988325 -0.32163930546374764
0.9125450976917773 -0.29604231132871034
0.8573900587316108 -0.24484832305863566
0.8206200327581665 -0.16805734065352368
0.765464993798 -0.14246034651848635
0.7103099548378335 -0.040072369978337054
0.6367699028909449 0.011121618291737601
0.5816148639307785 0.06231560656181225
0.47130478601044556 0.08791260069684959
0.4529197730237234 0.08791260069684959
0.37937972107683476 0.11350959483188691
0.30583966912994615 0.06231560656181225
0.19552959120961322 0.06231560656181225
0.14037455224944675 0.16470358310196156
0.10360452627600245 0.13910658896692424
0.04844948731583598 0.1903005772369989
0.04844948731583598 0.21589757137203622
0.030064474329113824 0.24149456550707354
0.011679461342391667 0.3182855479121855
-0.025090564631052643 0.3182855479121855
-0.06186059060449695 0.34388254204722285
-0.06186059060449695 0.3950765303172975
-0.08024560359121911 0.26709155964211084
-0.15378565553810775 0.3182855479121855
-0.19055568151155206 0.2926885537771482
-0.2089406944982742 0.2926885537771482
-0.22732570748499636 0.2926885537771482
-0.2089406944982742 0.34388254204722285
-0.19055568151155206 0.36947953618226015
-0.2089406944982742 0.36947953618226015
-0.15378565553810775 0.47186751272240945
-0.15378565553810775 0.3950765303172975
-0.19055568151155206 0.4206735244523348
-0.15378565553810775 0.34388254204722285
-0.24571072047171852 0.2926885537771482
-0.24571072047171852 0.34388254204722285
-0.2824807464451628 0.24149456550707354
-0.24571072047171852 0.2926885537771482
-0.300865759431885 0.2926885537771482
-0.2640957334584407 0.3182855479121855
-0.24571072047171852 0.34388254204722285
-0.2824807464451628 0.34388254204722285
-0.19055568151155206 0.4206735244523348
-0.2089406944982742 0.4206735244523348
-0.1721706685248299 0.3950765303172975
-0.1354006425513856 0.34388254204722285
-0.1721706685248299 0.26709155964211084
-0.1721706685248299 0.26709155964211084
-0.19055568151155206 0.21589757137203622
-0.2089406944982742 0.24149456550707354
-0.24571072047171852 0.21589757137203622
-0.15378565553810775 0.21589757137203622
-0.1354006425513856 0.26709155964211084
-0.09863061657794127 0.2926885537771482
-0.09863061657794127 0.34388254204722285
-0.11701562956466342 0.3182855479121855
-0.08024560359121911 0.2926885537771482
-0.09863061657794127 0.2926885537771482
-0.11701562956466342 0.26709155964211084
-0.11701562956466342 0.24149456550707354
-0.15378565553810775 0.1903005772369989
-0.19055568151155206 0.11350959483188691
-0.2089406944982742 0.1903005772369989
-0.15378565553810775 0.21589757137203622
-0.2089406944982742 0.26709155964211084
-0.22732570748499636 0.21589757137203622
-0.19055568151155206 0.2926885537771482
-0.1721706685248299 0.3182855479121855
-0.19055568151155206 0.26709155964211084
-0.15378565553810775 0.21589757137203622
-0.15378565553810775 0.1903005772369989
-0.24571072047171852 0.11350959483188691
-0.24571072047171852 0.13910658896692424
-0.24571072047171852 0.11350959483188691
-0.24571072047171852 0.16470358310196156
-0.2640957334584407 0.16470358310196156
-0.24571072047171852 0.24149456550707354
-0.24571072047171852 0.21589757137203622
-0.22732570748499636 0.2926885537771482
-0.1721706685248299 0.26709155964211084
-0.2089406944982742 0.16470358310196156
-0.24571072047171852 0.13910658896692424
-0.2824807464451628 0.13910658896692424
-0.3192507724186071 0.06231560656181225
-0.300865759431885 0.08791260069684959
-0.3560207983920515 0.13910658896692424
-0.3376357854053293 0.08791260069684959
-0.3376357854053293 0.13910658896692424
-0.3560207983920515 0.16470358310196156
-0.3192507724186071 0.16470358310196156
-0.3192507724186071 0.24149456550707354
-0.3192507724186071 0.16470358310196156
-0.3192507724186071 0.21589757137203622
-0.3376357854053293 0.16470358310196156
-0.3560207983920515 0.08791260069684959
-0.3560207983920515 0.036718612426774926
-0.3927908243654958 0.06231560656181225
-0.3927908243654958 0.13910658896692424
-0.4295608503389401 0.08791260069684959
-0.3927908243654958 0.11350959483188691
-0.4111758373522179 0.16470358310196156
-0.3744058113787736 0.1903005772369989
-0.3744058113787736 0.21589757137203622
-0.3376357854053293 0.16470358310196156
-0.3376357854053293 0.26709155964211084
-0.3744058113787736 0.26709155964211084
-0.3744058113787736 0.08791260069684959
-0.4479458633256622 0.036718612426774926
-0.4295608503389401 0.036718612426774926
-0.4663308763123844 0.06231560656181225
-0.4663308763123844 0.06231560656181225
-0.4663308763123844 0.13910658896692424
-0.4295608503389401 0.08791260069684959
-0.4295608503389401 0.13910658896692424
-0.4295608503389401 0.1903005772369989
-0.4295608503389401 0.13910658896692424
-0.4295608503389401 0.16470358310196156
-0.4111758373522179 0.13910658896692424
-0.3744058113787736 0.036718612426774926
-0.3927908243654958 0.036718612426774926
-0.4111758373522179 0.06231560656181225
-0.4663308763123844 0.06231560656181225
-0.4295608503389401 0.036718612426774926
-0.4295608503389401 0.06231560656181225
-0.4295608503389401 0.13910658896692424
-0.4295608503389401 0.16470358310196156
-0.3927908243654958 0.16470358310196156
-0.3560207983920515 0.1903005772369989
-0.3744058113787736 0.16470358310196156
-0.3927908243654958 0.11350959483188691
-0.4295608503389401 0.08791260069684959
-0.4663308763123844 0.08791260069684959
-0.4663308763123844 0.036718612426774926
-0.4479458633256622 0.011121618291737601
-0.4479458633256622 0.08791260069684959
-0.4479458633256622 0.11350959483188691
-0.4295608503389401 0.13910658896692424
-0.3927908243654958 0.13910658896692424
-0.4111758373522179 0.21589757137203622
-0.3744058113787736 0.16470358310196156
-0.3744058113787736 0.11350959483188691
-0.4111758373522179 0.13910658896692424
-0.4663308763123844 0.036718612426774926
-0.4111758373522179 0.06231560656181225
-0.4663308763123844 0.06231560656181225
-0.4663308763123844 0.036718612426774926
-0.4479458633256622 0.06231560656181225
-0.3927908243654958 0.08791260069684959
-0.3927908243654958 0.21589757137203622
-0.3927908243654958 0.24149456550707354
-0.3927908243654958 0.21589757137203622
-0.3376357854053293 0.24149456550707354
-0.3376357854053293 0.36947953618226015
-0.3560207983920515 0.2926885537771482
-0.3560207983920515 0.36947953618226015
-0.2824807464451628 0.34388254204722285
-0.2824807464451628 0.3182855479121855
-0.2824807464451628 0.4206735244523348
-0.22732570748499636 0.44627051858737216
-0.2089406944982742 0.4206735244523348
-0.1721706685248299 0.44627051858737216
-0.1354006425513856 0.34388254204722285
-0.08024560359121911 0.34388254204722285
-0.08024560359121911 0.24149456550707354
-0.0434755776177748 0.21589757137203622
-0.0434755776177748 0.1903005772369989
-0.025090564631052643 0.11350959483188691
0.030064474329113824 0.06231560656181225
0.030064474329113824 -0.040072369978337054
0.10360452627600245 -0.040072369978337054
0.1587595652361689 -0.06566936411337437
0.21391460419633537 -0.06566936411337437
0.287454656143224 -0.014475375843299726
0.30583966912994615 0.06231560656181225
0.30583966912994615 -0.014475375843299726
0.287454656143224 -0.040072369978337054
0.21391460419633537 -0.06566936411337437
0.17714457822289106 -0.11686335238344903
0.10360452627600245 -0.06566936411337437
0.06683450030255814 -0.014475375843299726
0.011679461342391667 -0.040072369978337054
-0.025090564631052643 -0.040072369978337054
-0.0434755776177748 -0.040072369978337054
-0.11701562956466342 -0.040072369978337054
-0.15378565553810775 -0.06566936411337437
-0.1354006425513856 -0.06566936411337437
-0.2089406944982742 -0.040072369978337054
-0.2824807464451628 -0.040072369978337054
-0.3192507724186071 -0.014475375843299726
-0.3560207983920515 -0.0912663582484117
-0.4479458633256622 -0.11686335238344903
-0.5031009022858287 -0.14246034651848635
-0.5031009022858287 -0.21925132892359833
-0.5214859152725508 -0.16805734065352368
-0.48471588929910653 -0.14246034651848635
-0.5214859152725508 -0.16805734065352368
-0.5031009022858287 -0.0912663582484117
-0.4663308763123844 -0.06566936411337437
-0.4663308763123844 -0.040072369978337054
-0.4663308763123844 -0.06566936411337437
-0.4663308763123844 -0.040072369978337054
-0.4663308763123844 -0.06566936411337437
-0.48471588929910653 -0.11686335238344903
-0.48471588929910653 -0.11686335238344903
-0.539870928259273 -0.06566936411337437
-0.5766409542327173 -0.11686335238344903
-0.539870928259273 -0.0912663582484117
-0.539870928259273 -0.06566936411337437
-0.5214859152725508 -0.06566936411337437
-0.5214859152725508 0.011121618291737601
-0.48471588929910653 -0.014475375843299726
-0.4663308763123844 0.011121618291737601
-0.48471588929910653 0.011121618291737601
-0.4663308763123844 -0.040072369978337054
-0.5582559412459952 -0.014475375843299726
-0.5214859152725508 -0.0912663582484117
-0.5582559412459952 0.08791260069684959
-0.6134109802061616 0.1903005772369989
-0.6134109802061616 0.3950765303172975
-0.6685660191663281 0.5486584951275214
-0.8156461230601053 0.6766434658027081
-0.9627262269538825 0.6510464716676707
-1.238501421754715 0.5486584951275214
-1.4223515516219365 0.34388254204722285
-1.36719651266177 0.13910658896692424
-0.9811112399406048 -0.29604231132871034
-0.1721706685248299 -0.5776092468141208
0.9125450976917773 -0.8079821940294568
2.291421071695939 -0.9871611529747181
3.6519120327133785 -1.0127581471097555
4.902092915810485 -0.9615641588396808
5.784573539173149 -0.8335791881644942
6.041963720987258 -0.6799972233542702
5.545568370345761 -0.6032062409491582
4.240232448288488 -0.4752212702739716
2.493656214549883 -0.347236299598785
0.7838500067847222 0.011121618291737601
-0.4295608503389401 0.7278374540727828
-1.0362662789007713 1.4957472781239025
-1.1649613698078263 2.3148510904450967
-1.128191343834382 2.95477594382103
-1.0914213178609378 3.5179098147918513
-1.2201164087679928 3.876267732682374
-1.4407365646086587 4.10664067989771
-1.845206850316546 4.260222644707934
-2.323217187971322 4.413804609518158
-2.7276874736792096 4.592983568463419
-3.0402326944534863 4.567386574328381
-3.260852850294152 4.490595591923269
-3.260852850294152 4.260222644707934
-3.24246783730743 3.9274617209524485
-3.0770027204269303 3.594700797196963
-2.856382564586265 3.185148891036366
-2.580607369785432 2.724402996605694
-2.3048321749846 2.2636571021750225
-1.955516928236879 1.7261202253392385
-1.6981267464227687 1.290971325043604
-1.3488114996750478 0.9326134071530814
-1.0546512918874933 0.6766434658027081
-0.8891861750069939 0.4206735244523348
-0.7972611100733832 0.2926885537771482
-0.7053360451397724 0.26709155964211084
-0.650181006179606 0.1903005772369989
-0.6317959931928838 0.16470358310196156
-0.6317959931928838 0.06231560656181225
-0.6134109802061616 0.011121618291737601
-0.6134109802061616 0.08791260069684959
-0.5766409542327173 0.08791260069684959
-0.5582559412459952 0.011121618291737601
-0.5031009022858287 0.011121618291737601
-0.5031009022858287 0.011121618291737601
-0.5031009022858287 0.036718612426774926
-0.4663308763123844 -0.040072369978337054
-0.4295608503389401 0.011121618291737601
-0.4295608503389401 -0.14246034651848635
-0.4295608503389401 -0.14246034651848635
-0.4111758373522179 -0.16805734065352368
-0.3927908243654958 -0.16805734065352368
-0.3560207983920515 -0.16805734065352368
-0.3376357854053293 -0.16805734065352368
-0.3376357854053293 -0.11686335238344903
-0.3376357854053293 -0.11686335238344903
-0.2640957334584407 -0.0912663582484117
-0.22732570748499636 -0.11686335238344903
-0.19055568151155206 -0.11686335238344903
-0.24571072047171852 -0.16805734065352368
-0.22732570748499636 -0.21925132892359833
-0.22732570748499636 -0.21925132892359833
-0.22732570748499636 -0.24484832305863566
-0.22732570748499636 -0.270445317193673
-0.22732570748499636 -0.29604231132871034
-0.2089406944982742 -0.21925132892359833
-0.1721706685248299 -0.193654334788561
-0.1354006425513856 -0.16805734065352368
-0.08024560359121911 -0.0912663582484117
-0.0434755776177748 -0.193654334788561
-0.025090564631052643 -0.193654334788561
-0.06186059060449695 -0.24484832305863566
-0.0434755776177748 -0.29604231132871034
-0.08024560359121911 -0.32163930546374764
-0.025090564631052643 -0.347236299598785
-0.0434755776177748 -0.347236299598785
-0.006705551644330489 -0.3728332937338223
-0.006705551644330489 -0.3728332937338223
0.06683450030255814 -0.29604231132871034
0.10360452627600245 -0.29604231132871034
0.14037455224944675 -0.21925132892359833
0.14037455224944675 -0.29604231132871034
0.17714457822289106 -0.24484832305863566
0.17714457822289106 -0.3728332937338223
0.21391460419633537 -0.39843028786885964
0.21391460419633537 -0.4496242761389343
0.17714457822289106 -0.4752212702739716
0.21391460419633537 -0.4496242761389343
0.26906964315650184 -0.5008182644090089
0.26906964315650184 -0.4496242761389343
0.37937972107683476 -0.42402728200389694
0.4161497470502791 -0.39843028786885964
0.4896897989971677 -0.347236299598785
0.5448448379573342 -0.39843028786885964
0.5448448379573342 -0.5008182644090089
0.6183848899042228 -0.4752212702739716
0.6551549158776672 -0.5776092468141208
0.7470799808112779 -0.6288032350841956
0.765464993798 -0.6799972233542702
0.7286949678245558 -0.6799972233542702
0.8206200327581665 -0.7055942174893075
0.8573900587316108 -0.7567882057593822
0.9125450976917773 -0.7311912116243449
0.9677001366519438 -0.7311912116243449
1.0412401885988325 -0.7311912116243449
1.1331652535324432 -0.8079821940294568
1.1883202924926097 -0.8079821940294568
1.2067053054793317 -0.8079821940294568
1.2067053054793317 -0.8591761822995315
1.225090318466054 -0.9615641588396808
1.2618603444394982 -0.9871611529747181
1.2986303704129425 -1.0127581471097555
1.3721704223598312 -0.9871611529747181
1.4089404483332755 -0.9871611529747181
1.4824805002801642 -1.0127581471097555
1.5192505262536085 -0.8847731764345688
1.5560205522270527 -0.8847731764345688
1.6295606041739414 -0.8591761822995315
1.6111755911872192 -0.9103701705696061
1.684715643134108 -0.9871611529747181
1.6663306301473857 -0.9871611529747181
1.70310065612083 -1.0383551412447927
1.70310065612083 -0.9871611529747181
1.6663306301473857 -1.06395213537983
1.7214856691075522 -1.06395213537983
1.7766407080677187 -0.9871611529747181
1.7398706820942742 -1.0127581471097555
1.7582556950809964 -0.9103701705696061
1.7950257210544407 -0.9103701705696061
1.7766407080677187 -0.8847731764345688
1.7398706820942742 -0.8847731764345688
1.7214856691075522 -0.9103701705696061
1.7398706820942742 -0.8847731764345688
1.684715643134108 -0.9103701705696061
1.592790578200497 -0.9103701705696061
1.5008655132668862 -0.8079821940294568
1.5008655132668862 -0.8335791881644942
1.464095487293442 -0.8335791881644942
1.4457104743067197 -0.7055942174893075
1.4089404483332755 -0.6288032350841956
1.3905554353465532 -0.5008182644090089
1.3170153833996647 -0.5264152585440462
1.243475331452776 -0.5008182644090089
1.114780240545721 -0.5264152585440462
1.0228551756121103 -0.5008182644090089
0.9493151236652216 -0.4752212702739716
0.8206200327581665 -0.4752212702739716
0.7838500067847222 -0.3728332937338223
0.7470799808112779 -0.32163930546374764
0.6551549158776672 -0.24484832305863566
0.5999998769175007 -0.21925132892359833
0.5448448379573342 -0.11686335238344903
0.47130478601044556 -0.0912663582484117
0.4161497470502791 -0.0912663582484117
0.36099470809011264 -0.14246034651848635
0.34260969510339045 -0.14246034651848635
0.287454656143224 -0.0912663582484117
0.287454656143224 -0.0912663582484117
0.21391460419633537 -0.11686335238344903
0.14037455224944675 -0.0912663582484117
0.10360452627600245 0.011121618291737601
0.04844948731583598 -0.014475375843299726
-0.025090564631052643 0.06231560656181225
-0.006705551644330489 0.11350959483188691
0.04844948731583598 0.11350959483188691
0.04844948731583598 0.13910658896692424
0.030064474329113824 0.16470358310196156
0.011679461342391667 0.11350959483188691
-0.0434755776177748 0.13910658896692424
-0.11701562956466342 0.13910658896692424
-0.1354006425513856 0.11350959483188691
-0.22732570748499636 0.13910658896692424
-0.22732570748499636 0.11350959483188691
-0.2089406944982742 0.16470358310196156
-0.2089406944982742 0.21589757137203622
-0.15378565553810775 0.1903005772369989
-0.1354006425513856 0.2926885537771482
-0.0434755776177748 0.26709155964211084
-0.09863061657794127 0.21589757137203622
-0.08024560359121911 0.13910658896692424
-0.19055568151155206 0.13910658896692424
-0.2089406944982742 0.11350959483188691
-0.24571072047171852 0.13910658896692424
-0.2640957334584407 0.08791260069684959
-0.22732570748499636 0.16470358310196156
-0.19055568151155206 0.16470358310196156
-0.15378565553810775 0.24149456550707354
-0.1354006425513856 0.26709155964211084
-0.06186059060449695 0.2926885537771482
-0.09863061657794127 0.2926885537771482
-0.09863061657794127 0.2926885537771482
-0.1354006425513856 0.21589757137203622
-0.2089406944982742 0.21589757137203622
-0.19055568151155206 0.1903005772369989
-0.19055568151155206 0.13910658896692424
-0.1721706685248299 0.13910658896692424
-0.15378565553810775 0.11350959483188691
-0.15378565553810775 0.13910658896692424
-0.15378565553810775 0.13910658896692424
-0.22732570748499636 0.21589757137203622
-0.2089406944982742 0.21589757137203622
-0.2089406944982742 0.21589757137203622
-0.22732570748499636 0.24149456550707354
-0.19055568151155206 0.16470358310196156
-0.15378565553810775 0.13910658896692424
-0.1354006425513856 0.08791260069684959
-0.15378565553810775 0.06231560656181225
-0.1721706685248299 0.06231560656181225
-0.19055568151155206 0.11350959483188691
-0.2824807464451628 0.13910658896692424
-0.2640957334584407 0.08791260069684959
-0.2640957334584407 0.1903005772369989
-0.22732570748499636 0.16470358310196156
-0.2089406944982742 0.1903005772369989
-0.2089406944982742 0.16470358310196156
-0.15378565553810775 0.16470358310196156
-0.15378565553810775 0.11350959483188691
-0.19055568151155206 0.06231560656181225
-0.2640957334584407 0.036718612426774926
-0.2640957334584407 0.08791260069684959
-0.3192507724186071 0.08791260069684959
-0.3192507724186071 0.08791260069684959
-0.3376357854053293 0.13910658896692424
-0.3192507724186071 0.21589757137203622
-0.3192507724186071 0.21589757137203622
-0.2640957334584407 0.16470358310196156
-0.2640957334584407 0.13910658896692424
-0.2640957334584407 0.11350959483188691
-0.300865759431885 0.11350959483188691
-0.3192507724186071 0.06231560656181225
-0.3744058113787736 0.06231560656181225
-0.3927908243654958 0.036718612426774926
-0.4111758373522179 0.011121618291737601
-0.4295608503389401 0.08791260069684959
-0.4295608503389401 0.06231560656181225
-0.4111758373522179 0.11350959483188691
-0.4111758373522179 0.16470358310196156
-0.3560207983920515 0.06231560656181225
-0.3376357854053293 0.13910658896692424
-0.300865759431885 0.06231560656181225
-0.3376357854053293 0.036718612426774926
-0.3744058113787736 0.011121618291737601
-0.3927908243654958 -0.040072369978337054
-0.3927908243654958 -0.06566936411337437
-0.4111758373522179 -0.014475375843299726
-0.3927908243654958 0.036718612426774926
-0.3560207983920515 0.036718612426774926
-0.3927908243654958 0.13910658896692424
-0.3376357854053293 0.06231560656181225
-0.3376357854053293 0.06231560656181225
-0.3560207983920515 0.036718612426774926
-0.3744058113787736 -0.014475375843299726
-0.4111758373522179 0.036718612426774926
-0.48471588929910653 -0.014475375843299726
-0.5214859152725508 -0.06566936411337437
-0.5214859152725508 -0.014475375843299726
-0.4663308763123844 -0.014475375843299726
-0.4111758373522179 0.036718612426774926
-0.3560207983920515 0.06231560656181225
-0.3560207983920515 0.11350959483188691
-0.3744058113787736 0.08791260069684959
-0.4111758373522179 0.08791260069684959
-0.4479458633256622 0.036718612426774926
-0.4295608503389401 0.06231560656181225
-0.4111758373522179 -0.014475375843299726
-0.4111758373522179 -0.014475375843299726
-0.4295608503389401 -0.040072369978337054
-0.4295608503389401 -0.11686335238344903
-0.4111758373522179 -0.06566936411337437
-0.4479458633256622 -0.06566936411337437
-0.4663308763123844 0.036718612426774926
-0.4663308763123844 0.06231560656181225
-0.3744058113787736 0.08791260069684959
-0.3192507724186071 0.06231560656181225
-0.3560207983920515 0.06231560656181225
-0.3560207983920515 0.011121618291737601
-0.4111758373522179 0.011121618291737601
-0.4295608503389401 0.011121618291737601
-0.4663308763123844 -0.06566936411337437
-0.5031009022858287 -0.06566936411337437
-0.5214859152725508 -0.040072369978337054
-0.5031009022858287 -0.014475375843299726
-0.4295608503389401 -0.014475375843299726
-0.4295608503389401 0.11350959483188691
-0.3376357854053293 0.16470358310196156
-0.2824807464451628 0.11350959483188691
-0.2640957334584407 0.16470358310196156
-0.2824807464451628 0.24149456550707354
-0.300865759431885 0.21589757137203622
-0.2824807464451628 0.2926885537771482
-0.2824807464451628 0.26709155964211084
-0.2824807464451628 0.2926885537771482
-0.3192507724186071 0.3182855479121855
-0.2640957334584407 0.3950765303172975
-0.24571072047171852 0.36947953618226015
-0.2089406944982742 0.36947953618226015
-0.1354006425513856 0.3182855479121855
-0.15378565553810775 0.2926885537771482
-0.08024560359121911 0.2926885537771482
-0.06186059060449695 0.26709155964211084
-0.06186059060449695 0.1903005772369989
-0.0434755776177748 0.13910658896692424
0.030064474329113824 0.08791260069684959
0.10360452627600245 0.011121618291737601
0.17714457822289106 0.011121618291737601
0.19552959120961322 -0.014475375843299726
0.23229961718305753 -0.040072369978337054
0.30583966912994615 0.011121618291737601
0.287454656143224 0.011121618291737601
0.287454656143224 -0.06566936411337437
0.23229961718305753 -0.040072369978337054
0.14037455224944675 -0.014475375843299726
0.04844948731583598 -0.014475375843299726
-0.0434755776177748 0.06231560656181225
-0.1354006425513856 0.08791260069684959
-0.1354006425513856 0.08791260069684959
-0.15378565553810775 0.011121618291737601
-0.19055568151155206 0.036718612426774926
-0.22732570748499636 -0.014475375843299726
-0.2640957334584407 -0.040072369978337054
-0.2824807464451628 0.011121618291737601
-0.3192507724186071 -0.014475375843299726
-0.3560207983920515 -0.014475375843299726
-0.3927908243654958 0.011121618291737601
-0.4295608503389401 -0.014475375843299726
-0.4295608503389401 -0.040072369978337054
-0.48471588929910653 -0.0912663582484117
-0.5214859152725508 -0.14246034651848635
-0.5582559412459952 -0.06566936411337437
-0.5582559412459952 -0.014475375843299726
-0.5766409542327173 0.011121618291737601
-0.6134109802061616 -0.014475375843299726
-0.539870928259273 0.011121618291737601
-0.5214859152725508 -0.0912663582484117
-0.539870928259273 -0.06566936411337437
-0.5031009022858287 -0.040072369978337054
-0.5214859152725508 -0.06566936411337437
-0.5031009022858287 -0.040072369978337054
-0.539870928259273 -0.040072369978337054
-0.5214859152725508 -0.0912663582484117
-0.539870928259273 -0.0912663582484117
-0.5214859152725508 -0.014475375843299726
-0.4663308763123844 0.06231560656181225
-0.48471588929910653 0.08791260069684959
-0.4295608503389401 0.13910658896692424
-0.4111758373522179 0.11350959483188691
-0.5031009022858287 0.1903005772369989
-0.48471588929910653 0.1903005772369989
-0.48471588929910653 0.34388254204722285
-0.539870928259273 0.4206735244523348
-0.7053360451397724 0.5998524833975961
-0.8891861750069939 0.5742554892625588
-1.1649613698078263 0.4974645068574468
-1.36719651266177 0.2926885537771482
-1.36719651266177 0.036718612426774926
-0.9811112399406048 -0.270445317193673
-0.11701562956466342 -0.6288032350841956
1.1331652535324432 -0.9103701705696061
2.6775063444171043 -0.9359671647046435
4.166692396341599 -0.7311912116243449
5.3984882664519835 -0.5008182644090089
6.005193695013815 -0.21925132892359833
5.637493435279372 -0.0912663582484117
4.166692396341599 -0.014475375843299726
2.1443409678021617 0.16470358310196156
0.21391460419633537 0.6510464716676707
-1.128191343834382 1.3165683191786413
-1.7532817853829352 2.084478143229761
-1.8819768762899904 2.9035819555509557
-1.716511759409491 3.492312820656814
-1.6245866944758802 3.876267732682374
-1.6429717074626025 4.183431662302822
-1.9003618892767125 4.362610621248083
-2.3048321749846 4.516192586058307
-2.7276874736792096 4.592983568463419
-3.0402326944534863 4.592983568463419
-3.132157759387097 4.516192586058307
-3.1873127983472633 4.337013627113046
-3.0586177074402086 4.055446691627635
-2.856382564586265 3.6714917796020754
-2.5622223567987104 3.33873085584659
-2.2496771360244336 2.8011939790108062
-1.9003618892767125 2.2124631139049478
-1.5694316555157137 1.598135254664052
-1.2752714477281593 1.0094043895581932
-1.0546512918874933 0.6766434658027081
-0.8708011620202718 0.34388254204722285
-0.7604910840999388 0.1903005772369989
-0.7237210581264946 0.1903005772369989
-0.5950259672194395 0.16470358310196156
-0.5582559412459952 0.1903005772369989
-0.5214859152725508 0.24149456550707354
-0.4663308763123844 0.1903005772369989
-0.4479458633256622 0.11350959483188691
-0.4295608503389401 0.036718612426774926
-0.3744058113787736 0.11350959483188691
-0.4295608503389401 -0.040072369978337054
-0.4295608503389401 -0.040072369978337054
-0.4295608503389401 -0.0912663582484117
-0.5031009022858287 -0.14246034651848635
-0.5214859152725508 -0.16805734065352368
-0.48471588929910653 -0.14246034651848635
-0.4295608503389401 -0.14246034651848635
-0.3192507724186071 -0.11686335238344903
-0.2824807464451628 -0.06566936411337437
-0.2089406944982742 -0.11686335238344903
-0.19055568151155206 -0.11686335238344903
-0.15378565553810775 -0.0912663582484117
-0.19055568151155206 -0.16805734065352368
-0.15378565553810775 -0.16805734065352368
-0.2640957334584407 -0.21925132892359833
-0.2824807464451628 -0.24484832305863566
-0.2824807464451628 -0.24484832305863566
-0.2824807464451628 -0.21925132892359833
-0.2089406944982742 -0.16805734065352368
-0.19055568151155206 -0.193654334788561
-0.15378565553810775 -0.0912663582484117
-0.1354006425513856 -0.16805734065352368
-0.1354006425513856 -0.193654334788561
-0.1354006425513856 -0.21925132892359833
-0.1354006425513856 -0.270445317193673
-0.1354006425513856 -0.24484832305863566
-0.0434755776177748 -0.270445317193673
-0.11701562956466342 -0.32163930546374764
-0.09863061657794127 -0.29604231132871034
-0.11701562956466342 -0.270445317193673
0.011679461342391667 -0.21925132892359833
0.011679461342391667 -0.193654334788561
0.04844948731583598 -0.193654334788561
0.08521951328928029 -0.21925132892359833
0.06683450030255814 -0.24484832305863566
0.04844948731583598 -0.21925132892359833
0.04844948731583598 -0.270445317193673
0.06683450030255814 -0.29604231132871034
0.04844948731583598 -0.347236299598785
0.1587595652361689 -0.347236299598785
0.21391460419633537 -0.39843028786885964
0.26906964315650184 -0.347236299598785
0.30583966912994615 -0.32163930546374764
0.287454656143224 -0.32163930546374764
0.30583966912994615 -0.32163930546374764
0.36099470809011264 -0.32163930546374764
0.39776473406355695 -0.347236299598785
0.43453476003700126 -0.42402728200389694
0.5080748119838898 -0.4752212702739716
0.4896897989971677 -0.5008182644090089
0.5080748119838898 -0.5264152585440462
0.5264598249706121 -0.5776092468141208
0.5080748119838898 -0.6032062409491582
0.4529197730237234 -0.5776092468141208
0.5264598249706121 -0.6288032350841956
0.6183848899042228 -0.6032062409491582
0.6367699028909449 -0.5520122526790836
0.6919249418511114 -0.6288032350841956
0.7103099548378335 -0.6544002292192329
0.765464993798 -0.7055942174893075
0.8022350197714444 -0.7311912116243449
0.8941600847050551 -0.8079821940294568
0.875775071718333 -0.8847731764345688
0.8941600847050551 -0.8591761822995315
0.8941600847050551 -0.9359671647046435
0.9493151236652216 -0.9615641588396808
1.0228551756121103 -0.8591761822995315
1.0780102145722767 -0.8591761822995315
1.114780240545721 -0.8591761822995315
1.2067053054793317 -0.8335791881644942
1.1883202924926097 -0.8335791881644942
1.225090318466054 -0.9103701705696061
1.2618603444394982 -0.9871611529747181
1.2802453574262205 -1.0127581471097555
1.2618603444394982 -0.9871611529747181
1.2802453574262205 -1.0895491295148674
1.2986303704129425 -1.0383551412447927
1.3170153833996647 -1.0127581471097555
1.3721704223598312 -1.06395213537983
1.3721704223598312 -0.9615641588396808
1.4457104743067197 -0.9103701705696061
1.5008655132668862 -0.9871611529747181
1.574405565213775 -1.0383551412447927
1.574405565213775 -1.0383551412447927
1.592790578200497 -1.0895491295148674
1.5560205522270527 -1.1151461236499047
1.592790578200497 -1.0895491295148674
1.574405565213775 -1.06395213537983
1.5376355392403307 -1.06395213537983
1.5192505262536085 -1.0127581471097555
1.574405565213775 -0.9615641588396808
1.5560205522270527 -0.8847731764345688
1.5192505262536085 -0.9359671647046435
1.4824805002801642 -0.8591761822995315
1.4457104743067197 -0.7311912116243449
1.335400396386387 -0.7055942174893075
1.2986303704129425 -0.7311912116243449
1.243475331452776 -0.6799972233542702
1.1515502665191653 -0.7311912116243449
1.0596252015855545 -0.6544002292192329
1.0228551756121103 -0.6032062409491582
0.9677001366519438 -0.5520122526790836
0.875775071718333 -0.4496242761389343
0.8022350197714444 -0.347236299598785
0.765464993798 -0.21925132892359833
0.7286949678245558 -0.193654334788561
0.6183848899042228 -0.193654334788561
0.5448448379573342 -0.11686335238344903
0.47130478601044556 -0.14246034651848635
0.43453476003700126 -0.14246034651848635
0.32422468211666833 -0.0912663582484117
0.2506846301697797 -0.11686335238344903
0.23229961718305753 -0.040072369978337054
0.1587595652361689 -0.014475375843299726
0.1219895392627246 0.06231560656181225
0.06683450030255814 0.08791260069684959
0.04844948731583598 0.13910658896692424
0.06683450030255814 0.1903005772369989
0.011679461342391667 0.13910658896692424
0.04844948731583598 0.11350959483188691
-0.025090564631052643 0.16470358310196156
-0.08024560359121911 0.08791260069684959
-0.11701562956466342 0.06231560656181225
-0.1721706685248299 0.11350959483188691
-0.15378565553810775 0.08791260069684959
-0.15378565553810775 0.11350959483188691
-0.1354006425513856 0.13910658896692424
-0.1721706685248299 0.1903005772369989
-0.11701562956466342 0.24149456550707354
-0.09863061657794127 0.1903005772369989
-0.11701562956466342 0.21589757137203622
-0.09863061657794127 0.08791260069684959
-0.11701562956466342 0.13910658896692424
-0.15378565553810775 0.08791260069684959
-0.15378565553810775 0.11350959483188691
-0.15378565553810775 0.06231560656181225
-0.19055568151155206 0.11350959483188691
-0.11701562956466342 0.08791260069684959
-0.11701562956466342 0.16470358310196156
-0.09863061657794127 0.16470358310196156
-0.06186059060449695 0.24149456550707354
-0.0434755776177748 0.11350959483188691
-0.0434755776177748 0.11350959483188691
-0.006705551644330489 0.06231560656181225
-0.0434755776177748 0.06231560656181225
-0.08024560359121911 -0.014475375843299726
-0.08024560359121911 -0.040072369978337054
-0.09863061657794127 -0.040072369978337054
-0.09863061657794127 0.036718612426774926
-0.11701562956466342 0.036718612426774926
-0.11701562956466342 0.08791260069684959
-0.06186059060449695 0.036718612426774926
-0.06186059060449695 0.06231560656181225
-0.09863061657794127 0.08791260069684959
-0.08024560359121911 0.13910658896692424
-0.06186059060449695 0.06231560656181225
-0.1354006425513856 0.011121618291737601
-0.09863061657794127 -0.014475375843299726
-0.09863061657794127 -0.040072369978337054
-0.11701562956466342 -0.06566936411337437
-0.15378565553810775 -0.06566936411337437
-0.19055568151155206 -0.0912663582484117
-0.1721706685248299 -0.0912663582484117
-0.2089406944982742 -0.040072369978337054
-0.19055568151155206 0.011121618291737601
-0.15378565553810775 0.036718612426774926
-0.19055568151155206 -0.014475375843299726
-0.19055568151155206 -0.014475375843299726
-0.22732570748499636 -0.06566936411337437
-0.2089406944982742 -0.0912663582484117
-0.300865759431885 -0.14246034651848635
-0.2640957334584407 -0.14246034651848635
-0.24571072047171852 -0.14246034651848635
-0.2824807464451628 -0.16805734065352368
-0.2640957334584407 -0.040072369978337054
-0.24571072047171852 -0.014475375843299726
-0.22732570748499636 -0.040072369978337054
-0.2640957334584407 -0.040072369978337054
