-0.7505292238299605 0.5348157274783889
-0.7304977501730902 0.6101251533885999
-0.6804190660309146 0.6703726941167686
-0.6103089082318687 0.7456821200269795
-0.5401987504328228 0.7908677755731061
-0.5401987504328228 0.7908677755731061
-0.5201672767759526 0.7908677755731061
-0.5301830136043877 0.7456821200269795
-0.5301830136043877 0.8059296607551483
-0.5201672767759526 0.8209915459371905
-0.5001358031190823 0.8511153163012748
-0.5001358031190823 0.7607440052090217
-0.5101515399475175 0.7607440052090217
-0.550214487261258 0.7908677755731061
-0.5602302240896931 0.8209915459371905
-0.550214487261258 0.8209915459371905
-0.5401987504328228 0.8511153163012748
-0.5401987504328228 0.8511153163012748
-0.5702459609181282 0.8209915459371905
-0.5902774345749985 0.8209915459371905
-0.6002931714034336 0.8511153163012748
-0.6103089082318687 0.8812390866653592
-0.5602302240896931 0.866177201483317
-0.5702459609181282 0.8511153163012748
-0.6103089082318687 0.866177201483317
-0.630340381888739 0.8511153163012748
-0.6503718555456092 0.866177201483317
-0.630340381888739 0.8812390866653592
-0.6103089082318687 0.9264247422114857
-0.6203246450603038 0.941486627393528
-0.630340381888739 0.8963009718474013
-0.6403561187171741 0.9113628570294435
-0.6603875923740443 0.941486627393528
-0.630340381888739 0.95654851257557
-0.630340381888739 0.941486627393528
-0.630340381888739 0.95654851257557
-0.6403561187171741 0.9866722829396545
-0.6403561187171741 0.941486627393528
-0.6503718555456092 0.9866722829396545
-0.630340381888739 1.0017341681216967
-0.6203246450603038 1.0469198236678232
-0.6103089082318687 1.0619817088498653
-0.6403561187171741 0.9866722829396545
-0.6503718555456092 0.9866722829396545
-0.6503718555456092 0.9866722829396545
-0.6403561187171741 1.0017341681216967
-0.6002931714034336 1.0167960533037388
-0.5802616977465633 0.9866722829396545
-0.5902774345749985 0.9866722829396545
-0.5702459609181282 0.941486627393528
-0.5602302240896931 1.0017341681216967
-0.5301830136043877 1.0017341681216967
-0.5101515399475175 0.9716103977576123
-0.4801043294622121 0.9716103977576123
-0.49012006629064725 0.9264247422114857
-0.470088592633777 0.8963009718474013
-0.45005711897690676 0.941486627393528
-0.40999417166316626 0.9264247422114857
-0.36993122434942577 0.9264247422114857
-0.3298682770356853 0.9113628570294435
-0.33988401386412037 0.866177201483317
-0.30983680337881503 0.866177201483317
-0.27978959289350963 0.8209915459371905
-0.21969517192289892 0.866177201483317
-0.1696164877807233 0.866177201483317
-0.1696164877807233 0.8209915459371905
-0.14958501412385306 0.7758058903910638
-0.11953780363854767 0.7306202348449373
-0.10952206681011255 0.7306202348449373
-0.03941190901106669 0.7456821200269795
0.0006510383026738047 0.7456821200269795
0.040713985616414296 0.7155583496628951
0.030698248787979176 0.6703726941167686
0.05072972244484942 0.6402489237526843
0.09079266975858992 0.6402489237526843
0.1308556170723304 0.6402489237526843
0.1709185643860709 0.6553108089347264
0.18093430121450602 0.5950632682065576
0.19095003804294114 0.5197538422963468
0.20096577487137626 0.4896300719322624
0.2209972485282465 0.5046919571143046
0.2510444590135519 0.4896300719322624
0.3011231431557275 0.4896300719322624
0.3011231431557275 0.4143206460220515
0.2810916694988573 0.3992587608400093
0.3011231431557275 0.3691349904759249
0.32115461681259777 0.35407310529388275
0.341186090469468 0.35407310529388275
0.37123330095477336 0.33901122011184054
0.37123330095477336 0.3239493349297984
0.37123330095477336 0.2787636793836718
0.3812490377832085 0.2034542534734609
0.3512018272979031 0.23357802383754528
0.37123330095477336 0.23357802383754528
0.41129624826851385 0.2185161386555031
0.3912647746116436 0.17333048310937654
0.37123330095477336 0.15826859792733436
0.3812490377832085 0.11308294238120781
0.37123330095477336 0.11308294238120781
0.37123330095477336 0.14320671274529218
0.3812490377832085 0.15826859792733436
0.3912647746116436 0.09802105719916562
0.3512018272979031 0.11308294238120781
0.341186090469468 0.06789728683508126
0.32115461681259777 0.06789728683508126
0.341186090469468 0.11308294238120781
0.36121756412633826 0.11308294238120781
0.36121756412633826 0.11308294238120781
0.33117035364103287 0.052835401653039064
0.33117035364103287 0.08295917201712344
0.33117035364103287 0.11308294238120781
0.341186090469468 0.15826859792733436
0.3812490377832085 0.17333048310937654
0.3512018272979031 0.15826859792733436
0.3111388799841626 0.12814482756325
0.3111388799841626 0.12814482756325
0.3011231431557275 0.08295917201712344
0.32115461681259777 0.15826859792733436
0.32115461681259777 0.15826859792733436
0.3011231431557275 0.12814482756325
0.2510444590135519 0.12814482756325
0.23101298535668163 0.052835401653039064
0.24102872218511676 0.06789728683508126
0.26106019584198703 0.06789728683508126
0.2911074063272924 0.11308294238120781
0.3111388799841626 0.052835401653039064
0.33117035364103287 0.06789728683508126
0.3111388799841626 0.06789728683508126
0.341186090469468 0.06789728683508126
0.3512018272979031 0.08295917201712344
0.3812490377832085 0.09802105719916562
0.37123330095477336 0.09802105719916562
0.36121756412633826 0.06789728683508126
0.3812490377832085 0.08295917201712344
0.3512018272979031 0.09802105719916562
0.3512018272979031 0.14320671274529218
0.37123330095477336 0.14320671274529218
0.3812490377832085 0.11308294238120781
0.3812490377832085 0.03777351647099688
0.36121756412633826 0.03777351647099688
0.3812490377832085 0.06789728683508126
0.421311985096949 0.12814482756325
0.44134345875381925 0.14320671274529218
0.421311985096949 0.12814482756325
0.3812490377832085 0.08295917201712344
0.3011231431557275 0.09802105719916562
0.23101298535668163 0.06789728683508126
0.1709185643860709 0.12814482756325
0.14087135390076552 0.11308294238120781
0.0807769329301548 0.11308294238120781
0.030698248787979176 0.08295917201712344
-0.049427645839501815 0.09802105719916562
-0.05944338266793694 0.11308294238120781
-0.05944338266793694 0.14320671274529218
-0.029396172182631564 0.12814482756325
-0.049427645839501815 0.14320671274529218
-0.06945911949637205 0.09802105719916562
-0.0894905931532423 0.06789728683508126
-0.09950632998167742 0.08295917201712344
-0.0894905931532423 0.12814482756325
-0.06945911949637205 0.11308294238120781
-0.06945911949637205 0.11308294238120781
-0.09950632998167742 0.0227116312889547
-0.0894905931532423 0.0227116312889547
-0.07947485632480718 0.052835401653039064
-0.05944338266793694 0.11308294238120781
-0.05944338266793694 0.052835401653039064
-0.05944338266793694 0.09802105719916562
-0.05944338266793694 0.052835401653039064
-0.06945911949637205 0.0227116312889547
-0.05944338266793694 0.0227116312889547
-0.049427645839501815 0.08295917201712344
-0.029396172182631564 0.052835401653039064
-0.029396172182631564 0.03777351647099688
-0.029396172182631564 0.007649746106912516
-0.05944338266793694 -0.052597794621256216
-0.05944338266793694 -0.007412139075129668
-0.03941190901106669 0.03777351647099688
-0.03941190901106669 0.007649746106912516
-0.05944338266793694 -0.007412139075129668
-0.029396172182631564 -0.03753590943921403
-0.06945911949637205 -0.03753590943921403
-0.049427645839501815 0.007649746106912516
-0.049427645839501815 -0.007412139075129668
-0.01938043535419644 0.03777351647099688
-0.029396172182631564 -0.03753590943921403
-0.03941190901106669 -0.022474024257171852
-0.049427645839501815 -0.03753590943921403
-0.03941190901106669 -0.007412139075129668
-0.00936469852576132 -0.022474024257171852
0.010666775131108927 -0.03753590943921403
-0.00936469852576132 -0.007412139075129668
-0.00936469852576132 -0.0676596798032984
-0.00936469852576132 -0.11284533534942495
0.0006510383026738047 -0.022474024257171852
0.020682511959544052 0.007649746106912516
0.030698248787979176 -0.022474024257171852
0.010666775131108927 -0.007412139075129668
0.0006510383026738047 -0.007412139075129668
-0.03941190901106669 0.0227116312889547
-0.03941190901106669 0.06789728683508126
-0.09950632998167742 0.17333048310937654
-0.07947485632480718 0.24863990901958746
-0.0894905931532423 0.293825564565714
-0.029396172182631564 0.2787636793836718
0.11082414341546017 0.23357802383754528
0.3912647746116436 0.12814482756325
0.741815563606873 -0.03753590943921403
1.0322719316314914 -0.2634641871698468
1.312712562827675 -0.5647018908106904
1.5230430362248126 -0.8960633648156185
1.6933105623082096 -1.2123629536385043
1.9136567725337823 -1.4684150017332216
2.2441760878721415 -1.920271557194487
2.5847111400389355 -2.477561308930048
2.9052147185488595 -3.080036716211735
3.195671086573478 -3.562017042037085
3.4160172967990508 -3.8331309753138445
3.5362061387402726 -3.893378516042013
3.566253349225578 -3.8481928604958866
3.5762690860540127 -3.8180690901318024
3.4560802441127914 -3.637326467947296
3.2157025602303486 -3.471645730944832
2.8250888239213787 -3.2607793383962416
2.374380666641798 -2.989665405119482
2.0138141408181336 -2.748675242206807
1.6632633518229043 -2.5378088496582167
1.3527755101414154 -2.296818686745542
0.9821932474893159 -2.14619983492512
0.5415008270381705 -1.9805190979226557
0.0807769329301548 -1.829900246102234
-0.2898053297219448 -1.588910083189559
-0.5602302240896931 -1.4834768869152637
-0.8106236448005711 -1.3479199202768841
-1.0810485391683196 -1.2876723795487153
-1.2312845915948463 -1.1370535277282934
-1.3214262230507625 -1.0014965610899138
-1.3514734335360679 -0.8960633648156185
-1.3214262230507625 -0.7906301685413232
-1.3114104862223273 -0.7303826278131544
-1.3013947493938922 -0.7002588574490701
-1.3013947493938922 -0.6400113167209014
-1.3013947493938922 -0.5044543500825217
-1.2613318020801518 -0.3839592686261843
-1.1611744337958005 -0.2634641871698468
-1.0710328023398843 -0.18815476125963587
-1.0009226445408386 -0.14296910571350932
-0.9107810130849224 -0.08272156498534058
-0.8807338025996171 -0.007412139075129668
-0.8206393816290063 0.14320671274529218
-0.7705606974868306 0.18839236829141873
-0.7405134870015253 0.24863990901958746
-0.7004505396877848 0.2185161386555031
-0.6603875923740443 0.26370179420162965
-0.6103089082318687 0.293825564565714
-0.550214487261258 0.3992587608400093
-0.5301830136043877 0.3691349904759249
-0.5101515399475175 0.42938253120409364
-0.5201672767759526 0.3841968756579671
-0.5201672767759526 0.33901122011184054
-0.550214487261258 0.3841968756579671
-0.5101515399475175 0.3691349904759249
-0.5101515399475175 0.42938253120409364
-0.49012006629064725 0.42938253120409364
-0.5301830136043877 0.3841968756579671
-0.5401987504328228 0.35407310529388275
-0.550214487261258 0.42938253120409364
-0.5802616977465633 0.4745681867502202
-0.5401987504328228 0.459506301568178
-0.5802616977465633 0.42938253120409364
-0.5802616977465633 0.42938253120409364
-0.6403561187171741 0.44444441638613585
-0.6503718555456092 0.44444441638613585
-0.630340381888739 0.5046919571143046
-0.630340381888739 0.4745681867502202
-0.6203246450603038 0.4896300719322624
-0.630340381888739 0.4745681867502202
-0.6603875923740443 0.4745681867502202
-0.6704033292024795 0.4745681867502202
-0.6603875923740443 0.5498776126604311
-0.6403561187171741 0.5498776126604311
-0.6403561187171741 0.5348157274783889
-0.6603875923740443 0.4896300719322624
-0.6704033292024795 0.5046919571143046
-0.6704033292024795 0.5348157274783889
-0.6503718555456092 0.5498776126604311
-0.6203246450603038 0.5800013830245155
-0.6203246450603038 0.5649394978424733
-0.630340381888739 0.5348157274783889
-0.6403561187171741 0.5348157274783889
-0.6002931714034336 0.5498776126604311
-0.5902774345749985 0.5649394978424733
-0.5602302240896931 0.5800013830245155
-0.5702459609181282 0.5649394978424733
-0.5702459609181282 0.5348157274783889
-0.550214487261258 0.5046919571143046
-0.5602302240896931 0.5197538422963468
-0.5201672767759526 0.5197538422963468
-0.49012006629064725 0.5800013830245155
-0.470088592633777 0.5348157274783889
-0.470088592633777 0.44444441638613585
-0.46007285580534185 0.44444441638613585
-0.4400413821484716 0.459506301568178
-0.37994696117786086 0.459506301568178
-0.33988401386412037 0.4745681867502202
-0.3498997506925555 0.44444441638613585
-0.33988401386412037 0.4143206460220515
-0.30983680337881503 0.3691349904759249
-0.27978959289350963 0.3691349904759249
-0.23972664557976917 0.3841968756579671
-0.19966369826602867 0.3691349904759249
-0.1696164877807233 0.3239493349297984
-0.1696164877807233 0.2787636793836718
-0.14958501412385306 0.26370179420162965
-0.1295535404669828 0.24863990901958746
-0.07947485632480718 0.26370179420162965
-0.01938043535419644 0.26370179420162965
-0.01938043535419644 0.2034542534734609
0.040713985616414296 0.17333048310937654
0.030698248787979176 0.14320671274529218
0.07076119610171967 0.14320671274529218
0.09079266975858992 0.14320671274529218
0.1709185643860709 0.14320671274529218
0.19095003804294114 0.08295917201712344
0.18093430121450602 0.03777351647099688
0.20096577487137626 -0.022474024257171852
0.21098151169981139 -0.03753590943921403
0.26106019584198703 -0.022474024257171852
0.3111388799841626 -0.022474024257171852
0.33117035364103287 -0.0676596798032984
0.33117035364103287 -0.11284533534942495
0.33117035364103287 -0.1580309908955515
0.3512018272979031 -0.1730928760775937
0.40128051144007876 -0.1580309908955515
0.41129624826851385 -0.20321664644167806
0.3912647746116436 -0.21827853162372024
0.3812490377832085 -0.2634641871698468
0.3812490377832085 -0.2935879575339312
0.36121756412633826 -0.32371172789801556
0.36121756412633826 -0.2935879575339312
0.37123330095477336 -0.30864984271597334
0.37123330095477336 -0.3538354982620999
0.32115461681259777 -0.3839592686261843
0.3111388799841626 -0.4291449241723108
0.3011231431557275 -0.41408303899026866
0.3111388799841626 -0.39902115380822645
0.341186090469468 -0.3839592686261843
0.32115461681259777 -0.39902115380822645
0.2810916694988573 -0.444206809354353
0.2911074063272924 -0.444206809354353
0.2710759326704221 -0.444206809354353
0.2710759326704221 -0.3839592686261843
0.2911074063272924 -0.39902115380822645
0.2810916694988573 -0.39902115380822645
0.2710759326704221 -0.4743305797184374
0.26106019584198703 -0.4592686945363952
0.2510444590135519 -0.41408303899026866
0.26106019584198703 -0.39902115380822645
0.3111388799841626 -0.3688973834441421
0.33117035364103287 -0.3688973834441421
0.3111388799841626 -0.41408303899026866
0.2911074063272924 -0.444206809354353
0.2911074063272924 -0.41408303899026866
0.3011231431557275 -0.30864984271597334
0.33117035364103287 -0.3839592686261843
0.33117035364103287 -0.3839592686261843
0.2710759326704221 -0.444206809354353
0.26106019584198703 -0.4592686945363952
0.23101298535668163 -0.4592686945363952
0.2710759326704221 -0.41408303899026866
0.3111388799841626 -0.444206809354353
0.33117035364103287 -0.39902115380822645
0.341186090469468 -0.4592686945363952
0.3512018272979031 -0.4592686945363952
0.37123330095477336 -0.444206809354353
0.37123330095477336 -0.41408303899026866
0.3912647746116436 -0.39902115380822645
0.37123330095477336 -0.41408303899026866
0.36121756412633826 -0.4592686945363952
0.3512018272979031 -0.4592686945363952
0.341186090469468 -0.4743305797184374
0.36121756412633826 -0.41408303899026866
0.3912647746116436 -0.4291449241723108
0.3912647746116436 -0.4291449241723108
0.37123330095477336 -0.4743305797184374
0.36121756412633826 -0.5345781204466061
0.3812490377832085 -0.48939246490047955
0.4313277219253841 -0.4592686945363952
0.45135919558225435 -0.4592686945363952
0.44134345875381925 -0.444206809354353
0.37123330095477336 -0.4592686945363952
0.33117035364103287 -0.4743305797184374
0.2710759326704221 -0.4743305797184374
0.20096577487137626 -0.4291449241723108
0.19095003804294114 -0.41408303899026866
0.1308556170723304 -0.41408303899026866
0.0807769329301548 -0.4592686945363952
0.030698248787979176 -0.4592686945363952
-0.01938043535419644 -0.41408303899026866
-0.01938043535419644 -0.39902115380822645
0.0006510383026738047 -0.41408303899026866
-0.00936469852576132 -0.444206809354353
-0.029396172182631564 -0.4592686945363952
-0.07947485632480718 -0.4592686945363952
-0.07947485632480718 -0.4743305797184374
-0.06945911949637205 -0.4291449241723108
-0.05944338266793694 -0.444206809354353
-0.0894905931532423 -0.4592686945363952
-0.05944338266793694 -0.48939246490047955
-0.07947485632480718 -0.5345781204466061
-0.09950632998167742 -0.4592686945363952
-0.05944338266793694 -0.4291449241723108
-0.049427645839501815 -0.4743305797184374
-0.05944338266793694 -0.4592686945363952
-0.06945911949637205 -0.5044543500825217
-0.06945911949637205 -0.5345781204466061
-0.06945911949637205 -0.5044543500825217
-0.049427645839501815 -0.5044543500825217
-0.029396172182631564 -0.48939246490047955
-0.03941190901106669 -0.48939246490047955
-0.029396172182631564 -0.5345781204466061
-0.049427645839501815 -0.5496400056286482
-0.049427645839501815 -0.5195162352645639
-0.03941190901106669 -0.5044543500825217
-0.01938043535419644 -0.5195162352645639
-0.00936469852576132 -0.5195162352645639
-0.029396172182631564 -0.5345781204466061
-0.029396172182631564 -0.5647018908106904
-0.029396172182631564 -0.5345781204466061
0.0006510383026738047 -0.5496400056286482
0.020682511959544052 -0.5044543500825217
0.020682511959544052 -0.5345781204466061
0.0006510383026738047 -0.5647018908106904
-0.00936469852576132 -0.5948256611747749
0.010666775131108927 -0.5496400056286482
0.020682511959544052 -0.5044543500825217
0.030698248787979176 -0.5496400056286482
0.010666775131108927 -0.5496400056286482
0.020682511959544052 -0.5797637759927327
0.010666775131108927 -0.609887546356817
0.020682511959544052 -0.5647018908106904
0.040713985616414296 -0.5345781204466061
0.05072972244484942 -0.5647018908106904
0.030698248787979176 -0.5647018908106904
0.0006510383026738047 -0.5345781204466061
0.010666775131108927 -0.5496400056286482
-0.01938043535419644 -0.4592686945363952
-0.049427645839501815 -0.3688973834441421
-0.05944338266793694 -0.30864984271597334
-0.07947485632480718 -0.2484023019878046
-0.06945911949637205 -0.2634641871698468
0.06074545927328454 -0.23334041680576242
0.2510444590135519 -0.3387736130800577
0.5715480375234758 -0.5044543500825217
0.9020673528618349 -0.6851969722670279
1.1825079840580184 -0.9412490203617451
1.392838457455156 -1.2726104943666732
1.5831374571954233 -1.5587863128254746
1.7634207201072556 -1.8148383609201917
2.063892824960309 -2.131137949743078
2.364364929813363 -2.688427701478638
2.6748527714948516 -3.230655568032157
2.935261929034165 -3.7427596642215915
3.1556081392597375 -4.134368678954688
3.2958284548578294 -4.300049415957152
3.3759543494853106 -4.315111301139194
3.3959858231421807 -4.254863760411025
3.3258756653431347 -4.14943056413673
3.2157025602303486 -4.043997367862435
2.9452776658626 -3.893378516042013
2.53463245589676 -3.6222645827652538
2.204113140558401 -3.32102687912441
1.8936252988769122 -3.1101604865758197
1.5931531940238584 -2.929417864391313
1.2726496155139344 -2.763737127388849
0.9521460370040106 -2.598056390386385
0.5314850902097353 -2.387189997837795
0.10080840658702504 -2.221509260835331
-0.21969517192289892 -2.025704753468782
-0.5001358031190823 -1.9353334423765292
-0.7505292238299605 -1.844962131284276
-0.9808911708839683 -1.754590820192023
-1.12111148648206 -1.588910083189559
-1.1912216442811059 -1.4533531165511793
-1.2212688547664112 -1.3780436906409683
-1.2212688547664112 -1.3177961499127997
-1.2112531179379762 -1.3027342647307574
-1.201237381109541 -1.1973010684564622
-1.1912216442811059 -1.1069297573642092
-1.1511586969673653 -1.016558446271956
-1.1311272233104952 -0.8810014796335763
-1.0209541181977089 -0.7755682833592811
-0.9708754340555331 -0.7454445129951967
-0.8807338025996171 -0.7002588574490701
-0.8006079079721361 -0.5948256611747749
-0.7705606974868306 -0.4743305797184374
-0.7004505396877848 -0.41408303899026866
-0.6904348028593497 -0.3538354982620999
-0.6403561187171741 -0.3387736130800577
-0.6002931714034336 -0.278526072351889
-0.550214487261258 -0.2634641871698468
-0.5001358031190823 -0.20321664644167806
-0.470088592633777 -0.1730928760775937
-0.46007285580534185 -0.14296910571350932
-0.45005711897690676 -0.18815476125963587
-0.45005711897690676 -0.14296910571350932
-0.45005711897690676 -0.1580309908955515
-0.46007285580534185 -0.12790722053146714
-0.40999417166316626 -0.12790722053146714
-0.45005711897690676 -0.09778345016738277
-0.470088592633777 -0.12790722053146714
-0.5001358031190823 -0.14296910571350932
-0.49012006629064725 -0.08272156498534058
-0.49012006629064725 -0.08272156498534058
-0.4801043294622121 -0.0676596798032984
-0.5201672767759526 -0.022474024257171852
-0.5301830136043877 -0.052597794621256216
-0.5301830136043877 -0.03753590943921403
-0.5401987504328228 -0.03753590943921403
-0.5301830136043877 -0.022474024257171852
-0.5101515399475175 0.007649746106912516
-0.5201672767759526 0.0227116312889547
-0.5802616977465633 -0.022474024257171852
-0.5802616977465633 -0.08272156498534058
-0.5702459609181282 -0.022474024257171852
-0.5602302240896931 0.03777351647099688
-0.550214487261258 0.052835401653039064
-0.5602302240896931 0.03777351647099688
-0.5902774345749985 0.0227116312889547
-0.5802616977465633 0.06789728683508126
-0.6103089082318687 0.052835401653039064
-0.5902774345749985 0.09802105719916562
-0.5802616977465633 0.11308294238120781
-0.5602302240896931 0.08295917201712344
-0.6002931714034336 0.08295917201712344
-0.6103089082318687 0.052835401653039064
-0.6002931714034336 0.09802105719916562
-0.5602302240896931 0.14320671274529218
-0.5401987504328228 0.14320671274529218
-0.5201672767759526 0.09802105719916562
-0.5401987504328228 0.08295917201712344
-0.5201672767759526 0.052835401653039064
-0.5101515399475175 0.052835401653039064
-0.45005711897690676 0.11308294238120781
-0.42000990849160136 0.08295917201712344
-0.42000990849160136 0.11308294238120781
-0.389962698006296 0.03777351647099688
-0.40999417166316626 0.03777351647099688
-0.37994696117786086 0.052835401653039064
-0.3298682770356853 0.06789728683508126
-0.26977385606507454 0.06789728683508126
-0.2497423824082043 0.052835401653039064
-0.22971090875133404 0.007649746106912516
-0.19966369826602867 -0.052597794621256216
-0.17963222460915843 -0.03753590943921403
-0.13956927729541793 -0.007412139075129668
-0.05944338266793694 -0.0676596798032984
-0.049427645839501815 -0.08272156498534058
-0.03941190901106669 -0.14296910571350932
-0.029396172182631564 -0.1730928760775937
-0.01938043535419644 -0.14296910571350932
0.030698248787979176 -0.14296910571350932
0.09079266975858992 -0.1580309908955515
0.12083988024389529 -0.18815476125963587
0.12083988024389529 -0.23334041680576242
0.14087135390076552 -0.2484023019878046
0.16090282755763577 -0.278526072351889
0.2209972485282465 -0.278526072351889
0.2510444590135519 -0.30864984271597334
0.2911074063272924 -0.3387736130800577
0.3011231431557275 -0.3688973834441421
0.3011231431557275 -0.444206809354353
0.33117035364103287 -0.4291449241723108
0.3512018272979031 -0.4291449241723108
0.40128051144007876 -0.4291449241723108
0.41129624826851385 -0.5044543500825217
0.41129624826851385 -0.5345781204466061
0.3912647746116436 -0.5797637759927327
0.421311985096949 -0.5797637759927327
0.4313277219253841 -0.5797637759927327
0.4713906692391246 -0.609887546356817
0.4613749324106895 -0.609887546356817
0.45135919558225435 -0.6701350870849857
0.44134345875381925 -0.7002588574490701
0.4613749324106895 -0.7153207426311123
0.48140640606755974 -0.6550732019029436
0.49142214289599484 -0.6701350870849857
0.49142214289599484 -0.7303826278131544
0.4613749324106895 -0.7454445129951967
0.44134345875381925 -0.7906301685413232
0.44134345875381925 -0.7454445129951967
0.4313277219253841 -0.7755682833592811
0.4713906692391246 -0.7454445129951967
0.44134345875381925 -0.7454445129951967
0.3912647746116436 -0.7755682833592811
0.36121756412633826 -0.7906301685413232
0.37123330095477336 -0.7906301685413232
0.37123330095477336 -0.7153207426311123
0.3912647746116436 -0.7303826278131544
0.37123330095477336 -0.7153207426311123
0.36121756412633826 -0.7755682833592811
0.37123330095477336 -0.7755682833592811
0.40128051144007876 -0.7303826278131544
0.41129624826851385 -0.6851969722670279
0.4313277219253841 -0.6851969722670279
0.421311985096949 -0.6701350870849857
0.40128051144007876 -0.7454445129951967
0.3912647746116436 -0.7454445129951967
0.3812490377832085 -0.7153207426311123
0.40128051144007876 -0.7002588574490701
0.3912647746116436 -0.6701350870849857
0.40128051144007876 -0.7454445129951967
0.40128051144007876 -0.7755682833592811
0.40128051144007876 -0.8056920537233654
0.44134345875381925 -0.7605063981772389
0.48140640606755974 -0.7303826278131544
0.5214693533813002 -0.7153207426311123
0.5314850902097353 -0.7454445129951967
0.49142214289599484 -0.7605063981772389
0.48140640606755974 -0.7605063981772389
0.4613749324106895 -0.7454445129951967
0.48140640606755974 -0.7002588574490701
0.48140640606755974 -0.6701350870849857
0.4613749324106895 -0.6851969722670279
0.44134345875381925 -0.6851969722670279
0.40128051144007876 -0.7153207426311123
0.4313277219253841 -0.7002588574490701
0.4313277219253841 -0.7002588574490701
0.48140640606755974 -0.7303826278131544
0.4713906692391246 -0.7153207426311123
0.48140640606755974 -0.7303826278131544
0.4613749324106895 -0.7153207426311123
0.44134345875381925 -0.7153207426311123
0.4313277219253841 -0.6550732019029436
0.3812490377832085 -0.6701350870849857
0.3111388799841626 -0.6851969722670279
0.23101298535668163 -0.7153207426311123
0.19095003804294114 -0.7605063981772389
0.1308556170723304 -0.7002588574490701
0.12083988024389529 -0.7002588574490701
0.10080840658702504 -0.6851969722670279
0.06074545927328454 -0.6701350870849857
0.020682511959544052 -0.6701350870849857
-0.00936469852576132 -0.6851969722670279
-0.01938043535419644 -0.6851969722670279
-0.00936469852576132 -0.6400113167209014
0.010666775131108927 -0.6851969722670279
0.0006510383026738047 -0.6701350870849857
-0.01938043535419644 -0.6701350870849857
0.0006510383026738047 -0.7153207426311123
-0.029396172182631564 -0.7303826278131544
-0.00936469852576132 -0.7002588574490701
0.020682511959544052 -0.6851969722670279
0.020682511959544052 -0.7002588574490701
0.0006510383026738047 -0.7454445129951967
-0.029396172182631564 -0.7303826278131544
-0.00936469852576132 -0.7303826278131544
0.010666775131108927 -0.6851969722670279
0.040713985616414296 -0.7153207426311123
-0.00936469852576132 -0.6851969722670279
0.010666775131108927 -0.7605063981772389
-0.00936469852576132 -0.7605063981772389
0.0006510383026738047 -0.7755682833592811
-0.00936469852576132 -0.7454445129951967
0.030698248787979176 -0.7303826278131544
0.010666775131108927 -0.7303826278131544
0.020682511959544052 -0.7454445129951967
-0.00936469852576132 -0.7755682833592811
0.020682511959544052 -0.7605063981772389
0.0006510383026738047 -0.7454445129951967
0.06074545927328454 -0.7303826278131544
0.040713985616414296 -0.7002588574490701
0.020682511959544052 -0.7605063981772389
0.010666775131108927 -0.7605063981772389
-0.00936469852576132 -0.7755682833592811
0.030698248787979176 -0.7303826278131544
0.07076119610171967 -0.7303826278131544
0.07076119610171967 -0.7153207426311123
0.030698248787979176 -0.7755682833592811
0.040713985616414296 -0.7755682833592811
0.040713985616414296 -0.7605063981772389
0.05072972244484942 -0.7454445129951967
0.11082414341546017 -0.7303826278131544
0.10080840658702504 -0.7454445129951967
0.0807769329301548 -0.7605063981772389
0.10080840658702504 -0.7755682833592811
0.06074545927328454 -0.7303826278131544
0.10080840658702504 -0.7454445129951967
0.12083988024389529 -0.7002588574490701
0.10080840658702504 -0.7153207426311123
0.07076119610171967 -0.7153207426311123
0.020682511959544052 -0.6249494315388592
-0.029396172182631564 -0.5797637759927327
-0.05944338266793694 -0.5195162352645639
-0.05944338266793694 -0.4291449241723108
-0.05944338266793694 -0.3839592686261843
-0.03941190901106669 -0.39902115380822645
0.0807769329301548 -0.39902115380822645
0.2810916694988573 -0.5345781204466061
0.581563774351911 -0.6550732019029436
0.8519886687196593 -0.8358158240874498
1.1224135630874077 -1.0918678721821669
1.32272829965611 -1.3931055758230106
1.472964352082637 -1.6491576239177277
1.6632633518229043 -1.8600240164663182
1.953719719847523 -2.161261720107162
2.2541918247005768 -2.598056390386385
2.544648192725195 -3.155346142121946
2.805057350264508 -3.712635893857507
3.0554507709753866 -4.1644924493187725
3.285812718029394 -4.390420727049405
3.4861274545980967 -4.450668267777574
3.566253349225578 -4.4958539233237005
3.5762690860540127 -4.4958539233237005
3.5762690860540127 -4.480792038141658
3.516174665083402 -4.360296956685321
3.4160172967990508 -4.1644924493187725
3.1455924024313027 -3.9536260567701818
2.805057350264508 -3.727697779039549
2.454506561269279 -3.546955156855043
2.1940974037299656 -3.381274419852579
1.8535623515631716 -3.170408027303988
1.5330587730532477 -3.004727290301524
1.242602405028629 -2.823984668117018
0.9220988265187051 -2.598056390386385
0.45135919558225435 -2.402251883019837
0.010666775131108927 -2.311880571927584
-0.2998210665503799 -2.161261720107162
-0.5702459609181282 -2.01064286828674
-0.8206393816290063 -1.8901477868304026
-0.9909069077124034 -1.7696527053740652
-1.1812059074526708 -1.6642195090997698
-1.2613318020801518 -1.5738481980075167
-1.3114104862223273 -1.5136006572793481
-1.3013947493938922 -1.4382912313691372
-1.2713475389085869 -1.3027342647307574
-1.2112531179379762 -1.2575486091846309
-1.201237381109541 -1.1671772980923778
-1.2212688547664112 -1.1069297573642092
-1.2212688547664112 -1.0617441018180824
-1.1611744337958005 -0.9412490203617451
-1.0610170655114493 -0.8207539389054076
-0.9408282235702278 -0.7153207426311123
-0.8607023289427468 -0.6701350870849857
-0.8006079079721361 -0.6249494315388592
-0.7805764343152658 -0.5797637759927327
-0.7605449606583956 -0.4592686945363952
-0.7204820133446551 -0.3839592686261843
-0.630340381888739 -0.30864984271597334
-0.5902774345749985 -0.2634641871698468
-0.5301830136043877 -0.23334041680576242
-0.5201672767759526 -0.2634641871698468
-0.4801043294622121 -0.18815476125963587
-0.470088592633777 -0.1730928760775937
-0.4300256453200365 -0.14296910571350932
-0.42000990849160136 -0.1730928760775937
-0.4400413821484716 -0.20321664644167806
-0.45005711897690676 -0.20321664644167806
-0.470088592633777 -0.14296910571350932
-0.4400413821484716 -0.12790722053146714
-0.4400413821484716 -0.14296910571350932
-0.45005711897690676 -0.12790722053146714
-0.46007285580534185 -0.1580309908955515
-0.49012006629064725 -0.14296910571350932
-0.5101515399475175 -0.12790722053146714
-0.5101515399475175 -0.0676596798032984
-0.5001358031190823 -0.09778345016738277
-0.5101515399475175 -0.0676596798032984
-0.5201672767759526 -0.09778345016738277
-0.550214487261258 -0.08272156498534058
-0.550214487261258 -0.0676596798032984
-0.5602302240896931 -0.03753590943921403
-0.550214487261258 -0.03753590943921403
-0.550214487261258 -0.007412139075129668
-0.5602302240896931 -0.007412139075129668
-0.6002931714034336 -0.03753590943921403
-0.5902774345749985 -0.007412139075129668
-0.6002931714034336 0.03777351647099688
-0.5602302240896931 0.052835401653039064
-0.5802616977465633 0.06789728683508126
-0.6002931714034336 0.06789728683508126
-0.6103089082318687 0.007649746106912516
-0.6203246450603038 0.06789728683508126
-0.6203246450603038 0.11308294238120781
-0.5602302240896931 0.14320671274529218
-0.5902774345749985 0.09802105719916562
-0.6002931714034336 0.09802105719916562
-0.5802616977465633 0.11308294238120781
-0.6203246450603038 0.11308294238120781
-0.5802616977465633 0.12814482756325
-0.5602302240896931 0.12814482756325
-0.5702459609181282 0.18839236829141873
-0.5602302240896931 0.11308294238120781
-0.5602302240896931 0.12814482756325
-0.550214487261258 0.12814482756325
-0.5201672767759526 0.15826859792733436
-0.5001358031190823 0.15826859792733436
-0.49012006629064725 0.17333048310937654
-0.470088592633777 0.09802105719916562
-0.46007285580534185 0.11308294238120781
-0.46007285580534185 0.17333048310937654
-0.4300256453200365 0.15826859792733436
-0.37994696117786086 0.12814482756325
-0.36993122434942577 0.15826859792733436
-0.3498997506925555 0.08295917201712344
-0.3198525402072501 0.06789728683508126
-0.3198525402072501 0.08295917201712344
-0.2998210665503799 0.08295917201712344
-0.23972664557976917 0.09802105719916562
-0.21969517192289892 0.09802105719916562
-0.19966369826602867 0.007649746106912516
-0.18964796143759355 -0.007412139075129668
-0.14958501412385306 -0.007412139075129668
-0.10952206681011255 0.0227116312889547
-0.07947485632480718 -0.007412139075129668
-0.06945911949637205 -0.007412139075129668
-0.01938043535419644 -0.052597794621256216
0.0006510383026738047 -0.052597794621256216
0.040713985616414296 -0.08272156498534058
0.0807769329301548 -0.052597794621256216
0.11082414341546017 -0.09778345016738277
0.12083988024389529 -0.14296910571350932
0.14087135390076552 -0.1580309908955515
0.1709185643860709 -0.20321664644167806
0.18093430121450602 -0.18815476125963587
0.2209972485282465 -0.1580309908955515
0.2510444590135519 -0.1730928760775937
0.2911074063272924 -0.21827853162372024
0.32115461681259777 -0.2634641871698468
0.3011231431557275 -0.3387736130800577
0.33117035364103287 -0.30864984271597334
0.3512018272979031 -0.30864984271597334
0.41129624826851385 -0.3387736130800577
0.41129624826851385 -0.3538354982620999
0.41129624826851385 -0.3688973834441421
0.41129624826851385 -0.41408303899026866
0.4313277219253841 -0.444206809354353
0.421311985096949 -0.444206809354353
0.4613749324106895 -0.444206809354353
0.4713906692391246 -0.4592686945363952
0.4613749324106895 -0.5044543500825217
0.4613749324106895 -0.5345781204466061
0.45135919558225435 -0.5044543500825217
0.48140640606755974 -0.5195162352645639
0.49142214289599484 -0.5195162352645639
0.49142214289599484 -0.5345781204466061
0.48140640606755974 -0.5797637759927327
0.4613749324106895 -0.5948256611747749
0.4613749324106895 -0.5797637759927327
0.45135919558225435 -0.5647018908106904
0.4713906692391246 -0.5948256611747749
0.44134345875381925 -0.5797637759927327
0.4313277219253841 -0.6249494315388592
0.41129624826851385 -0.6400113167209014
0.40128051144007876 -0.6400113167209014
0.40128051144007876 -0.6400113167209014
0.4313277219253841 -0.609887546356817
0.40128051144007876 -0.5948256611747749
0.3912647746116436 -0.6400113167209014
0.37123330095477336 -0.609887546356817
0.36121756412633826 -0.609887546356817
0.3812490377832085 -0.5948256611747749
0.421311985096949 -0.5647018908106904
0.40128051144007876 -0.5345781204466061
0.40128051144007876 -0.5797637759927327
0.41129624826851385 -0.5647018908106904
0.40128051144007876 -0.5345781204466061
0.41129624826851385 -0.5044543500825217
0.4313277219253841 -0.5044543500825217
0.40128051144007876 -0.5496400056286482
0.4313277219253841 -0.5647018908106904
0.3812490377832085 -0.5797637759927327
0.36121756412633826 -0.5496400056286482
0.37123330095477336 -0.5496400056286482
0.341186090469468 -0.5496400056286482
0.3512018272979031 -0.5948256611747749
0.3512018272979031 -0.609887546356817
0.36121756412633826 -0.5948256611747749
0.3812490377832085 -0.6249494315388592
0.421311985096949 -0.5496400056286482
0.48140640606755974 -0.5345781204466061
0.4613749324106895 -0.5195162352645639
0.4613749324106895 -0.5647018908106904
0.45135919558225435 -0.5948256611747749
0.4313277219253841 -0.5647018908106904
0.421311985096949 -0.5195162352645639
0.45135919558225435 -0.48939246490047955
0.4613749324106895 -0.5195162352645639
0.421311985096949 -0.5345781204466061
0.41129624826851385 -0.5195162352645639
0.3912647746116436 -0.5044543500825217
0.44134345875381925 -0.5044543500825217
0.4613749324106895 -0.5195162352645639
0.45135919558225435 -0.5345781204466061
0.4613749324106895 -0.5647018908106904
0.45135919558225435 -0.5797637759927327
0.4613749324106895 -0.5496400056286482
0.4713906692391246 -0.5044543500825217
0.45135919558225435 -0.48939246490047955
0.4313277219253841 -0.4743305797184374
0.3812490377832085 -0.48939246490047955
0.3111388799841626 -0.5195162352645639
0.2510444590135519 -0.5195162352645639
0.20096577487137626 -0.48939246490047955
0.20096577487137626 -0.4592686945363952
0.16090282755763577 -0.4743305797184374
0.07076119610171967 -0.48939246490047955
0.05072972244484942 -0.5044543500825217
0.010666775131108927 -0.4743305797184374
0.020682511959544052 -0.41408303899026866
0.030698248787979176 -0.4291449241723108
0.020682511959544052 -0.4291449241723108
0.010666775131108927 -0.444206809354353
0.010666775131108927 -0.4743305797184374
-0.029396172182631564 -0.4743305797184374
-0.01938043535419644 -0.4592686945363952
0.0006510383026738047 -0.4592686945363952
-0.03941190901106669 -0.4743305797184374
0.0006510383026738047 -0.48939246490047955
-0.029396172182631564 -0.4592686945363952
-0.03941190901106669 -0.48939246490047955
-0.029396172182631564 -0.48939246490047955
-0.00936469852576132 -0.444206809354353
-0.00936469852576132 -0.4743305797184374
-0.01938043535419644 -0.5044543500825217
0.0006510383026738047 -0.5496400056286482
-0.00936469852576132 -0.5044543500825217
0.010666775131108927 -0.48939246490047955
0.010666775131108927 -0.4592686945363952
0.020682511959544052 -0.4743305797184374
0.010666775131108927 -0.5345781204466061
-0.01938043535419644 -0.5345781204466061
-0.00936469852576132 -0.5044543500825217
0.0006510383026738047 -0.4743305797184374
0.040713985616414296 -0.4743305797184374
0.020682511959544052 -0.4743305797184374
-0.00936469852576132 -0.5345781204466061
-0.00936469852576132 -0.5195162352645639
0.0006510383026738047 -0.5044543500825217
0.010666775131108927 -0.5044543500825217
0.06074545927328454 -0.48939246490047955
0.040713985616414296 -0.5044543500825217
0.05072972244484942 -0.48939246490047955
0.020682511959544052 -0.5496400056286482
0.030698248787979176 -0.48939246490047955
0.06074545927328454 -0.4743305797184374
0.06074545927328454 -0.4743305797184374
0.07076119610171967 -0.48939246490047955
0.07076119610171967 -0.5195162352645639
0.030698248787979176 -0.5345781204466061
0.040713985616414296 -0.5044543500825217
0.07076119610171967 -0.4592686945363952
0.10080840658702504 -0.444206809354353
0.0807769329301548 -0.4743305797184374
0.07076119610171967 -0.5195162352645639
0.0807769329301548 -0.48939246490047955
0.05072972244484942 -0.48939246490047955
0.10080840658702504 -0.4291449241723108
0.1308556170723304 -0.4592686945363952
0.10080840658702504 -0.4743305797184374
0.0807769329301548 -0.4743305797184374
0.09079266975858992 -0.4743305797184374
0.05072972244484942 -0.3839592686261843
0.040713985616414296 -0.3538354982620999
0.020682511959544052 -0.2935879575339312
-0.03941190901106669 -0.2484023019878046
-0.06945911949637205 -0.1730928760775937
-0.07947485632480718 -0.14296910571350932
-0.049427645839501815 -0.11284533534942495
0.09079266975858992 -0.12790722053146714
0.341186090469468 -0.21827853162372024
0.5915795111803461 -0.3538354982620999
0.8319571950627891 -0.5345781204466061
1.0623191421167968 -0.7454445129951967
1.2726496155139344 -0.9864346759078716
1.4629486152542017 -1.2123629536385043
1.643231878166034 -1.4081674610050527
1.8435466147347366 -1.6943432794638542
2.134002982759355 -2.070890409014909
2.3944121402986682 -2.552870734840259
2.6648370346664167 -3.049912945847651
2.9753248763479054 -3.5318932716730007
3.2557655075440888 -3.9235022864060976
3.4660959809412266 -4.179554334500814
3.5963005597108832 -4.300049415957152
3.6363635070246234 -4.345235071503279
3.6664107175099288 -4.315111301139194
3.6964579279952345 -4.224739990046941
3.6864421911667993 -4.134368678954688
3.5562376123971426 -3.9988117123163085
3.285812718029394 -3.8180690901318024
2.875167508063554 -3.6072026975832117
2.4845537717545843 -3.3662125346705367
2.224144614215271 -3.1101604865758197
1.9336882461906526 -2.9444797495733557
1.6232004045091637 -2.733613357024765
1.3026968259992397 -2.62818016075047
0.9321145633471403 -2.462499423748006
0.5314850902097353 -2.2817568015634992
0.16090282755763577 -2.131137949743078
-0.11953780363854767 -1.9353334423765292
-0.389962698006296 -1.829900246102234
-0.5902774345749985 -1.754590820192023
-0.8406708552858766 -1.6642195090997698
-1.0610170655114493 -1.5738481980075167
-1.2112531179379762 -1.4081674610050527
-1.2513160652517166 -1.3177961499127997
-1.2713475389085869 -1.2274248388205466
-1.3114104862223273 -1.2123629536385043
-1.3214262230507625 -1.1219916425462513
-1.3013947493938922 -1.0316203314539982
-1.2713475389085869 -0.9412490203617451
-1.2513160652517166 -0.8508777092694919
-1.2312845915948463 -0.7906301685413232
-1.2212688547664112 -0.7605063981772389
-1.1912216442811059 -0.6400113167209014
-1.1010800128251899 -0.5044543500825217
-0.9909069077124034 -0.4291449241723108
-0.9207967499133576 -0.3387736130800577
-0.8506865921143116 -0.32371172789801556
-0.8206393816290063 -0.2484023019878046
-0.8006079079721361 -0.21827853162372024
-0.7805764343152658 -0.09778345016738277
-0.71046627651622 -0.022474024257171852
-0.6503718555456092 -0.022474024257171852
-0.6103089082318687 0.03777351647099688
-0.5702459609181282 0.052835401653039064
-0.5702459609181282 0.06789728683508126
-0.550214487261258 0.11308294238120781
-0.5201672767759526 0.15826859792733436
-0.49012006629064725 0.14320671274529218
-0.470088592633777 0.17333048310937654
-0.4801043294622121 0.11308294238120781
-0.49012006629064725 0.09802105719916562
-0.5001358031190823 0.11308294238120781
-0.49012006629064725 0.17333048310937654
-0.5001358031190823 0.17333048310937654
-0.5001358031190823 0.18839236829141873
-0.5201672767759526 0.18839236829141873
-0.5301830136043877 0.15826859792733436
-0.5301830136043877 0.2034542534734609
-0.5401987504328228 0.24863990901958746
-0.550214487261258 0.2185161386555031
-0.550214487261258 0.26370179420162965
-0.550214487261258 0.26370179420162965
-0.5802616977465633 0.2034542534734609
-0.6002931714034336 0.26370179420162965
-0.5702459609181282 0.293825564565714
-0.5602302240896931 0.2787636793836718
-0.5602302240896931 0.3239493349297984
-0.6002931714034336 0.3239493349297984
-0.6002931714034336 0.293825564565714
-0.6203246450603038 0.30888744974775617
-0.6002931714034336 0.33901122011184054
-0.5802616977465633 0.33901122011184054
-0.6002931714034336 0.3691349904759249
-0.6103089082318687 0.3841968756579671
-0.6203246450603038 0.3691349904759249
-0.630340381888739 0.3691349904759249
-0.6103089082318687 0.4143206460220515
-0.6103089082318687 0.42938253120409364
-0.6203246450603038 0.42938253120409364
-0.6203246450603038 0.3841968756579671
-0.630340381888739 0.3992587608400093
-0.630340381888739 0.4143206460220515
-0.6403561187171741 0.4143206460220515
-0.6002931714034336 0.459506301568178
-0.5802616977465633 0.4745681867502202
-0.5902774345749985 0.44444441638613585
-0.6002931714034336 0.42938253120409364
-0.5802616977465633 0.42938253120409364
-0.5702459609181282 0.4745681867502202
-0.5201672767759526 0.459506301568178
-0.5201672767759526 0.4745681867502202
-0.5201672767759526 0.44444441638613585
-0.5201672767759526 0.4143206460220515
-0.5001358031190823 0.4143206460220515
-0.46007285580534185 0.44444441638613585
-0.42000990849160136 0.4143206460220515
-0.42000990849160136 0.42938253120409364
-0.36993122434942577 0.3992587608400093
-0.3498997506925555 0.3841968756579671
-0.3599154875209906 0.3841968756579671
-0.2998210665503799 0.3992587608400093
-0.2497423824082043 0.3841968756579671
-0.22971090875133404 0.35407310529388275
-0.2497423824082043 0.3239493349297984
-0.19966369826602867 0.2787636793836718
-0.1696164877807233 0.3239493349297984
-0.11953780363854767 0.30888744974775617
-0.07947485632480718 0.293825564565714
-0.06945911949637205 0.23357802383754528
-0.03941190901106669 0.23357802383754528
-0.00936469852576132 0.2034542534734609
0.010666775131108927 0.23357802383754528
0.06074545927328454 0.2185161386555031
0.0807769329301548 0.17333048310937654
0.1308556170723304 0.17333048310937654
0.12083988024389529 0.11308294238120781
0.16090282755763577 0.09802105719916562
0.18093430121450602 0.09802105719916562
0.2209972485282465 0.08295917201712344
0.23101298535668163 0.09802105719916562
0.2710759326704221 0.08295917201712344
0.26106019584198703 -0.007412139075129668
0.2810916694988573 -0.022474024257171852
0.2911074063272924 -0.022474024257171852
0.341186090469468 -0.0676596798032984
0.3812490377832085 -0.03753590943921403
0.3812490377832085 -0.08272156498534058
0.41129624826851385 -0.08272156498534058
0.3912647746116436 -0.1580309908955515
0.40128051144007876 -0.1580309908955515
0.421311985096949 -0.14296910571350932
0.4613749324106895 -0.14296910571350932
0.4613749324106895 -0.18815476125963587
0.44134345875381925 -0.21827853162372024
0.44134345875381925 -0.278526072351889
0.44134345875381925 -0.23334041680576242
0.44134345875381925 -0.2484023019878046
0.4713906692391246 -0.2484023019878046
0.48140640606755974 -0.2935879575339312
0.4613749324106895 -0.30864984271597334
0.421311985096949 -0.3387736130800577
0.421311985096949 -0.30864984271597334
0.4313277219253841 -0.278526072351889
0.45135919558225435 -0.278526072351889
0.4313277219253841 -0.2484023019878046
0.40128051144007876 -0.32371172789801556
0.37123330095477336 -0.30864984271597334
0.37123330095477336 -0.32371172789801556
0.3512018272979031 -0.278526072351889
0.36121756412633826 -0.30864984271597334
0.3812490377832085 -0.30864984271597334
0.37123330095477336 -0.2935879575339312
0.341186090469468 -0.30864984271597334
0.36121756412633826 -0.2634641871698468
0.37123330095477336 -0.2484023019878046
0.40128051144007876 -0.23334041680576242
0.41129624826851385 -0.21827853162372024
0.3912647746116436 -0.20321664644167806
0.37123330095477336 -0.23334041680576242
0.3512018272979031 -0.20321664644167806
0.3512018272979031 -0.1730928760775937
0.37123330095477336 -0.18815476125963587
0.37123330095477336 -0.1730928760775937
0.3512018272979031 -0.2634641871698468
0.3011231431557275 -0.2935879575339312
0.2911074063272924 -0.2634641871698468
0.32115461681259777 -0.2484023019878046
0.341186090469468 -0.21827853162372024
0.3812490377832085 -0.21827853162372024
0.41129624826851385 -0.2634641871698468
0.421311985096949 -0.2484023019878046
0.3912647746116436 -0.21827853162372024
0.4313277219253841 -0.20321664644167806
0.421311985096949 -0.20321664644167806
0.41129624826851385 -0.20321664644167806
0.41129624826851385 -0.21827853162372024
0.41129624826851385 -0.18815476125963587
0.40128051144007876 -0.20321664644167806
0.41129624826851385 -0.09778345016738277
0.41129624826851385 -0.14296910571350932
0.421311985096949 -0.11284533534942495
0.41129624826851385 -0.1580309908955515
0.3812490377832085 -0.20321664644167806
0.3912647746116436 -0.23334041680576242
0.44134345875381925 -0.1730928760775937
0.4613749324106895 -0.1580309908955515
0.45135919558225435 -0.1580309908955515
0.40128051144007876 -0.1580309908955515
0.36121756412633826 -0.21827853162372024
0.3011231431557275 -0.20321664644167806
0.23101298535668163 -0.11284533534942495
0.19095003804294114 -0.14296910571350932
0.18093430121450602 -0.14296910571350932
0.11082414341546017 -0.12790722053146714
0.06074545927328454 -0.11284533534942495
0.010666775131108927 -0.08272156498534058
-0.01938043535419644 -0.022474024257171852
0.010666775131108927 -0.03753590943921403
0.0006510383026738047 -0.03753590943921403
-0.00936469852576132 -0.0676596798032984
-0.03941190901106669 -0.0676596798032984
-0.03941190901106669 -0.08272156498534058
-0.049427645839501815 -0.052597794621256216
-0.029396172182631564 -0.03753590943921403
-0.029396172182631564 -0.08272156498534058
-0.03941190901106669 -0.09778345016738277
-0.05944338266793694 -0.09778345016738277
-0.049427645839501815 -0.0676596798032984
-0.01938043535419644 -0.052597794621256216
-0.00936469852576132 -0.0676596798032984
-0.01938043535419644 -0.08272156498534058
-0.029396172182631564 -0.08272156498534058
-0.049427645839501815 -0.09778345016738277
-0.049427645839501815 -0.052597794621256216
-0.029396172182631564 -0.022474024257171852
-0.00936469852576132 -0.052597794621256216
-0.029396172182631564 -0.08272156498534058
-0.03941190901106669 -0.08272156498534058
-0.03941190901106669 -0.08272156498534058
-0.01938043535419644 -0.0676596798032984
-0.029396172182631564 -0.0676596798032984
0.0006510383026738047 -0.03753590943921403
-0.00936469852576132 -0.08272156498534058
-0.01938043535419644 -0.09778345016738277
-0.03941190901106669 -0.09778345016738277
-0.029396172182631564 -0.09778345016738277
-0.00936469852576132 -0.0676596798032984
0.010666775131108927 -0.022474024257171852
0.020682511959544052 -0.03753590943921403
0.010666775131108927 -0.08272156498534058
0.0006510383026738047 -0.0676596798032984
0.010666775131108927 -0.03753590943921403
0.020682511959544052 -0.007412139075129668
0.06074545927328454 0.007649746106912516
0.010666775131108927 -0.022474024257171852
0.030698248787979176 -0.052597794621256216
0.010666775131108927 -0.03753590943921403
0.010666775131108927 -0.022474024257171852
0.040713985616414296 0.0227116312889547
0.05072972244484942 -0.007412139075129668
0.05072972244484942 -0.007412139075129668
0.040713985616414296 -0.03753590943921403
0.07076119610171967 -0.052597794621256216
0.020682511959544052 -0.007412139075129668
0.040713985616414296 0.03777351647099688
0.09079266975858992 0.052835401653039064
0.05072972244484942 0.08295917201712344
0.040713985616414296 0.052835401653039064
-0.00936469852576132 0.11308294238120781
-0.05944338266793694 0.17333048310937654
-0.05944338266793694 0.2787636793836718
-0.01938043535419644 0.35407310529388275
0.0006510383026738047 0.3841968756579671
0.040713985616414296 0.3691349904759249
0.16090282755763577 0.3239493349297984
0.40128051144007876 0.24863990901958746
0.6717054058078271 0.12814482756325
0.9521460370040106 -0.03753590943921403
1.2225709313717588 -0.2634641871698468
1.4529328784257667 -0.609887546356817
1.633216141337599 -0.8358158240874498
1.793467930592561 -1.0316203314539982
2.0037984039896983 -1.2424867240025887
2.294254772014317 -1.6340957387356856
2.5646796663820655 -2.055828523832867
2.7950416134360734 -2.5378088496582167
3.025403560490081 -3.0197891754835666
3.2757969812009593 -3.3662125346705367
3.496143191426532 -3.5921408124011696
3.6263477701961886 -3.6674502383113805
3.6363635070246234 -3.6825121234934226
3.6163320333677533 -3.6825121234934226
3.5963005597108832 -3.652388353129338
3.5362061387402726 -3.486707616126874
3.3959858231421807 -3.3511506494884946
3.1355766656028674 -3.1101604865758197
2.714915718808592 -2.929417864391313
2.3343177193280575 -2.673365816296596
1.9937826671612633 -2.49262319411209
1.6632633518229043 -2.296818686745542
1.3527755101414154 -2.1160760645610353
1.072334878945232 -1.9353334423765292
0.6817211426362622 -1.754590820192023
0.2710759326704221 -1.6190338535536433
-0.09950632998167742 -1.4834768869152637
-0.40999417166316626 -1.3479199202768841
-0.6603875923740443 -1.1521154129103357
-0.8306551184574414 -1.0918678721821669
-1.0710328023398843 -0.9864346759078716
-1.2513160652517166 -0.8960633648156185
-1.361489170364503 -0.7906301685413232
-1.3915363808498082 -0.6701350870849857
-1.3815206440213732 -0.5797637759927327
-1.3514734335360679 -0.5195162352645639
-1.3114104862223273 -0.41408303899026866
-1.3114104862223273 -0.3839592686261843
-1.3013947493938922 -0.32371172789801556
-1.3114104862223273 -0.2484023019878046
-1.281363275737022 -0.08272156498534058
-1.201237381109541 -0.052597794621256216
-1.12111148648206 0.03777351647099688
-1.030969855026144 0.09802105719916562
-0.9808911708839683 0.14320671274529218
-0.9207967499133576 0.26370179420162965
-0.8506865921143116 0.3239493349297984
-0.8206393816290063 0.3841968756579671
-0.790592171143701 0.459506301568178
-0.790592171143701 0.459506301568178
-0.7405134870015253 0.5348157274783889
-0.7004505396877848 0.5800013830245155
-0.6403561187171741 0.6251870385706421
-0.5602302240896931 0.6553108089347264
-0.5702459609181282 0.6854345792988108
-0.5702459609181282 0.6854345792988108
-0.550214487261258 0.6854345792988108
-0.5602302240896931 0.700496464480853
-0.5301830136043877 0.7456821200269795
-0.5001358031190823 0.7607440052090217
-0.5101515399475175 0.7607440052090217
-0.5201672767759526 0.7155583496628951
-0.5301830136043877 0.7306202348449373
-0.550214487261258 0.7758058903910638
-0.5401987504328228 0.7908677755731061
-0.5301830136043877 0.7758058903910638
-0.5201672767759526 0.8209915459371905
-0.550214487261258 0.7908677755731061
-0.5902774345749985 0.7908677755731061
-0.5802616977465633 0.8059296607551483
-0.5902774345749985 0.866177201483317
-0.5602302240896931 0.9113628570294435
-0.5802616977465633 0.8812390866653592
-0.6002931714034336 0.8511153163012748
-0.630340381888739 0.8812390866653592
-0.6002931714034336 0.9113628570294435
-0.5902774345749985 0.9264247422114857
-0.6002931714034336 0.9264247422114857
-0.6203246450603038 0.9716103977576123
-0.6203246450603038 0.95654851257557
-0.630340381888739 0.8963009718474013
-0.6603875923740443 0.941486627393528
-0.6603875923740443 1.0167960533037388
-0.6203246450603038 1.0167960533037388
-0.630340381888739 1.0167960533037388
-0.6403561187171741 0.9866722829396545
-0.6704033292024795 0.941486627393528
-0.6503718555456092 1.0017341681216967
-0.6503718555456092 1.0469198236678232
-0.6103089082318687 1.0318579384857811
-0.5902774345749985 1.0619817088498653
-0.6103089082318687 1.0167960533037388
-0.6403561187171741 1.0469198236678232
-0.6103089082318687 1.0167960533037388
-0.5802616977465633 1.0770435940319076
-0.5902774345749985 1.0921054792139497
-0.5902774345749985 1.0770435940319076
-0.5902774345749985 1.0619817088498653
-0.5902774345749985 1.0469198236678232
-0.5802616977465633 1.0469198236678232
-0.5401987504328228 1.1372911347600763
-0.5101515399475175 1.1071673643959918
-0.49012006629064725 1.0469198236678232
-0.470088592633777 1.0318579384857811
-0.45005711897690676 1.0167960533037388
-0.4801043294622121 1.0619817088498653
-0.40999417166316626 1.0619817088498653
-0.36993122434942577 1.0469198236678232
-0.3498997506925555 1.0318579384857811
-0.33988401386412037 1.0167960533037388
-0.30983680337881503 0.9866722829396545
-0.27978959289350963 1.0017341681216967
-0.27978959289350963 0.9866722829396545
-0.19966369826602867 1.0017341681216967
-0.19966369826602867 0.9866722829396545
-0.18964796143759355 0.95654851257557
-0.15960075095228818 0.9113628570294435
-0.1696164877807233 0.9264247422114857
-0.10952206681011255 0.9113628570294435
-0.029396172182631564 0.8812390866653592
-0.03941190901106669 0.9113628570294435
-0.00936469852576132 0.8360534311192326
0.010666775131108927 0.8059296607551483
0.020682511959544052 0.8209915459371905
0.07076119610171967 0.8209915459371905
0.10080840658702504 0.8059296607551483
0.12083988024389529 0.7908677755731061
0.1709185643860709 0.7607440052090217
0.19095003804294114 0.6854345792988108
0.20096577487137626 0.6703726941167686
0.2510444590135519 0.7306202348449373
0.2810916694988573 0.700496464480853
0.2810916694988573 0.700496464480853
0.2810916694988573 0.6251870385706421
0.2810916694988573 0.5800013830245155
0.3011231431557275 0.5800013830245155
0.341186090469468 0.6101251533885999
0.37123330095477336 0.5348157274783889
0.37123330095477336 0.5649394978424733
0.3812490377832085 0.459506301568178
0.40128051144007876 0.44444441638613585
0.40128051144007876 0.459506301568178
0.40128051144007876 0.4745681867502202
0.41129624826851385 0.44444441638613585
0.3812490377832085 0.4143206460220515
0.3812490377832085 0.3691349904759249
0.40128051144007876 0.35407310529388275
0.37123330095477336 0.3691349904759249
0.40128051144007876 0.3841968756579671
0.40128051144007876 0.3841968756579671
0.40128051144007876 0.33901122011184054
0.36121756412633826 0.30888744974775617
0.32115461681259777 0.26370179420162965
0.32115461681259777 0.293825564565714
0.341186090469468 0.3239493349297984
0.37123330095477336 0.33901122011184054
0.3512018272979031 0.3239493349297984
0.33117035364103287 0.30888744974775617
0.2911074063272924 0.2787636793836718
0.2810916694988573 0.30888744974775617
0.32115461681259777 0.35407310529388275
0.341186090469468 0.3841968756579671
0.37123330095477336 0.3841968756579671
0.37123330095477336 0.35407310529388275
0.3512018272979031 0.35407310529388275
0.3512018272979031 0.4143206460220515
0.3512018272979031 0.3841968756579671
0.37123330095477336 0.42938253120409364
0.36121756412633826 0.3992587608400093
0.32115461681259777 0.35407310529388275
0.2911074063272924 0.3239493349297984
0.26106019584198703 0.293825564565714
0.2710759326704221 0.30888744974775617
0.32115461681259777 0.3691349904759249
0.36121756412633826 0.33901122011184054
0.37123330095477336 0.30888744974775617
0.3812490377832085 0.293825564565714
0.36121756412633826 0.33901122011184054
0.3912647746116436 0.35407310529388275
0.4313277219253841 0.35407310529388275
0.421311985096949 0.35407310529388275
0.40128051144007876 0.3239493349297984
0.3912647746116436 0.33901122011184054
0.36121756412633826 0.33901122011184054
0.3912647746116436 0.3992587608400093
0.421311985096949 0.3992587608400093
0.4313277219253841 0.3992587608400093
0.41129624826851385 0.30888744974775617
0.3912647746116436 0.30888744974775617
0.40128051144007876 0.3239493349297984
0.44134345875381925 0.3992587608400093
0.45135919558225435 0.3992587608400093
0.3912647746116436 0.42938253120409364
0.36121756412633826 0.3841968756579671
0.2510444590135519 0.3841968756579671
0.21098151169981139 0.3691349904759249
0.16090282755763577 0.3992587608400093
0.15088709072920065 0.44444441638613585
0.09079266975858992 0.459506301568178
0.05072972244484942 0.42938253120409364
0.010666775131108927 0.3992587608400093
-0.01938043535419644 0.459506301568178
-0.01938043535419644 0.4896300719322624
-0.029396172182631564 0.4896300719322624
-0.029396172182631564 0.4745681867502202
-0.03941190901106669 0.4745681867502202
-0.049427645839501815 0.42938253120409364
-0.07947485632480718 0.44444441638613585
-0.049427645839501815 0.4896300719322624
-0.01938043535419644 0.44444441638613585
-0.03941190901106669 0.4745681867502202
-0.05944338266793694 0.4143206460220515
-0.07947485632480718 0.4143206460220515
-0.0894905931532423 0.42938253120409364
-0.06945911949637205 0.459506301568178
-0.03941190901106669 0.42938253120409364
-0.05944338266793694 0.459506301568178
-0.05944338266793694 0.3992587608400093
-0.06945911949637205 0.3841968756579671
-0.07947485632480718 0.3992587608400093
-0.05944338266793694 0.44444441638613585
-0.00936469852576132 0.44444441638613585
-0.029396172182631564 0.42938253120409364
-0.03941190901106669 0.4143206460220515
-0.049427645839501815 0.4143206460220515
-0.049427645839501815 0.4143206460220515
0.0006510383026738047 0.42938253120409364
0.010666775131108927 0.44444441638613585
-0.01938043535419644 0.44444441638613585
-0.029396172182631564 0.42938253120409364
-0.049427645839501815 0.3992587608400093
-0.03941190901106669 0.3992587608400093
-0.00936469852576132 0.44444441638613585
0.0006510383026738047 0.459506301568178
0.0006510383026738047 0.42938253120409364
-0.00936469852576132 0.42938253120409364
-0.00936469852576132 0.4143206460220515
-0.01938043535419644 0.3992587608400093
0.0006510383026738047 0.42938253120409364
0.030698248787979176 0.44444441638613585
0.040713985616414296 0.3992587608400093
0.030698248787979176 0.4143206460220515
0.030698248787979176 0.3841968756579671
0.030698248787979176 0.42938253120409364
0.040713985616414296 0.4143206460220515
0.07076119610171967 0.42938253120409364
0.06074545927328454 0.42938253120409364
0.05072972244484942 0.4143206460220515
0.010666775131108927 0.4745681867502202
-0.01938043535419644 0.5348157274783889
-0.029396172182631564 0.6251870385706421
-0.029396172182631564 0.6703726941167686
-0.03941190901106669 0.7758058903910638
-0.03941190901106669 0.7607440052090217
0.010666775131108927 0.7908677755731061
0.19095003804294114 0.7155583496628951
0.45135919558225435 0.5950632682065576
0.7818785109206134 0.4745681867502202
1.0523034052883617 0.2787636793836718
1.3026968259992397 -0.03753590943921403
1.5130272993963774 -0.3538354982620999
1.6732790886513393 -0.5797637759927327
1.873593825220042 -0.7755682833592811
2.113971509102485 -1.0768059870001248
2.384396403470233 -1.4834768869152637
2.624774087352676 -1.9805190979226557
2.855136034406684 -2.462499423748006
3.105529455117562 -2.914355979209271
3.2958284548578294 -3.0950986013937776
3.406001559970616 -3.215593682850115
3.446064507284356 -3.230655568032157
3.406001559970616 -3.215593682850115
3.35592287582844 -3.2005317976680727
3.265781244372524 -3.064974831029693
3.125560928774432 -2.8541084384811026
2.8951989817204247 -2.673365816296596
2.524616719068325 -2.49262319411209
2.1740659300730956 -2.296818686745542
1.8535623515631716 -2.1160760645610353
1.563105983538553 -1.9353334423765292
1.32272829965611 -1.7395289350099807
1.0322719316314914 -1.5286625424613902
0.6917368794646973 -1.4081674610050527
0.2810916694988573 -1.3027342647307574
-0.0894905931532423 -1.1370535277282934
-0.42000990849160136 -0.9713727907258294
-0.630340381888739 -0.8659395944515341
-0.8406708552858766 -0.7303826278131544
-1.0510013286830142 -0.6249494315388592
-1.201237381109541 -0.5345781204466061
-1.3013947493938922 -0.4592686945363952
-1.3514734335360679 -0.3688973834441421
-1.3214262230507625 -0.2484023019878046
-1.2913790125654572 -0.21827853162372024
-1.3013947493938922 -0.11284533534942495
-1.2913790125654572 -0.03753590943921403
-1.2613318020801518 -0.007412139075129668
-1.2713475389085869 0.11308294238120781
-1.1812059074526708 0.2185161386555031
-1.111095749653625 0.2787636793836718
-1.040985591854579 0.3691349904759249
-0.9508439603986629 0.3992587608400093
-0.9007652762564873 0.4896300719322624
-0.9007652762564873 0.5498776126604311
-0.8206393816290063 0.6553108089347264
-0.7605449606583956 0.700496464480853
-0.7304977501730902 0.7456821200269795
-0.6804190660309146 0.7607440052090217
-0.6704033292024795 0.7758058903910638
-0.6403561187171741 0.8511153163012748
-0.5602302240896931 0.9113628570294435
-0.5201672767759526 0.95654851257557
-0.5101515399475175 0.95654851257557
-0.5201672767759526 0.9264247422114857
-0.5301830136043877 0.9113628570294435
-0.5401987504328228 0.941486627393528
-0.5201672767759526 0.941486627393528
-0.5001358031190823 0.95654851257557
-0.49012006629064725 0.9264247422114857
-0.5301830136043877 0.9264247422114857
-0.550214487261258 0.941486627393528
-0.5401987504328228 0.9716103977576123
-0.550214487261258 0.9716103977576123
-0.5301830136043877 0.9866722829396545
-0.5201672767759526 0.9866722829396545
-0.550214487261258 0.941486627393528
-0.5702459609181282 0.9716103977576123
-0.5602302240896931 1.0167960533037388
-0.5602302240896931 1.0167960533037388
-0.550214487261258 1.0619817088498653
-0.5702459609181282 0.9866722829396545
-0.5902774345749985 0.9866722829396545
-0.6103089082318687 0.9716103977576123
-0.6203246450603038 1.0318579384857811
-0.6103089082318687 1.0619817088498653
-0.5902774345749985 1.0619817088498653
-0.6203246450603038 1.0770435940319076
-0.6603875923740443 1.0619817088498653
-0.6403561187171741 1.0318579384857811
-0.630340381888739 1.0318579384857811
-0.6403561187171741 1.0921054792139497
-0.6203246450603038 1.0921054792139497
-0.6203246450603038 1.0921054792139497
-0.630340381888739 1.1071673643959918
-0.6704033292024795 1.0770435940319076
-0.6704033292024795 1.1523530199421186
-0.630340381888739 1.1674149051241607
-0.630340381888739 1.1523530199421186
-0.6203246450603038 1.1523530199421186
-0.6203246450603038 1.1222292495780342
-0.6103089082318687 1.0770435940319076
-0.630340381888739 1.1372911347600763
-0.5902774345749985 1.1372911347600763
-0.5602302240896931 1.1674149051241607
-0.5702459609181282 1.1523530199421186
-0.5401987504328228 1.1674149051241607
-0.5301830136043877 1.1372911347600763
-0.550214487261258 1.1071673643959918
-0.5001358031190823 1.1222292495780342
-0.4801043294622121 1.1222292495780342
-0.46007285580534185 1.1071673643959918
-0.4400413821484716 1.0921054792139497
-0.4300256453200365 1.0619817088498653
-0.42000990849160136 1.0619817088498653
-0.36993122434942577 1.0921054792139497
-0.30983680337881503 1.0770435940319076
-0.2898053297219448 1.0770435940319076
-0.2898053297219448 1.0167960533037388
-0.2898053297219448 0.95654851257557
-0.2497423824082043 1.0017341681216967
-0.21969517192289892 1.0017341681216967
-0.14958501412385306 0.9866722829396545
-0.1295535404669828 1.0017341681216967
-0.10952206681011255 0.941486627393528
-0.10952206681011255 0.9113628570294435
-0.0894905931532423 0.941486627393528
-0.049427645839501815 0.941486627393528
0.0006510383026738047 0.9264247422114857
0.040713985616414296 0.9113628570294435
0.040713985616414296 0.8360534311192326
0.05072972244484942 0.8059296607551483
0.06074545927328454 0.8209915459371905
0.11082414341546017 0.8511153163012748
0.1709185643860709 0.8360534311192326
0.19095003804294114 0.7758058903910638
0.18093430121450602 0.7758058903910638
0.20096577487137626 0.7306202348449373
0.20096577487137626 0.6703726941167686
0.26106019584198703 0.6854345792988108
0.3111388799841626 0.7155583496628951
0.33117035364103287 0.6251870385706421
0.33117035364103287 0.6251870385706421
0.33117035364103287 0.5649394978424733
0.36121756412633826 0.5348157274783889
0.37123330095477336 0.5649394978424733
0.41129624826851385 0.5498776126604311
0.41129624826851385 0.5197538422963468
0.40128051144007876 0.4745681867502202
0.41129624826851385 0.4143206460220515
0.40128051144007876 0.3992587608400093
0.421311985096949 0.42938253120409364
0.4313277219253841 0.42938253120409364
0.4313277219253841 0.33901122011184054
0.41129624826851385 0.33901122011184054
0.3912647746116436 0.3239493349297984
0.3812490377832085 0.293825564565714
0.40128051144007876 0.3239493349297984
0.421311985096949 0.35407310529388275
0.3912647746116436 0.3239493349297984
0.36121756412633826 0.30888744974775617
0.3512018272979031 0.24863990901958746
0.32115461681259777 0.26370179420162965
0.341186090469468 0.3239493349297984
0.36121756412633826 0.3239493349297984
0.32115461681259777 0.30888744974775617
0.33117035364103287 0.26370179420162965
0.32115461681259777 0.24863990901958746
0.3111388799841626 0.30888744974775617
0.3512018272979031 0.35407310529388275
0.3912647746116436 0.3841968756579671
0.37123330095477336 0.35407310529388275
0.3812490377832085 0.3239493349297984
0.36121756412633826 0.30888744974775617
0.341186090469468 0.33901122011184054
0.3512018272979031 0.35407310529388275
0.37123330095477336 0.35407310529388275
0.3812490377832085 0.3841968756579671
0.3812490377832085 0.293825564565714
0.341186090469468 0.26370179420162965
0.2810916694988573 0.293825564565714
0.2810916694988573 0.2787636793836718
0.33117035364103287 0.26370179420162965
0.341186090469468 0.2787636793836718
0.37123330095477336 0.26370179420162965
0.37123330095477336 0.23357802383754528
0.40128051144007876 0.26370179420162965
0.44134345875381925 0.30888744974775617
0.45135919558225435 0.30888744974775617
0.421311985096949 0.30888744974775617
0.4313277219253841 0.26370179420162965
0.44134345875381925 0.24863990901958746
0.421311985096949 0.30888744974775617
0.45135919558225435 0.33901122011184054
0.45135919558225435 0.33901122011184054
0.4613749324106895 0.33901122011184054
0.44134345875381925 0.293825564565714
0.4313277219253841 0.24863990901958746
0.4313277219253841 0.26370179420162965
0.49142214289599484 0.293825564565714
0.5214693533813002 0.30888744974775617
0.5114536165528651 0.30888744974775617
0.4613749324106895 0.33901122011184054
0.44134345875381925 0.293825564565714
0.3812490377832085 0.33901122011184054
0.32115461681259777 0.3841968756579671
0.2911074063272924 0.3841968756579671
0.24102872218511676 0.3841968756579671
0.19095003804294114 0.3239493349297984
0.11082414341546017 0.3239493349297984
0.05072972244484942 0.35407310529388275
0.040713985616414296 0.3691349904759249
0.020682511959544052 0.4143206460220515
0.010666775131108927 0.3992587608400093
0.030698248787979176 0.35407310529388275
0.0006510383026738047 0.3691349904759249
-0.01938043535419644 0.3841968756579671
-0.01938043535419644 0.33901122011184054
0.0006510383026738047 0.3841968756579671
0.010666775131108927 0.35407310529388275
0.020682511959544052 0.3239493349297984
-0.00936469852576132 0.3239493349297984
0.0006510383026738047 0.33901122011184054
-0.03941190901106669 0.33901122011184054
0.020682511959544052 0.33901122011184054
0.020682511959544052 0.33901122011184054
0.020682511959544052 0.293825564565714
0.010666775131108927 0.2787636793836718
0.010666775131108927 0.30888744974775617
0.030698248787979176 0.3239493349297984
0.05072972244484942 0.3239493349297984
0.030698248787979176 0.3239493349297984
0.040713985616414296 0.30888744974775617
0.030698248787979176 0.26370179420162965
0.010666775131108927 0.293825564565714
0.020682511959544052 0.293825564565714
0.05072972244484942 0.30888744974775617
0.040713985616414296 0.3239493349297984
0.05072972244484942 0.26370179420162965
0.040713985616414296 0.24863990901958746
0.030698248787979176 0.2787636793836718
0.05072972244484942 0.3239493349297984
0.0807769329301548 0.30888744974775617
0.040713985616414296 0.293825564565714
0.05072972244484942 0.2185161386555031
0.030698248787979176 0.26370179420162965
0.030698248787979176 0.23357802383754528
0.05072972244484942 0.293825564565714
0.07076119610171967 0.33901122011184054
0.07076119610171967 0.2787636793836718
0.07076119610171967 0.26370179420162965
0.0807769329301548 0.2185161386555031
0.06074545927328454 0.24863990901958746
0.06074545927328454 0.3239493349297984
0.10080840658702504 0.293825564565714
0.11082414341546017 0.2787636793836718
0.0807769329301548 0.26370179420162965
0.09079266975858992 0.24863990901958746
0.0807769329301548 0.24863990901958746
0.0807769329301548 0.3239493349297984
0.09079266975858992 0.3239493349297984
0.07076119610171967 0.33901122011184054
0.020682511959544052 0.3841968756579671
-0.00936469852576132 0.459506301568178
-0.07947485632480718 0.5348157274783889
-0.049427645839501815 0.6402489237526843
-0.01938043535419644 0.6553108089347264
0.06074545927328454 0.6251870385706421
0.24102872218511676 0.5197538422963468
0.4713906692391246 0.35407310529388275
0.7217840899500026 0.23357802383754528
0.9621617738324456 0.06789728683508126
1.2025394577148887 -0.20321664644167806
1.392838457455156 -0.4291449241723108
1.482980088911072 -0.6851969722670279
1.6532476149944693 -0.9563109055437873
1.8936252988769122 -1.2575486091846309
2.184081666901531 -1.6491576239177277
2.4745380349261494 -2.1160760645610353
2.7449629292938975 -2.673365816296596
2.9853406131763407 -3.0950986013937776
3.185655349745043 -3.3662125346705367
3.3158599285146995 -3.4415219605807477
3.3859700863137454 -3.471645730944832
3.4160172967990508 -3.411398190216663
3.406001559970616 -3.3360887643064525
3.345907139000005 -3.2909031087603258
3.2056868234019134 -3.1252223717578618
2.9452776658626 -2.899294094027229
2.624774087352676 -2.7034895866606807
2.304270508842752 -2.462499423748006
2.0338456144750037 -2.266694916381457
1.7333735096219502 -2.085952294196951
1.482980088911072 -1.9805190979226557
1.1925237208864534 -1.754590820192023
0.8319571950627891 -1.5738481980075167
0.45135919558225435 -1.4232293461870948
0.11082414341546017 -1.2876723795487153
-0.19966369826602867 -1.1671772980923778
-0.45005711897690676 -1.0617441018180824
-0.6904348028593497 -1.0014965610899138
-0.8707180657711819 -0.8508777092694919
-0.9808911708839683 -0.7303826278131544
-1.0910642759967546 -0.6249494315388592
-1.1511586969673653 -0.5948256611747749
-1.1912216442811059 -0.5195162352645639
-1.1912216442811059 -0.444206809354353
-1.1411429601389302 -0.32371172789801556
-1.111095749653625 -0.2484023019878046
-1.12111148648206 -0.1730928760775937
-1.1311272233104952 -0.09778345016738277
-1.1010800128251899 -0.03753590943921403
-1.040985591854579 0.06789728683508126
-0.9308124867417926 0.18839236829141873
-0.8406708552858766 0.2185161386555031
-0.8106236448005711 0.2787636793836718
-0.7505292238299605 0.33901122011184054
-0.7405134870015253 0.4143206460220515
-0.71046627651622 0.4896300719322624
-0.6704033292024795 0.5649394978424733
-0.6203246450603038 0.5950632682065576
-0.5702459609181282 0.6251870385706421
-0.5201672767759526 0.6251870385706421
-0.4801043294622121 0.6553108089347264
-0.49012006629064725 0.700496464480853
-0.4300256453200365 0.7456821200269795
-0.3999784348347311 0.7456821200269795
-0.389962698006296 0.7607440052090217
-0.40999417166316626 0.7456821200269795
-0.42000990849160136 0.7155583496628951
-0.42000990849160136 0.7456821200269795
-0.42000990849160136 0.7607440052090217
-0.3999784348347311 0.7908677755731061
-0.3999784348347311 0.7908677755731061
-0.4300256453200365 0.7607440052090217
-0.45005711897690676 0.7456821200269795
-0.46007285580534185 0.7758058903910638
-0.4400413821484716 0.8059296607551483
-0.4300256453200365 0.8209915459371905
-0.46007285580534185 0.8209915459371905
-0.45005711897690676 0.7758058903910638
-0.49012006629064725 0.7908677755731061
-0.5001358031190823 0.8360534311192326
-0.4801043294622121 0.8511153163012748
-0.470088592633777 0.866177201483317
-0.5101515399475175 0.8511153163012748
-0.5001358031190823 0.8511153163012748
-0.5201672767759526 0.8511153163012748
-0.5401987504328228 0.866177201483317
-0.5201672767759526 0.8812390866653592
-0.5001358031190823 0.941486627393528
-0.5301830136043877 0.941486627393528
-0.5401987504328228 0.8963009718474013
-0.5702459609181282 0.866177201483317
-0.5702459609181282 0.9113628570294435
-0.550214487261258 0.9264247422114857
-0.5201672767759526 0.95654851257557
-0.5401987504328228 1.0017341681216967
-0.5301830136043877 0.9264247422114857
-0.5301830136043877 0.9716103977576123
-0.5401987504328228 0.941486627393528
-0.5301830136043877 0.95654851257557
-0.5101515399475175 0.9866722829396545
-0.49012006629064725 1.0017341681216967
-0.5101515399475175 0.95654851257557
-0.5101515399475175 0.941486627393528
-0.5101515399475175 0.9866722829396545
-0.46007285580534185 1.0167960533037388
-0.42000990849160136 0.9866722829396545
-0.4300256453200365 0.9716103977576123
-0.4300256453200365 0.9716103977576123
-0.42000990849160136 0.8963009718474013
-0.4300256453200365 0.941486627393528
-0.36993122434942577 0.95654851257557
-0.3298682770356853 0.941486627393528
-0.3298682770356853 0.9113628570294435
-0.3198525402072501 0.8963009718474013
-0.30983680337881503 0.8812390866653592
-0.2998210665503799 0.866177201483317
-0.23972664557976917 0.8963009718474013
-0.18964796143759355 0.8511153163012748
-0.1696164877807233 0.8511153163012748
-0.15960075095228818 0.7908677755731061
-0.14958501412385306 0.7758058903910638
-0.1295535404669828 0.7758058903910638
-0.06945911949637205 0.8059296607551483
-0.029396172182631564 0.7908677755731061
-0.00936469852576132 0.8059296607551483
-0.00936469852576132 0.7456821200269795
0.020682511959544052 0.7155583496628951
0.040713985616414296 0.700496464480853
0.07076119610171967 0.700496464480853
0.10080840658702504 0.6854345792988108
0.12083988024389529 0.6402489237526843
0.1709185643860709 0.6101251533885999
0.20096577487137626 0.5950632682065576
0.21098151169981139 0.5800013830245155
0.2710759326704221 0.6251870385706421
0.32115461681259777 0.5649394978424733
0.3512018272979031 0.5348157274783889
0.341186090469468 0.4896300719322624
0.36121756412633826 0.42938253120409364
0.37123330095477336 0.42938253120409364
0.421311985096949 0.459506301568178
0.45135919558225435 0.4143206460220515
0.44134345875381925 0.35407310529388275
0.48140640606755974 0.33901122011184054
0.44134345875381925 0.2787636793836718
0.45135919558225435 0.26370179420162965
0.50143787972443 0.2787636793836718
0.49142214289599484 0.293825564565714
0.50143787972443 0.23357802383754528
0.5214693533813002 0.15826859792733436
0.5114536165528651 0.17333048310937654
0.49142214289599484 0.12814482756325
0.5114536165528651 0.15826859792733436
0.5314850902097353 0.15826859792733436
0.5114536165528651 0.14320671274529218
0.50143787972443 0.08295917201712344
0.48140640606755974 0.08295917201712344
0.48140640606755974 0.08295917201712344
0.4713906692391246 0.11308294238120781
0.50143787972443 0.09802105719916562
0.48140640606755974 0.08295917201712344
0.45135919558225435 0.08295917201712344
0.41129624826851385 0.052835401653039064
0.421311985096949 0.06789728683508126
0.421311985096949 0.09802105719916562
0.44134345875381925 0.06789728683508126
0.44134345875381925 0.09802105719916562
0.4313277219253841 0.14320671274529218
0.44134345875381925 0.12814482756325
0.45135919558225435 0.14320671274529218
0.45135919558225435 0.17333048310937654
0.49142214289599484 0.17333048310937654
0.48140640606755974 0.14320671274529218
0.4713906692391246 0.14320671274529218
0.45135919558225435 0.11308294238120781
0.4313277219253841 0.15826859792733436
0.45135919558225435 0.17333048310937654
0.45135919558225435 0.15826859792733436
0.4313277219253841 0.09802105719916562
0.44134345875381925 0.03777351647099688
0.44134345875381925 0.052835401653039064
0.44134345875381925 0.03777351647099688
0.5314850902097353 0.12814482756325
0.5615323006950407 0.09802105719916562
0.5415008270381705 0.12814482756325
0.5214693533813002 0.08295917201712344
0.5114536165528651 0.08295917201712344
0.48140640606755974 0.11308294238120781
0.50143787972443 0.14320671274529218
0.5214693533813002 0.17333048310937654
0.48140640606755974 0.17333048310937654
0.44134345875381925 0.14320671274529218
0.4313277219253841 0.12814482756325
0.45135919558225435 0.12814482756325
0.49142214289599484 0.14320671274529218
0.5114536165528651 0.11308294238120781
0.50143787972443 0.11308294238120781
0.5214693533813002 0.09802105719916562
0.48140640606755974 0.08295917201712344
0.4313277219253841 0.12814482756325
0.421311985096949 0.12814482756325
0.37123330095477336 0.15826859792733436
0.3011231431557275 0.14320671274529218
0.24102872218511676 0.11308294238120781
0.21098151169981139 0.08295917201712344
0.14087135390076552 0.11308294238120781
0.11082414341546017 0.15826859792733436
0.11082414341546017 0.17333048310937654
0.07076119610171967 0.18839236829141873
0.030698248787979176 0.15826859792733436
0.010666775131108927 0.17333048310937654
0.0006510383026738047 0.15826859792733436
0.010666775131108927 0.14320671274529218
0.040713985616414296 0.12814482756325
0.030698248787979176 0.15826859792733436
0.0006510383026738047 0.09802105719916562
0.010666775131108927 0.09802105719916562
0.010666775131108927 0.11308294238120781
0.040713985616414296 0.15826859792733436
0.05072972244484942 0.11308294238120781
0.040713985616414296 0.14320671274529218
0.020682511959544052 0.08295917201712344
0.030698248787979176 0.08295917201712344
0.010666775131108927 0.09802105719916562
0.05072972244484942 0.17333048310937654
0.05072972244484942 0.14320671274529218
0.05072972244484942 0.15826859792733436
0.040713985616414296 0.08295917201712344
0.030698248787979176 0.06789728683508126
0.020682511959544052 0.08295917201712344
0.07076119610171967 0.14320671274529218
0.0807769329301548 0.14320671274529218
0.040713985616414296 0.14320671274529218
0.05072972244484942 0.06789728683508126
0.030698248787979176 0.052835401653039064
0.030698248787979176 0.09802105719916562
0.06074545927328454 0.08295917201712344
0.06074545927328454 0.09802105719916562
0.09079266975858992 0.09802105719916562
0.09079266975858992 0.052835401653039064
0.05072972244484942 0.052835401653039064
0.06074545927328454 0.06789728683508126
0.0807769329301548 0.09802105719916562
0.11082414341546017 0.11308294238120781
0.11082414341546017 0.06789728683508126
0.0807769329301548 0.06789728683508126
0.0807769329301548 0.03777351647099688
0.0807769329301548 0.06789728683508126
0.09079266975858992 0.12814482756325
0.1308556170723304 0.08295917201712344
0.12083988024389529 0.052835401653039064
0.12083988024389529 0.06789728683508126
0.11082414341546017 0.08295917201712344
0.07076119610171967 0.15826859792733436
0.10080840658702504 0.17333048310937654
0.0807769329301548 0.26370179420162965
0.020682511959544052 0.33901122011184054
-0.029396172182631564 0.3691349904759249
-0.05944338266793694 0.3841968756579671
-0.029396172182631564 0.42938253120409364
0.09079266975858992 0.3992587608400093
0.32115461681259777 0.3239493349297984
0.5715480375234758 0.14320671274529218
0.8620044055480944 -0.08272156498534058
1.1224135630874077 -0.3688973834441421
1.32272829965611 -0.6400113167209014
1.5130272993963774 -0.8810014796335763
1.723357772793515 -1.1671772980923778
1.9837669303328282 -1.5437244276434323
2.284239035185882 -2.070890409014909
2.5646796663820655 -2.658303931114554
2.875167508063554 -3.155346142121946
3.1455924024313027 -3.471645730944832
3.406001559970616 -3.6825121234934226
3.5462218755687074 -3.7728834345856757
3.586284822882448 -3.7879453197677178
3.5762690860540127 -3.7728834345856757
3.5462218755687074 -3.637326467947296
3.4761117177696614 -3.4415219605807477
3.265781244372524 -3.245717453214199
2.9052147185488595 -3.0197891754835666
2.5146009822398896 -2.823984668117018
2.204113140558401 -2.6131182755684277
1.8635780883916067 -2.417313768201879
1.563105983538553 -2.161261720107162
1.2526181418570643 -1.9805190979226557
0.8519886687196593 -1.7997764757381496
0.421311985096949 -1.6642195090997698
0.0006510383026738047 -1.4985387720973058
-0.33988401386412037 -1.3479199202768841
-0.5902774345749985 -1.2123629536385043
-0.8306551184574414 -1.0918678721821669
-1.0209541181977089 -0.9563109055437873
-1.1711901706242356 -0.9412490203617451
-1.2613318020801518 -0.8056920537233654
-1.281363275737022 -0.6851969722670279
-1.2613318020801518 -0.5948256611747749
-1.2212688547664112 -0.5195162352645639
-1.1912216442811059 -0.444206809354353
-1.1812059074526708 -0.3538354982620999
-1.2112531179379762 -0.32371172789801556
-1.1711901706242356 -0.1730928760775937
-1.1010800128251899 -0.0676596798032984
-0.9708754340555331 0.052835401653039064
-0.8907495394280521 0.12814482756325
-0.8406708552858766 0.15826859792733436
-0.8006079079721361 0.2185161386555031
-0.7705606974868306 0.33901122011184054
-0.7204820133446551 0.4143206460220515
-0.6503718555456092 0.4896300719322624
-0.5802616977465633 0.5197538422963468
-0.550214487261258 0.5348157274783889
-0.550214487261258 0.5348157274783889
-0.5201672767759526 0.5800013830245155
-0.470088592633777 0.6553108089347264
-0.4400413821484716 0.700496464480853
-0.42000990849160136 0.6854345792988108
-0.42000990849160136 0.6251870385706421
-0.4300256453200365 0.6251870385706421
-0.45005711897690676 0.6402489237526843
-0.4400413821484716 0.6854345792988108
-0.42000990849160136 0.7155583496628951
-0.4400413821484716 0.7155583496628951
-0.46007285580534185 0.700496464480853
-0.5101515399475175 0.6854345792988108
-0.5101515399475175 0.7155583496628951
-0.5001358031190823 0.7908677755731061
-0.4801043294622121 0.7758058903910638
-0.49012006629064725 0.7758058903910638
-0.5301830136043877 0.7456821200269795
-0.5602302240896931 0.7758058903910638
-0.5702459609181282 0.7908677755731061
-0.5401987504328228 0.8209915459371905
-0.5301830136043877 0.8360534311192326
-0.5401987504328228 0.866177201483317
-0.550214487261258 0.8360534311192326
-0.5802616977465633 0.8209915459371905
-0.5802616977465633 0.8360534311192326
-0.5802616977465633 0.8963009718474013
-0.5401987504328228 0.95654851257557
-0.550214487261258 0.9264247422114857
-0.5902774345749985 0.9264247422114857
-0.6002931714034336 0.8511153163012748
-0.6403561187171741 0.8963009718474013
-0.5902774345749985 0.95654851257557
-0.5602302240896931 0.95654851257557
-0.5602302240896931 0.9716103977576123
-0.5902774345749985 0.95654851257557
-0.6002931714034336 0.9113628570294435
-0.6002931714034336 0.941486627393528
-0.5802616977465633 1.0318579384857811
-0.5602302240896931 0.9866722829396545
-0.5602302240896931 0.9866722829396545
-0.550214487261258 0.9866722829396545
-0.550214487261258 0.9716103977576123
-0.5602302240896931 0.9716103977576123
-0.5001358031190823 0.9716103977576123
-0.5001358031190823 0.9716103977576123
-0.470088592633777 1.0167960533037388
-0.45005711897690676 0.95654851257557
-0.4400413821484716 0.9113628570294435
-0.4400413821484716 0.9866722829396545
-0.3999784348347311 0.9716103977576123
-0.33988401386412037 0.95654851257557
-0.33988401386412037 0.9264247422114857
-0.3198525402072501 0.9264247422114857
-0.30983680337881503 0.8812390866653592
-0.2998210665503799 0.866177201483317
-0.2597581192366394 0.8812390866653592
-0.2096794350944638 0.8812390866653592
-0.17963222460915843 0.8360534311192326
-0.15960075095228818 0.8209915459371905
-0.13956927729541793 0.7908677755731061
-0.11953780363854767 0.7758058903910638
-0.05944338266793694 0.8059296607551483
-0.01938043535419644 0.8059296607551483
0.0006510383026738047 0.8209915459371905
0.020682511959544052 0.7607440052090217
0.020682511959544052 0.7155583496628951
0.07076119610171967 0.700496464480853
0.11082414341546017 0.7155583496628951
0.14087135390076552 0.700496464480853
0.16090282755763577 0.6703726941167686
0.19095003804294114 0.6251870385706421
0.21098151169981139 0.5649394978424733
0.20096577487137626 0.5800013830245155
0.26106019584198703 0.5649394978424733
0.3111388799841626 0.5498776126604311
0.37123330095477336 0.5197538422963468
0.3512018272979031 0.42938253120409364
0.36121756412633826 0.3992587608400093
0.3812490377832085 0.4143206460220515
0.421311985096949 0.459506301568178
0.4613749324106895 0.4143206460220515
0.4613749324106895 0.33901122011184054
0.4613749324106895 0.2787636793836718
0.4713906692391246 0.26370179420162965
0.48140640606755974 0.2787636793836718
0.49142214289599484 0.30888744974775617
0.5314850902097353 0.293825564565714
0.5214693533813002 0.23357802383754528
0.49142214289599484 0.2034542534734609
0.49142214289599484 0.14320671274529218
0.48140640606755974 0.17333048310937654
0.49142214289599484 0.2034542534734609
0.5114536165528651 0.18839236829141873
0.49142214289599484 0.17333048310937654
0.48140640606755974 0.12814482756325
0.4613749324106895 0.09802105719916562
0.41129624826851385 0.14320671274529218
0.44134345875381925 0.17333048310937654
0.4613749324106895 0.14320671274529218
0.4313277219253841 0.14320671274529218
0.4313277219253841 0.09802105719916562
0.41129624826851385 0.09802105719916562
0.3912647746116436 0.15826859792733436
0.3912647746116436 0.14320671274529218
0.41129624826851385 0.15826859792733436
0.421311985096949 0.14320671274529218
0.41129624826851385 0.12814482756325
0.421311985096949 0.12814482756325
0.41129624826851385 0.17333048310937654
0.40128051144007876 0.18839236829141873
0.4613749324106895 0.2034542534734609
0.44134345875381925 0.2185161386555031
0.421311985096949 0.18839236829141873
0.41129624826851385 0.12814482756325
0.40128051144007876 0.17333048310937654
0.421311985096949 0.18839236829141873
0.421311985096949 0.18839236829141873
0.40128051144007876 0.15826859792733436
0.4313277219253841 0.08295917201712344
0.4313277219253841 0.09802105719916562
0.41129624826851385 0.12814482756325
0.4713906692391246 0.14320671274529218
0.49142214289599484 0.14320671274529218
0.5214693533813002 0.15826859792733436
0.4713906692391246 0.11308294238120781
0.4713906692391246 0.08295917201712344
0.45135919558225435 0.11308294238120781
0.4713906692391246 0.2185161386555031
0.4613749324106895 0.18839236829141873
0.45135919558225435 0.2034542534734609
0.44134345875381925 0.17333048310937654
0.44134345875381925 0.17333048310937654
0.44134345875381925 0.15826859792733436
0.45135919558225435 0.2034542534734609
0.50143787972443 0.18839236829141873
0.5114536165528651 0.18839236829141873
0.5114536165528651 0.15826859792733436
0.44134345875381925 0.17333048310937654
0.421311985096949 0.18839236829141873
0.40128051144007876 0.24863990901958746
0.37123330095477336 0.23357802383754528
0.3111388799841626 0.2185161386555031
0.23101298535668163 0.2034542534734609
0.18093430121450602 0.18839236829141873
0.14087135390076552 0.18839236829141873
0.11082414341546017 0.23357802383754528
0.06074545927328454 0.24863990901958746
0.07076119610171967 0.24863990901958746
0.020682511959544052 0.24863990901958746
0.010666775131108927 0.2034542534734609
0.0006510383026738047 0.23357802383754528
0.0006510383026738047 0.26370179420162965
0.020682511959544052 0.23357802383754528
0.0006510383026738047 0.2034542534734609
0.010666775131108927 0.2034542534734609
-0.03941190901106669 0.17333048310937654
-0.029396172182631564 0.2034542534734609
0.0006510383026738047 0.24863990901958746
0.020682511959544052 0.24863990901958746
0.010666775131108927 0.2034542534734609
-0.01938043535419644 0.18839236829141873
-0.029396172182631564 0.14320671274529218
-0.01938043535419644 0.18839236829141873
0.010666775131108927 0.2185161386555031
0.030698248787979176 0.2034542534734609
0.030698248787979176 0.18839236829141873
0.010666775131108927 0.17333048310937654
0.0006510383026738047 0.15826859792733436
-0.00936469852576132 0.2034542534734609
0.010666775131108927 0.18839236829141873
0.020682511959544052 0.2034542534734609
0.030698248787979176 0.18839236829141873
0.030698248787979176 0.15826859792733436
0.010666775131108927 0.12814482756325
0.0006510383026738047 0.11308294238120781
0.020682511959544052 0.18839236829141873
0.040713985616414296 0.17333048310937654
0.06074545927328454 0.18839236829141873
0.040713985616414296 0.14320671274529218
0.010666775131108927 0.14320671274529218
0.030698248787979176 0.15826859792733436
0.040713985616414296 0.2034542534734609
0.0807769329301548 0.18839236829141873
0.0807769329301548 0.2034542534734609
0.06074545927328454 0.14320671274529218
0.040713985616414296 0.14320671274529218
0.030698248787979176 0.17333048310937654
0.06074545927328454 0.18839236829141873
0.10080840658702504 0.15826859792733436
0.07076119610171967 0.17333048310937654
0.09079266975858992 0.15826859792733436
0.0807769329301548 0.14320671274529218
0.05072972244484942 0.2034542534734609
0.07076119610171967 0.26370179420162965
0.06074545927328454 0.293825564565714
0.010666775131108927 0.3691349904759249
-0.05944338266793694 0.3841968756579671
-0.09950632998167742 0.4745681867502202
-0.10952206681011255 0.5348157274783889
-0.029396172182631564 0.5498776126604311
0.15088709072920065 0.44444441638613585
0.44134345875381925 0.30888744974775617
0.7017526162931325 0.12814482756325
0.9521460370040106 -0.1730928760775937
1.2125551945433237 -0.444206809354353
1.402854194283591 -0.6701350870849857
1.5831374571954233 -0.8960633648156185
1.8134994042494312 -1.18223918327442
2.0839242986171795 -1.6190338535536433
2.364364929813363 -2.14619983492512
2.624774087352676 -2.673365816296596
2.9452776658626 -3.1252223717578618
3.2056868234019134 -3.471645730944832
3.4560802441127914 -3.6674502383113805
3.5762690860540127 -3.7578215494036336
3.5963005597108832 -3.7728834345856757
3.5762690860540127 -3.712635893857507
3.566253349225578 -3.5318932716730007
3.446064507284356 -3.3662125346705367
3.1455924024313027 -3.1252223717578618
2.7249314556370274 -2.914355979209271
2.304270508842752 -2.688427701478638
1.953719719847523 -2.417313768201879
1.633216141337599 -2.191385490471246
1.3427597733129804 -2.025704753468782
1.002224721146186 -1.7847145905561073
0.5515165638666056 -1.6642195090997698
0.11082414341546017 -1.4834768869152637
-0.2597581192366394 -1.3328580350948418
-0.5702459609181282 -1.18223918327442
-0.790592171143701 -1.016558446271956
-1.0209541181977089 -0.9261871351797029
-1.1912216442811059 -0.8358158240874498
-1.3013947493938922 -0.7605063981772389
-1.3214262230507625 -0.6400113167209014
-1.3013947493938922 -0.5345781204466061
-1.2913790125654572 -0.444206809354353
-1.2713475389085869 -0.3538354982620999
-1.2713475389085869 -0.32371172789801556
-1.2513160652517166 -0.2484023019878046
-1.2413003284232815 -0.12790722053146714
-1.1812059074526708 -0.03753590943921403
-1.0610170655114493 0.08295917201712344
-0.9608596972270981 0.2185161386555031
-0.9107810130849224 0.23357802383754528
-0.8506865921143116 0.3239493349297984
-0.8106236448005711 0.3992587608400093
-0.7605449606583956 0.4896300719322624
-0.7004505396877848 0.5348157274783889
-0.6804190660309146 0.6101251533885999
-0.6203246450603038 0.6402489237526843
-0.5702459609181282 0.6402489237526843
-0.5702459609181282 0.700496464480853
-0.5301830136043877 0.7607440052090217
-0.49012006629064725 0.7456821200269795
-0.470088592633777 0.7758058903910638
-0.5101515399475175 0.7306202348449373
-0.5001358031190823 0.7456821200269795
-0.550214487261258 0.7607440052090217
-0.5001358031190823 0.7758058903910638
-0.4801043294622121 0.7758058903910638
-0.49012006629064725 0.7758058903910638
-0.5301830136043877 0.7758058903910638
-0.5401987504328228 0.7607440052090217
-0.5602302240896931 0.7908677755731061
-0.5301830136043877 0.8360534311192326
-0.5201672767759526 0.8209915459371905
-0.550214487261258 0.8360534311192326
-0.5702459609181282 0.8360534311192326
-0.6103089082318687 0.8511153163012748
-0.6103089082318687 0.8360534311192326
-0.630340381888739 0.8812390866653592
-0.5902774345749985 0.8963009718474013
-0.5902774345749985 0.941486627393528
-0.630340381888739 0.8963009718474013
-0.6603875923740443 0.866177201483317
-0.6503718555456092 0.9113628570294435
-0.6503718555456092 0.941486627393528
-0.630340381888739 0.9716103977576123
-0.6203246450603038 1.0167960533037388
-0.6603875923740443 0.95654851257557
-0.6603875923740443 0.941486627393528
-0.6904348028593497 0.9716103977576123
-0.6804190660309146 1.0167960533037388
-0.6704033292024795 1.0619817088498653
-0.6403561187171741 1.0167960533037388
-0.6503718555456092 1.0017341681216967
-0.6704033292024795 1.0167960533037388
-0.6704033292024795 1.0318579384857811
-0.6804190660309146 1.0921054792139497
-0.6403561187171741 1.0619817088498653
-0.6203246450603038 1.0469198236678232
-0.630340381888739 1.0167960533037388
-0.630340381888739 1.0318579384857811
-0.6203246450603038 1.0469198236678232
-0.5802616977465633 1.0469198236678232
-0.550214487261258 1.0619817088498653
-0.5401987504328228 1.0619817088498653
-0.5401987504328228 1.0167960533037388
-0.5401987504328228 0.9716103977576123
-0.5001358031190823 0.9866722829396545
-0.46007285580534185 1.0167960533037388
-0.42000990849160136 1.0017341681216967
-0.389962698006296 0.9866722829396545
-0.37994696117786086 0.9716103977576123
-0.389962698006296 0.9113628570294435
-0.3498997506925555 0.9264247422114857
-0.3198525402072501 0.95654851257557
-0.27978959289350963 0.941486627393528
-0.23972664557976917 0.9113628570294435
-0.22971090875133404 0.8511153163012748
-0.21969517192289892 0.7908677755731061
-0.18964796143759355 0.8360534311192326
-0.14958501412385306 0.8360534311192326
-0.1295535404669828 0.8511153163012748
-0.07947485632480718 0.8059296607551483
-0.05944338266793694 0.7758058903910638
-0.049427645839501815 0.7155583496628951
-0.01938043535419644 0.700496464480853
0.020682511959544052 0.700496464480853
0.07076119610171967 0.700496464480853
0.11082414341546017 0.6703726941167686
0.14087135390076552 0.6251870385706421
0.12083988024389529 0.6101251533885999
0.16090282755763577 0.5800013830245155
0.2209972485282465 0.5800013830245155
0.2510444590135519 0.5800013830245155
0.2510444590135519 0.5348157274783889
0.2710759326704221 0.4745681867502202
0.2911074063272924 0.459506301568178
0.2911074063272924 0.42938253120409364
0.32115461681259777 0.44444441638613585
0.37123330095477336 0.44444441638613585
0.3812490377832085 0.3992587608400093
0.3512018272979031 0.33901122011184054
0.37123330095477336 0.30888744974775617
0.36121756412633826 0.293825564565714
0.3812490377832085 0.3239493349297984
0.3912647746116436 0.3239493349297984
0.40128051144007876 0.293825564565714
0.3912647746116436 0.23357802383754528
0.36121756412633826 0.2185161386555031
0.36121756412633826 0.23357802383754528
0.3812490377832085 0.2034542534734609
0.40128051144007876 0.18839236829141873
0.341186090469468 0.2185161386555031
0.341186090469468 0.15826859792733436
0.3111388799841626 0.17333048310937654
0.3011231431557275 0.15826859792733436
0.33117035364103287 0.18839236829141873
0.33117035364103287 0.17333048310937654
0.32115461681259777 0.2034542534734609
0.3011231431557275 0.14320671274529218
0.2710759326704221 0.14320671274529218
0.26106019584198703 0.12814482756325
0.2710759326704221 0.18839236829141873
0.3111388799841626 0.2034542534734609
0.3111388799841626 0.2034542534734609
0.2710759326704221 0.2034542534734609
0.2710759326704221 0.17333048310937654
0.26106019584198703 0.2034542534734609
0.2810916694988573 0.293825564565714
0.3011231431557275 0.2787636793836718
0.3111388799841626 0.26370179420162965
0.3011231431557275 0.23357802383754528
0.2911074063272924 0.2185161386555031
0.2710759326704221 0.23357802383754528
0.26106019584198703 0.2185161386555031
0.26106019584198703 0.18839236829141873
0.24102872218511676 0.18839236829141873
0.23101298535668163 0.17333048310937654
0.2710759326704221 0.15826859792733436
0.2810916694988573 0.18839236829141873
0.32115461681259777 0.18839236829141873
0.37123330095477336 0.26370179420162965
0.36121756412633826 0.2034542534734609
0.341186090469468 0.17333048310937654
0.3512018272979031 0.15826859792733436
0.341186090469468 0.2185161386555031
0.37123330095477336 0.2185161386555031
0.3812490377832085 0.24863990901958746
0.36121756412633826 0.23357802383754528
0.33117035364103287 0.24863990901958746
0.2911074063272924 0.26370179420162965
0.3111388799841626 0.23357802383754528
0.32115461681259777 0.26370179420162965
0.341186090469468 0.24863990901958746
0.341186090469468 0.23357802383754528
0.3512018272979031 0.2185161386555031
0.3512018272979031 0.2034542534734609
0.3512018272979031 0.2185161386555031
0.33117035364103287 0.24863990901958746
0.3111388799841626 0.2787636793836718
0.2510444590135519 0.26370179420162965
0.1709185643860709 0.2034542534734609
0.10080840658702504 0.2034542534734609
0.06074545927328454 0.23357802383754528
0.030698248787979176 0.24863990901958746
-0.00936469852576132 0.3239493349297984
-0.01938043535419644 0.2787636793836718
-0.10952206681011255 0.2787636793836718
-0.09950632998167742 0.23357802383754528
-0.11953780363854767 0.26370179420162965
-0.11953780363854767 0.2787636793836718
-0.07947485632480718 0.30888744974775617
-0.09950632998167742 0.30888744974775617
-0.13956927729541793 0.26370179420162965
-0.13956927729541793 0.23357802383754528
-0.13956927729541793 0.24863990901958746
-0.10952206681011255 0.30888744974775617
-0.10952206681011255 0.3239493349297984
-0.10952206681011255 0.23357802383754528
-0.10952206681011255 0.23357802383754528
-0.13956927729541793 0.2034542534734609
-0.1295535404669828 0.24863990901958746
-0.11953780363854767 0.24863990901958746
-0.07947485632480718 0.24863990901958746
-0.10952206681011255 0.2185161386555031
-0.10952206681011255 0.2185161386555031
-0.10952206681011255 0.17333048310937654
-0.1295535404669828 0.2185161386555031
-0.07947485632480718 0.23357802383754528
-0.07947485632480718 0.26370179420162965
-0.0894905931532423 0.26370179420162965
-0.0894905931532423 0.2185161386555031
-0.09950632998167742 0.18839236829141873
-0.11953780363854767 0.2034542534734609
-0.09950632998167742 0.24863990901958746
-0.06945911949637205 0.26370179420162965
-0.09950632998167742 0.2185161386555031
-0.07947485632480718 0.2185161386555031
-0.0894905931532423 0.17333048310937654
-0.10952206681011255 0.2034542534734609
-0.06945911949637205 0.23357802383754528
-0.049427645839501815 0.23357802383754528
-0.06945911949637205 0.23357802383754528
-0.0894905931532423 0.2034542534734609
-0.07947485632480718 0.17333048310937654
-0.0894905931532423 0.2034542534734609
-0.05944338266793694 0.24863990901958746
-0.049427645839501815 0.24863990901958746
-0.06945911949637205 0.26370179420162965
-0.029396172182631564 0.23357802383754528
-0.03941190901106669 0.18839236829141873
-0.049427645839501815 0.2034542534734609
-0.05944338266793694 0.24863990901958746
-0.01938043535419644 0.30888744974775617
-0.029396172182631564 0.30888744974775617
-0.07947485632480718 0.33901122011184054
-0.10952206681011255 0.3992587608400093
-0.15960075095228818 0.4896300719322624
-0.15960075095228818 0.5800013830245155
-0.09950632998167742 0.6251870385706421
0.030698248787979176 0.5950632682065576
0.2209972485282465 0.42938253120409364
0.5114536165528651 0.2787636793836718
0.8019099845774836 0.052835401653039064
1.1424450367442778 -0.1580309908955515
1.4228856679404613 -0.48939246490047955
1.6232004045091637 -0.7906301685413232
1.793467930592561 -1.0617441018180824
2.053877088131874 -1.4232293461870948
2.3343177193280575 -1.9353334423765292
2.6548212978379815 -2.432375653383921
2.96530913951947 -2.9595416347553978
3.245749770715654 -3.3360887643064525
3.4160172967990508 -3.5921408124011696
3.516174665083402 -3.6222645827652538
3.5061589282549668 -3.5921408124011696
3.4761117177696614 -3.471645730944832
3.4360487704559213 -3.305964993942368
3.245749770715654 -3.140284256939904
2.875167508063554 -2.9444797495733557
2.444490824440844 -2.7034895866606807
2.063892824960309 -2.432375653383921
1.71334203596508 -2.221509260835331
1.3828227206267207 -1.9654572127406136
1.0523034052883617 -1.844962131284276
0.6416581953225217 -1.6491576239177277
0.16090282755763577 -1.5136006572793481
-0.26977385606507454 -1.3027342647307574
-0.6103089082318687 -1.1219916425462513
-0.8807338025996171 -1.0316203314539982
-1.111095749653625 -0.9261871351797029
-1.3114104862223273 -0.8207539389054076
-1.4516308018204191 -0.7002588574490701
-1.5117252227910298 -0.5496400056286482
-1.5017094859625948 -0.444206809354353
-1.4315993281635488 -0.3839592686261843
-1.4215835913351138 -0.30864984271597334
-1.4015521176782435 -0.278526072351889
-1.4215835913351138 -0.1730928760775937
-1.4015521176782435 -0.08272156498534058
-1.3214262230507625 0.052835401653039064
-1.1912216442811059 0.15826859792733436
-1.1311272233104952 0.2185161386555031
-1.0610170655114493 0.24863990901958746
-1.0209541181977089 0.33901122011184054
-0.9909069077124034 0.4143206460220515
-0.9308124867417926 0.5197538422963468
-0.8707180657711819 0.5649394978424733
-0.8106236448005711 0.6251870385706421
-0.7805764343152658 0.6101251533885999
-0.7405134870015253 0.6101251533885999
-0.7004505396877848 0.700496464480853
-0.6403561187171741 0.7456821200269795
-0.6203246450603038 0.7456821200269795
-0.6002931714034336 0.7456821200269795
-0.6403561187171741 0.7155583496628951
-0.6403561187171741 0.7155583496628951
-0.6103089082318687 0.7155583496628951
-0.630340381888739 0.7758058903910638
-0.6203246450603038 0.7908677755731061
-0.6103089082318687 0.8059296607551483
-0.6403561187171741 0.7456821200269795
-0.6904348028593497 0.7607440052090217
-0.7004505396877848 0.7758058903910638
-0.6804190660309146 0.8360534311192326
-0.6804190660309146 0.8360534311192326
-0.6804190660309146 0.8209915459371905
-0.71046627651622 0.8059296607551483
-0.7304977501730902 0.7908677755731061
-0.7405134870015253 0.8360534311192326
-0.7204820133446551 0.8812390866653592
-0.71046627651622 0.9264247422114857
-0.7304977501730902 0.9113628570294435
-0.7204820133446551 0.8812390866653592
-0.7605449606583956 0.8812390866653592
-0.7605449606583956 0.9264247422114857
-0.7505292238299605 0.9264247422114857
-0.7004505396877848 0.95654851257557
-0.7505292238299605 0.95654851257557
-0.7605449606583956 0.941486627393528
-0.7805764343152658 0.9113628570294435
-0.790592171143701 0.941486627393528
-0.7605449606583956 0.9716103977576123
-0.7204820133446551 1.0167960533037388
-0.7405134870015253 0.9866722829396545
-0.7405134870015253 0.95654851257557
-0.7405134870015253 0.95654851257557
-0.7405134870015253 0.95654851257557
-0.7204820133446551 1.0167960533037388
-0.6904348028593497 1.0167960533037388
-0.6804190660309146 1.0017341681216967
-0.6704033292024795 0.9716103977576123
-0.6503718555456092 0.9866722829396545
-0.6804190660309146 0.9866722829396545
-0.6103089082318687 1.0167960533037388
-0.5902774345749985 1.0167960533037388
-0.5702459609181282 0.9716103977576123
-0.550214487261258 0.95654851257557
-0.5401987504328228 0.9264247422114857
-0.5101515399475175 0.9113628570294435
-0.4801043294622121 0.9264247422114857
-0.4400413821484716 0.9264247422114857
-0.3999784348347311 0.8812390866653592
-0.389962698006296 0.8812390866653592
-0.37994696117786086 0.8360534311192326
-0.3498997506925555 0.8209915459371905
-0.2898053297219448 0.866177201483317
-0.23972664557976917 0.8511153163012748
-0.21969517192289892 0.8511153163012748
-0.18964796143759355 0.7908677755731061
-0.17963222460915843 0.7456821200269795
-0.15960075095228818 0.7456821200269795
-0.10952206681011255 0.7758058903910638
-0.049427645839501815 0.7607440052090217
-0.01938043535419644 0.7306202348449373
-0.00936469852576132 0.6854345792988108
-0.01938043535419644 0.6703726941167686
0.010666775131108927 0.6703726941167686
0.07076119610171967 0.6553108089347264
0.12083988024389529 0.6101251533885999
0.1308556170723304 0.5950632682065576
0.14087135390076552 0.5348157274783889
0.15088709072920065 0.5046919571143046
0.18093430121450602 0.5046919571143046
0.21098151169981139 0.5197538422963468
0.2710759326704221 0.5197538422963468
0.2810916694988573 0.459506301568178
0.2810916694988573 0.42938253120409364
0.3011231431557275 0.4143206460220515
0.2810916694988573 0.3992587608400093
0.32115461681259777 0.3841968756579671
0.3512018272979031 0.3841968756579671
0.341186090469468 0.35407310529388275
0.3512018272979031 0.30888744974775617
0.33117035364103287 0.24863990901958746
0.32115461681259777 0.24863990901958746
0.32115461681259777 0.2787636793836718
0.341186090469468 0.24863990901958746
0.32115461681259777 0.26370179420162965
0.341186090469468 0.2034542534734609
0.3011231431557275 0.18839236829141873
0.3011231431557275 0.18839236829141873
0.3111388799841626 0.2185161386555031
0.32115461681259777 0.2034542534734609
0.3011231431557275 0.2185161386555031
0.3011231431557275 0.17333048310937654
0.2710759326704221 0.12814482756325
0.24102872218511676 0.15826859792733436
0.2510444590135519 0.17333048310937654
0.2810916694988573 0.2034542534734609
0.26106019584198703 0.2034542534734609
0.24102872218511676 0.17333048310937654
0.24102872218511676 0.18839236829141873
0.24102872218511676 0.18839236829141873
0.2710759326704221 0.23357802383754528
0.3011231431557275 0.24863990901958746
0.3011231431557275 0.26370179420162965
0.2710759326704221 0.2185161386555031
0.2510444590135519 0.2185161386555031
0.2510444590135519 0.2185161386555031
0.2810916694988573 0.24863990901958746
0.2810916694988573 0.24863990901958746
0.24102872218511676 0.2185161386555031
0.23101298535668163 0.17333048310937654
0.23101298535668163 0.12814482756325
0.2209972485282465 0.15826859792733436
0.2510444590135519 0.17333048310937654
0.3011231431557275 0.18839236829141873
0.341186090469468 0.2034542534734609
0.3512018272979031 0.2185161386555031
0.341186090469468 0.15826859792733436
0.32115461681259777 0.17333048310937654
0.32115461681259777 0.18839236829141873
0.36121756412633826 0.2185161386555031
0.3812490377832085 0.23357802383754528
0.36121756412633826 0.2185161386555031
0.341186090469468 0.2034542534734609
0.33117035364103287 0.18839236829141873
0.341186090469468 0.26370179420162965
0.36121756412633826 0.26370179420162965
0.3812490377832085 0.2034542534734609
0.3812490377832085 0.18839236829141873
0.37123330095477336 0.15826859792733436
0.36121756412633826 0.17333048310937654
0.40128051144007876 0.23357802383754528
0.3912647746116436 0.2787636793836718
0.36121756412633826 0.24863990901958746
0.32115461681259777 0.18839236829141873
0.24102872218511676 0.23357802383754528
0.18093430121450602 0.23357802383754528
0.1308556170723304 0.26370179420162965
0.12083988024389529 0.2787636793836718
0.09079266975858992 0.2787636793836718
0.020682511959544052 0.26370179420162965
-0.03941190901106669 0.24863990901958746
-0.07947485632480718 0.293825564565714
-0.07947485632480718 0.30888744974775617
-0.07947485632480718 0.3239493349297984
-0.06945911949637205 0.293825564565714
-0.09950632998167742 0.26370179420162965
-0.11953780363854767 0.2787636793836718
-0.1295535404669828 0.2787636793836718
-0.10952206681011255 0.293825564565714
-0.09950632998167742 0.293825564565714
-0.09950632998167742 0.26370179420162965
-0.09950632998167742 0.24863990901958746
-0.10952206681011255 0.2034542534734609
-0.11953780363854767 0.26370179420162965
-0.09950632998167742 0.2787636793836718
-0.10952206681011255 0.26370179420162965
-0.07947485632480718 0.24863990901958746
-0.06945911949637205 0.2185161386555031
-0.10952206681011255 0.2185161386555031
-0.13956927729541793 0.2034542534734609
-0.07947485632480718 0.24863990901958746
-0.06945911949637205 0.24863990901958746
-0.06945911949637205 0.24863990901958746
-0.06945911949637205 0.23357802383754528
-0.0894905931532423 0.2185161386555031
-0.09950632998167742 0.2034542534734609
-0.06945911949637205 0.23357802383754528
-0.049427645839501815 0.23357802383754528
-0.03941190901106669 0.2185161386555031
-0.05944338266793694 0.2034542534734609
-0.06945911949637205 0.18839236829141873
-0.06945911949637205 0.2034542534734609
-0.049427645839501815 0.23357802383754528
-0.029396172182631564 0.23357802383754528
-0.049427645839501815 0.23357802383754528
-0.03941190901106669 0.18839236829141873
-0.03941190901106669 0.17333048310937654
-0.049427645839501815 0.18839236829141873
-0.029396172182631564 0.2185161386555031
-0.01938043535419644 0.2185161386555031
-0.01938043535419644 0.2185161386555031
-0.00936469852576132 0.2185161386555031
-0.029396172182631564 0.18839236829141873
-0.029396172182631564 0.2034542534734609
0.0006510383026738047 0.23357802383754528
0.010666775131108927 0.23357802383754528
-0.00936469852576132 0.2185161386555031
0.010666775131108927 0.2185161386555031
-0.00936469852576132 0.18839236829141873
-0.00936469852576132 0.24863990901958746
0.0006510383026738047 0.293825564565714
-0.01938043535419644 0.35407310529388275
-0.049427645839501815 0.3992587608400093
-0.11953780363854767 0.4745681867502202
-0.1295535404669828 0.5046919571143046
-0.14958501412385306 0.5649394978424733
-0.07947485632480718 0.5950632682065576
0.10080840658702504 0.5046919571143046
0.3512018272979031 0.35407310529388275
0.6416581953225217 0.17333048310937654
0.9321145633471403 -0.09778345016738277
1.1825079840580184 -0.3688973834441421
1.3828227206267207 -0.609887546356817
1.563105983538553 -0.8659395944515341
1.8134994042494312 -1.1671772980923778
2.093940035445615 -1.6190338535536433
2.384396403470233 -2.2064473756532883
2.6648370346664167 -2.763737127388849
2.9753248763479054 -3.2005317976680727
3.245749770715654 -3.4415219605807477
3.3859700863137454 -3.5318932716730007
3.406001559970616 -3.5318932716730007
3.3959858231421807 -3.5168313864909586
3.3659386126568753 -3.4264600753987056
3.2958284548578294 -3.215593682850115
3.085497981460692 -3.0348510606656087
2.7449629292938975 -2.808922782934976
2.344333456156493 -2.552870734840259
2.0138141408181336 -2.326942457109626
1.6632633518229043 -2.131137949743078
1.3728069837982857 -1.8750859016483605
1.0122404579746214 -1.6642195090997698
0.581563774351911 -1.5437244276434323
0.12083988024389529 -1.4081674610050527
-0.2597581192366394 -1.2424867240025887
-0.550214487261258 -1.1219916425462513
-0.8006079079721361 -0.9713727907258294
-1.0109383813692736 -0.8358158240874498
-1.1711901706242356 -0.7303826278131544
-1.2713475389085869 -0.6550732019029436
-1.3013947493938922 -0.5948256611747749
-1.3114104862223273 -0.5195162352645639
-1.2713475389085869 -0.41408303899026866
-1.2513160652517166 -0.3387736130800577
-1.2312845915948463 -0.18815476125963587
-1.2312845915948463 -0.14296910571350932
-1.201237381109541 -0.0676596798032984
-1.12111148648206 0.052835401653039064
-1.0009226445408386 0.17333048310937654
-0.9107810130849224 0.24863990901958746
-0.8406708552858766 0.3239493349297984
-0.8206393816290063 0.33901122011184054
-0.790592171143701 0.4143206460220515
-0.7705606974868306 0.4896300719322624
-0.6904348028593497 0.5649394978424733
-0.6203246450603038 0.5950632682065576
-0.5802616977465633 0.6402489237526843
-0.550214487261258 0.6703726941167686
-0.5301830136043877 0.6553108089347264
-0.5301830136043877 0.6553108089347264
-0.4801043294622121 0.7155583496628951
-0.4801043294622121 0.7607440052090217
-0.470088592633777 0.7306202348449373
-0.4801043294622121 0.6703726941167686
-0.5101515399475175 0.6854345792988108
-0.5001358031190823 0.700496464480853
-0.5001358031190823 0.7306202348449373
-0.49012006629064725 0.7607440052090217
-0.49012006629064725 0.7607440052090217
-0.5401987504328228 0.7306202348449373
-0.5401987504328228 0.700496464480853
-0.550214487261258 0.7607440052090217
-0.5401987504328228 0.8059296607551483
-0.5401987504328228 0.8209915459371905
-0.5301830136043877 0.8360534311192326
-0.5702459609181282 0.8209915459371905
-0.5902774345749985 0.7908677755731061
-0.5902774345749985 0.8511153163012748
-0.5602302240896931 0.8812390866653592
-0.5802616977465633 0.8812390866653592
-0.5802616977465633 0.9113628570294435
-0.6002931714034336 0.8360534311192326
-0.6103089082318687 0.8812390866653592
-0.6403561187171741 0.866177201483317
-0.6203246450603038 0.9264247422114857
-0.5902774345749985 0.941486627393528
-0.5802616977465633 0.9264247422114857
-0.5802616977465633 0.95654851257557
-0.6103089082318687 0.8963009718474013
-0.6403561187171741 0.941486627393528
-0.6002931714034336 0.9716103977576123
-0.5802616977465633 0.95654851257557
-0.6002931714034336 0.9866722829396545
-0.5802616977465633 0.95654851257557
-0.5902774345749985 0.941486627393528
-0.5802616977465633 1.0017341681216967
-0.550214487261258 0.9866722829396545
-0.5401987504328228 0.9716103977576123
-0.5101515399475175 0.9866722829396545
-0.4801043294622121 0.9716103977576123
-0.49012006629064725 0.8963009718474013
-0.49012006629064725 0.941486627393528
-0.470088592633777 0.941486627393528
-0.3999784348347311 0.9264247422114857
-0.37994696117786086 0.9113628570294435
-0.3599154875209906 0.8812390866653592
-0.3298682770356853 0.8511153163012748
-0.30983680337881503 0.8360534311192326
-0.27978959289350963 0.866177201483317
-0.22971090875133404 0.8812390866653592
-0.19966369826602867 0.8360534311192326
-0.18964796143759355 0.7758058903910638
-0.1696164877807233 0.7758058903910638
-0.1295535404669828 0.7607440052090217
-0.0894905931532423 0.7758058903910638
-0.049427645839501815 0.7607440052090217
-0.00936469852576132 0.7607440052090217
0.010666775131108927 0.6854345792988108
0.020682511959544052 0.6553108089347264
0.05072972244484942 0.6402489237526843
0.10080840658702504 0.6553108089347264
0.14087135390076552 0.6402489237526843
0.16090282755763577 0.6251870385706421
0.19095003804294114 0.5950632682065576
0.19095003804294114 0.5197538422963468
0.2209972485282465 0.5197538422963468
0.24102872218511676 0.5197538422963468
0.32115461681259777 0.5197538422963468
0.3512018272979031 0.4745681867502202
0.36121756412633826 0.44444441638613585
0.3812490377832085 0.3841968756579671
0.3912647746116436 0.3691349904759249
0.37123330095477336 0.35407310529388275
0.44134345875381925 0.35407310529388275
0.421311985096949 0.30888744974775617
0.421311985096949 0.30888744974775617
0.4313277219253841 0.18839236829141873
0.44134345875381925 0.23357802383754528
0.45135919558225435 0.2185161386555031
0.4713906692391246 0.2185161386555031
0.48140640606755974 0.18839236829141873
0.4713906692391246 0.18839236829141873
0.45135919558225435 0.12814482756325
0.44134345875381925 0.15826859792733436
0.4613749324106895 0.17333048310937654
0.4713906692391246 0.14320671274529218
0.49142214289599484 0.15826859792733436
0.4613749324106895 0.12814482756325
0.421311985096949 0.06789728683508126
0.41129624826851385 0.11308294238120781
0.421311985096949 0.08295917201712344
0.421311985096949 0.11308294238120781
0.421311985096949 0.09802105719916562
0.421311985096949 0.09802105719916562
0.40128051144007876 0.06789728683508126
0.40128051144007876 0.09802105719916562
0.421311985096949 0.15826859792733436
0.45135919558225435 0.17333048310937654
0.45135919558225435 0.2034542534734609
0.45135919558225435 0.18839236829141873
0.421311985096949 0.14320671274529218
0.41129624826851385 0.14320671274529218
0.4313277219253841 0.18839236829141873
0.44134345875381925 0.18839236829141873
0.421311985096949 0.18839236829141873
0.41129624826851385 0.14320671274529218
0.3812490377832085 0.08295917201712344
0.3912647746116436 0.09802105719916562
0.40128051144007876 0.08295917201712344
0.45135919558225435 0.12814482756325
0.4613749324106895 0.09802105719916562
0.48140640606755974 0.09802105719916562
0.49142214289599484 0.09802105719916562
0.49142214289599484 0.11308294238120781
0.48140640606755974 0.14320671274529218
0.49142214289599484 0.14320671274529218
0.5114536165528651 0.14320671274529218
0.4613749324106895 0.11308294238120781
0.4313277219253841 0.09802105719916562
0.4313277219253841 0.15826859792733436
0.421311985096949 0.2185161386555031
0.45135919558225435 0.2185161386555031
0.45135919558225435 0.14320671274529218
0.44134345875381925 0.08295917201712344
0.421311985096949 0.06789728683508126
0.45135919558225435 0.08295917201712344
0.50143787972443 0.14320671274529218
0.50143787972443 0.17333048310937654
0.48140640606755974 0.14320671274529218
0.44134345875381925 0.15826859792733436
0.36121756412633826 0.14320671274529218
0.3011231431557275 0.15826859792733436
0.23101298535668163 0.14320671274529218
0.21098151169981139 0.2034542534734609
0.1709185643860709 0.17333048310937654
0.10080840658702504 0.15826859792733436
0.06074545927328454 0.15826859792733436
0.010666775131108927 0.14320671274529218
-0.00936469852576132 0.2034542534734609
0.0006510383026738047 0.2185161386555031
-0.01938043535419644 0.2034542534734609
-0.03941190901106669 0.23357802383754528
-0.03941190901106669 0.12814482756325
-0.049427645839501815 0.2185161386555031
-0.03941190901106669 0.2034542534734609
-0.01938043535419644 0.18839236829141873
0.0006510383026738047 0.18839236829141873
-0.05944338266793694 0.15826859792733436
-0.06945911949637205 0.12814482756325
-0.05944338266793694 0.14320671274529218
-0.029396172182631564 0.17333048310937654
0.010666775131108927 0.18839236829141873
0.0006510383026738047 0.17333048310937654
-0.01938043535419644 0.14320671274529218
-0.029396172182631564 0.09802105719916562
-0.049427645839501815 0.12814482756325
-0.03941190901106669 0.17333048310937654
0.010666775131108927 0.14320671274529218
0.0006510383026738047 0.14320671274529218
0.0006510383026738047 0.14320671274529218
-0.029396172182631564 0.11308294238120781
-0.01938043535419644 0.11308294238120781
-0.00936469852576132 0.14320671274529218
0.020682511959544052 0.15826859792733436
0.040713985616414296 0.15826859792733436
0.020682511959544052 0.09802105719916562
-0.00936469852576132 0.08295917201712344
0.0006510383026738047 0.06789728683508126
0.020682511959544052 0.11308294238120781
0.040713985616414296 0.14320671274529218
0.040713985616414296 0.14320671274529218
0.040713985616414296 0.12814482756325
0.020682511959544052 0.11308294238120781
0.020682511959544052 0.11308294238120781
0.05072972244484942 0.12814482756325
0.0807769329301548 0.14320671274529218
0.06074545927328454 0.14320671274529218
0.06074545927328454 0.11308294238120781
0.05072972244484942 0.08295917201712344
0.040713985616414296 0.12814482756325
0.06074545927328454 0.11308294238120781
0.0807769329301548 0.17333048310937654
0.09079266975858992 0.14320671274529218
0.07076119610171967 0.09802105719916562
0.06074545927328454 0.08295917201712344
0.05072972244484942 0.09802105719916562
0.07076119610171967 0.17333048310937654
0.0807769329301548 0.18839236829141873
0.07076119610171967 0.26370179420162965
0.020682511959544052 0.26370179420162965
-0.029396172182631564 0.30888744974775617
-0.07947485632480718 0.3691349904759249
-0.07947485632480718 0.4896300719322624
-0.029396172182631564 0.5348157274783889
0.05072972244484942 0.459506301568178
0.24102872218511676 0.3239493349297984
0.44134345875381925 0.15826859792733436
0.7017526162931325 0.0227116312889547
0.9721775106608808 -0.23334041680576242
1.232586668200194 -0.48939246490047955
1.4128699311120263 -0.7002588574490701
1.553090246710118 -1.0014965610899138
1.7433892464503853 -1.3177961499127997
2.0138141408181336 -1.7094051646458965
2.3543491929849276 -2.236571146017373
2.6548212978379815 -2.733613357024765
2.935261929034165 -3.245717453214199
3.185655349745043 -3.562017042037085
3.3759543494853106 -3.7578215494036336
3.496143191426532 -3.7879453197677178
3.5562376123971426 -3.7427596642215915
3.5762690860540127 -3.6975740086754647
3.5362061387402726 -3.6072026975832117
