-0.15960075095228818 0.42938253120409364
-0.09950632998167742 0.5046919571143046
-0.05944338266793694 0.4745681867502202
-0.01938043535419644 0.459506301568178
0.030698248787979176 0.4143206460220515
0.040713985616414296 0.3691349904759249
0.05072972244484942 0.33901122011184054
0.0807769329301548 0.3691349904759249
0.1308556170723304 0.3691349904759249
0.16090282755763577 0.33901122011184054
0.20096577487137626 0.30888744974775617
0.20096577487137626 0.2185161386555031
0.19095003804294114 0.2034542534734609
0.24102872218511676 0.26370179420162965
0.2510444590135519 0.2185161386555031
0.2710759326704221 0.18839236829141873
0.2710759326704221 0.14320671274529218
0.26106019584198703 0.12814482756325
0.2510444590135519 0.11308294238120781
0.2510444590135519 0.09802105719916562
0.26106019584198703 0.09802105719916562
0.3011231431557275 0.09802105719916562
0.2911074063272924 0.0227116312889547
0.26106019584198703 0.0227116312889547
0.2209972485282465 -0.022474024257171852
0.23101298535668163 0.0227116312889547
0.23101298535668163 0.0227116312889547
0.23101298535668163 0.007649746106912516
0.24102872218511676 -0.03753590943921403
0.21098151169981139 -0.052597794621256216
0.18093430121450602 -0.052597794621256216
0.18093430121450602 -0.03753590943921403
0.18093430121450602 0.0227116312889547
0.19095003804294114 -0.03753590943921403
0.1709185643860709 -0.022474024257171852
0.16090282755763577 -0.0676596798032984
0.11082414341546017 -0.08272156498534058
0.1308556170723304 -0.03753590943921403
0.12083988024389529 -0.007412139075129668
0.16090282755763577 -0.007412139075129668
0.1709185643860709 0.007649746106912516
0.14087135390076552 -0.022474024257171852
0.15088709072920065 -0.007412139075129668
0.18093430121450602 0.052835401653039064
0.2209972485282465 0.08295917201712344
0.24102872218511676 0.06789728683508126
0.24102872218511676 0.06789728683508126
0.21098151169981139 -0.007412139075129668
0.1709185643860709 -0.007412139075129668
0.18093430121450602 0.03777351647099688
0.21098151169981139 0.03777351647099688
0.23101298535668163 0.0227116312889547
0.19095003804294114 -0.022474024257171852
0.19095003804294114 -0.022474024257171852
0.21098151169981139 -0.03753590943921403
0.23101298535668163 0.007649746106912516
0.2510444590135519 0.0227116312889547
0.3011231431557275 0.007649746106912516
0.2911074063272924 0.007649746106912516
0.2710759326704221 -0.007412139075129668
0.26106019584198703 -0.022474024257171852
0.26106019584198703 -0.007412139075129668
0.2810916694988573 0.052835401653039064
0.2510444590135519 0.03777351647099688
0.2510444590135519 0.06789728683508126
0.2209972485282465 0.08295917201712344
0.21098151169981139 0.0227116312889547
0.2209972485282465 0.0227116312889547
0.2209972485282465 0.052835401653039064
0.26106019584198703 0.03777351647099688
0.2510444590135519 0.03777351647099688
0.24102872218511676 0.0227116312889547
0.23101298535668163 0.0227116312889547
0.2209972485282465 0.052835401653039064
0.24102872218511676 0.11308294238120781
0.18093430121450602 0.06789728683508126
0.11082414341546017 0.052835401653039064
0.05072972244484942 -0.022474024257171852
-0.01938043535419644 0.007649746106912516
-0.049427645839501815 0.03777351647099688
-0.07947485632480718 0.08295917201712344
-0.0894905931532423 0.06789728683508126
-0.14958501412385306 0.09802105719916562
-0.18964796143759355 0.052835401653039064
-0.22971090875133404 0.06789728683508126
-0.2096794350944638 0.09802105719916562
-0.19966369826602867 0.09802105719916562
-0.2096794350944638 0.11308294238120781
-0.21969517192289892 0.11308294238120781
-0.22971090875133404 0.03777351647099688
-0.2497423824082043 0.03777351647099688
-0.2497423824082043 0.052835401653039064
-0.23972664557976917 0.11308294238120781
-0.21969517192289892 0.06789728683508126
-0.22971090875133404 0.06789728683508126
-0.23972664557976917 0.0227116312889547
-0.2497423824082043 0.0227116312889547
-0.23972664557976917 0.03777351647099688
-0.22971090875133404 0.08295917201712344
-0.21969517192289892 0.0227116312889547
-0.21969517192289892 0.007649746106912516
-0.22971090875133404 0.0227116312889547
-0.2497423824082043 -0.007412139075129668
-0.22971090875133404 0.0227116312889547
-0.19966369826602867 0.03777351647099688
-0.18964796143759355 0.03777351647099688
-0.1696164877807233 -0.03753590943921403
-0.19966369826602867 -0.03753590943921403
-0.2096794350944638 -0.007412139075129668
-0.2096794350944638 -0.007412139075129668
-0.18964796143759355 0.08295917201712344
-0.15960075095228818 0.007649746106912516
-0.15960075095228818 0.0227116312889547
-0.15960075095228818 0.007649746106912516
-0.21969517192289892 -0.03753590943921403
-0.1696164877807233 0.03777351647099688
-0.14958501412385306 0.03777351647099688
-0.10952206681011255 -0.007412139075129668
-0.11953780363854767 -0.007412139075129668
-0.10952206681011255 -0.052597794621256216
-0.14958501412385306 -0.022474024257171852
-0.15960075095228818 0.0227116312889547
-0.1295535404669828 0.0227116312889547
-0.0894905931532423 0.0227116312889547
-0.0894905931532423 0.0227116312889547
-0.0894905931532423 -0.022474024257171852
-0.10952206681011255 -0.007412139075129668
-0.10952206681011255 0.052835401653039064
-0.11953780363854767 0.11308294238120781
-0.10952206681011255 0.12814482756325
-0.13956927729541793 0.14320671274529218
-0.18964796143759355 0.17333048310937654
-0.2497423824082043 0.26370179420162965
-0.21969517192289892 0.35407310529388275
-0.14958501412385306 0.3992587608400093
-0.049427645839501815 0.3992587608400093
0.15088709072920065 0.2787636793836718
0.40128051144007876 0.11308294238120781
0.6717054058078271 -0.08272156498534058
0.9721775106608808 -0.278526072351889
1.2125551945433237 -0.5345781204466061
1.3728069837982857 -0.7605063981772389
1.4929958257395073 -0.9864346759078716
1.6732790886513393 -1.2726104943666732
1.8936252988769122 -1.7094051646458965
2.1640501932446603 -2.176323605289204
2.4244593507839736 -2.6131182755684277
2.6648370346664167 -2.97460351993744
2.8351045607498135 -3.2758412235782837
2.9552934026910354 -3.396336305034621
2.96530913951947 -3.4264600753987056
2.935261929034165 -3.381274419852579
2.935261929034165 -3.2607793383962416
2.8951989817204247 -3.1252223717578618
2.7349471924654627 -2.97460351993744
2.454506561269279 -2.793860897752934
2.093940035445615 -2.598056390386385
1.8235151410778663 -2.3721281126557527
1.6031689308522936 -2.161261720107162
1.4128699311120263 -2.025704753468782
1.162476510401148 -1.8750859016483605
0.8219414582343539 -1.7244670498279386
0.48140640606755974 -1.588910083189559
0.12083988024389529 -1.4232293461870948
-0.18964796143759355 -1.2876723795487153
-0.4801043294622121 -1.18223918327442
-0.7304977501730902 -1.1069297573642092
-0.9708754340555331 -1.0466822166360403
-1.1611744337958005 -0.9261871351797029
-1.2713475389085869 -0.8056920537233654
-1.3114104862223273 -0.7002588574490701
-1.3314419598791976 -0.6400113167209014
-1.3514734335360679 -0.5647018908106904
-1.3214262230507625 -0.5345781204466061
-1.3114104862223273 -0.4592686945363952
-1.3114104862223273 -0.3387736130800577
-1.2713475389085869 -0.21827853162372024
-1.1912216442811059 -0.12790722053146714
-1.12111148648206 -0.08272156498534058
-1.0610170655114493 -0.052597794621256216
-0.9909069077124034 0.052835401653039064
-0.9308124867417926 0.14320671274529218
-0.8807338025996171 0.2185161386555031
-0.8607023289427468 0.293825564565714
-0.8006079079721361 0.3239493349297984
-0.7505292238299605 0.35407310529388275
-0.71046627651622 0.3691349904759249
-0.6704033292024795 0.4143206460220515
-0.6203246450603038 0.44444441638613585
-0.5902774345749985 0.4896300719322624
-0.5602302240896931 0.459506301568178
-0.5702459609181282 0.42938253120409364
-0.5902774345749985 0.44444441638613585
-0.5902774345749985 0.459506301568178
-0.550214487261258 0.5046919571143046
-0.550214487261258 0.5046919571143046
-0.5602302240896931 0.5046919571143046
-0.6002931714034336 0.44444441638613585
-0.6203246450603038 0.459506301568178
-0.6103089082318687 0.5197538422963468
-0.630340381888739 0.5498776126604311
-0.6203246450603038 0.5649394978424733
-0.6403561187171741 0.5348157274783889
-0.6503718555456092 0.5348157274783889
-0.6804190660309146 0.5498776126604311
-0.6704033292024795 0.5649394978424733
-0.6503718555456092 0.6553108089347264
-0.6704033292024795 0.6101251533885999
-0.6704033292024795 0.5950632682065576
-0.6904348028593497 0.5498776126604311
-0.7004505396877848 0.5800013830245155
-0.7204820133446551 0.6251870385706421
-0.6904348028593497 0.6553108089347264
-0.6704033292024795 0.6854345792988108
-0.6904348028593497 0.6703726941167686
-0.6804190660309146 0.6402489237526843
-0.71046627651622 0.6703726941167686
-0.6804190660309146 0.7155583496628951
-0.6603875923740443 0.7306202348449373
-0.6503718555456092 0.7306202348449373
-0.6704033292024795 0.700496464480853
-0.6704033292024795 0.6854345792988108
-0.6804190660309146 0.700496464480853
-0.6503718555456092 0.7306202348449373
-0.6203246450603038 0.7456821200269795
-0.6103089082318687 0.7456821200269795
-0.5902774345749985 0.7456821200269795
-0.5902774345749985 0.6703726941167686
-0.5902774345749985 0.6703726941167686
-0.550214487261258 0.6703726941167686
-0.5001358031190823 0.7456821200269795
-0.46007285580534185 0.7456821200269795
-0.45005711897690676 0.700496464480853
-0.45005711897690676 0.6703726941167686
-0.45005711897690676 0.6402489237526843
-0.389962698006296 0.6402489237526843
-0.33988401386412037 0.6703726941167686
-0.30983680337881503 0.6402489237526843
-0.27978959289350963 0.5950632682065576
-0.27978959289350963 0.5800013830245155
-0.2597581192366394 0.5800013830245155
-0.21969517192289892 0.5649394978424733
-0.1696164877807233 0.5800013830245155
-0.10952206681011255 0.5498776126604311
-0.10952206681011255 0.5197538422963468
-0.0894905931532423 0.5046919571143046
-0.049427645839501815 0.459506301568178
-0.01938043535419644 0.4745681867502202
0.010666775131108927 0.5046919571143046
0.0807769329301548 0.459506301568178
0.10080840658702504 0.3992587608400093
0.11082414341546017 0.3841968756579671
0.12083988024389529 0.3691349904759249
0.16090282755763577 0.35407310529388275
0.20096577487137626 0.35407310529388275
0.2510444590135519 0.30888744974775617
0.26106019584198703 0.293825564565714
0.2710759326704221 0.2034542534734609
0.2510444590135519 0.2034542534734609
0.2810916694988573 0.2185161386555031
0.3111388799841626 0.18839236829141873
0.3512018272979031 0.2034542534734609
0.3512018272979031 0.12814482756325
0.36121756412633826 0.11308294238120781
0.33117035364103287 0.052835401653039064
0.36121756412633826 0.08295917201712344
0.3812490377832085 0.09802105719916562
0.40128051144007876 0.03777351647099688
0.40128051144007876 0.0227116312889547
0.3812490377832085 -0.052597794621256216
0.33117035364103287 -0.0676596798032984
0.33117035364103287 -0.03753590943921403
0.33117035364103287 -0.007412139075129668
0.341186090469468 -0.0676596798032984
0.33117035364103287 -0.052597794621256216
0.3011231431557275 -0.08272156498534058
0.26106019584198703 -0.09778345016738277
0.3011231431557275 -0.08272156498534058
0.2510444590135519 -0.052597794621256216
0.2710759326704221 -0.08272156498534058
0.2710759326704221 -0.12790722053146714
0.24102872218511676 -0.12790722053146714
0.19095003804294114 -0.14296910571350932
0.2209972485282465 -0.08272156498534058
0.21098151169981139 -0.08272156498534058
0.23101298535668163 -0.08272156498534058
0.2510444590135519 -0.0676596798032984
0.23101298535668163 -0.08272156498534058
0.24102872218511676 -0.0676596798032984
0.26106019584198703 -0.007412139075129668
0.2710759326704221 0.0227116312889547
0.2911074063272924 0.052835401653039064
0.3011231431557275 0.007649746106912516
0.2810916694988573 -0.007412139075129668
0.23101298535668163 -0.052597794621256216
0.2710759326704221 -0.0676596798032984
0.32115461681259777 -0.052597794621256216
0.33117035364103287 -0.052597794621256216
0.36121756412633826 -0.08272156498534058
0.341186090469468 -0.09778345016738277
0.32115461681259777 -0.12790722053146714
0.3512018272979031 -0.11284533534942495
0.36121756412633826 -0.03753590943921403
0.41129624826851385 -0.08272156498534058
0.40128051144007876 -0.052597794621256216
0.41129624826851385 -0.11284533534942495
0.3812490377832085 -0.09778345016738277
0.36121756412633826 -0.08272156498534058
0.3512018272979031 -0.022474024257171852
0.341186090469468 0.007649746106912516
0.32115461681259777 -0.08272156498534058
0.32115461681259777 -0.052597794621256216
0.3011231431557275 -0.0676596798032984
0.3111388799841626 -0.08272156498534058
0.3111388799841626 -0.03753590943921403
0.36121756412633826 -0.052597794621256216
0.3512018272979031 -0.03753590943921403
0.32115461681259777 -0.03753590943921403
0.2710759326704221 -0.03753590943921403
0.26106019584198703 -0.007412139075129668
0.23101298535668163 -0.03753590943921403
0.1709185643860709 0.007649746106912516
0.12083988024389529 -0.007412139075129668
0.05072972244484942 -0.03753590943921403
-0.01938043535419644 -0.08272156498534058
-0.049427645839501815 -0.022474024257171852
-0.05944338266793694 0.007649746106912516
-0.0894905931532423 0.007649746106912516
-0.13956927729541793 -0.022474024257171852
-0.1696164877807233 0.007649746106912516
-0.19966369826602867 -0.022474024257171852
-0.19966369826602867 0.007649746106912516
-0.1696164877807233 0.03777351647099688
-0.15960075095228818 0.0227116312889547
-0.15960075095228818 -0.007412139075129668
-0.17963222460915843 -0.03753590943921403
-0.19966369826602867 -0.0676596798032984
-0.17963222460915843 -0.0676596798032984
-0.14958501412385306 -0.022474024257171852
-0.13956927729541793 -0.007412139075129668
-0.14958501412385306 -0.052597794621256216
-0.14958501412385306 -0.03753590943921403
-0.17963222460915843 -0.0676596798032984
-0.15960075095228818 -0.03753590943921403
-0.13956927729541793 -0.007412139075129668
-0.14958501412385306 -0.022474024257171852
-0.14958501412385306 -0.03753590943921403
-0.15960075095228818 -0.08272156498534058
-0.1696164877807233 -0.0676596798032984
-0.15960075095228818 -0.09778345016738277
-0.15960075095228818 -0.022474024257171852
-0.13956927729541793 -0.022474024257171852
-0.15960075095228818 -0.007412139075129668
-0.14958501412385306 -0.052597794621256216
-0.15960075095228818 -0.09778345016738277
-0.15960075095228818 -0.03753590943921403
-0.11953780363854767 -0.052597794621256216
-0.11953780363854767 -0.052597794621256216
-0.10952206681011255 -0.08272156498534058
-0.11953780363854767 -0.08272156498534058
-0.1295535404669828 -0.09778345016738277
-0.07947485632480718 -0.08272156498534058
-0.07947485632480718 -0.03753590943921403
-0.05944338266793694 -0.052597794621256216
-0.07947485632480718 -0.08272156498534058
-0.09950632998167742 -0.12790722053146714
-0.11953780363854767 -0.12790722053146714
-0.09950632998167742 -0.09778345016738277
-0.07947485632480718 -0.0676596798032984
-0.06945911949637205 -0.052597794621256216
-0.049427645839501815 -0.09778345016738277
-0.049427645839501815 -0.12790722053146714
-0.06945911949637205 -0.11284533534942495
-0.049427645839501815 -0.052597794621256216
-0.05944338266793694 -0.03753590943921403
-0.05944338266793694 0.007649746106912516
-0.029396172182631564 0.0227116312889547
-0.09950632998167742 0.007649746106912516
-0.1696164877807233 0.08295917201712344
-0.17963222460915843 0.2034542534734609
-0.1696164877807233 0.2185161386555031
-0.14958501412385306 0.293825564565714
-0.1295535404669828 0.2787636793836718
0.0006510383026738047 0.18839236829141873
0.18093430121450602 0.03777351647099688
0.4713906692391246 -0.0676596798032984
0.7317998267784378 -0.20321664644167806
0.9721775106608808 -0.4743305797184374
1.1424450367442778 -0.7153207426311123
1.2626338786854994 -0.9261871351797029
1.3828227206267207 -1.1370535277282934
1.643231878166034 -1.4533531165511793
1.9236725093622176 -1.8600240164663182
2.224144614215271 -2.35706622747371
2.4845537717545843 -2.83904655329906
2.684868508323287 -3.215593682850115
2.865151771235119 -3.4415219605807477
3.0454350341469514 -3.5318932716730007
3.1155451919459973 -3.546955156855043
3.185655349745043 -3.5168313864909586
3.1656238760881728 -3.471645730944832
3.105529455117562 -3.381274419852579
2.9953563500047755 -3.1854699124860306
2.8150730870929435 -3.0197891754835666
2.53463245589676 -2.823984668117018
2.2541918247005768 -2.643242045932512
1.9837669303328282 -2.477561308930048
1.793467930592561 -2.326942457109626
1.5430745098816827 -2.2064473756532883
1.2926810891708047 -1.995580983104698
1.0122404579746214 -1.8600240164663182
0.7117683531215676 -1.6943432794638542
0.341186090469468 -1.5738481980075167
0.0006510383026738047 -1.4684150017332216
-0.33988401386412037 -1.3479199202768841
-0.6002931714034336 -1.2575486091846309
-0.8506865921143116 -1.1069297573642092
-0.9909069077124034 -1.0466822166360403
-1.1311272233104952 -0.9713727907258294
-1.2513160652517166 -0.9111252499976606
-1.3314419598791976 -0.8358158240874498
-1.3715049071929382 -0.7303826278131544
-1.3414576967076328 -0.6550732019029436
-1.3214262230507625 -0.5948256611747749
-1.3214262230507625 -0.5195162352645639
-1.3314419598791976 -0.4743305797184374
-1.3514734335360679 -0.39902115380822645
-1.2913790125654572 -0.2935879575339312
-1.2212688547664112 -0.1580309908955515
-1.12111148648206 -0.12790722053146714
-1.040985591854579 -0.08272156498534058
-1.0209541181977089 -0.007412139075129668
-0.9408282235702278 0.03777351647099688
-0.9308124867417926 0.14320671274529218
-0.8607023289427468 0.2185161386555031
-0.8206393816290063 0.26370179420162965
-0.8006079079721361 0.2787636793836718
-0.7505292238299605 0.30888744974775617
-0.7405134870015253 0.3239493349297984
-0.6804190660309146 0.3841968756579671
-0.6403561187171741 0.3992587608400093
-0.6103089082318687 0.3841968756579671
-0.5802616977465633 0.4143206460220515
-0.6002931714034336 0.3992587608400093
-0.6503718555456092 0.3841968756579671
-0.6002931714034336 0.3992587608400093
-0.5902774345749985 0.44444441638613585
-0.5802616977465633 0.4143206460220515
-0.5902774345749985 0.4143206460220515
-0.6203246450603038 0.3841968756579671
-0.6503718555456092 0.4143206460220515
-0.630340381888739 0.42938253120409364
-0.6203246450603038 0.5046919571143046
-0.6503718555456092 0.459506301568178
-0.6403561187171741 0.459506301568178
-0.6503718555456092 0.459506301568178
-0.6704033292024795 0.4745681867502202
-0.6804190660309146 0.4896300719322624
-0.6603875923740443 0.5498776126604311
-0.6603875923740443 0.5498776126604311
-0.6704033292024795 0.5498776126604311
-0.7204820133446551 0.4896300719322624
-0.7304977501730902 0.4745681867502202
-0.7204820133446551 0.5046919571143046
-0.71046627651622 0.5950632682065576
-0.71046627651622 0.5649394978424733
-0.71046627651622 0.6101251533885999
-0.7304977501730902 0.5498776126604311
-0.7505292238299605 0.5498776126604311
-0.7405134870015253 0.6101251533885999
-0.7405134870015253 0.6553108089347264
-0.7304977501730902 0.6402489237526843
-0.7204820133446551 0.6402489237526843
-0.7304977501730902 0.6251870385706421
-0.7204820133446551 0.6402489237526843
-0.7004505396877848 0.6251870385706421
-0.71046627651622 0.6703726941167686
-0.6804190660309146 0.6854345792988108
-0.6704033292024795 0.6553108089347264
-0.6603875923740443 0.5950632682065576
-0.6603875923740443 0.6101251533885999
-0.6403561187171741 0.6251870385706421
-0.6002931714034336 0.6553108089347264
-0.5802616977465633 0.6553108089347264
-0.5702459609181282 0.6553108089347264
-0.5802616977465633 0.6101251533885999
-0.5702459609181282 0.5950632682065576
-0.550214487261258 0.5950632682065576
-0.5101515399475175 0.6251870385706421
-0.4400413821484716 0.5950632682065576
-0.4400413821484716 0.5950632682065576
-0.3999784348347311 0.5950632682065576
-0.40999417166316626 0.5348157274783889
-0.36993122434942577 0.5800013830245155
-0.30983680337881503 0.5800013830245155
-0.27978959289350963 0.5348157274783889
-0.2497423824082043 0.5498776126604311
-0.2497423824082043 0.4896300719322624
-0.2497423824082043 0.44444441638613585
-0.19966369826602867 0.4896300719322624
-0.14958501412385306 0.4896300719322624
-0.09950632998167742 0.42938253120409364
-0.05944338266793694 0.44444441638613585
-0.049427645839501815 0.3841968756579671
-0.06945911949637205 0.35407310529388275
-0.01938043535419644 0.35407310529388275
0.040713985616414296 0.35407310529388275
0.0807769329301548 0.33901122011184054
0.11082414341546017 0.30888744974775617
0.11082414341546017 0.26370179420162965
0.1308556170723304 0.26370179420162965
0.14087135390076552 0.2034542534734609
0.18093430121450602 0.2185161386555031
0.24102872218511676 0.2185161386555031
0.24102872218511676 0.14320671274529218
0.26106019584198703 0.12814482756325
0.26106019584198703 0.09802105719916562
0.2911074063272924 0.11308294238120781
0.32115461681259777 0.09802105719916562
0.341186090469468 0.08295917201712344
0.341186090469468 0.052835401653039064
0.341186090469468 -0.022474024257171852
0.3011231431557275 -0.022474024257171852
0.32115461681259777 -0.022474024257171852
0.36121756412633826 -0.022474024257171852
0.3812490377832085 -0.022474024257171852
0.37123330095477336 -0.11284533534942495
0.36121756412633826 -0.11284533534942495
0.341186090469468 -0.1580309908955515
0.37123330095477336 -0.11284533534942495
0.36121756412633826 -0.11284533534942495
0.37123330095477336 -0.12790722053146714
0.36121756412633826 -0.14296910571350932
0.341186090469468 -0.1580309908955515
0.3111388799841626 -0.18815476125963587
0.3111388799841626 -0.14296910571350932
0.32115461681259777 -0.12790722053146714
0.32115461681259777 -0.1580309908955515
0.3111388799841626 -0.1730928760775937
0.3011231431557275 -0.1730928760775937
0.26106019584198703 -0.20321664644167806
0.26106019584198703 -0.18815476125963587
0.26106019584198703 -0.14296910571350932
0.24102872218511676 -0.1580309908955515
0.2510444590135519 -0.1580309908955515
0.20096577487137626 -0.21827853162372024
0.19095003804294114 -0.21827853162372024
0.2209972485282465 -0.1580309908955515
0.26106019584198703 -0.09778345016738277
0.26106019584198703 -0.0676596798032984
0.2911074063272924 -0.08272156498534058
0.2510444590135519 -0.11284533534942495
0.23101298535668163 -0.11284533534942495
0.2510444590135519 -0.03753590943921403
0.2710759326704221 -0.022474024257171852
0.2911074063272924 -0.03753590943921403
0.2810916694988573 -0.0676596798032984
0.26106019584198703 -0.12790722053146714
0.2510444590135519 -0.09778345016738277
0.26106019584198703 -0.12790722053146714
0.3011231431557275 -0.12790722053146714
0.32115461681259777 -0.1580309908955515
0.33117035364103287 -0.11284533534942495
0.341186090469468 -0.14296910571350932
0.32115461681259777 -0.1580309908955515
0.341186090469468 -0.14296910571350932
0.37123330095477336 -0.12790722053146714
0.37123330095477336 -0.12790722053146714
0.3812490377832085 -0.11284533534942495
0.36121756412633826 -0.14296910571350932
0.341186090469468 -0.11284533534942495
0.3111388799841626 -0.14296910571350932
0.2911074063272924 -0.052597794621256216
0.32115461681259777 -0.052597794621256216
0.33117035364103287 -0.09778345016738277
0.32115461681259777 -0.14296910571350932
0.2911074063272924 -0.12790722053146714
0.3011231431557275 -0.11284533534942495
0.33117035364103287 -0.0676596798032984
0.32115461681259777 -0.09778345016738277
0.32115461681259777 -0.09778345016738277
0.3011231431557275 -0.09778345016738277
0.2510444590135519 -0.09778345016738277
0.2209972485282465 -0.08272156498534058
0.21098151169981139 -0.03753590943921403
0.1709185643860709 -0.03753590943921403
0.1308556170723304 -0.03753590943921403
0.07076119610171967 -0.08272156498534058
-0.00936469852576132 -0.09778345016738277
-0.03941190901106669 -0.052597794621256216
-0.06945911949637205 -0.022474024257171852
-0.0894905931532423 -0.022474024257171852
-0.1295535404669828 -0.03753590943921403
-0.14958501412385306 -0.0676596798032984
-0.1696164877807233 -0.08272156498534058
-0.1696164877807233 -0.03753590943921403
-0.13956927729541793 -0.03753590943921403
-0.14958501412385306 -0.052597794621256216
-0.1696164877807233 -0.052597794621256216
-0.18964796143759355 -0.11284533534942495
-0.1696164877807233 -0.09778345016738277
-0.17963222460915843 -0.08272156498534058
-0.13956927729541793 -0.0676596798032984
-0.13956927729541793 -0.0676596798032984
-0.14958501412385306 -0.08272156498534058
-0.14958501412385306 -0.09778345016738277
-0.1696164877807233 -0.08272156498534058
-0.13956927729541793 -0.09778345016738277
-0.11953780363854767 -0.052597794621256216
-0.11953780363854767 -0.0676596798032984
-0.1295535404669828 -0.0676596798032984
-0.1295535404669828 -0.12790722053146714
-0.14958501412385306 -0.12790722053146714
-0.13956927729541793 -0.12790722053146714
-0.11953780363854767 -0.08272156498534058
-0.10952206681011255 -0.09778345016738277
-0.11953780363854767 -0.12790722053146714
-0.11953780363854767 -0.14296910571350932
-0.14958501412385306 -0.1580309908955515
-0.14958501412385306 -0.1580309908955515
-0.09950632998167742 -0.09778345016738277
-0.09950632998167742 -0.08272156498534058
-0.10952206681011255 -0.09778345016738277
-0.10952206681011255 -0.14296910571350932
-0.13956927729541793 -0.1580309908955515
-0.13956927729541793 -0.12790722053146714
-0.09950632998167742 -0.08272156498534058
-0.07947485632480718 -0.08272156498534058
-0.06945911949637205 -0.1580309908955515
-0.09950632998167742 -0.1730928760775937
-0.0894905931532423 -0.1580309908955515
-0.0894905931532423 -0.14296910571350932
-0.05944338266793694 -0.11284533534942495
-0.049427645839501815 -0.11284533534942495
-0.03941190901106669 -0.12790722053146714
-0.06945911949637205 -0.14296910571350932
-0.05944338266793694 -0.1730928760775937
-0.049427645839501815 -0.14296910571350932
-0.03941190901106669 -0.09778345016738277
-0.00936469852576132 -0.14296910571350932
0.0006510383026738047 -0.11284533534942495
0.0006510383026738047 -0.12790722053146714
-0.029396172182631564 -0.11284533534942495
-0.029396172182631564 -0.03753590943921403
-0.049427645839501815 0.052835401653039064
-0.06945911949637205 0.06789728683508126
-0.09950632998167742 0.11308294238120781
-0.1295535404669828 0.11308294238120781
-0.1295535404669828 0.2185161386555031
-0.11953780363854767 0.2185161386555031
0.010666775131108927 0.23357802383754528
0.21098151169981139 0.12814482756325
0.4713906692391246 -0.022474024257171852
0.7017526162931325 -0.20321664644167806
0.9220988265187051 -0.3839592686261843
1.152460773572713 -0.6400113167209014
1.2926810891708047 -0.8207539389054076
1.4529328784257667 -1.0316203314539982
1.5931531940238584 -1.2424867240025887
1.8235151410778663 -1.6340957387356856
2.0739085617887443 -2.101014179378993
2.374380666641798 -2.5378088496582167
2.6448055610095462 -2.9444797495733557
2.865151771235119 -3.32102687912441
3.0654665078038215 -3.562017042037085
3.2557655075440888 -3.6975740086754647
3.3058441916862646 -3.7578215494036336
3.3258756653431347 -3.712635893857507
3.35592287582844 -3.6072026975832117
3.3058441916862646 -3.562017042037085
3.2157025602303486 -3.4415219605807477
3.095513718289127 -3.2909031087603258
2.855136034406684 -3.1101604865758197
2.55466392955363 -2.899294094027229
2.274223298357447 -2.718551471842723
2.053877088131874 -2.507685079294132
1.8134994042494312 -2.387189997837795
1.6232004045091637 -2.236571146017373
1.3627912469698507 -2.131137949743078
1.1023820894305374 -1.9503953275585715
0.7718627740921783 -1.7696527053740652
0.4313277219253841 -1.6491576239177277
0.07076119610171967 -1.5437244276434323
-0.22971090875133404 -1.4382912313691372
-0.5301830136043877 -1.3328580350948418
-0.7705606974868306 -1.1973010684564622
-0.9508439603986629 -1.0918678721821669
-1.1010800128251899 -1.016558446271956
-1.201237381109541 -0.9261871351797029
-1.3013947493938922 -0.8659395944515341
-1.3815206440213732 -0.8056920537233654
-1.3514734335360679 -0.7153207426311123
-1.3214262230507625 -0.6249494315388592
-1.2913790125654572 -0.5647018908106904
-1.281363275737022 -0.48939246490047955
-1.2913790125654572 -0.444206809354353
-1.3013947493938922 -0.3538354982620999
-1.2312845915948463 -0.2634641871698468
-1.1511586969673653 -0.12790722053146714
-1.0610170655114493 -0.08272156498534058
-0.9909069077124034 -0.03753590943921403
-0.9808911708839683 -0.007412139075129668
-0.9508439603986629 0.06789728683508126
-0.9007652762564873 0.17333048310937654
-0.8406708552858766 0.23357802383754528
-0.8006079079721361 0.26370179420162965
-0.7605449606583956 0.3239493349297984
-0.7204820133446551 0.30888744974775617
-0.71046627651622 0.33901122011184054
-0.6403561187171741 0.3841968756579671
-0.5902774345749985 0.459506301568178
-0.550214487261258 0.459506301568178
-0.5401987504328228 0.44444441638613585
-0.550214487261258 0.4143206460220515
-0.550214487261258 0.42938253120409364
-0.5401987504328228 0.4745681867502202
-0.5201672767759526 0.5046919571143046
-0.550214487261258 0.4896300719322624
-0.5401987504328228 0.5197538422963468
-0.5602302240896931 0.4745681867502202
-0.5802616977465633 0.4745681867502202
-0.5702459609181282 0.5046919571143046
-0.5702459609181282 0.5498776126604311
-0.5602302240896931 0.5197538422963468
-0.5802616977465633 0.5348157274783889
-0.6002931714034336 0.5197538422963468
-0.6403561187171741 0.5197538422963468
-0.6403561187171741 0.5800013830245155
-0.6103089082318687 0.5950632682065576
-0.5902774345749985 0.5800013830245155
-0.630340381888739 0.6101251533885999
-0.6403561187171741 0.6101251533885999
-0.6804190660309146 0.6101251533885999
-0.6603875923740443 0.6101251533885999
-0.6403561187171741 0.6553108089347264
-0.630340381888739 0.6402489237526843
-0.6403561187171741 0.6553108089347264
-0.6704033292024795 0.6402489237526843
-0.71046627651622 0.6251870385706421
-0.7004505396877848 0.6703726941167686
-0.6904348028593497 0.700496464480853
-0.6603875923740443 0.700496464480853
-0.6704033292024795 0.700496464480853
-0.6904348028593497 0.6854345792988108
-0.71046627651622 0.7155583496628951
-0.6904348028593497 0.7456821200269795
-0.6804190660309146 0.7908677755731061
-0.6403561187171741 0.8059296607551483
-0.6203246450603038 0.7758058903910638
-0.6503718555456092 0.700496464480853
-0.6603875923740443 0.7155583496628951
-0.6603875923740443 0.7306202348449373
-0.6002931714034336 0.8059296607551483
-0.6103089082318687 0.7758058903910638
-0.5602302240896931 0.7456821200269795
-0.5401987504328228 0.7306202348449373
-0.550214487261258 0.7456821200269795
-0.5101515399475175 0.7306202348449373
-0.49012006629064725 0.7607440052090217
-0.4300256453200365 0.7306202348449373
-0.42000990849160136 0.7155583496628951
-0.389962698006296 0.6703726941167686
-0.3999784348347311 0.6703726941167686
-0.36993122434942577 0.6854345792988108
-0.3298682770356853 0.7155583496628951
-0.26977385606507454 0.6854345792988108
-0.21969517192289892 0.6553108089347264
-0.22971090875133404 0.6402489237526843
-0.2096794350944638 0.5950632682065576
-0.14958501412385306 0.6101251533885999
-0.11953780363854767 0.6251870385706421
-0.06945911949637205 0.6101251533885999
-0.03941190901106669 0.5800013830245155
-0.029396172182631564 0.5046919571143046
0.0006510383026738047 0.5046919571143046
0.05072972244484942 0.5046919571143046
0.10080840658702504 0.5046919571143046
0.1308556170723304 0.4896300719322624
0.15088709072920065 0.42938253120409364
0.14087135390076552 0.3992587608400093
0.18093430121450602 0.3841968756579671
0.21098151169981139 0.3992587608400093
0.2510444590135519 0.3992587608400093
0.2911074063272924 0.3691349904759249
0.2710759326704221 0.30888744974775617
0.3011231431557275 0.26370179420162965
0.2911074063272924 0.24863990901958746
0.3512018272979031 0.23357802383754528
0.36121756412633826 0.2185161386555031
0.3912647746116436 0.2185161386555031
0.41129624826851385 0.18839236829141873
0.40128051144007876 0.14320671274529218
0.3912647746116436 0.12814482756325
0.41129624826851385 0.11308294238120781
0.44134345875381925 0.11308294238120781
0.44134345875381925 0.09802105719916562
0.44134345875381925 0.08295917201712344
0.41129624826851385 -0.022474024257171852
0.40128051144007876 0.007649746106912516
0.40128051144007876 -0.022474024257171852
0.41129624826851385 -0.007412139075129668
0.4313277219253841 0.007649746106912516
0.4313277219253841 -0.022474024257171852
0.3812490377832085 -0.03753590943921403
0.37123330095477336 -0.0676596798032984
0.37123330095477336 -0.08272156498534058
0.3812490377832085 -0.03753590943921403
0.3912647746116436 -0.0676596798032984
0.37123330095477336 -0.0676596798032984
0.33117035364103287 -0.11284533534942495
0.3011231431557275 -0.11284533534942495
0.2810916694988573 -0.11284533534942495
0.3111388799841626 -0.0676596798032984
0.2810916694988573 -0.022474024257171852
0.2911074063272924 -0.0676596798032984
0.2810916694988573 -0.08272156498534058
0.24102872218511676 -0.11284533534942495
0.2710759326704221 -0.03753590943921403
0.2810916694988573 -0.007412139075129668
0.3011231431557275 0.0227116312889547
0.32115461681259777 0.007649746106912516
0.2911074063272924 0.0227116312889547
0.2810916694988573 0.0227116312889547
0.3011231431557275 0.052835401653039064
0.2810916694988573 0.08295917201712344
0.3011231431557275 0.03777351647099688
0.32115461681259777 0.0227116312889547
0.32115461681259777 -0.022474024257171852
0.2710759326704221 -0.022474024257171852
0.32115461681259777 -0.007412139075129668
0.33117035364103287 -0.007412139075129668
0.36121756412633826 -0.022474024257171852
0.36121756412633826 -0.052597794621256216
0.3912647746116436 -0.052597794621256216
0.37123330095477336 -0.0676596798032984
0.40128051144007876 -0.03753590943921403
0.40128051144007876 -0.007412139075129668
0.40128051144007876 0.007649746106912516
0.3812490377832085 0.007649746106912516
0.36121756412633826 -0.022474024257171852
0.3512018272979031 -0.022474024257171852
0.341186090469468 0.0227116312889547
0.36121756412633826 0.052835401653039064
0.37123330095477336 0.03777351647099688
0.3912647746116436 0.007649746106912516
0.36121756412633826 -0.007412139075129668
0.33117035364103287 -0.007412139075129668
0.37123330095477336 0.03777351647099688
0.3812490377832085 0.08295917201712344
0.37123330095477336 0.08295917201712344
0.341186090469468 0.052835401653039064
0.2810916694988573 0.007649746106912516
0.20096577487137626 -0.007412139075129668
0.16090282755763577 0.03777351647099688
0.09079266975858992 0.06789728683508126
0.0807769329301548 0.052835401653039064
0.040713985616414296 0.052835401653039064
-0.05944338266793694 0.0227116312889547
-0.11953780363854767 0.03777351647099688
-0.1295535404669828 0.06789728683508126
-0.1295535404669828 0.08295917201712344
-0.10952206681011255 0.09802105719916562
-0.13956927729541793 0.06789728683508126
-0.15960075095228818 0.052835401653039064
-0.17963222460915843 0.0227116312889547
-0.18964796143759355 0.06789728683508126
-0.1696164877807233 0.11308294238120781
-0.13956927729541793 0.06789728683508126
-0.1295535404669828 0.06789728683508126
-0.14958501412385306 0.0227116312889547
-0.18964796143759355 -0.007412139075129668
-0.15960075095228818 0.0227116312889547
-0.14958501412385306 0.052835401653039064
-0.1295535404669828 0.0227116312889547
-0.11953780363854767 -0.007412139075129668
-0.1295535404669828 0.007649746106912516
-0.14958501412385306 -0.03753590943921403
-0.1295535404669828 -0.007412139075129668
-0.10952206681011255 0.0227116312889547
-0.09950632998167742 0.007649746106912516
-0.0894905931532423 0.007649746106912516
-0.09950632998167742 -0.03753590943921403
-0.1295535404669828 -0.03753590943921403
-0.11953780363854767 0.007649746106912516
-0.0894905931532423 0.0227116312889547
-0.07947485632480718 -0.022474024257171852
-0.07947485632480718 -0.007412139075129668
-0.07947485632480718 -0.052597794621256216
-0.09950632998167742 -0.03753590943921403
-0.0894905931532423 0.007649746106912516
-0.0894905931532423 -0.007412139075129668
-0.07947485632480718 -0.022474024257171852
-0.07947485632480718 -0.007412139075129668
-0.10952206681011255 -0.052597794621256216
-0.11953780363854767 -0.022474024257171852
-0.10952206681011255 -0.022474024257171852
-0.0894905931532423 -0.007412139075129668
-0.06945911949637205 -0.007412139075129668
-0.029396172182631564 -0.03753590943921403
-0.049427645839501815 -0.08272156498534058
-0.06945911949637205 -0.0676596798032984
-0.03941190901106669 0.007649746106912516
-0.029396172182631564 0.007649746106912516
0.010666775131108927 0.007649746106912516
-0.00936469852576132 -0.007412139075129668
-0.01938043535419644 0.0227116312889547
-0.03941190901106669 0.06789728683508126
-0.05944338266793694 0.11308294238120781
-0.07947485632480718 0.23357802383754528
-0.11953780363854767 0.293825564565714
-0.11953780363854767 0.33901122011184054
-0.09950632998167742 0.33901122011184054
-0.029396172182631564 0.33901122011184054
0.19095003804294114 0.26370179420162965
0.4713906692391246 0.14320671274529218
0.7618470372637431 -0.03753590943921403
1.0523034052883617 -0.278526072351889
1.2726496155139344 -0.5948256611747749
1.402854194283591 -0.8659395944515341
1.563105983538553 -1.0617441018180824
1.793467930592561 -1.2876723795487153
2.093940035445615 -1.6943432794638542
2.364364929813363 -2.221509260835331
2.5847111400389355 -2.718551471842723
2.805057350264508 -3.140284256939904
3.0554507709753866 -3.411398190216663
3.265781244372524 -3.546955156855043
3.4360487704559213 -3.6222645827652538
3.4861274545980967 -3.637326467947296
3.4560802441127914 -3.6222645827652538
3.3659386126568753 -3.471645730944832
3.245749770715654 -3.2607793383962416
2.9853406131763407 -3.0348510606656087
2.604742613695806 -2.808922782934976
2.214128877386836 -2.6131182755684277
1.8635780883916067 -2.3721281126557527
1.6031689308522936 -2.2064473756532883
1.3327440364845453 -2.025704753468782
1.0222561948030564 -1.829900246102234
0.6516739321509568 -1.6340957387356856
0.2510444590135519 -1.5437244276434323
-0.14958501412385306 -1.4232293461870948
-0.49012006629064725 -1.3027342647307574
-0.7705606974868306 -1.1973010684564622
-0.9708754340555331 -1.1219916425462513
-1.1411429601389302 -0.9713727907258294
-1.2613318020801518 -0.8810014796335763
-1.3314419598791976 -0.8508777092694919
-1.3815206440213732 -0.7605063981772389
-1.3715049071929382 -0.6400113167209014
-1.361489170364503 -0.5345781204466061
-1.3214262230507625 -0.48939246490047955
-1.3013947493938922 -0.3839592686261843
-1.3114104862223273 -0.3538354982620999
-1.3214262230507625 -0.2634641871698468
-1.2413003284232815 -0.18815476125963587
-1.1611744337958005 -0.0676596798032984
-1.040985591854579 0.007649746106912516
-0.9808911708839683 0.06789728683508126
-0.9508439603986629 0.09802105719916562
-0.9107810130849224 0.17333048310937654
-0.8807338025996171 0.2787636793836718
-0.8506865921143116 0.33901122011184054
-0.8006079079721361 0.3841968756579671
-0.7505292238299605 0.4143206460220515
-0.71046627651622 0.42938253120409364
-0.71046627651622 0.44444441638613585
-0.6503718555456092 0.4896300719322624
-0.6403561187171741 0.5649394978424733
-0.5702459609181282 0.5348157274783889
-0.5902774345749985 0.5348157274783889
-0.5802616977465633 0.5046919571143046
-0.6103089082318687 0.5197538422963468
-0.6002931714034336 0.5348157274783889
-0.5702459609181282 0.5950632682065576
-0.5802616977465633 0.5800013830245155
-0.6203246450603038 0.5498776126604311
-0.6203246450603038 0.5348157274783889
-0.6503718555456092 0.5498776126604311
-0.6603875923740443 0.5950632682065576
-0.6403561187171741 0.6251870385706421
-0.6203246450603038 0.6251870385706421
-0.6203246450603038 0.6251870385706421
-0.6503718555456092 0.6402489237526843
-0.6704033292024795 0.6251870385706421
-0.6704033292024795 0.6402489237526843
-0.6503718555456092 0.7155583496628951
-0.6704033292024795 0.700496464480853
-0.6704033292024795 0.700496464480853
-0.6904348028593497 0.6703726941167686
-0.71046627651622 0.6703726941167686
-0.7004505396877848 0.7155583496628951
-0.6904348028593497 0.7607440052090217
-0.6804190660309146 0.7908677755731061
-0.6704033292024795 0.7758058903910638
-0.7304977501730902 0.7758058903910638
-0.7304977501730902 0.7155583496628951
-0.7204820133446551 0.8209915459371905
-0.7204820133446551 0.8360534311192326
-0.7004505396877848 0.8059296607551483
-0.7204820133446551 0.8360534311192326
-0.7204820133446551 0.7908677755731061
-0.7505292238299605 0.7908677755731061
-0.7204820133446551 0.8059296607551483
-0.6904348028593497 0.8511153163012748
-0.6904348028593497 0.8360534311192326
-0.6704033292024795 0.8360534311192326
-0.7004505396877848 0.8209915459371905
-0.6904348028593497 0.7908677755731061
-0.6503718555456092 0.8360534311192326
-0.6002931714034336 0.8511153163012748
-0.5602302240896931 0.8511153163012748
-0.5401987504328228 0.8360534311192326
-0.550214487261258 0.7908677755731061
-0.5401987504328228 0.7758058903910638
-0.5001358031190823 0.8059296607551483
-0.46007285580534185 0.8059296607551483
-0.42000990849160136 0.7456821200269795
-0.40999417166316626 0.7607440052090217
-0.37994696117786086 0.7456821200269795
-0.3599154875209906 0.700496464480853
-0.30983680337881503 0.7155583496628951
-0.2898053297219448 0.7456821200269795
-0.23972664557976917 0.7155583496628951
-0.19966369826602867 0.6703726941167686
-0.15960075095228818 0.6251870385706421
-0.1696164877807233 0.6101251533885999
-0.11953780363854767 0.6251870385706421
-0.0894905931532423 0.6703726941167686
-0.029396172182631564 0.5800013830245155
-0.00936469852576132 0.5800013830245155
0.010666775131108927 0.5197538422963468
0.020682511959544052 0.5197538422963468
0.040713985616414296 0.5348157274783889
0.09079266975858992 0.5197538422963468
0.12083988024389529 0.4745681867502202
0.15088709072920065 0.44444441638613585
0.1709185643860709 0.4143206460220515
0.19095003804294114 0.3691349904759249
0.21098151169981139 0.3841968756579671
0.26106019584198703 0.4143206460220515
0.2810916694988573 0.35407310529388275
0.2710759326704221 0.30888744974775617
0.2911074063272924 0.24863990901958746
0.2810916694988573 0.24863990901958746
0.32115461681259777 0.2185161386555031
0.32115461681259777 0.23357802383754528
0.36121756412633826 0.18839236829141873
0.341186090469468 0.18839236829141873
0.33117035364103287 0.14320671274529218
0.33117035364103287 0.11308294238120781
0.36121756412633826 0.09802105719916562
0.36121756412633826 0.14320671274529218
0.3912647746116436 0.11308294238120781
0.3812490377832085 0.06789728683508126
0.37123330095477336 0.03777351647099688
0.33117035364103287 0.03777351647099688
0.32115461681259777 0.052835401653039064
0.3512018272979031 0.06789728683508126
0.32115461681259777 0.052835401653039064
0.32115461681259777 0.0227116312889547
0.2911074063272924 0.0227116312889547
0.2710759326704221 -0.007412139075129668
0.2510444590135519 -0.007412139075129668
0.26106019584198703 0.03777351647099688
0.2710759326704221 0.0227116312889547
0.2510444590135519 0.052835401653039064
0.23101298535668163 0.007649746106912516
0.24102872218511676 -0.007412139075129668
0.2510444590135519 -0.007412139075129668
0.2510444590135519 0.06789728683508126
0.2710759326704221 0.09802105719916562
0.2710759326704221 0.052835401653039064
0.2810916694988573 0.03777351647099688
0.26106019584198703 0.09802105719916562
0.26106019584198703 0.11308294238120781
0.2810916694988573 0.15826859792733436
0.3011231431557275 0.18839236829141873
0.2810916694988573 0.11308294238120781
0.23101298535668163 0.08295917201712344
0.2209972485282465 0.08295917201712344
0.2209972485282465 0.11308294238120781
0.24102872218511676 0.09802105719916562
0.24102872218511676 0.08295917201712344
0.24102872218511676 0.0227116312889547
0.2510444590135519 0.0227116312889547
0.2710759326704221 0.0227116312889547
0.2810916694988573 0.052835401653039064
0.33117035364103287 0.09802105719916562
0.36121756412633826 0.052835401653039064
0.36121756412633826 0.06789728683508126
0.2911074063272924 0.0227116312889547
0.2810916694988573 0.0227116312889547
0.2911074063272924 0.052835401653039064
0.3011231431557275 0.09802105719916562
0.2911074063272924 0.11308294238120781
0.3011231431557275 0.11308294238120781
0.2810916694988573 0.08295917201712344
0.24102872218511676 0.052835401653039064
0.26106019584198703 0.03777351647099688
0.26106019584198703 0.09802105719916562
0.2810916694988573 0.09802105719916562
0.3111388799841626 0.09802105719916562
0.33117035364103287 0.08295917201712344
0.2710759326704221 0.08295917201712344
0.23101298535668163 0.11308294238120781
0.23101298535668163 0.11308294238120781
0.21098151169981139 0.09802105719916562
0.12083988024389529 0.09802105719916562
0.06074545927328454 0.11308294238120781
0.030698248787979176 0.09802105719916562
0.010666775131108927 0.09802105719916562
-0.03941190901106669 0.14320671274529218
-0.049427645839501815 0.14320671274529218
-0.10952206681011255 0.14320671274529218
-0.14958501412385306 0.09802105719916562
-0.18964796143759355 0.12814482756325
-0.2096794350944638 0.17333048310937654
-0.18964796143759355 0.17333048310937654
-0.18964796143759355 0.15826859792733436
-0.17963222460915843 0.15826859792733436
-0.21969517192289892 0.08295917201712344
-0.21969517192289892 0.11308294238120781
-0.19966369826602867 0.12814482756325
-0.18964796143759355 0.11308294238120781
-0.1696164877807233 0.12814482756325
-0.17963222460915843 0.14320671274529218
-0.18964796143759355 0.11308294238120781
-0.17963222460915843 0.052835401653039064
-0.2096794350944638 0.08295917201712344
-0.14958501412385306 0.12814482756325
-0.15960075095228818 0.12814482756325
-0.13956927729541793 0.11308294238120781
-0.15960075095228818 0.03777351647099688
-0.18964796143759355 0.0227116312889547
-0.17963222460915843 0.08295917201712344
-0.14958501412385306 0.12814482756325
-0.11953780363854767 0.09802105719916562
-0.11953780363854767 0.06789728683508126
-0.1295535404669828 0.0227116312889547
-0.1295535404669828 0.03777351647099688
-0.13956927729541793 0.08295917201712344
-0.13956927729541793 0.08295917201712344
-0.0894905931532423 0.06789728683508126
-0.0894905931532423 0.08295917201712344
-0.11953780363854767 0.052835401653039064
-0.11953780363854767 0.0227116312889547
-0.10952206681011255 0.06789728683508126
-0.07947485632480718 0.08295917201712344
-0.07947485632480718 0.09802105719916562
-0.07947485632480718 0.08295917201712344
-0.0894905931532423 0.08295917201712344
-0.10952206681011255 0.052835401653039064
-0.09950632998167742 0.08295917201712344
-0.07947485632480718 0.09802105719916562
-0.05944338266793694 0.052835401653039064
-0.049427645839501815 0.06789728683508126
-0.03941190901106669 0.052835401653039064
-0.06945911949637205 0.06789728683508126
-0.05944338266793694 0.14320671274529218
-0.07947485632480718 0.23357802383754528
-0.0894905931532423 0.3239493349297984
-0.11953780363854767 0.33901122011184054
-0.10952206681011255 0.3841968756579671
-0.0894905931532423 0.3992587608400093
0.0807769329301548 0.35407310529388275
0.341186090469468 0.2787636793836718
0.661689668979392 0.14320671274529218
0.9621617738324456 -0.09778345016738277
1.2125551945433237 -0.39902115380822645
1.402854194283591 -0.7153207426311123
1.5831374571954233 -0.9111252499976606
1.793467930592561 -1.18223918327442
2.053877088131874 -1.588910083189559
2.3543491929849276 -2.1160760645610353
2.604742613695806 -2.643242045932512
2.845120297578249 -3.049912945847651
3.0554507709753866 -3.3360887643064525
3.175639612916608 -3.381274419852579
3.2257182970587834 -3.3511506494884946
3.2157025602303486 -3.305964993942368
3.1455924024313027 -3.230655568032157
2.9953563500047755 -3.080036716211735
2.805057350264508 -2.8541084384811026
2.4945695085830195 -2.643242045932512
2.1540344564162255 -2.477561308930048
1.8535623515631716 -2.266694916381457
1.563105983538553 -2.1160760645610353
1.312712562827675 -1.9353334423765292
1.0422876684599267 -1.754590820192023
0.7317998267784378 -1.5738481980075167
0.36121756412633826 -1.4533531165511793
-0.01938043535419644 -1.3027342647307574
-0.3599154875209906 -1.18223918327442
-0.6704033292024795 -1.1069297573642092
-0.9107810130849224 -0.9864346759078716
-1.0910642759967546 -0.8508777092694919
-1.2112531179379762 -0.7605063981772389
-1.3314419598791976 -0.6550732019029436
-1.3715049071929382 -0.6249494315388592
-1.3915363808498082 -0.5195162352645639
-1.3715049071929382 -0.444206809354353
-1.3414576967076328 -0.3387736130800577
-1.3013947493938922 -0.2484023019878046
-1.3214262230507625 -0.1730928760775937
-1.2713475389085869 -0.11284533534942495
-1.201237381109541 -0.022474024257171852
-1.111095749653625 0.08295917201712344
-1.0109383813692736 0.2034542534734609
-0.9207967499133576 0.26370179420162965
-0.9007652762564873 0.33901122011184054
-0.8707180657711819 0.3239493349297984
-0.8106236448005711 0.3841968756579671
-0.7705606974868306 0.42938253120409364
-0.71046627651622 0.5046919571143046
-0.6603875923740443 0.5498776126604311
-0.630340381888739 0.5649394978424733
-0.6103089082318687 0.5498776126604311
-0.6002931714034336 0.5197538422963468
-0.6103089082318687 0.5197538422963468
-0.5802616977465633 0.5800013830245155
-0.5902774345749985 0.5800013830245155
-0.6103089082318687 0.5950632682065576
-0.6103089082318687 0.5649394978424733
-0.6103089082318687 0.5348157274783889
-0.6503718555456092 0.5498776126604311
-0.630340381888739 0.5950632682065576
-0.630340381888739 0.6402489237526843
-0.6403561187171741 0.5950632682065576
-0.6804190660309146 0.5800013830245155
-0.6904348028593497 0.6402489237526843
-0.71046627651622 0.6251870385706421
-0.6904348028593497 0.6703726941167686
-0.6804190660309146 0.7306202348449373
-0.7004505396877848 0.6854345792988108
-0.7304977501730902 0.6854345792988108
-0.7304977501730902 0.6703726941167686
-0.71046627651622 0.6854345792988108
-0.7204820133446551 0.7456821200269795
-0.6904348028593497 0.7456821200269795
-0.7204820133446551 0.7456821200269795
-0.7204820133446551 0.7456821200269795
-0.7304977501730902 0.7306202348449373
-0.7304977501730902 0.7456821200269795
-0.7204820133446551 0.8059296607551483
-0.6904348028593497 0.8059296607551483
-0.71046627651622 0.8059296607551483
-0.7204820133446551 0.8059296607551483
-0.71046627651622 0.7758058903910638
-0.6904348028593497 0.8059296607551483
-0.6904348028593497 0.8209915459371905
-0.6403561187171741 0.8209915459371905
-0.6704033292024795 0.7908677755731061
-0.6704033292024795 0.7607440052090217
-0.6503718555456092 0.7456821200269795
-0.630340381888739 0.8209915459371905
-0.5902774345749985 0.8511153163012748
-0.5902774345749985 0.8360534311192326
-0.5902774345749985 0.8360534311192326
-0.5602302240896931 0.7607440052090217
-0.5301830136043877 0.7306202348449373
-0.5201672767759526 0.7456821200269795
-0.470088592633777 0.7306202348449373
-0.4400413821484716 0.7607440052090217
-0.389962698006296 0.7456821200269795
-0.37994696117786086 0.6854345792988108
-0.36993122434942577 0.6854345792988108
-0.30983680337881503 0.7306202348449373
-0.23972664557976917 0.7456821200269795
-0.2096794350944638 0.6854345792988108
-0.19966369826602867 0.7155583496628951
-0.1696164877807233 0.6402489237526843
-0.15960075095228818 0.6251870385706421
-0.11953780363854767 0.5950632682065576
-0.06945911949637205 0.6402489237526843
-0.029396172182631564 0.6101251533885999
-0.01938043535419644 0.5950632682065576
0.010666775131108927 0.5197538422963468
0.010666775131108927 0.5197538422963468
0.05072972244484942 0.5348157274783889
0.09079266975858992 0.5348157274783889
0.1308556170723304 0.5046919571143046
0.1709185643860709 0.4896300719322624
0.20096577487137626 0.44444441638613585
0.19095003804294114 0.3992587608400093
0.20096577487137626 0.3992587608400093
0.24102872218511676 0.3992587608400093
0.2810916694988573 0.3841968756579671
0.2911074063272924 0.33901122011184054
0.3011231431557275 0.293825564565714
0.3011231431557275 0.26370179420162965
0.3111388799841626 0.24863990901958746
0.33117035364103287 0.2787636793836718
0.33117035364103287 0.26370179420162965
0.32115461681259777 0.23357802383754528
0.33117035364103287 0.15826859792733436
0.2911074063272924 0.12814482756325
0.2911074063272924 0.18839236829141873
0.3111388799841626 0.17333048310937654
0.32115461681259777 0.15826859792733436
0.32115461681259777 0.12814482756325
0.2810916694988573 0.08295917201712344
0.2710759326704221 0.052835401653039064
0.2810916694988573 0.08295917201712344
0.2911074063272924 0.08295917201712344
0.2810916694988573 0.06789728683508126
0.2510444590135519 0.11308294238120781
0.24102872218511676 0.052835401653039064
0.21098151169981139 0.03777351647099688
0.20096577487137626 0.03777351647099688
0.2209972485282465 0.08295917201712344
0.19095003804294114 0.052835401653039064
0.15088709072920065 0.06789728683508126
0.14087135390076552 0.052835401653039064
0.1308556170723304 0.0227116312889547
0.09079266975858992 0.06789728683508126
0.15088709072920065 0.09802105719916562
0.18093430121450602 0.11308294238120781
0.23101298535668163 0.11308294238120781
0.2209972485282465 0.12814482756325
0.20096577487137626 0.09802105719916562
0.24102872218511676 0.12814482756325
0.23101298535668163 0.17333048310937654
0.24102872218511676 0.11308294238120781
0.2209972485282465 0.12814482756325
0.21098151169981139 0.09802105719916562
0.18093430121450602 0.03777351647099688
0.19095003804294114 0.09802105719916562
0.20096577487137626 0.09802105719916562
0.23101298535668163 0.08295917201712344
0.2710759326704221 0.052835401653039064
0.26106019584198703 0.052835401653039064
0.24102872218511676 0.06789728683508126
0.2510444590135519 0.08295917201712344
0.2810916694988573 0.11308294238120781
0.2810916694988573 0.11308294238120781
0.3111388799841626 0.09802105719916562
0.2710759326704221 0.09802105719916562
0.24102872218511676 0.06789728683508126
0.2209972485282465 0.12814482756325
0.20096577487137626 0.17333048310937654
0.24102872218511676 0.15826859792733436
0.26106019584198703 0.12814482756325
0.24102872218511676 0.08295917201712344
0.23101298535668163 0.06789728683508126
0.23101298535668163 0.08295917201712344
0.26106019584198703 0.14320671274529218
0.2911074063272924 0.17333048310937654
0.2911074063272924 0.14320671274529218
0.26106019584198703 0.17333048310937654
0.19095003804294114 0.12814482756325
0.11082414341546017 0.14320671274529218
0.0807769329301548 0.17333048310937654
0.030698248787979176 0.15826859792733436
-0.01938043535419644 0.14320671274529218
-0.05944338266793694 0.14320671274529218
-0.11953780363854767 0.14320671274529218
-0.15960075095228818 0.17333048310937654
-0.1696164877807233 0.2034542534734609
-0.18964796143759355 0.18839236829141873
-0.18964796143759355 0.23357802383754528
-0.19966369826602867 0.17333048310937654
-0.21969517192289892 0.12814482756325
-0.23972664557976917 0.18839236829141873
-0.22971090875133404 0.18839236829141873
-0.21969517192289892 0.2034542534734609
-0.21969517192289892 0.15826859792733436
-0.22971090875133404 0.12814482756325
-0.26977385606507454 0.09802105719916562
-0.2497423824082043 0.12814482756325
-0.23972664557976917 0.14320671274529218
-0.2096794350944638 0.14320671274529218
-0.21969517192289892 0.14320671274529218
-0.22971090875133404 0.11308294238120781
-0.2597581192366394 0.11308294238120781
-0.26977385606507454 0.11308294238120781
-0.2096794350944638 0.12814482756325
-0.19966369826602867 0.14320671274529218
-0.17963222460915843 0.11308294238120781
-0.19966369826602867 0.09802105719916562
-0.2497423824082043 0.09802105719916562
-0.21969517192289892 0.09802105719916562
-0.19966369826602867 0.14320671274529218
-0.17963222460915843 0.14320671274529218
-0.17963222460915843 0.09802105719916562
-0.2096794350944638 0.09802105719916562
-0.2096794350944638 0.06789728683508126
-0.22971090875133404 0.08295917201712344
-0.14958501412385306 0.08295917201712344
-0.13956927729541793 0.09802105719916562
-0.1295535404669828 0.09802105719916562
-0.13956927729541793 0.052835401653039064
-0.17963222460915843 0.03777351647099688
-0.1696164877807233 0.03777351647099688
-0.13956927729541793 0.08295917201712344
-0.0894905931532423 0.06789728683508126
-0.1295535404669828 0.03777351647099688
-0.1295535404669828 0.0227116312889547
-0.13956927729541793 0.03777351647099688
-0.11953780363854767 0.03777351647099688
-0.10952206681011255 0.09802105719916562
-0.09950632998167742 0.11308294238120781
-0.10952206681011255 0.14320671274529218
-0.11953780363854767 0.12814482756325
-0.15960075095228818 0.17333048310937654
-0.18964796143759355 0.30888744974775617
-0.19966369826602867 0.3691349904759249
-0.18964796143759355 0.3992587608400093
-0.1696164877807233 0.44444441638613585
-0.10952206681011255 0.4143206460220515
0.06074545927328454 0.30888744974775617
0.33117035364103287 0.18839236829141873
0.661689668979392 0.06789728683508126
0.9220988265187051 -0.1580309908955515
1.152460773572713 -0.4592686945363952
1.3026968259992397 -0.7303826278131544
1.3828227206267207 -1.0014965610899138
1.5931531940238584 -1.3177961499127997
1.8435466147347366 -1.6943432794638542
2.113971509102485 -2.176323605289204
2.364364929813363 -2.688427701478638
2.5746954032105007 -3.0950986013937776
2.714915718808592 -3.3360887643064525
2.8351045607498135 -3.381274419852579
2.875167508063554 -3.3511506494884946
2.865151771235119 -3.2607793383962416
2.8150730870929435 -3.215593682850115
2.694884245151722 -3.049912945847651
2.4845537717545843 -2.8691703236631447
2.1940974037299656 -2.643242045932512
1.9136567725337823 -2.417313768201879
1.7033262991366447 -2.221509260835331
1.4929958257395073 -2.055828523832867
1.2626338786854994 -1.920271557194487
0.9621617738324456 -1.7696527053740652
0.6416581953225217 -1.5738481980075167
0.2810916694988573 -1.3629818054589262
-0.06945911949637205 -1.2274248388205466
-0.3999784348347311 -1.1521154129103357
-0.71046627651622 -1.0617441018180824
-0.9909069077124034 -0.9412490203617451
-1.1511586969673653 -0.7906301685413232
-1.2613318020801518 -0.6701350870849857
-1.3013947493938922 -0.609887546356817
-1.361489170364503 -0.5345781204466061
-1.3715049071929382 -0.5195162352645639
-1.3715049071929382 -0.41408303899026866
-1.361489170364503 -0.32371172789801556
-1.3214262230507625 -0.23334041680576242
-1.281363275737022 -0.1580309908955515
-1.2312845915948463 -0.11284533534942495
-1.1611744337958005 -0.022474024257171852
-1.111095749653625 0.08295917201712344
-1.0209541181977089 0.12814482756325
-0.9308124867417926 0.2787636793836718
-0.8907495394280521 0.33901122011184054
-0.8707180657711819 0.3841968756579671
-0.8506865921143116 0.3841968756579671
-0.8206393816290063 0.4143206460220515
-0.7705606974868306 0.4745681867502202
-0.6804190660309146 0.5348157274783889
-0.6203246450603038 0.5498776126604311
-0.6002931714034336 0.5498776126604311
-0.5902774345749985 0.5046919571143046
-0.6203246450603038 0.5498776126604311
-0.6002931714034336 0.5498776126604311
-0.6002931714034336 0.5800013830245155
-0.6002931714034336 0.5950632682065576
-0.5802616977465633 0.6101251533885999
-0.6203246450603038 0.5800013830245155
-0.6603875923740443 0.5649394978424733
-0.6503718555456092 0.6251870385706421
-0.630340381888739 0.6703726941167686
-0.6403561187171741 0.6553108089347264
-0.6403561187171741 0.6402489237526843
-0.6603875923740443 0.6402489237526843
-0.71046627651622 0.6251870385706421
-0.7004505396877848 0.6703726941167686
-0.7004505396877848 0.700496464480853
-0.6904348028593497 0.6854345792988108
-0.71046627651622 0.700496464480853
-0.7405134870015253 0.700496464480853
-0.7505292238299605 0.6553108089347264
-0.7705606974868306 0.7155583496628951
-0.7505292238299605 0.7456821200269795
-0.71046627651622 0.7456821200269795
-0.7405134870015253 0.7607440052090217
-0.7605449606583956 0.7456821200269795
-0.7705606974868306 0.7306202348449373
-0.7605449606583956 0.7758058903910638
-0.7304977501730902 0.8209915459371905
-0.7204820133446551 0.8209915459371905
-0.6904348028593497 0.7908677755731061
-0.71046627651622 0.7758058903910638
-0.7204820133446551 0.7607440052090217
-0.71046627651622 0.8059296607551483
-0.6904348028593497 0.8360534311192326
-0.6704033292024795 0.8511153163012748
-0.6503718555456092 0.8360534311192326
-0.6403561187171741 0.7908677755731061
-0.630340381888739 0.7758058903910638
-0.6103089082318687 0.7908677755731061
-0.550214487261258 0.866177201483317
-0.5301830136043877 0.8059296607551483
-0.5201672767759526 0.7908677755731061
-0.5201672767759526 0.7758058903910638
-0.5201672767759526 0.7607440052090217
-0.470088592633777 0.7607440052090217
-0.46007285580534185 0.8059296607551483
-0.42000990849160136 0.7607440052090217
-0.389962698006296 0.7306202348449373
-0.36993122434942577 0.700496464480853
-0.3498997506925555 0.6854345792988108
-0.30983680337881503 0.7155583496628951
-0.23972664557976917 0.7155583496628951
-0.2096794350944638 0.6854345792988108
-0.18964796143759355 0.6553108089347264
-0.1696164877807233 0.5800013830245155
-0.14958501412385306 0.5649394978424733
-0.10952206681011255 0.5649394978424733
-0.06945911949637205 0.5800013830245155
-0.00936469852576132 0.5649394978424733
0.040713985616414296 0.5197538422963468
0.030698248787979176 0.4745681867502202
0.05072972244484942 0.4143206460220515
0.09079266975858992 0.44444441638613585
0.12083988024389529 0.4896300719322624
0.16090282755763577 0.3992587608400093
0.1709185643860709 0.35407310529388275
0.20096577487137626 0.30888744974775617
0.19095003804294114 0.30888744974775617
0.2209972485282465 0.30888744974775617
0.26106019584198703 0.2787636793836718
0.3011231431557275 0.26370179420162965
0.3111388799841626 0.23357802383754528
0.2810916694988573 0.2034542534734609
0.2810916694988573 0.18839236829141873
0.3011231431557275 0.15826859792733436
0.32115461681259777 0.18839236829141873
0.341186090469468 0.15826859792733436
0.341186090469468 0.09802105719916562
0.33117035364103287 0.09802105719916562
0.3011231431557275 0.06789728683508126
0.3111388799841626 0.08295917201712344
0.3011231431557275 0.08295917201712344
0.341186090469468 0.06789728683508126
0.3111388799841626 0.03777351647099688
0.2810916694988573 -0.022474024257171852
0.23101298535668163 -0.022474024257171852
0.2510444590135519 0.0227116312889547
0.2510444590135519 0.007649746106912516
0.2510444590135519 -0.022474024257171852
0.26106019584198703 -0.007412139075129668
0.23101298535668163 -0.052597794621256216
0.19095003804294114 -0.052597794621256216
0.18093430121450602 -0.022474024257171852
0.18093430121450602 -0.007412139075129668
0.20096577487137626 -0.007412139075129668
0.21098151169981139 -0.03753590943921403
0.20096577487137626 -0.007412139075129668
0.20096577487137626 -0.022474024257171852
0.21098151169981139 -0.007412139075129668
0.2209972485282465 0.06789728683508126
0.26106019584198703 0.08295917201712344
0.2810916694988573 0.03777351647099688
0.26106019584198703 0.007649746106912516
0.2209972485282465 0.007649746106912516
0.23101298535668163 0.03777351647099688
0.2510444590135519 0.03777351647099688
0.24102872218511676 0.0227116312889547
0.26106019584198703 0.007649746106912516
0.2510444590135519 -0.03753590943921403
0.2510444590135519 -0.09778345016738277
0.2911074063272924 -0.052597794621256216
0.32115461681259777 -0.022474024257171852
0.3512018272979031 -0.022474024257171852
0.36121756412633826 -0.022474024257171852
0.3512018272979031 -0.03753590943921403
0.33117035364103287 -0.0676596798032984
0.33117035364103287 -0.022474024257171852
0.36121756412633826 0.052835401653039064
0.37123330095477336 0.052835401653039064
0.341186090469468 0.052835401653039064
0.2810916694988573 0.007649746106912516
0.2510444590135519 0.0227116312889547
0.2510444590135519 0.0227116312889547
0.2510444590135519 0.03777351647099688
0.2710759326704221 0.007649746106912516
0.2710759326704221 0.007649746106912516
0.2710759326704221 0.0227116312889547
0.26106019584198703 0.007649746106912516
0.2810916694988573 0.03777351647099688
0.2710759326704221 0.09802105719916562
0.2510444590135519 0.06789728683508126
0.21098151169981139 0.03777351647099688
0.14087135390076552 0.03777351647099688
0.040713985616414296 0.0227116312889547
0.0006510383026738047 0.06789728683508126
-0.01938043535419644 0.08295917201712344
-0.049427645839501815 0.08295917201712344
-0.0894905931532423 0.09802105719916562
-0.1295535404669828 0.06789728683508126
-0.17963222460915843 0.052835401653039064
-0.17963222460915843 0.08295917201712344
-0.18964796143759355 0.09802105719916562
-0.15960075095228818 0.09802105719916562
-0.18964796143759355 0.09802105719916562
-0.18964796143759355 0.03777351647099688
-0.23972664557976917 0.0227116312889547
-0.21969517192289892 0.03777351647099688
-0.19966369826602867 0.08295917201712344
-0.1696164877807233 0.052835401653039064
-0.1696164877807233 0.0227116312889547
-0.17963222460915843 -0.007412139075129668
-0.18964796143759355 -0.007412139075129668
-0.2096794350944638 0.007649746106912516
-0.18964796143759355 0.03777351647099688
-0.1696164877807233 0.03777351647099688
-0.17963222460915843 -0.007412139075129668
-0.1696164877807233 -0.022474024257171852
-0.21969517192289892 -0.03753590943921403
-0.2096794350944638 -0.022474024257171852
-0.19966369826602867 0.0227116312889547
-0.15960075095228818 0.007649746106912516
-0.1696164877807233 -0.022474024257171852
-0.17963222460915843 -0.022474024257171852
-0.21969517192289892 -0.052597794621256216
-0.2096794350944638 -0.03753590943921403
-0.17963222460915843 0.007649746106912516
-0.15960075095228818 -0.022474024257171852
-0.14958501412385306 -0.022474024257171852
-0.15960075095228818 -0.03753590943921403
-0.15960075095228818 -0.022474024257171852
-0.13956927729541793 -0.03753590943921403
-0.13956927729541793 -0.022474024257171852
-0.10952206681011255 -0.007412139075129668
-0.0894905931532423 -0.052597794621256216
-0.10952206681011255 -0.09778345016738277
-0.11953780363854767 -0.09778345016738277
-0.10952206681011255 -0.03753590943921403
-0.0894905931532423 -0.052597794621256216
-0.06945911949637205 -0.03753590943921403
-0.06945911949637205 -0.03753590943921403
-0.06945911949637205 -0.052597794621256216
-0.0894905931532423 -0.11284533534942495
-0.05944338266793694 -0.052597794621256216
-0.03941190901106669 0.03777351647099688
-0.049427645839501815 0.08295917201712344
-0.10952206681011255 0.11308294238120781
-0.14958501412385306 0.17333048310937654
-0.2096794350944638 0.26370179420162965
-0.21969517192289892 0.30888744974775617
-0.1696164877807233 0.33901122011184054
-0.049427645839501815 0.26370179420162965
0.1709185643860709 0.12814482756325
0.45135919558225435 -0.052597794621256216
0.7217840899500026 -0.30864984271597334
0.9621617738324456 -0.5797637759927327
1.2025394577148887 -0.8358158240874498
1.3728069837982857 -1.0918678721821669
1.5831374571954233 -1.4684150017332216
1.8535623515631716 -1.995580983104698
2.134002982759355 -2.552870734840259
2.4044278771271035 -3.049912945847651
2.6548212978379815 -3.3662125346705367
2.8851832448919894 -3.5318932716730007
3.035419297318516 -3.5921408124011696
3.0654665078038215 -3.6072026975832117
3.0454350341469514 -3.546955156855043
2.96530913951947 -3.3360887643064525
2.8351045607498135 -3.1252223717578618
2.55466392955363 -2.884232208845187
2.1740659300730956 -2.688427701478638
1.8435466147347366 -2.477561308930048
1.5931531940238584 -2.2817568015634992
1.312712562827675 -2.070890409014909
1.0222561948030564 -1.844962131284276
0.661689668979392 -1.7094051646458965
0.24102872218511676 -1.5136006572793481
-0.15960075095228818 -1.4382912313691372
-0.5101515399475175 -1.3027342647307574
-0.790592171143701 -1.2123629536385043
-1.0009226445408386 -1.0466822166360403
-1.12111148648206 -0.9111252499976606
-1.2513160652517166 -0.8358158240874498
-1.3013947493938922 -0.8056920537233654
-1.3514734335360679 -0.7153207426311123
-1.3214262230507625 -0.6249494315388592
-1.3013947493938922 -0.5044543500825217
-1.2613318020801518 -0.39902115380822645
-1.2713475389085869 -0.30864984271597334
-1.2112531179379762 -0.23334041680576242
-1.1711901706242356 -0.1730928760775937
-1.0610170655114493 -0.052597794621256216
-0.9608596972270981 0.052835401653039064
-0.9007652762564873 0.11308294238120781
-0.8907495394280521 0.15826859792733436
-0.8106236448005711 0.2034542534734609
-0.790592171143701 0.24863990901958746
-0.7405134870015253 0.30888744974775617
-0.6804190660309146 0.3841968756579671
-0.6103089082318687 0.3992587608400093
-0.5902774345749985 0.42938253120409364
-0.5802616977465633 0.3841968756579671
-0.5902774345749985 0.42938253120409364
-0.5401987504328228 0.42938253120409364
-0.5301830136043877 0.459506301568178
-0.5301830136043877 0.4896300719322624
-0.5301830136043877 0.4745681867502202
-0.550214487261258 0.4143206460220515
-0.5602302240896931 0.42938253120409364
-0.5902774345749985 0.459506301568178
-0.5702459609181282 0.4896300719322624
-0.5702459609181282 0.5348157274783889
-0.5902774345749985 0.5197538422963468
-0.5902774345749985 0.4896300719322624
-0.630340381888739 0.5348157274783889
-0.6403561187171741 0.5498776126604311
-0.6103089082318687 0.5649394978424733
-0.6503718555456092 0.5800013830245155
-0.630340381888739 0.6101251533885999
-0.6804190660309146 0.5950632682065576
-0.71046627651622 0.5800013830245155
-0.7004505396877848 0.6101251533885999
-0.6904348028593497 0.6251870385706421
-0.6904348028593497 0.6703726941167686
-0.6904348028593497 0.6703726941167686
-0.71046627651622 0.6251870385706421
-0.71046627651622 0.6553108089347264
-0.7004505396877848 0.6854345792988108
-0.71046627651622 0.7456821200269795
-0.6804190660309146 0.700496464480853
-0.6704033292024795 0.7306202348449373
-0.6804190660309146 0.7456821200269795
-0.7004505396877848 0.7155583496628951
-0.7004505396877848 0.7456821200269795
-0.6503718555456092 0.7607440052090217
-0.6203246450603038 0.7456821200269795
-0.6002931714034336 0.7456821200269795
-0.6103089082318687 0.7306202348449373
-0.6103089082318687 0.700496464480853
-0.5802616977465633 0.7456821200269795
-0.5101515399475175 0.7456821200269795
-0.49012006629064725 0.7306202348449373
-0.45005711897690676 0.700496464480853
-0.45005711897690676 0.6854345792988108
-0.45005711897690676 0.6703726941167686
-0.40999417166316626 0.6854345792988108
-0.3599154875209906 0.700496464480853
-0.3198525402072501 0.7155583496628951
-0.27978959289350963 0.6402489237526843
-0.26977385606507454 0.5800013830245155
-0.2497423824082043 0.5649394978424733
-0.21969517192289892 0.5950632682065576
-0.15960075095228818 0.6251870385706421
-0.11953780363854767 0.5649394978424733
-0.0894905931532423 0.5649394978424733
-0.05944338266793694 0.4745681867502202
-0.03941190901106669 0.44444441638613585
-0.01938043535419644 0.44444441638613585
0.030698248787979176 0.459506301568178
0.09079266975858992 0.42938253120409364
0.09079266975858992 0.3992587608400093
0.12083988024389529 0.35407310529388275
0.1308556170723304 0.3239493349297984
0.1709185643860709 0.30888744974775617
0.2209972485282465 0.30888744974775617
0.26106019584198703 0.30888744974775617
0.2810916694988573 0.24863990901958746
0.3011231431557275 0.15826859792733436
0.3111388799841626 0.14320671274529218
0.32115461681259777 0.14320671274529218
0.36121756412633826 0.14320671274529218
0.37123330095477336 0.15826859792733436
0.3812490377832085 0.11308294238120781
0.3812490377832085 0.06789728683508126
0.36121756412633826 0.03777351647099688
0.3812490377832085 -0.007412139075129668
0.421311985096949 0.007649746106912516
0.4313277219253841 0.007649746106912516
0.4313277219253841 -0.007412139075129668
0.40128051144007876 -0.0676596798032984
0.3912647746116436 -0.08272156498534058
0.37123330095477336 -0.052597794621256216
0.3912647746116436 -0.0676596798032984
0.3912647746116436 -0.08272156498534058
0.37123330095477336 -0.09778345016738277
0.3512018272979031 -0.09778345016738277
0.32115461681259777 -0.14296910571350932
0.32115461681259777 -0.11284533534942495
0.33117035364103287 -0.12790722053146714
0.36121756412633826 -0.09778345016738277
0.32115461681259777 -0.09778345016738277
0.32115461681259777 -0.1730928760775937
0.26106019584198703 -0.1730928760775937
0.2510444590135519 -0.12790722053146714
0.2810916694988573 -0.09778345016738277
0.2911074063272924 -0.0676596798032984
0.2911074063272924 -0.09778345016738277
0.26106019584198703 -0.12790722053146714
0.2911074063272924 -0.09778345016738277
0.2911074063272924 -0.0676596798032984
0.32115461681259777 -0.007412139075129668
0.3512018272979031 0.007649746106912516
0.33117035364103287 -0.007412139075129668
0.2911074063272924 -0.0676596798032984
0.2710759326704221 -0.052597794621256216
0.2810916694988573 -0.052597794621256216
0.3011231431557275 -0.03753590943921403
0.3111388799841626 -0.052597794621256216
0.32115461681259777 -0.08272156498534058
0.3011231431557275 -0.14296910571350932
0.3011231431557275 -0.1580309908955515
0.3111388799841626 -0.14296910571350932
0.36121756412633826 -0.0676596798032984
0.40128051144007876 -0.08272156498534058
0.40128051144007876 -0.0676596798032984
0.37123330095477336 -0.08272156498534058
0.36121756412633826 -0.09778345016738277
0.3512018272979031 -0.08272156498534058
0.37123330095477336 -0.03753590943921403
0.3512018272979031 0.007649746106912516
0.3512018272979031 -0.007412139075129668
0.33117035364103287 -0.022474024257171852
0.32115461681259777 -0.0676596798032984
0.3111388799841626 -0.03753590943921403
0.341186090469468 -0.03753590943921403
0.3512018272979031 -0.007412139075129668
0.341186090469468 -0.022474024257171852
0.341186090469468 -0.052597794621256216
0.2911074063272924 -0.022474024257171852
0.2710759326704221 -0.022474024257171852
0.2510444590135519 0.007649746106912516
0.19095003804294114 0.007649746106912516
0.15088709072920065 -0.007412139075129668
0.0807769329301548 -0.03753590943921403
0.020682511959544052 -0.03753590943921403
-0.00936469852576132 0.0227116312889547
-0.049427645839501815 0.03777351647099688
-0.06945911949637205 0.06789728683508126
-0.09950632998167742 0.03777351647099688
-0.15960075095228818 -0.022474024257171852
-0.1696164877807233 -0.022474024257171852
-0.17963222460915843 0.0227116312889547
-0.15960075095228818 0.052835401653039064
-0.13956927729541793 0.052835401653039064
-0.14958501412385306 0.0227116312889547
-0.15960075095228818 -0.022474024257171852
-0.19966369826602867 -0.022474024257171852
-0.15960075095228818 -0.007412139075129668
-0.14958501412385306 0.052835401653039064
-0.14958501412385306 0.007649746106912516
-0.14958501412385306 -0.007412139075129668
-0.15960075095228818 -0.022474024257171852
-0.1696164877807233 -0.0676596798032984
-0.17963222460915843 -0.0676596798032984
-0.13956927729541793 -0.022474024257171852
-0.11953780363854767 -0.03753590943921403
-0.10952206681011255 -0.052597794621256216
-0.1295535404669828 -0.09778345016738277
-0.1295535404669828 -0.08272156498534058
-0.1295535404669828 -0.052597794621256216
-0.1295535404669828 -0.052597794621256216
-0.10952206681011255 -0.022474024257171852
-0.10952206681011255 -0.03753590943921403
-0.11953780363854767 -0.052597794621256216
-0.14958501412385306 -0.11284533534942495
-0.17963222460915843 -0.0676596798032984
-0.13956927729541793 -0.03753590943921403
-0.09950632998167742 -0.0676596798032984
-0.11953780363854767 -0.0676596798032984
-0.11953780363854767 -0.09778345016738277
-0.11953780363854767 -0.11284533534942495
-0.1295535404669828 -0.11284533534942495
-0.11953780363854767 -0.0676596798032984
-0.07947485632480718 -0.0676596798032984
-0.0894905931532423 -0.052597794621256216
-0.0894905931532423 -0.09778345016738277
-0.0894905931532423 -0.11284533534942495
-0.0894905931532423 -0.0676596798032984
-0.05944338266793694 -0.0676596798032984
-0.05944338266793694 -0.0676596798032984
-0.03941190901106669 -0.09778345016738277
-0.03941190901106669 -0.052597794621256216
-0.05944338266793694 -0.12790722053146714
-0.049427645839501815 -0.0676596798032984
-0.029396172182631564 -0.007412139075129668
-0.01938043535419644 0.007649746106912516
-0.029396172182631564 0.0227116312889547
-0.07947485632480718 0.11308294238120781
-0.14958501412385306 0.15826859792733436
-0.1696164877807233 0.23357802383754528
-0.15960075095228818 0.33901122011184054
-0.0894905931532423 0.30888744974775617
0.05072972244484942 0.26370179420162965
0.26106019584198703 0.03777351647099688
0.5415008270381705 -0.11284533534942495
0.8419729318912241 -0.32371172789801556
1.1123978262589724 -0.5647018908106904
1.32272829965611 -0.8056920537233654
1.4429171415973316 -1.0617441018180824
1.6232004045091637 -1.3479199202768841
1.8936252988769122 -1.7997764757381496
2.1940974037299656 -2.2817568015634992
2.464522298097714 -2.823984668117018
2.7249314556370274 -3.215593682850115
2.96530913951947 -3.5017695013089165
3.1656238760881728 -3.6975740086754647
3.2557655075440888 -3.727697779039549
3.285812718029394 -3.6674502383113805
3.2958284548578294 -3.5770789272191275
3.265781244372524 -3.4264600753987056
3.105529455117562 -3.245717453214199
2.855136034406684 -3.080036716211735
2.4945695085830195 -2.8691703236631447
2.093940035445615 -2.62818016075047
1.873593825220042 -2.342004342291668
1.6532476149944693 -2.221509260835331
1.392838457455156 -2.0407666386508243
1.082350615773667 -1.9052096720124447
0.6817211426362622 -1.7696527053740652
0.2810916694988573 -1.5738481980075167
-0.06945911949637205 -1.4081674610050527
-0.3599154875209906 -1.3177961499127997
-0.6403561187171741 -1.2123629536385043
-0.9107810130849224 -1.1671772980923778
-1.0710328023398843 -1.0617441018180824
-1.2112531179379762 -0.9412490203617451
-1.2913790125654572 -0.8358158240874498
-1.2913790125654572 -0.7454445129951967
-1.3114104862223273 -0.6550732019029436
-1.3114104862223273 -0.609887546356817
-1.3013947493938922 -0.5345781204466061
-1.3114104862223273 -0.41408303899026866
-1.2613318020801518 -0.2935879575339312
-1.2112531179379762 -0.18815476125963587
-1.12111148648206 -0.0676596798032984
-1.0510013286830142 -0.03753590943921403
-1.0009226445408386 -0.022474024257171852
-0.9508439603986629 0.12814482756325
-0.8907495394280521 0.2185161386555031
-0.8106236448005711 0.26370179420162965
-0.790592171143701 0.30888744974775617
-0.7605449606583956 0.3239493349297984
-0.7405134870015253 0.33901122011184054
-0.6804190660309146 0.3992587608400093
-0.6403561187171741 0.4896300719322624
-0.5902774345749985 0.42938253120409364
-0.5802616977465633 0.459506301568178
-0.6103089082318687 0.4745681867502202
-0.6103089082318687 0.44444441638613585
-0.6203246450603038 0.5046919571143046
-0.6103089082318687 0.5197538422963468
-0.5902774345749985 0.5348157274783889
-0.5902774345749985 0.5046919571143046
-0.5902774345749985 0.5046919571143046
-0.630340381888739 0.5046919571143046
-0.6704033292024795 0.5046919571143046
-0.6203246450603038 0.5649394978424733
-0.6002931714034336 0.5950632682065576
-0.6203246450603038 0.5649394978424733
-0.6403561187171741 0.5498776126604311
-0.6704033292024795 0.5498776126604311
-0.6704033292024795 0.5950632682065576
-0.6603875923740443 0.5950632682065576
-0.6804190660309146 0.6553108089347264
-0.6804190660309146 0.6402489237526843
-0.7204820133446551 0.6101251533885999
-0.71046627651622 0.6251870385706421
-0.7405134870015253 0.6854345792988108
-0.71046627651622 0.6703726941167686
-0.71046627651622 0.6854345792988108
-0.71046627651622 0.700496464480853
-0.7304977501730902 0.6854345792988108
-0.7505292238299605 0.6553108089347264
-0.7605449606583956 0.700496464480853
-0.71046627651622 0.7758058903910638
-0.71046627651622 0.7758058903910638
-0.71046627651622 0.7607440052090217
-0.7204820133446551 0.7155583496628951
-0.7405134870015253 0.7306202348449373
-0.7004505396877848 0.7456821200269795
-0.6804190660309146 0.7908677755731061
-0.630340381888739 0.7758058903910638
-0.630340381888739 0.7758058903910638
-0.6203246450603038 0.7456821200269795
-0.630340381888739 0.7456821200269795
-0.5902774345749985 0.7758058903910638
-0.5401987504328228 0.7607440052090217
-0.5001358031190823 0.7758058903910638
-0.470088592633777 0.7456821200269795
-0.470088592633777 0.700496464480853
-0.45005711897690676 0.6402489237526843
-0.42000990849160136 0.6553108089347264
-0.36993122434942577 0.7456821200269795
-0.2998210665503799 0.6703726941167686
-0.27978959289350963 0.6854345792988108
-0.26977385606507454 0.6101251533885999
-0.23972664557976917 0.5800013830245155
-0.19966369826602867 0.5800013830245155
-0.13956927729541793 0.5950632682065576
-0.09950632998167742 0.5498776126604311
-0.029396172182631564 0.5649394978424733
-0.03941190901106669 0.5197538422963468
-0.01938043535419644 0.459506301568178
0.010666775131108927 0.4896300719322624
0.07076119610171967 0.4745681867502202
0.12083988024389529 0.459506301568178
0.12083988024389529 0.4143206460220515
0.16090282755763577 0.42938253120409364
0.15088709072920065 0.33901122011184054
0.16090282755763577 0.33901122011184054
0.20096577487137626 0.3239493349297984
0.26106019584198703 0.30888744974775617
0.2911074063272924 0.2787636793836718
0.2810916694988573 0.2185161386555031
0.2810916694988573 0.2034542534734609
0.3111388799841626 0.18839236829141873
0.3512018272979031 0.18839236829141873
0.37123330095477336 0.2034542534734609
0.3812490377832085 0.11308294238120781
0.3812490377832085 0.09802105719916562
0.36121756412633826 0.06789728683508126
0.36121756412633826 0.06789728683508126
0.40128051144007876 0.06789728683508126
0.421311985096949 0.06789728683508126
0.41129624826851385 0.03777351647099688
0.40128051144007876 -0.03753590943921403
0.37123330095477336 -0.022474024257171852
0.37123330095477336 -0.03753590943921403
0.3912647746116436 -0.022474024257171852
0.3812490377832085 -0.03753590943921403
0.3912647746116436 -0.022474024257171852
0.3512018272979031 -0.08272156498534058
0.341186090469468 -0.11284533534942495
0.33117035364103287 -0.0676596798032984
0.33117035364103287 -0.03753590943921403
0.36121756412633826 -0.052597794621256216
0.3111388799841626 -0.09778345016738277
0.2911074063272924 -0.09778345016738277
0.2710759326704221 -0.08272156498534058
0.24102872218511676 -0.08272156498534058
0.2710759326704221 -0.03753590943921403
0.32115461681259777 -0.007412139075129668
0.3111388799841626 0.0227116312889547
0.2911074063272924 -0.03753590943921403
0.2911074063272924 -0.022474024257171852
0.2810916694988573 0.007649746106912516
0.2911074063272924 0.03777351647099688
0.341186090469468 0.052835401653039064
0.3111388799841626 0.03777351647099688
0.2911074063272924 0.03777351647099688
0.2710759326704221 -0.022474024257171852
0.2810916694988573 -0.022474024257171852
0.2810916694988573 0.007649746106912516
0.3011231431557275 -0.052597794621256216
0.2810916694988573 -0.052597794621256216
0.2911074063272924 -0.09778345016738277
0.3111388799841626 -0.09778345016738277
0.32115461681259777 -0.08272156498534058
0.37123330095477336 -0.022474024257171852
0.40128051144007876 0.0227116312889547
0.40128051144007876 -0.03753590943921403
0.37123330095477336 -0.0676596798032984
0.3512018272979031 -0.0676596798032984
0.341186090469468 -0.03753590943921403
0.37123330095477336 0.0227116312889547
0.341186090469468 0.0227116312889547
0.341186090469468 -0.022474024257171852
0.32115461681259777 -0.007412139075129668
0.3111388799841626 -0.022474024257171852
0.3011231431557275 0.007649746106912516
0.33117035364103287 0.007649746106912516
0.3512018272979031 -0.007412139075129668
0.3512018272979031 -0.007412139075129668
0.37123330095477336 -0.022474024257171852
0.341186090469468 -0.007412139075129668
0.33117035364103287 0.007649746106912516
0.33117035364103287 0.052835401653039064
0.2810916694988573 0.052835401653039064
0.2209972485282465 0.0227116312889547
0.14087135390076552 0.007649746106912516
0.09079266975858992 0.007649746106912516
0.030698248787979176 0.03777351647099688
0.0006510383026738047 0.03777351647099688
-0.01938043535419644 0.052835401653039064
-0.06945911949637205 0.06789728683508126
-0.10952206681011255 0.0227116312889547
-0.1696164877807233 0.0227116312889547
-0.17963222460915843 0.09802105719916562
-0.15960075095228818 0.12814482756325
-0.13956927729541793 0.08295917201712344
-0.1696164877807233 0.09802105719916562
-0.17963222460915843 0.0227116312889547
-0.18964796143759355 0.0227116312889547
-0.21969517192289892 0.052835401653039064
-0.1696164877807233 0.06789728683508126
-0.11953780363854767 0.06789728683508126
-0.13956927729541793 0.052835401653039064
-0.13956927729541793 0.0227116312889547
-0.15960075095228818 0.0227116312889547
-0.15960075095228818 0.0227116312889547
-0.14958501412385306 0.052835401653039064
-0.14958501412385306 0.052835401653039064
-0.13956927729541793 0.007649746106912516
-0.1295535404669828 -0.007412139075129668
-0.1696164877807233 -0.007412139075129668
-0.14958501412385306 0.007649746106912516
-0.1295535404669828 0.03777351647099688
-0.10952206681011255 0.0227116312889547
-0.11953780363854767 0.0227116312889547
-0.11953780363854767 -0.022474024257171852
-0.11953780363854767 -0.03753590943921403
-0.11953780363854767 0.007649746106912516
-0.1295535404669828 0.007649746106912516
-0.09950632998167742 0.052835401653039064
-0.10952206681011255 -0.03753590943921403
-0.10952206681011255 -0.007412139075129668
-0.11953780363854767 -0.022474024257171852
-0.14958501412385306 -0.03753590943921403
-0.0894905931532423 -0.007412139075129668
-0.06945911949637205 0.007649746106912516
-0.07947485632480718 0.0227116312889547
-0.10952206681011255 -0.03753590943921403
-0.09950632998167742 -0.03753590943921403
-0.11953780363854767 -0.052597794621256216
-0.07947485632480718 -0.007412139075129668
-0.07947485632480718 -0.007412139075129668
-0.05944338266793694 0.0227116312889547
-0.05944338266793694 -0.052597794621256216
-0.07947485632480718 -0.03753590943921403
-0.049427645839501815 -0.022474024257171852
-0.03941190901106669 -0.007412139075129668
-0.00936469852576132 0.007649746106912516
-0.03941190901106669 0.0227116312889547
-0.05944338266793694 -0.007412139075129668
-0.0894905931532423 0.0227116312889547
-0.10952206681011255 0.09802105719916562
-0.1295535404669828 0.17333048310937654
-0.1295535404669828 0.26370179420162965
-0.15960075095228818 0.2787636793836718
-0.1696164877807233 0.3239493349297984
-0.14958501412385306 0.293825564565714
-0.049427645839501815 0.2787636793836718
0.18093430121450602 0.2185161386555031
0.45135919558225435 0.06789728683508126
0.7117683531215676 -0.12790722053146714
0.9621617738324456 -0.41408303899026866
1.1825079840580184 -0.7153207426311123
1.3527755101414154 -0.9111252499976606
1.5130272993963774 -1.1069297573642092
1.7834521937641257 -1.4533531165511793
2.063892824960309 -1.9503953275585715
2.374380666641798 -2.49262319411209
2.604742613695806 -3.004727290301524
2.855136034406684 -3.3662125346705367
3.1155451919459973 -3.546955156855043
3.3158599285146995 -3.637326467947296
3.406001559970616 -3.6975740086754647
3.4360487704559213 -3.727697779039549
3.406001559970616 -3.652388353129338
3.345907139000005 -3.5017695013089165
3.245749770715654 -3.305964993942368
3.0454350341469514 -3.170408027303988
2.7249314556370274 -2.97460351993744
2.364364929813363 -2.763737127388849
2.063892824960309 -2.567932620022301
1.803483667420996 -2.387189997837795
1.5731217203669883 -2.176323605289204
1.312712562827675 -1.995580983104698
0.9922089843177511 -1.8600240164663182
0.6015952480087812 -1.7395289350099807
0.2209972485282465 -1.6190338535536433
-0.15960075095228818 -1.4382912313691372
-0.4300256453200365 -1.2726104943666732
-0.7004505396877848 -1.1973010684564622
-0.9808911708839683 -1.1069297573642092
-1.1812059074526708 -1.0014965610899138
-1.3314419598791976 -0.9261871351797029
-1.4015521176782435 -0.7755682833592811
-1.3915363808498082 -0.7153207426311123
-1.3514734335360679 -0.609887546356817
-1.361489170364503 -0.5345781204466061
-1.361489170364503 -0.4592686945363952
-1.3514734335360679 -0.39902115380822645
-1.3715049071929382 -0.2935879575339312
-1.281363275737022 -0.12790722053146714
-1.1812059074526708 -0.052597794621256216
-1.0810485391683196 -0.007412139075129668
-1.0209541181977089 0.052835401653039064
-1.0209541181977089 0.11308294238120781
-0.9508439603986629 0.2034542534734609
-0.8907495394280521 0.30888744974775617
-0.8206393816290063 0.33901122011184054
-0.790592171143701 0.3691349904759249
-0.7405134870015253 0.4143206460220515
-0.7004505396877848 0.4143206460220515
-0.6904348028593497 0.4745681867502202
-0.6403561187171741 0.5046919571143046
-0.6002931714034336 0.5348157274783889
-0.6403561187171741 0.5649394978424733
-0.630340381888739 0.4896300719322624
-0.6403561187171741 0.5046919571143046
-0.6503718555456092 0.5046919571143046
-0.630340381888739 0.5498776126604311
-0.6203246450603038 0.5800013830245155
-0.630340381888739 0.5197538422963468
-0.6603875923740443 0.5649394978424733
-0.6704033292024795 0.5348157274783889
-0.6904348028593497 0.5950632682065576
-0.6704033292024795 0.6402489237526843
-0.6804190660309146 0.6251870385706421
-0.6904348028593497 0.6402489237526843
-0.7004505396877848 0.6101251533885999
-0.71046627651622 0.6101251533885999
-0.71046627651622 0.6402489237526843
-0.71046627651622 0.6854345792988108
-0.71046627651622 0.700496464480853
-0.7304977501730902 0.700496464480853
-0.7405134870015253 0.6854345792988108
-0.7605449606583956 0.6854345792988108
-0.7505292238299605 0.7155583496628951
-0.7505292238299605 0.7456821200269795
-0.71046627651622 0.7758058903910638
-0.7405134870015253 0.7607440052090217
-0.7505292238299605 0.7456821200269795
-0.7805764343152658 0.7456821200269795
-0.7805764343152658 0.7758058903910638
-0.7405134870015253 0.8360534311192326
-0.6904348028593497 0.8360534311192326
-0.7204820133446551 0.8059296607551483
-0.7204820133446551 0.8209915459371905
-0.7405134870015253 0.7908677755731061
-0.7204820133446551 0.8209915459371905
-0.71046627651622 0.8209915459371905
-0.6603875923740443 0.8511153163012748
-0.630340381888739 0.8360534311192326
-0.6704033292024795 0.7758058903910638
-0.6403561187171741 0.8059296607551483
-0.630340381888739 0.7758058903910638
-0.5802616977465633 0.8511153163012748
-0.5101515399475175 0.8209915459371905
-0.4801043294622121 0.8209915459371905
-0.5001358031190823 0.7758058903910638
-0.49012006629064725 0.7607440052090217
-0.45005711897690676 0.7456821200269795
-0.40999417166316626 0.7607440052090217
-0.3298682770356853 0.7456821200269795
-0.3198525402072501 0.6854345792988108
-0.26977385606507454 0.6402489237526843
-0.2597581192366394 0.6101251533885999
-0.2096794350944638 0.6553108089347264
-0.17963222460915843 0.6553108089347264
-0.10952206681011255 0.6402489237526843
-0.049427645839501815 0.5950632682065576
-0.05944338266793694 0.5348157274783889
-0.00936469852576132 0.5348157274783889
-0.00936469852576132 0.4896300719322624
0.07076119610171967 0.5046919571143046
0.1308556170723304 0.5046919571143046
0.15088709072920065 0.4896300719322624
0.16090282755763577 0.3992587608400093
0.18093430121450602 0.3691349904759249
0.19095003804294114 0.33901122011184054
0.26106019584198703 0.35407310529388275
0.3011231431557275 0.33901122011184054
0.3111388799841626 0.26370179420162965
0.3011231431557275 0.24863990901958746
0.32115461681259777 0.18839236829141873
0.3011231431557275 0.17333048310937654
0.37123330095477336 0.2034542534734609
0.36121756412633826 0.17333048310937654
0.40128051144007876 0.14320671274529218
0.3812490377832085 0.08295917201712344
0.36121756412633826 0.03777351647099688
0.37123330095477336 0.052835401653039064
0.40128051144007876 0.052835401653039064
0.40128051144007876 0.052835401653039064
0.40128051144007876 0.007649746106912516
0.3812490377832085 -0.03753590943921403
0.36121756412633826 -0.052597794621256216
0.3512018272979031 -0.052597794621256216
0.3512018272979031 -0.007412139075129668
0.36121756412633826 -0.03753590943921403
0.3512018272979031 -0.03753590943921403
0.33117035364103287 -0.09778345016738277
0.32115461681259777 -0.09778345016738277
0.32115461681259777 -0.08272156498534058
0.32115461681259777 -0.022474024257171852
0.32115461681259777 -0.022474024257171852
0.3011231431557275 -0.052597794621256216
0.2710759326704221 -0.0676596798032984
0.2710759326704221 -0.0676596798032984
0.2510444590135519 -0.052597794621256216
0.2710759326704221 -0.022474024257171852
0.2810916694988573 0.007649746106912516
0.3011231431557275 0.0227116312889547
0.33117035364103287 0.007649746106912516
0.32115461681259777 0.007649746106912516
0.32115461681259777 0.0227116312889547
0.341186090469468 0.03777351647099688
0.3512018272979031 0.0227116312889547
0.32115461681259777 0.052835401653039064
0.3111388799841626 -0.007412139075129668
0.3111388799841626 -0.022474024257171852
0.2710759326704221 -0.022474024257171852
0.2810916694988573 -0.007412139075129668
0.3011231431557275 -0.022474024257171852
0.3111388799841626 -0.052597794621256216
0.3111388799841626 -0.03753590943921403
0.33117035364103287 -0.03753590943921403
0.33117035364103287 -0.052597794621256216
0.3512018272979031 -0.022474024257171852
0.3812490377832085 0.0227116312889547
0.37123330095477336 -0.03753590943921403
0.341186090469468 -0.03753590943921403
0.33117035364103287 -0.03753590943921403
0.2710759326704221 0.007649746106912516
0.3011231431557275 0.03777351647099688
0.3111388799841626 0.052835401653039064
0.3111388799841626 0.06789728683508126
0.3111388799841626 -0.03753590943921403
0.2911074063272924 -0.052597794621256216
0.3111388799841626 -0.022474024257171852
0.33117035364103287 0.03777351647099688
0.3512018272979031 0.052835401653039064
0.3512018272979031 0.0227116312889547
0.3111388799841626 0.052835401653039064
0.24102872218511676 -0.022474024257171852
0.20096577487137626 0.007649746106912516
0.1308556170723304 0.08295917201712344
0.11082414341546017 0.06789728683508126
0.07076119610171967 0.007649746106912516
0.0006510383026738047 0.007649746106912516
-0.03941190901106669 0.007649746106912516
-0.0894905931532423 0.03777351647099688
-0.10952206681011255 0.08295917201712344
-0.10952206681011255 0.06789728683508126
-0.11953780363854767 0.06789728683508126
-0.14958501412385306 0.06789728683508126
-0.17963222460915843 0.052835401653039064
-0.19966369826602867 0.052835401653039064
-0.18964796143759355 0.03777351647099688
-0.1696164877807233 0.08295917201712344
-0.17963222460915843 0.052835401653039064
-0.19966369826602867 0.03777351647099688
-0.2096794350944638 -0.007412139075129668
-0.19966369826602867 -0.007412139075129668
-0.19966369826602867 0.03777351647099688
-0.1696164877807233 0.06789728683508126
-0.18964796143759355 0.007649746106912516
-0.18964796143759355 -0.007412139075129668
-0.2096794350944638 -0.022474024257171852
-0.19966369826602867 -0.022474024257171852
-0.17963222460915843 0.007649746106912516
-0.15960075095228818 0.06789728683508126
-0.15960075095228818 0.007649746106912516
-0.1696164877807233 -0.052597794621256216
-0.18964796143759355 -0.0676596798032984
-0.19966369826602867 -0.022474024257171852
-0.17963222460915843 -0.007412139075129668
-0.15960075095228818 -0.007412139075129668
-0.14958501412385306 -0.007412139075129668
-0.15960075095228818 -0.03753590943921403
-0.1696164877807233 -0.0676596798032984
-0.17963222460915843 -0.052597794621256216
-0.1696164877807233 -0.022474024257171852
-0.1295535404669828 -0.022474024257171852
-0.1295535404669828 0.007649746106912516
-0.13956927729541793 -0.052597794621256216
-0.11953780363854767 -0.0676596798032984
-0.1295535404669828 -0.08272156498534058
-0.11953780363854767 -0.03753590943921403
-0.11953780363854767 -0.022474024257171852
-0.11953780363854767 -0.03753590943921403
-0.09950632998167742 -0.03753590943921403
-0.13956927729541793 -0.08272156498534058
-0.15960075095228818 -0.0676596798032984
-0.0894905931532423 -0.022474024257171852
-0.10952206681011255 -0.007412139075129668
-0.07947485632480718 -0.052597794621256216
-0.0894905931532423 -0.03753590943921403
-0.0894905931532423 -0.0676596798032984
-0.10952206681011255 -0.007412139075129668
-0.1295535404669828 0.03777351647099688
-0.11953780363854767 0.09802105719916562
-0.1295535404669828 0.12814482756325
-0.15960075095228818 0.18839236829141873
-0.21969517192289892 0.23357802383754528
-0.22971090875133404 0.3239493349297984
-0.14958501412385306 0.33901122011184054
0.0006510383026738047 0.33901122011184054
0.2510444590135519 0.17333048310937654
0.5415008270381705 0.007649746106912516
0.8219414582343539 -0.2634641871698468
1.1023820894305374 -0.5044543500825217
1.3427597733129804 -0.7303826278131544
1.5230430362248126 -0.9412490203617451
1.6832948254797746 -1.2123629536385043
1.9236725093622176 -1.5738481980075167
2.214128877386836 -2.055828523832867
2.4945695085830195 -2.567932620022301
2.785025876607638 -3.049912945847651
3.0754822446322567 -3.396336305034621
3.3058441916862646 -3.6072026975832117
3.446064507284356 -3.7728834345856757
3.5261904019118373 -3.7728834345856757
3.5362061387402726 -3.727697779039549
3.5061589282549668 -3.637326467947296
3.4560802441127914 -3.471645730944832
3.3158599285146995 -3.2909031087603258
3.0654665078038215 -3.1252223717578618
2.6648370346664167 -2.9595416347553978
2.294254772014317 -2.7034895866606807
2.0138141408181336 -2.507685079294132
1.7433892464503853 -2.2817568015634992
1.4329014047688964 -2.131137949743078
1.0923663526021024 -1.9805190979226557
0.7117683531215676 -1.829900246102234
0.2911074063272924 -1.6491576239177277
-0.15960075095228818 -1.4382912313691372
-0.5001358031190823 -1.3328580350948418
-0.8006079079721361 -1.2274248388205466
-1.0810485391683196 -1.1973010684564622
-1.3013947493938922 -1.0617441018180824
-1.4115678545066785 -0.9563109055437873
-1.4516308018204191 -0.8358158240874498
-1.5117252227910298 -0.7454445129951967
-1.5217409596194649 -0.6701350870849857
-1.5217409596194649 -0.609887546356817
-1.5017094859625948 -0.5496400056286482
-1.5117252227910298 -0.48939246490047955
-1.4616465386488542 -0.3538354982620999
-1.4416150649919839 -0.278526072351889
-1.3815206440213732 -0.1730928760775937
-1.3114104862223273 -0.1580309908955515
-1.2413003284232815 -0.09778345016738277
-1.1511586969673653 0.007649746106912516
-1.0710328023398843 0.12814482756325
-1.0109383813692736 0.18839236829141873
-0.9909069077124034 0.26370179420162965
-0.9608596972270981 0.293825564565714
-0.9207967499133576 0.35407310529388275
-0.8707180657711819 0.3691349904759249
-0.8006079079721361 0.459506301568178
-0.7405134870015253 0.4745681867502202
-0.6804190660309146 0.5046919571143046
-0.6804190660309146 0.459506301568178
-0.6904348028593497 0.4896300719322624
-0.6804190660309146 0.5046919571143046
-0.6503718555456092 0.5498776126604311
-0.6603875923740443 0.5498776126604311
-0.6603875923740443 0.5649394978424733
-0.6704033292024795 0.5197538422963468
-0.7004505396877848 0.4896300719322624
-0.7304977501730902 0.5498776126604311
-0.7405134870015253 0.5348157274783889
-0.7004505396877848 0.5498776126604311
-0.7405134870015253 0.5800013830245155
-0.7505292238299605 0.5649394978424733
-0.7705606974868306 0.5498776126604311
-0.7805764343152658 0.5950632682065576
-0.790592171143701 0.6101251533885999
-0.7805764343152658 0.6402489237526843
-0.7805764343152658 0.6703726941167686
-0.8006079079721361 0.6101251533885999
-0.790592171143701 0.6251870385706421
-0.8306551184574414 0.6854345792988108
-0.790592171143701 0.700496464480853
-0.7805764343152658 0.700496464480853
-0.8206393816290063 0.7306202348449373
-0.8306551184574414 0.6854345792988108
-0.8306551184574414 0.700496464480853
-0.8607023289427468 0.7456821200269795
-0.8406708552858766 0.7607440052090217
-0.8006079079721361 0.7758058903910638
-0.8206393816290063 0.7758058903910638
-0.8306551184574414 0.7456821200269795
-0.8406708552858766 0.7607440052090217
-0.8506865921143116 0.7607440052090217
-0.8006079079721361 0.7908677755731061
-0.7805764343152658 0.8511153163012748
-0.7705606974868306 0.8360534311192326
-0.7605449606583956 0.8209915459371905
-0.7705606974868306 0.7758058903910638
-0.7805764343152658 0.8209915459371905
-0.7405134870015253 0.7908677755731061
-0.7505292238299605 0.866177201483317
-0.71046627651622 0.8209915459371905
-0.6904348028593497 0.7758058903910638
-0.7004505396877848 0.7758058903910638
-0.6704033292024795 0.7908677755731061
-0.6103089082318687 0.8209915459371905
-0.5802616977465633 0.8059296607551483
-0.5702459609181282 0.7758058903910638
-0.5602302240896931 0.7607440052090217
-0.5401987504328228 0.7155583496628951
-0.5001358031190823 0.7155583496628951
-0.470088592633777 0.7456821200269795
-0.42000990849160136 0.7155583496628951
-0.3999784348347311 0.700496464480853
-0.36993122434942577 0.6402489237526843
-0.3298682770356853 0.6251870385706421
-0.30983680337881503 0.6703726941167686
-0.2597581192366394 0.6251870385706421
-0.21969517192289892 0.6854345792988108
-0.18964796143759355 0.6402489237526843
-0.1696164877807233 0.5649394978424733
-0.1295535404669828 0.5197538422963468
-0.10952206681011255 0.5348157274783889
-0.049427645839501815 0.5498776126604311
-0.00936469852576132 0.5498776126604311
0.010666775131108927 0.5046919571143046
0.020682511959544052 0.4745681867502202
0.040713985616414296 0.44444441638613585
0.06074545927328454 0.42938253120409364
0.10080840658702504 0.4143206460220515
0.15088709072920065 0.3841968756579671
0.16090282755763577 0.3992587608400093
0.18093430121450602 0.3239493349297984
0.18093430121450602 0.26370179420162965
0.21098151169981139 0.24863990901958746
0.2510444590135519 0.24863990901958746
0.3011231431557275 0.2185161386555031
0.2911074063272924 0.2185161386555031
0.3011231431557275 0.15826859792733436
0.2911074063272924 0.08295917201712344
0.2810916694988573 0.08295917201712344
0.3011231431557275 0.12814482756325
0.341186090469468 0.12814482756325
0.32115461681259777 0.08295917201712344
0.2810916694988573 0.08295917201712344
0.26106019584198703 0.0227116312889547
0.26106019584198703 0.08295917201712344
0.26106019584198703 0.08295917201712344
0.2710759326704221 0.06789728683508126
0.24102872218511676 0.03777351647099688
0.23101298535668163 0.007649746106912516
0.2209972485282465 -0.007412139075129668
0.20096577487137626 0.007649746106912516
0.21098151169981139 0.03777351647099688
0.19095003804294114 0.08295917201712344
0.16090282755763577 0.0227116312889547
0.15088709072920065 0.007649746106912516
0.14087135390076552 -0.007412139075129668
0.11082414341546017 0.0227116312889547
0.12083988024389529 0.052835401653039064
0.1308556170723304 0.06789728683508126
0.1709185643860709 0.08295917201712344
0.19095003804294114 0.08295917201712344
0.18093430121450602 0.052835401653039064
0.19095003804294114 0.11308294238120781
0.1709185643860709 0.11308294238120781
0.19095003804294114 0.15826859792733436
0.20096577487137626 0.14320671274529218
0.1709185643860709 0.09802105719916562
0.18093430121450602 0.06789728683508126
0.16090282755763577 0.09802105719916562
0.15088709072920065 0.06789728683508126
0.14087135390076552 0.09802105719916562
0.16090282755763577 0.052835401653039064
0.1308556170723304 0.06789728683508126
0.1308556170723304 -0.03753590943921403
0.14087135390076552 0.052835401653039064
0.2209972485282465 0.12814482756325
0.2710759326704221 0.12814482756325
0.2510444590135519 0.11308294238120781
0.24102872218511676 0.09802105719916562
0.2209972485282465 -0.007412139075129668
0.18093430121450602 0.03777351647099688
0.21098151169981139 0.08295917201712344
0.21098151169981139 0.15826859792733436
0.21098151169981139 0.14320671274529218
0.14087135390076552 0.09802105719916562
0.16090282755763577 0.11308294238120781
0.1308556170723304 0.17333048310937654
0.15088709072920065 0.17333048310937654
0.18093430121450602 0.15826859792733436
0.18093430121450602 0.14320671274529218
0.18093430121450602 0.08295917201712344
0.1709185643860709 0.08295917201712344
0.1709185643860709 0.14320671274529218
0.19095003804294114 0.18839236829141873
0.21098151169981139 0.18839236829141873
0.1308556170723304 0.17333048310937654
0.0807769329301548 0.18839236829141873
0.030698248787979176 0.14320671274529218
-0.05944338266793694 0.14320671274529218
-0.06945911949637205 0.18839236829141873
-0.07947485632480718 0.2034542534734609
-0.1295535404669828 0.18839236829141873
-0.17963222460915843 0.18839236829141873
-0.2497423824082043 0.17333048310937654
-0.2597581192366394 0.2185161386555031
-0.26977385606507454 0.26370179420162965
-0.2597581192366394 0.24863990901958746
-0.2497423824082043 0.2185161386555031
-0.27978959289350963 0.18839236829141873
-0.2898053297219448 0.15826859792733436
-0.2998210665503799 0.2034542534734609
-0.27978959289350963 0.2185161386555031
-0.26977385606507454 0.17333048310937654
-0.26977385606507454 0.17333048310937654
-0.2998210665503799 0.17333048310937654
-0.2998210665503799 0.12814482756325
-0.3298682770356853 0.15826859792733436
-0.2898053297219448 0.2185161386555031
-0.27978959289350963 0.23357802383754528
-0.26977385606507454 0.2185161386555031
-0.27978959289350963 0.17333048310937654
-0.30983680337881503 0.12814482756325
-0.3298682770356853 0.17333048310937654
-0.2998210665503799 0.15826859792733436
-0.2898053297219448 0.2034542534734609
-0.26977385606507454 0.18839236829141873
-0.2998210665503799 0.15826859792733436
-0.2998210665503799 0.14320671274529218
-0.27978959289350963 0.12814482756325
-0.26977385606507454 0.2034542534734609
-0.2497423824082043 0.18839236829141873
-0.2497423824082043 0.17333048310937654
-0.2597581192366394 0.14320671274529218
-0.2597581192366394 0.14320671274529218
-0.27978959289350963 0.17333048310937654
-0.23972664557976917 0.17333048310937654
-0.2096794350944638 0.17333048310937654
-0.19966369826602867 0.18839236829141873
-0.22971090875133404 0.15826859792733436
-0.22971090875133404 0.12814482756325
-0.21969517192289892 0.14320671274529218
-0.22971090875133404 0.15826859792733436
-0.15960075095228818 0.18839236829141873
-0.15960075095228818 0.17333048310937654
-0.15960075095228818 0.15826859792733436
-0.1696164877807233 0.11308294238120781
-0.18964796143759355 0.17333048310937654
-0.14958501412385306 0.2185161386555031
-0.13956927729541793 0.24863990901958746
-0.15960075095228818 0.24863990901958746
-0.17963222460915843 0.293825564565714
-0.23972664557976917 0.33901122011184054
-0.27978959289350963 0.42938253120409364
-0.2597581192366394 0.4745681867502202
-0.21969517192289892 0.5348157274783889
-0.14958501412385306 0.5046919571143046
0.0006510383026738047 0.44444441638613585
0.2510444590135519 0.2787636793836718
0.5314850902097353 0.14320671274529218
0.8419729318912241 -0.022474024257171852
1.1324292999158427 -0.2935879575339312
1.3427597733129804 -0.5496400056286482
1.4529328784257667 -0.7906301685413232
1.6232004045091637 -1.0918678721821669
1.8435466147347366 -1.4232293461870948
2.113971509102485 -1.829900246102234
2.4044278771271035 -2.342004342291668
2.684868508323287 -2.823984668117018
2.9152304553772947 -3.230655568032157
3.0454350341469514 -3.411398190216663
3.105529455117562 -3.4264600753987056
3.1355766656028674 -3.3511506494884946
3.125560928774432 -3.2909031087603258
3.035419297318516 -3.140284256939904
2.875167508063554 -3.004727290301524
2.5746954032105007 -2.83904655329906
2.224144614215271 -2.598056390386385
1.8936252988769122 -2.342004342291668
1.633216141337599 -2.1160760645610353
1.3828227206267207 -1.9805190979226557
1.1324292999158427 -1.8148383609201917
0.8119257214059188 -1.6792813942818121
0.421311985096949 -1.4834768869152637
0.040713985616414296 -1.3629818054589262
-0.2898053297219448 -1.1671772980923778
-0.6002931714034336 -1.1370535277282934
-0.9007652762564873 -1.0316203314539982
-1.1311272233104952 -0.9412490203617451
-1.3013947493938922 -0.8508777092694919
-1.4115678545066785 -0.6851969722670279
-1.4716622754772892 -0.5797637759927327
-1.5217409596194649 -0.5647018908106904
-1.5517881701047702 -0.48939246490047955
-1.5517881701047702 -0.4592686945363952
-1.5517881701047702 -0.32371172789801556
-1.5117252227910298 -0.23334041680576242
-1.5017094859625948 -0.12790722053146714
-1.4716622754772892 -0.052597794621256216
-1.4215835913351138 -0.022474024257171852
-1.281363275737022 0.03777351647099688
-1.2413003284232815 0.12814482756325
-1.1611744337958005 0.2034542534734609
-1.0910642759967546 0.293825564565714
-1.0610170655114493 0.3691349904759249
-1.0510013286830142 0.4143206460220515
-1.0009226445408386 0.44444441638613585
-0.9508439603986629 0.4896300719322624
-0.8707180657711819 0.5498776126604311
-0.8006079079721361 0.6101251533885999
-0.7705606974868306 0.5950632682065576
-0.7705606974868306 0.5950632682065576
-0.7605449606583956 0.5800013830245155
-0.7505292238299605 0.6101251533885999
-0.7605449606583956 0.6402489237526843
-0.7204820133446551 0.6251870385706421
-0.6904348028593497 0.6402489237526843
-0.71046627651622 0.5950632682065576
-0.7705606974868306 0.5800013830245155
-0.7405134870015253 0.6101251533885999
-0.7304977501730902 0.6703726941167686
-0.71046627651622 0.6703726941167686
-0.71046627651622 0.6703726941167686
-0.7304977501730902 0.6553108089347264
-0.7705606974868306 0.6251870385706421
-0.7805764343152658 0.6553108089347264
-0.7705606974868306 0.6703726941167686
-0.7605449606583956 0.7306202348449373
-0.7605449606583956 0.7155583496628951
-0.790592171143701 0.6854345792988108
-0.8006079079721361 0.6854345792988108
-0.8206393816290063 0.700496464480853
-0.8106236448005711 0.7306202348449373
-0.790592171143701 0.7758058903910638
-0.790592171143701 0.7456821200269795
-0.8006079079721361 0.7155583496628951
-0.8206393816290063 0.7155583496628951
-0.8206393816290063 0.7607440052090217
-0.8206393816290063 0.7908677755731061
-0.8006079079721361 0.8360534311192326
-0.7805764343152658 0.8059296607551483
-0.790592171143701 0.7758058903910638
-0.8106236448005711 0.7908677755731061
-0.8506865921143116 0.8059296607551483
-0.8006079079721361 0.8511153163012748
-0.790592171143701 0.8511153163012748
-0.7505292238299605 0.866177201483317
-0.7605449606583956 0.7908677755731061
-0.7805764343152658 0.8059296607551483
-0.7605449606583956 0.866177201483317
-0.71046627651622 0.8812390866653592
-0.7004505396877848 0.866177201483317
-0.6704033292024795 0.866177201483317
-0.6603875923740443 0.7908677755731061
-0.6403561187171741 0.7758058903910638
-0.630340381888739 0.8059296607551483
-0.5802616977465633 0.8360534311192326
-0.550214487261258 0.8511153163012748
-0.5201672767759526 0.8059296607551483
-0.5201672767759526 0.7908677755731061
-0.5101515399475175 0.700496464480853
-0.4801043294622121 0.7456821200269795
-0.4300256453200365 0.7306202348449373
-0.3599154875209906 0.7155583496628951
-0.3498997506925555 0.7607440052090217
-0.3599154875209906 0.6854345792988108
-0.3198525402072501 0.6402489237526843
-0.2998210665503799 0.6703726941167686
-0.2497423824082043 0.6703726941167686
-0.19966369826602867 0.6854345792988108
-0.1295535404669828 0.6553108089347264
-0.1696164877807233 0.5800013830245155
-0.15960075095228818 0.5800013830245155
-0.10952206681011255 0.5498776126604311
-0.05944338266793694 0.5649394978424733
0.010666775131108927 0.5348157274783889
0.020682511959544052 0.5197538422963468
0.05072972244484942 0.4745681867502202
0.06074545927328454 0.4143206460220515
0.07076119610171967 0.459506301568178
0.11082414341546017 0.42938253120409364
0.14087135390076552 0.4143206460220515
0.18093430121450602 0.4143206460220515
0.19095003804294114 0.33901122011184054
0.18093430121450602 0.2787636793836718
0.21098151169981139 0.293825564565714
0.24102872218511676 0.2787636793836718
0.26106019584198703 0.24863990901958746
0.2810916694988573 0.2185161386555031
0.2710759326704221 0.2034542534734609
0.26106019584198703 0.14320671274529218
0.26106019584198703 0.17333048310937654
0.3011231431557275 0.15826859792733436
0.32115461681259777 0.12814482756325
0.32115461681259777 0.11308294238120781
0.32115461681259777 0.08295917201712344
0.2810916694988573 0.007649746106912516
0.3011231431557275 0.03777351647099688
0.3111388799841626 0.06789728683508126
0.3111388799841626 0.007649746106912516
0.2911074063272924 0.0227116312889547
0.26106019584198703 -0.007412139075129668
0.23101298535668163 -0.052597794621256216
0.21098151169981139 -0.0676596798032984
0.23101298535668163 -0.022474024257171852
0.2510444590135519 0.007649746106912516
0.2510444590135519 0.007649746106912516
0.21098151169981139 -0.052597794621256216
0.18093430121450602 -0.08272156498534058
0.18093430121450602 -0.052597794621256216
0.15088709072920065 -0.022474024257171852
0.19095003804294114 -0.007412139075129668
0.19095003804294114 -0.022474024257171852
0.18093430121450602 -0.03753590943921403
0.18093430121450602 -0.052597794621256216
0.18093430121450602 0.007649746106912516
0.2209972485282465 0.0227116312889547
0.23101298535668163 0.06789728683508126
0.24102872218511676 0.052835401653039064
0.23101298535668163 0.007649746106912516
0.21098151169981139 0.007649746106912516
0.20096577487137626 0.03777351647099688
0.19095003804294114 0.052835401653039064
0.23101298535668163 0.03777351647099688
0.24102872218511676 0.0227116312889547
0.19095003804294114 -0.03753590943921403
0.19095003804294114 -0.0676596798032984
0.18093430121450602 -0.03753590943921403
0.2209972485282465 -0.007412139075129668
0.2710759326704221 0.007649746106912516
0.3011231431557275 -0.03753590943921403
0.2911074063272924 -0.052597794621256216
0.3111388799841626 -0.0676596798032984
0.2911074063272924 -0.022474024257171852
0.3011231431557275 -0.03753590943921403
0.33117035364103287 -0.007412139075129668
0.32115461681259777 -0.022474024257171852
0.3111388799841626 -0.03753590943921403
0.2911074063272924 -0.0676596798032984
0.2510444590135519 -0.03753590943921403
0.26106019584198703 0.03777351647099688
0.26106019584198703 0.08295917201712344
0.2710759326704221 0.03777351647099688
0.24102872218511676 -0.022474024257171852
0.2209972485282465 -0.0676596798032984
0.23101298535668163 -0.03753590943921403
0.2810916694988573 0.0227116312889547
0.3011231431557275 0.0227116312889547
0.2710759326704221 0.0227116312889547
0.26106019584198703 0.007649746106912516
0.2209972485282465 -0.007412139075129668
0.16090282755763577 -0.007412139075129668
0.11082414341546017 0.06789728683508126
0.0807769329301548 0.06789728683508126
0.020682511959544052 0.06789728683508126
-0.00936469852576132 0.007649746106912516
-0.049427645839501815 0.007649746106912516
-0.11953780363854767 0.0227116312889547
-0.1295535404669828 0.052835401653039064
-0.13956927729541793 0.08295917201712344
-0.14958501412385306 0.052835401653039064
-0.17963222460915843 0.0227116312889547
-0.19966369826602867 0.052835401653039064
-0.2096794350944638 0.03777351647099688
-0.21969517192289892 0.03777351647099688
-0.19966369826602867 0.08295917201712344
-0.22971090875133404 0.06789728683508126
-0.21969517192289892 0.0227116312889547
-0.21969517192289892 0.007649746106912516
-0.22971090875133404 0.007649746106912516
-0.2096794350944638 0.03777351647099688
-0.18964796143759355 0.052835401653039064
-0.17963222460915843 0.03777351647099688
-0.19966369826602867 -0.022474024257171852
-0.19966369826602867 -0.03753590943921403
-0.2096794350944638 -0.03753590943921403
-0.18964796143759355 0.052835401653039064
-0.1696164877807233 0.03777351647099688
-0.19966369826602867 0.0227116312889547
-0.19966369826602867 -0.022474024257171852
-0.18964796143759355 -0.03753590943921403
-0.2096794350944638 0.007649746106912516
-0.17963222460915843 0.007649746106912516
-0.18964796143759355 0.007649746106912516
-0.17963222460915843 0.007649746106912516
-0.18964796143759355 -0.03753590943921403
-0.21969517192289892 -0.022474024257171852
-0.21969517192289892 -0.007412139075129668
-0.18964796143759355 -0.007412139075129668
-0.15960075095228818 -0.007412139075129668
-0.17963222460915843 0.007649746106912516
-0.18964796143759355 -0.03753590943921403
-0.18964796143759355 -0.08272156498534058
-0.1696164877807233 -0.03753590943921403
-0.1696164877807233 -0.007412139075129668
-0.1295535404669828 -0.007412139075129668
-0.14958501412385306 -0.022474024257171852
-0.17963222460915843 -0.03753590943921403
-0.1696164877807233 -0.09778345016738277
-0.1696164877807233 -0.052597794621256216
-0.11953780363854767 -0.022474024257171852
-0.10952206681011255 0.0227116312889547
-0.11953780363854767 -0.022474024257171852
-0.10952206681011255 -0.03753590943921403
-0.1295535404669828 -0.08272156498534058
-0.11953780363854767 -0.022474024257171852
-0.09950632998167742 -0.007412139075129668
-0.09950632998167742 -0.022474024257171852
-0.09950632998167742 0.03777351647099688
-0.0894905931532423 -0.022474024257171852
-0.09950632998167742 0.0227116312889547
-0.11953780363854767 0.052835401653039064
-0.1295535404669828 0.12814482756325
-0.15960075095228818 0.23357802383754528
-0.18964796143759355 0.30888744974775617
-0.18964796143759355 0.3239493349297984
-0.15960075095228818 0.30888744974775617
-0.05944338266793694 0.26370179420162965
0.14087135390076552 0.2185161386555031
0.4313277219253841 0.08295917201712344
0.7017526162931325 -0.09778345016738277
0.9321145633471403 -0.3538354982620999
1.1324292999158427 -0.6851969722670279
1.2726496155139344 -0.8659395944515341
1.402854194283591 -1.0466822166360403
1.6131846676807287 -1.3328580350948418
1.873593825220042 -1.754590820192023
2.134002982759355 -2.236571146017373
2.364364929813363 -2.763737127388849
2.5847111400389355 -3.2005317976680727
2.805057350264508 -3.4264600753987056
2.9853406131763407 -3.546955156855043
3.0554507709753866 -3.5921408124011696
3.0554507709753866 -3.6222645827652538
3.0053720868332108 -3.5770789272191275
2.96530913951947 -3.411398190216663
2.9052147185488595 -3.245717453214199
2.7549786661223328 -3.064974831029693
2.524616719068325 -2.9444797495733557
2.1940974037299656 -2.7787990125708917
1.9336882461906526 -2.6131182755684277
1.6933105623082096 -2.402251883019837
1.5230430362248126 -2.236571146017373
1.312712562827675 -2.055828523832867
1.082350615773667 -1.8600240164663182
0.7518313004353081 -1.7997764757381496
0.40128051144007876 -1.6792813942818121
0.07076119610171967 -1.5286625424613902
-0.21969517192289892 -1.3780436906409683
-0.46007285580534185 -1.2575486091846309
-0.7405134870015253 -1.2123629536385043
-0.9708754340555331 -1.1219916425462513
-1.1311272233104952 -1.0768059870001248
-1.2513160652517166 -0.9563109055437873
-1.3013947493938922 -0.8207539389054076
-1.3314419598791976 -0.7605063981772389
-1.361489170364503 -0.6550732019029436
-1.3815206440213732 -0.6400113167209014
-1.361489170364503 -0.609887546356817
-1.361489170364503 -0.48939246490047955
-1.3414576967076328 -0.3839592686261843
-1.3114104862223273 -0.30864984271597334
-1.2713475389085869 -0.20321664644167806
-1.201237381109541 -0.1730928760775937
-1.1511586969673653 -0.08272156498534058
-1.0810485391683196 -0.022474024257171852
-1.0209541181977089 0.08295917201712344
-0.9608596972270981 0.18839236829141873
-0.9207967499133576 0.2034542534734609
-0.9007652762564873 0.24863990901958746
-0.8707180657711819 0.293825564565714
-0.8006079079721361 0.3691349904759249
-0.7505292238299605 0.3841968756579671
-0.6704033292024795 0.42938253120409364
-0.6503718555456092 0.4745681867502202
-0.6503718555456092 0.3992587608400093
-0.6403561187171741 0.42938253120409364
-0.6403561187171741 0.4745681867502202
-0.6002931714034336 0.4896300719322624
-0.5802616977465633 0.5348157274783889
-0.5902774345749985 0.5348157274783889
-0.6103089082318687 0.4896300719322624
-0.630340381888739 0.459506301568178
-0.6603875923740443 0.4745681867502202
-0.630340381888739 0.5498776126604311
-0.6103089082318687 0.5348157274783889
-0.6103089082318687 0.5348157274783889
-0.630340381888739 0.5348157274783889
-0.6403561187171741 0.5348157274783889
-0.6603875923740443 0.5498776126604311
-0.630340381888739 0.5800013830245155
-0.630340381888739 0.5649394978424733
-0.6403561187171741 0.6101251533885999
-0.6704033292024795 0.5950632682065576
-0.6804190660309146 0.5498776126604311
-0.7004505396877848 0.5950632682065576
-0.7004505396877848 0.6251870385706421
-0.6603875923740443 0.6553108089347264
-0.6904348028593497 0.6553108089347264
-0.71046627651622 0.6553108089347264
-0.7505292238299605 0.6251870385706421
-0.7605449606583956 0.6854345792988108
-0.7304977501730902 0.7155583496628951
-0.71046627651622 0.7607440052090217
-0.7204820133446551 0.7306202348449373
-0.7405134870015253 0.6854345792988108
-0.7304977501730902 0.6703726941167686
-0.7605449606583956 0.7306202348449373
-0.7405134870015253 0.7758058903910638
-0.71046627651622 0.7908677755731061
-0.7004505396877848 0.7908677755731061
-0.7204820133446551 0.7456821200269795
-0.7204820133446551 0.7607440052090217
-0.7204820133446551 0.7456821200269795
-0.6704033292024795 0.7908677755731061
-0.6603875923740443 0.7908677755731061
-0.6503718555456092 0.7908677755731061
-0.6203246450603038 0.7607440052090217
-0.630340381888739 0.7456821200269795
-0.6203246450603038 0.7456821200269795
-0.5702459609181282 0.7607440052090217
-0.5401987504328228 0.7607440052090217
-0.5001358031190823 0.7758058903910638
-0.5101515399475175 0.700496464480853
-0.4801043294622121 0.700496464480853
-0.46007285580534185 0.7155583496628951
