-1.3114104862223273 0.7908677755731061
-1.3114104862223273 0.7908677755731061
-1.281363275737022 0.7607440052090217
-1.2112531179379762 0.7758058903910638
-1.1711901706242356 0.8059296607551483
-1.1311272233104952 0.7456821200269795
-1.1010800128251899 0.7456821200269795
-1.0810485391683196 0.7155583496628951
-1.030969855026144 0.700496464480853
-1.0009226445408386 0.7607440052090217
-0.9308124867417926 0.7607440052090217
-0.8907495394280521 0.7155583496628951
-0.8506865921143116 0.6402489237526843
-0.8206393816290063 0.6402489237526843
-0.7805764343152658 0.6854345792988108
-0.71046627651622 0.6553108089347264
-0.6403561187171741 0.6703726941167686
-0.5802616977465633 0.6251870385706421
-0.5201672767759526 0.5800013830245155
-0.5101515399475175 0.5649394978424733
-0.45005711897690676 0.5950632682065576
-0.36993122434942577 0.5649394978424733
-0.30983680337881503 0.5649394978424733
-0.2497423824082043 0.5498776126604311
-0.2096794350944638 0.4896300719322624
-0.15960075095228818 0.44444441638613585
-0.1295535404669828 0.459506301568178
-0.06945911949637205 0.4745681867502202
0.0006510383026738047 0.44444441638613585
0.06074545927328454 0.42938253120409364
0.0807769329301548 0.35407310529388275
0.1308556170723304 0.33901122011184054
0.16090282755763577 0.30888744974775617
0.21098151169981139 0.3239493349297984
0.2710759326704221 0.3239493349297984
0.3111388799841626 0.2787636793836718
0.341186090469468 0.24863990901958746
0.36121756412633826 0.2185161386555031
0.3912647746116436 0.2034542534734609
0.44134345875381925 0.18839236829141873
0.4713906692391246 0.18839236829141873
0.48140640606755974 0.15826859792733436
0.48140640606755974 0.11308294238120781
0.48140640606755974 0.09802105719916562
0.5114536165528651 0.08295917201712344
0.5214693533813002 0.08295917201712344
0.5114536165528651 0.06789728683508126
0.5114536165528651 0.08295917201712344
0.5314850902097353 0.007649746106912516
0.48140640606755974 -0.03753590943921403
0.48140640606755974 0.0227116312889547
0.48140640606755974 0.052835401653039064
0.5114536165528651 0.0227116312889547
0.48140640606755974 0.0227116312889547
0.4613749324106895 -0.052597794621256216
0.4313277219253841 -0.0676596798032984
0.40128051144007876 -0.03753590943921403
0.40128051144007876 -0.03753590943921403
0.41129624826851385 -0.022474024257171852
0.3912647746116436 -0.022474024257171852
0.37123330095477336 -0.0676596798032984
0.341186090469468 -0.08272156498534058
0.3011231431557275 -0.03753590943921403
0.32115461681259777 -0.03753590943921403
0.33117035364103287 -0.03753590943921403
0.2911074063272924 -0.03753590943921403
0.2710759326704221 -0.08272156498534058
0.2209972485282465 -0.03753590943921403
0.2209972485282465 -0.007412139075129668
0.23101298535668163 0.0227116312889547
0.2510444590135519 0.03777351647099688
0.24102872218511676 0.03777351647099688
0.2209972485282465 0.03777351647099688
0.20096577487137626 -0.022474024257171852
0.20096577487137626 0.03777351647099688
0.2209972485282465 0.09802105719916562
0.2911074063272924 0.12814482756325
0.23101298535668163 0.12814482756325
0.24102872218511676 0.09802105719916562
0.20096577487137626 0.09802105719916562
0.19095003804294114 0.14320671274529218
0.18093430121450602 0.14320671274529218
0.20096577487137626 0.14320671274529218
0.1709185643860709 0.11308294238120781
0.11082414341546017 0.08295917201712344
0.07076119610171967 0.0227116312889547
0.040713985616414296 0.052835401653039064
0.0807769329301548 0.08295917201712344
0.12083988024389529 0.08295917201712344
0.1308556170723304 0.052835401653039064
0.15088709072920065 0.052835401653039064
0.15088709072920065 0.03777351647099688
0.1709185643860709 0.06789728683508126
0.1709185643860709 0.052835401653039064
0.18093430121450602 0.007649746106912516
0.1709185643860709 0.06789728683508126
0.15088709072920065 0.007649746106912516
0.16090282755763577 -0.007412139075129668
0.1308556170723304 0.052835401653039064
0.14087135390076552 0.06789728683508126
0.16090282755763577 0.0227116312889547
0.16090282755763577 -0.022474024257171852
0.1308556170723304 -0.03753590943921403
0.10080840658702504 -0.0676596798032984
0.1709185643860709 -0.03753590943921403
0.2209972485282465 -0.03753590943921403
0.26106019584198703 0.03777351647099688
0.2510444590135519 0.0227116312889547
0.20096577487137626 0.007649746106912516
0.16090282755763577 0.007649746106912516
0.11082414341546017 0.007649746106912516
0.07076119610171967 0.052835401653039064
0.06074545927328454 0.0227116312889547
0.0006510383026738047 0.03777351647099688
-0.0894905931532423 -0.007412139075129668
-0.11953780363854767 -0.022474024257171852
-0.15960075095228818 -0.022474024257171852
-0.17963222460915843 0.03777351647099688
-0.13956927729541793 0.03777351647099688
-0.14958501412385306 0.007649746106912516
-0.1696164877807233 -0.007412139075129668
-0.18964796143759355 -0.03753590943921403
-0.18964796143759355 -0.022474024257171852
-0.1696164877807233 0.007649746106912516
-0.14958501412385306 -0.022474024257171852
-0.15960075095228818 0.007649746106912516
-0.1696164877807233 -0.03753590943921403
-0.15960075095228818 -0.0676596798032984
-0.15960075095228818 -0.03753590943921403
-0.14958501412385306 -0.007412139075129668
-0.14958501412385306 -0.03753590943921403
-0.1295535404669828 -0.03753590943921403
-0.14958501412385306 -0.08272156498534058
-0.14958501412385306 -0.08272156498534058
-0.15960075095228818 -0.0676596798032984
-0.14958501412385306 -0.022474024257171852
-0.10952206681011255 -0.03753590943921403
-0.09950632998167742 -0.0676596798032984
-0.09950632998167742 -0.09778345016738277
-0.10952206681011255 -0.08272156498534058
-0.09950632998167742 -0.08272156498534058
-0.10952206681011255 -0.052597794621256216
-0.049427645839501815 -0.0676596798032984
-0.06945911949637205 -0.0676596798032984
-0.05944338266793694 -0.08272156498534058
-0.10952206681011255 -0.11284533534942495
-0.07947485632480718 -0.0676596798032984
-0.049427645839501815 -0.03753590943921403
-0.049427645839501815 -0.0676596798032984
-0.03941190901106669 -0.08272156498534058
-0.03941190901106669 -0.11284533534942495
-0.03941190901106669 -0.09778345016738277
-0.05944338266793694 -0.0676596798032984
-0.01938043535419644 -0.052597794621256216
0.0006510383026738047 -0.03753590943921403
0.010666775131108927 -0.03753590943921403
0.0006510383026738047 -0.08272156498534058
-0.01938043535419644 -0.09778345016738277
-0.01938043535419644 -0.08272156498534058
-0.029396172182631564 0.0227116312889547
-0.03941190901106669 0.0227116312889547
-0.05944338266793694 0.03777351647099688
-0.09950632998167742 0.09802105719916562
-0.14958501412385306 0.14320671274529218
-0.1295535404669828 0.24863990901958746
-0.01938043535419644 0.30888744974775617
0.16090282755763577 0.26370179420162965
0.50143787972443 0.17333048310937654
0.9821932474893159 -0.052597794621256216
1.4529328784257667 -0.2935879575339312
1.963735456675958 -0.5195162352645639
2.444490824440844 -0.8358158240874498
2.865151771235119 -1.2575486091846309
3.2257182970587834 -1.5437244276434323
3.6463792438530587 -1.9052096720124447
4.1772132957601205 -2.342004342291668
4.778157505466227 -2.914355979209271
5.288960083716419 -3.546955156855043
5.619479399054778 -4.043997367862435
5.8097783987950455 -4.465730152959616
5.909935767079396 -4.571163349233911
5.919951503907832 -4.525977693687785
5.869872819765656 -4.4205444974134895
5.81979413562348 -4.254863760411025
5.79976266196661 -4.059059253044477
5.619479399054778 -3.8481928604958866
5.298975820544854 -3.5770789272191275
4.97847224203493 -3.2758412235782837
4.718063084495617 -2.9595416347553978
4.467669663784739 -2.673365816296596
4.227291979902295 -2.432375653383921
3.906788401392372 -2.236571146017373
3.4560802441127914 -2.070890409014909
2.7249314556370274 -1.9052096720124447
1.9236725093622176 -1.6943432794638542
1.1825079840580184 -1.4834768869152637
0.4313277219253841 -1.3780436906409683
-0.40999417166316626 -1.2575486091846309
-1.2112531179379762 -1.1521154129103357
-1.7320714330166025 -0.9713727907258294
-1.932386169585305 -0.8207539389054076
-1.9624333800706104 -0.7153207426311123
-1.932386169585305 -0.6550732019029436
-1.8923232222715645 -0.5647018908106904
-1.8622760117862591 -0.5044543500825217
-1.8722917486146942 -0.41408303899026866
-1.8622760117862591 -0.278526072351889
-1.8121973276440835 -0.18815476125963587
-1.6819927488744268 -0.14296910571350932
-1.6218983279038162 0.007649746106912516
-1.5618039069332055 0.03777351647099688
-1.5217409596194649 0.09802105719916562
-1.4716622754772892 0.18839236829141873
-1.4115678545066785 0.30888744974775617
-1.3715049071929382 0.3691349904759249
-1.3314419598791976 0.3841968756579671
-1.2713475389085869 0.4143206460220515
-1.2413003284232815 0.44444441638613585
-1.201237381109541 0.5046919571143046
-1.1511586969673653 0.5649394978424733
-1.111095749653625 0.5649394978424733
-1.1311272233104952 0.5649394978424733
-1.1511586969673653 0.5649394978424733
-1.1611744337958005 0.5649394978424733
-1.1611744337958005 0.5950632682065576
-1.1711901706242356 0.6402489237526843
-1.1411429601389302 0.6402489237526843
-1.1711901706242356 0.6402489237526843
-1.201237381109541 0.6101251533885999
-1.2312845915948463 0.6101251533885999
-1.2413003284232815 0.6251870385706421
-1.2513160652517166 0.700496464480853
-1.2513160652517166 0.7155583496628951
-1.2613318020801518 0.6854345792988108
-1.2913790125654572 0.6703726941167686
-1.3214262230507625 0.6703726941167686
-1.3414576967076328 0.700496464480853
-1.3214262230507625 0.7456821200269795
-1.3314419598791976 0.7155583496628951
-1.3414576967076328 0.7306202348449373
-1.3915363808498082 0.7155583496628951
-1.4015521176782435 0.7155583496628951
-1.4115678545066785 0.7607440052090217
-1.4015521176782435 0.7908677755731061
-1.3915363808498082 0.8360534311192326
-1.3815206440213732 0.7908677755731061
-1.4416150649919839 0.7908677755731061
-1.4616465386488542 0.7607440052090217
-1.4616465386488542 0.8360534311192326
-1.4315993281635488 0.8209915459371905
-1.4416150649919839 0.8360534311192326
-1.4416150649919839 0.8812390866653592
-1.4516308018204191 0.8059296607551483
-1.4916937491341595 0.8209915459371905
-1.4716622754772892 0.8059296607551483
-1.4616465386488542 0.866177201483317
-1.4215835913351138 0.8812390866653592
-1.4115678545066785 0.8511153163012748
-1.4315993281635488 0.8511153163012748
-1.4115678545066785 0.8209915459371905
-1.3915363808498082 0.8360534311192326
-1.3815206440213732 0.866177201483317
-1.3114104862223273 0.8812390866653592
-1.2913790125654572 0.8209915459371905
-1.281363275737022 0.8209915459371905
-1.2713475389085869 0.8209915459371905
-1.2312845915948463 0.8209915459371905
-1.1511586969673653 0.8209915459371905
-1.0710328023398843 0.8209915459371905
-1.0610170655114493 0.8209915459371905
-1.030969855026144 0.7908677755731061
-1.030969855026144 0.7758058903910638
-0.9808911708839683 0.7456821200269795
-0.8807338025996171 0.7607440052090217
-0.8006079079721361 0.7607440052090217
-0.7505292238299605 0.7306202348449373
-0.7004505396877848 0.700496464480853
-0.6503718555456092 0.6402489237526843
-0.6103089082318687 0.6854345792988108
-0.550214487261258 0.6703726941167686
-0.46007285580534185 0.6553108089347264
-0.3999784348347311 0.6251870385706421
-0.3599154875209906 0.5800013830245155
-0.30983680337881503 0.5649394978424733
-0.26977385606507454 0.5649394978424733
-0.19966369826602867 0.6101251533885999
-0.11953780363854767 0.5348157274783889
-0.0894905931532423 0.5348157274783889
-0.05944338266793694 0.4745681867502202
-0.00936469852576132 0.4745681867502202
0.020682511959544052 0.44444441638613585
0.09079266975858992 0.459506301568178
0.18093430121450602 0.459506301568178
0.21098151169981139 0.3992587608400093
0.2209972485282465 0.3691349904759249
0.26106019584198703 0.3239493349297984
0.3011231431557275 0.3239493349297984
0.36121756412633826 0.35407310529388275
0.41129624826851385 0.2787636793836718
0.45135919558225435 0.293825564565714
0.45135919558225435 0.23357802383754528
0.4313277219253841 0.2034542534734609
0.4713906692391246 0.18839236829141873
0.48140640606755974 0.18839236829141873
0.5314850902097353 0.2034542534734609
0.5314850902097353 0.17333048310937654
0.50143787972443 0.12814482756325
0.50143787972443 0.12814482756325
0.50143787972443 0.12814482756325
0.5114536165528651 0.08295917201712344
0.5415008270381705 0.09802105719916562
0.5114536165528651 0.06789728683508126
0.50143787972443 0.0227116312889547
0.48140640606755974 0.03777351647099688
0.4713906692391246 0.007649746106912516
0.4713906692391246 0.052835401653039064
0.4713906692391246 0.03777351647099688
0.4613749324106895 0.03777351647099688
0.41129624826851385 -0.007412139075129668
0.37123330095477336 -0.022474024257171852
0.36121756412633826 0.03777351647099688
0.341186090469468 0.052835401653039064
0.32115461681259777 0.03777351647099688
0.3011231431557275 0.03777351647099688
0.24102872218511676 0.007649746106912516
0.2510444590135519 0.007649746106912516
0.21098151169981139 0.007649746106912516
0.24102872218511676 0.06789728683508126
0.23101298535668163 0.09802105719916562
0.19095003804294114 0.08295917201712344
0.18093430121450602 0.007649746106912516
0.15088709072920065 0.052835401653039064
0.15088709072920065 0.08295917201712344
0.16090282755763577 0.14320671274529218
0.1709185643860709 0.14320671274529218
0.1709185643860709 0.15826859792733436
0.1709185643860709 0.15826859792733436
0.14087135390076552 0.12814482756325
0.12083988024389529 0.2185161386555031
0.16090282755763577 0.2185161386555031
0.18093430121450602 0.2185161386555031
0.14087135390076552 0.15826859792733436
0.10080840658702504 0.15826859792733436
0.09079266975858992 0.12814482756325
0.07076119610171967 0.14320671274529218
0.0807769329301548 0.14320671274529218
0.10080840658702504 0.12814482756325
0.12083988024389529 0.15826859792733436
0.1308556170723304 0.11308294238120781
0.14087135390076552 0.11308294238120781
0.15088709072920065 0.09802105719916562
0.15088709072920065 0.12814482756325
0.19095003804294114 0.15826859792733436
0.16090282755763577 0.12814482756325
0.1308556170723304 0.03777351647099688
0.1308556170723304 0.06789728683508126
0.1308556170723304 0.08295917201712344
0.11082414341546017 0.12814482756325
0.12083988024389529 0.12814482756325
0.10080840658702504 0.08295917201712344
0.09079266975858992 0.03777351647099688
0.12083988024389529 0.007649746106912516
0.11082414341546017 -0.007412139075129668
0.16090282755763577 0.06789728683508126
0.2209972485282465 0.09802105719916562
0.21098151169981139 0.06789728683508126
0.20096577487137626 0.08295917201712344
0.14087135390076552 0.08295917201712344
0.09079266975858992 0.08295917201712344
0.030698248787979176 0.11308294238120781
0.030698248787979176 0.09802105719916562
-0.01938043535419644 0.11308294238120781
-0.05944338266793694 0.052835401653039064
-0.1295535404669828 0.06789728683508126
-0.1696164877807233 0.08295917201712344
-0.19966369826602867 0.11308294238120781
-0.1696164877807233 0.11308294238120781
-0.15960075095228818 0.12814482756325
-0.1696164877807233 0.052835401653039064
-0.19966369826602867 0.052835401653039064
-0.19966369826602867 0.06789728683508126
-0.17963222460915843 0.08295917201712344
-0.1696164877807233 0.08295917201712344
-0.19966369826602867 0.08295917201712344
-0.19966369826602867 0.0227116312889547
-0.21969517192289892 0.03777351647099688
-0.21969517192289892 0.06789728683508126
-0.21969517192289892 0.06789728683508126
-0.21969517192289892 0.052835401653039064
-0.19966369826602867 0.03777351647099688
-0.2096794350944638 0.007649746106912516
-0.21969517192289892 -0.007412139075129668
-0.2096794350944638 0.03777351647099688
-0.18964796143759355 0.0227116312889547
-0.1696164877807233 0.03777351647099688
-0.14958501412385306 0.03777351647099688
-0.1696164877807233 0.007649746106912516
-0.17963222460915843 -0.052597794621256216
-0.18964796143759355 -0.03753590943921403
-0.1696164877807233 0.0227116312889547
-0.1295535404669828 0.0227116312889547
-0.13956927729541793 -0.007412139075129668
-0.1295535404669828 -0.022474024257171852
-0.13956927729541793 -0.03753590943921403
-0.14958501412385306 -0.022474024257171852
-0.11953780363854767 0.007649746106912516
-0.06945911949637205 -0.007412139075129668
-0.09950632998167742 -0.007412139075129668
-0.06945911949637205 -0.007412139075129668
-0.0894905931532423 -0.0676596798032984
-0.10952206681011255 -0.007412139075129668
-0.07947485632480718 0.03777351647099688
-0.029396172182631564 0.007649746106912516
-0.01938043535419644 -0.022474024257171852
-0.01938043535419644 -0.03753590943921403
-0.049427645839501815 -0.007412139075129668
-0.03941190901106669 0.007649746106912516
-0.029396172182631564 0.052835401653039064
-0.049427645839501815 0.09802105719916562
-0.07947485632480718 0.12814482756325
-0.11953780363854767 0.17333048310937654
-0.15960075095228818 0.18839236829141873
-0.14958501412385306 0.3239493349297984
-0.03941190901106669 0.3992587608400093
0.16090282755763577 0.33901122011184054
0.5515165638666056 0.23357802383754528
1.0422876684599267 -0.0676596798032984
1.5731217203669883 -0.30864984271597334
2.1440187195877902 -0.5948256611747749
2.6548212978379815 -0.9713727907258294
3.0754822446322567 -1.3177961499127997
3.496143191426532 -1.7094051646458965
4.006945769676723 -2.131137949743078
4.557811295240655 -2.673365816296596
5.088645347147716 -3.230655568032157
5.509306293941992 -3.7728834345856757
5.739668240995999 -4.224739990046941
5.889904293422527 -4.435606382595532
5.919951503907832 -4.4958539233237005
5.859857082937221 -4.4205444974134895
5.789746925138175 -4.254863760411025
5.75969971465287 -4.028935482680393
5.649526609540083 -3.7728834345856757
5.34905450468703 -3.4565838457627898
5.018535189348671 -3.1252223717578618
4.748110294980922 -2.8541084384811026
4.427606716470998 -2.598056390386385
4.207260506245426 -2.342004342291668
3.8967726645639367 -2.1160760645610353
3.2958284548578294 -1.920271557194487
2.4745380349261494 -1.7395289350099807
1.643231878166034 -1.5286625424613902
0.8019099845774836 -1.4232293461870948
-0.01938043535419644 -1.2575486091846309
-0.8506865921143116 -1.1370535277282934
-1.5017094859625948 -0.9412490203617451
-1.8923232222715645 -0.8508777092694919
-2.0325435378696564 -0.7454445129951967
-2.022527801041221 -0.6550732019029436
-1.9924805905559158 -0.5496400056286482
-1.9223704327568698 -0.4291449241723108
-1.9223704327568698 -0.3538354982620999
-1.9223704327568698 -0.32371172789801556
-1.9023389590999997 -0.21827853162372024
-1.8322288013009538 -0.09778345016738277
-1.7320714330166025 0.03777351647099688
-1.6319140647322512 0.14320671274529218
-1.5517881701047702 0.15826859792733436
-1.5417724332763352 0.24863990901958746
-1.5217409596194649 0.2787636793836718
-1.4816780123057245 0.35407310529388275
-1.3915363808498082 0.459506301568178
-1.281363275737022 0.5046919571143046
-1.2413003284232815 0.5498776126604311
-1.2212688547664112 0.5498776126604311
-1.1912216442811059 0.5649394978424733
-1.1812059074526708 0.5950632682065576
-1.1812059074526708 0.6402489237526843
-1.1511586969673653 0.6553108089347264
-1.1812059074526708 0.6553108089347264
-1.201237381109541 0.5950632682065576
-1.2312845915948463 0.6101251533885999
-1.2513160652517166 0.6402489237526843
-1.2713475389085869 0.6703726941167686
-1.2613318020801518 0.6854345792988108
-1.2913790125654572 0.6703726941167686
-1.3214262230507625 0.6402489237526843
-1.3414576967076328 0.6854345792988108
-1.3915363808498082 0.6854345792988108
-1.3815206440213732 0.700496464480853
-1.361489170364503 0.7306202348449373
-1.3915363808498082 0.7306202348449373
-1.4315993281635488 0.7155583496628951
-1.4616465386488542 0.7306202348449373
-1.4616465386488542 0.7607440052090217
-1.4616465386488542 0.8059296607551483
-1.4816780123057245 0.8360534311192326
-1.4716622754772892 0.8360534311192326
-1.5017094859625948 0.7607440052090217
-1.5317566964479001 0.7758058903910638
-1.5517881701047702 0.8209915459371905
-1.5217409596194649 0.866177201483317
-1.5317566964479001 0.866177201483317
-1.5217409596194649 0.866177201483317
-1.5618039069332055 0.8360534311192326
-1.5517881701047702 0.8360534311192326
-1.5317566964479001 0.8812390866653592
-1.5217409596194649 0.95654851257557
-1.4916937491341595 0.9264247422114857
-1.4816780123057245 0.8963009718474013
-1.4716622754772892 0.8812390866653592
-1.4916937491341595 0.866177201483317
-1.4716622754772892 0.866177201483317
-1.4416150649919839 0.9113628570294435
-1.3815206440213732 0.866177201483317
-1.3715049071929382 0.8963009718474013
-1.361489170364503 0.8360534311192326
-1.3314419598791976 0.866177201483317
-1.281363275737022 0.8511153163012748
-1.2312845915948463 0.8812390866653592
-1.1511586969673653 0.8511153163012748
-1.111095749653625 0.8209915459371905
-1.0810485391683196 0.7908677755731061
-1.0510013286830142 0.7456821200269795
-1.0109383813692736 0.7908677755731061
-0.9308124867417926 0.8209915459371905
-0.8306551184574414 0.7758058903910638
-0.7805764343152658 0.7607440052090217
-0.7204820133446551 0.6854345792988108
-0.6804190660309146 0.6703726941167686
-0.6203246450603038 0.6854345792988108
-0.5401987504328228 0.700496464480853
-0.4300256453200365 0.6703726941167686
-0.37994696117786086 0.6101251533885999
-0.3298682770356853 0.5800013830245155
-0.27978959289350963 0.5800013830245155
-0.21969517192289892 0.5950632682065576
-0.13956927729541793 0.5649394978424733
-0.03941190901106669 0.5950632682065576
0.010666775131108927 0.5348157274783889
0.07076119610171967 0.459506301568178
0.09079266975858992 0.459506301568178
0.14087135390076552 0.459506301568178
0.2209972485282465 0.44444441638613585
0.2510444590135519 0.42938253120409364
0.3011231431557275 0.3992587608400093
0.3011231431557275 0.35407310529388275
0.3111388799841626 0.30888744974775617
0.37123330095477336 0.2787636793836718
0.3912647746116436 0.30888744974775617
0.45135919558225435 0.26370179420162965
0.45135919558225435 0.26370179420162965
0.44134345875381925 0.17333048310937654
0.4313277219253841 0.14320671274529218
0.44134345875381925 0.2034542534734609
0.45135919558225435 0.17333048310937654
0.49142214289599484 0.15826859792733436
0.4713906692391246 0.12814482756325
0.4613749324106895 0.06789728683508126
0.4313277219253841 0.06789728683508126
0.41129624826851385 0.09802105719916562
0.4313277219253841 0.09802105719916562
0.45135919558225435 0.08295917201712344
0.40128051144007876 0.08295917201712344
0.40128051144007876 0.03777351647099688
0.36121756412633826 0.007649746106912516
0.33117035364103287 0.052835401653039064
0.341186090469468 0.08295917201712344
0.33117035364103287 0.08295917201712344
0.3111388799841626 0.052835401653039064
0.2810916694988573 0.007649746106912516
0.23101298535668163 0.007649746106912516
0.23101298535668163 0.052835401653039064
0.24102872218511676 0.09802105719916562
0.2209972485282465 0.11308294238120781
0.20096577487137626 0.09802105719916562
0.16090282755763577 0.03777351647099688
0.15088709072920065 0.052835401653039064
0.1308556170723304 0.06789728683508126
0.1308556170723304 0.09802105719916562
0.14087135390076552 0.14320671274529218
0.11082414341546017 0.11308294238120781
0.09079266975858992 0.11308294238120781
0.07076119610171967 0.11308294238120781
0.07076119610171967 0.17333048310937654
0.0807769329301548 0.23357802383754528
0.10080840658702504 0.23357802383754528
0.09079266975858992 0.2185161386555031
0.06074545927328454 0.2185161386555031
0.05072972244484942 0.18839236829141873
0.040713985616414296 0.2185161386555031
0.06074545927328454 0.2185161386555031
0.05072972244484942 0.2034542534734609
0.010666775131108927 0.2034542534734609
-0.01938043535419644 0.12814482756325
-0.029396172182631564 0.12814482756325
-0.00936469852576132 0.14320671274529218
0.020682511959544052 0.15826859792733436
0.07076119610171967 0.18839236829141873
0.10080840658702504 0.2034542534734609
0.07076119610171967 0.15826859792733436
0.06074545927328454 0.09802105719916562
0.0807769329301548 0.11308294238120781
0.07076119610171967 0.12814482756325
0.10080840658702504 0.12814482756325
0.1308556170723304 0.11308294238120781
0.12083988024389529 0.12814482756325
0.09079266975858992 0.052835401653039064
0.07076119610171967 0.09802105719916562
0.09079266975858992 0.09802105719916562
0.10080840658702504 0.09802105719916562
0.11082414341546017 0.03777351647099688
0.12083988024389529 0.0227116312889547
0.14087135390076552 0.052835401653039064
0.15088709072920065 0.09802105719916562
0.18093430121450602 0.15826859792733436
0.16090282755763577 0.11308294238120781
0.0807769329301548 0.12814482756325
0.0006510383026738047 0.08295917201712344
-0.049427645839501815 0.06789728683508126
-0.07947485632480718 0.09802105719916562
-0.11953780363854767 0.15826859792733436
-0.15960075095228818 0.12814482756325
-0.2096794350944638 0.09802105719916562
-0.2497423824082043 0.09802105719916562
-0.2898053297219448 0.09802105719916562
-0.26977385606507454 0.06789728683508126
-0.2597581192366394 0.12814482756325
-0.2497423824082043 0.11308294238120781
-0.26977385606507454 0.08295917201712344
-0.27978959289350963 0.06789728683508126
-0.2998210665503799 0.0227116312889547
-0.2998210665503799 0.06789728683508126
-0.26977385606507454 0.08295917201712344
-0.2497423824082043 0.08295917201712344
-0.26977385606507454 0.052835401653039064
-0.26977385606507454 0.03777351647099688
-0.26977385606507454 -0.007412139075129668
-0.26977385606507454 0.03777351647099688
-0.2597581192366394 0.06789728683508126
-0.21969517192289892 0.08295917201712344
-0.21969517192289892 0.08295917201712344
-0.21969517192289892 0.0227116312889547
-0.23972664557976917 -0.022474024257171852
-0.2497423824082043 0.007649746106912516
-0.21969517192289892 0.03777351647099688
-0.19966369826602867 0.007649746106912516
-0.19966369826602867 0.052835401653039064
-0.21969517192289892 -0.022474024257171852
-0.23972664557976917 -0.007412139075129668
-0.23972664557976917 -0.007412139075129668
-0.22971090875133404 0.03777351647099688
-0.17963222460915843 0.007649746106912516
-0.18964796143759355 0.03777351647099688
-0.19966369826602867 -0.022474024257171852
-0.21969517192289892 -0.052597794621256216
-0.21969517192289892 0.007649746106912516
-0.19966369826602867 0.0227116312889547
-0.15960075095228818 0.007649746106912516
-0.14958501412385306 0.007649746106912516
-0.15960075095228818 0.007649746106912516
-0.18964796143759355 -0.022474024257171852
-0.17963222460915843 -0.007412139075129668
-0.13956927729541793 0.052835401653039064
-0.11953780363854767 0.03777351647099688
-0.11953780363854767 0.0227116312889547
-0.1295535404669828 -0.022474024257171852
-0.13956927729541793 0.007649746106912516
-0.1295535404669828 0.052835401653039064
-0.13956927729541793 0.14320671274529218
-0.11953780363854767 0.15826859792733436
-0.15960075095228818 0.2034542534734609
-0.1696164877807233 0.2787636793836718
-0.19966369826602867 0.3239493349297984
-0.11953780363854767 0.3841968756579671
-0.00936469852576132 0.4143206460220515
0.3111388799841626 0.33901122011184054
0.6817211426362622 0.18839236829141873
1.1925237208864534 -0.0676596798032984
1.6632633518229043 -0.278526072351889
2.1440187195877902 -0.5345781204466061
2.604742613695806 -0.9111252499976606
2.935261929034165 -1.2123629536385043
3.245749770715654 -1.4834768869152637
3.656394980681494 -1.844962131284276
4.15718182210325 -2.296818686745542
4.6780001371818765 -2.793860897752934
5.118692557633022 -3.32102687912441
5.40914892565764 -3.80300720494976
5.559384978084167 -4.1644924493187725
5.639510872711648 -4.269925645593068
5.599447925397908 -4.254863760411025
5.4492118729713805 -4.134368678954688
5.329023031030159 -3.968687941952224
5.238881399574243 -3.7728834345856757
4.9985037156918 -3.5168313864909586
4.617905716211266 -3.2909031087603258
4.227291979902295 -2.97460351993744
3.926819875049242 -2.718551471842723
3.6964579279952345 -2.477561308930048
3.5261904019118373 -2.251633031199415
3.3058441916862646 -2.0407666386508243
2.9953563500047755 -1.8901477868304026
2.434475087612409 -1.7094051646458965
1.7534049832788203 -1.5136006572793481
1.1324292999158427 -1.3328580350948418
0.4613749324106895 -1.2274248388205466
-0.3198525402072501 -1.1521154129103357
-1.0209541181977089 -1.0466822166360403
-1.5217409596194649 -0.8508777092694919
-1.7821501171587781 -0.7454445129951967
-1.9023389590999997 -0.609887546356817
-1.9123546959284348 -0.5797637759927327
-1.94240190641374 -0.5195162352645639
-1.9123546959284348 -0.4743305797184374
-1.9123546959284348 -0.39902115380822645
-1.9223704327568698 -0.278526072351889
-1.8823074854431294 -0.14296910571350932
-1.7821501171587781 -0.0676596798032984
-1.7220556961881675 -0.007412139075129668
-1.7020242225312971 0.09802105719916562
-1.6419298015606865 0.15826859792733436
-1.5818353805900758 0.23357802383754528
-1.5317566964479001 0.3239493349297984
-1.5117252227910298 0.3691349904759249
-1.4816780123057245 0.42938253120409364
-1.4516308018204191 0.42938253120409364
-1.4015521176782435 0.4745681867502202
-1.3214262230507625 0.5649394978424733
-1.2713475389085869 0.6101251533885999
-1.2312845915948463 0.6251870385706421
-1.2312845915948463 0.6402489237526843
-1.2413003284232815 0.5950632682065576
-1.2413003284232815 0.5950632682065576
-1.2613318020801518 0.6251870385706421
-1.2413003284232815 0.6553108089347264
-1.2312845915948463 0.6854345792988108
-1.2513160652517166 0.6553108089347264
-1.2613318020801518 0.6251870385706421
-1.2913790125654572 0.6553108089347264
-1.3114104862223273 0.6854345792988108
-1.281363275737022 0.7155583496628951
-1.3013947493938922 0.7306202348449373
-1.3114104862223273 0.7306202348449373
-1.3314419598791976 0.6703726941167686
-1.3815206440213732 0.7456821200269795
-1.3815206440213732 0.7306202348449373
-1.3815206440213732 0.7908677755731061
-1.3815206440213732 0.7758058903910638
-1.3815206440213732 0.7456821200269795
-1.4115678545066785 0.7607440052090217
-1.4616465386488542 0.7607440052090217
-1.4716622754772892 0.7607440052090217
-1.4816780123057245 0.8059296607551483
-1.4716622754772892 0.8511153163012748
-1.4916937491341595 0.8059296607551483
-1.5117252227910298 0.7758058903910638
-1.5317566964479001 0.8059296607551483
-1.5417724332763352 0.8209915459371905
-1.5317566964479001 0.8812390866653592
-1.4816780123057245 0.8812390866653592
-1.5117252227910298 0.8963009718474013
-1.5317566964479001 0.8812390866653592
-1.5718196437616405 0.8511153163012748
-1.5417724332763352 0.866177201483317
-1.5117252227910298 0.8963009718474013
-1.5017094859625948 0.8963009718474013
-1.4716622754772892 0.8963009718474013
-1.4816780123057245 0.8360534311192326
-1.4916937491341595 0.8360534311192326
-1.4616465386488542 0.866177201483317
-1.4115678545066785 0.9113628570294435
-1.3815206440213732 0.941486627393528
-1.3414576967076328 0.9113628570294435
-1.3514734335360679 0.866177201483317
-1.3314419598791976 0.8360534311192326
-1.281363275737022 0.866177201483317
-1.2212688547664112 0.8360534311192326
-1.1812059074526708 0.8812390866653592
-1.12111148648206 0.8360534311192326
-1.0910642759967546 0.8209915459371905
-1.0710328023398843 0.7908677755731061
-1.0009226445408386 0.8059296607551483
-0.9708754340555331 0.8059296607551483
-0.8707180657711819 0.7908677755731061
-0.8106236448005711 0.7908677755731061
-0.8006079079721361 0.7306202348449373
-0.7605449606583956 0.700496464480853
-0.6904348028593497 0.700496464480853
-0.6403561187171741 0.700496464480853
-0.5602302240896931 0.6703726941167686
-0.5101515399475175 0.700496464480853
-0.4801043294622121 0.6553108089347264
-0.4300256453200365 0.6251870385706421
-0.3599154875209906 0.6251870385706421
-0.2898053297219448 0.6553108089347264
-0.2096794350944638 0.6101251533885999
-0.14958501412385306 0.5498776126604311
-0.1295535404669828 0.5649394978424733
-0.0894905931532423 0.5197538422963468
-0.03941190901106669 0.5197538422963468
0.030698248787979176 0.5348157274783889
0.09079266975858992 0.5197538422963468
0.14087135390076552 0.4896300719322624
0.12083988024389529 0.42938253120409364
0.1709185643860709 0.3992587608400093
0.21098151169981139 0.4143206460220515
0.26106019584198703 0.4143206460220515
0.3111388799841626 0.3992587608400093
0.341186090469468 0.3691349904759249
0.341186090469468 0.293825564565714
0.3512018272979031 0.26370179420162965
0.36121756412633826 0.26370179420162965
0.3812490377832085 0.26370179420162965
0.4313277219253841 0.26370179420162965
0.45135919558225435 0.24863990901958746
0.421311985096949 0.2034542534734609
0.44134345875381925 0.18839236829141873
0.4313277219253841 0.14320671274529218
0.4313277219253841 0.15826859792733436
0.4613749324106895 0.14320671274529218
0.44134345875381925 0.14320671274529218
0.421311985096949 0.06789728683508126
0.3812490377832085 0.08295917201712344
0.3512018272979031 0.08295917201712344
0.341186090469468 0.12814482756325
0.341186090469468 0.09802105719916562
0.33117035364103287 0.08295917201712344
0.32115461681259777 0.03777351647099688
0.26106019584198703 0.052835401653039064
0.24102872218511676 0.052835401653039064
0.24102872218511676 0.06789728683508126
0.23101298535668163 0.08295917201712344
0.23101298535668163 0.052835401653039064
0.18093430121450602 0.06789728683508126
0.1709185643860709 0.0227116312889547
0.15088709072920065 0.03777351647099688
0.14087135390076552 0.09802105719916562
0.1308556170723304 0.09802105719916562
0.11082414341546017 0.09802105719916562
0.09079266975858992 0.06789728683508126
0.05072972244484942 0.03777351647099688
0.040713985616414296 0.08295917201712344
0.05072972244484942 0.12814482756325
0.07076119610171967 0.12814482756325
0.06074545927328454 0.17333048310937654
0.05072972244484942 0.14320671274529218
0.040713985616414296 0.14320671274529218
0.030698248787979176 0.17333048310937654
0.06074545927328454 0.24863990901958746
0.05072972244484942 0.26370179420162965
0.07076119610171967 0.2787636793836718
0.06074545927328454 0.26370179420162965
0.05072972244484942 0.23357802383754528
0.05072972244484942 0.2185161386555031
0.07076119610171967 0.26370179420162965
0.07076119610171967 0.293825564565714
0.030698248787979176 0.2034542534734609
-0.01938043535419644 0.12814482756325
-0.03941190901106669 0.12814482756325
-0.049427645839501815 0.18839236829141873
-0.029396172182631564 0.17333048310937654
0.0006510383026738047 0.2034542534734609
0.030698248787979176 0.18839236829141873
0.020682511959544052 0.12814482756325
0.020682511959544052 0.14320671274529218
0.05072972244484942 0.15826859792733436
0.040713985616414296 0.18839236829141873
0.0807769329301548 0.17333048310937654
0.09079266975858992 0.18839236829141873
0.09079266975858992 0.11308294238120781
0.05072972244484942 0.14320671274529218
0.030698248787979176 0.12814482756325
0.040713985616414296 0.18839236829141873
0.05072972244484942 0.18839236829141873
0.05072972244484942 0.14320671274529218
0.030698248787979176 0.06789728683508126
0.020682511959544052 0.03777351647099688
0.05072972244484942 0.09802105719916562
0.11082414341546017 0.14320671274529218
0.15088709072920065 0.14320671274529218
0.15088709072920065 0.2034542534734609
0.14087135390076552 0.11308294238120781
0.06074545927328454 0.11308294238120781
0.020682511959544052 0.15826859792733436
-0.01938043535419644 0.18839236829141873
-0.029396172182631564 0.17333048310937654
-0.06945911949637205 0.2185161386555031
-0.13956927729541793 0.15826859792733436
-0.17963222460915843 0.12814482756325
-0.23972664557976917 0.15826859792733436
-0.23972664557976917 0.18839236829141873
-0.2597581192366394 0.2034542534734609
-0.27978959289350963 0.18839236829141873
-0.2898053297219448 0.15826859792733436
-0.2998210665503799 0.14320671274529218
-0.2898053297219448 0.14320671274529218
-0.2998210665503799 0.15826859792733436
-0.27978959289350963 0.17333048310937654
-0.27978959289350963 0.14320671274529218
-0.27978959289350963 0.09802105719916562
-0.2898053297219448 0.08295917201712344
-0.2898053297219448 0.08295917201712344
-0.27978959289350963 0.14320671274529218
-0.23972664557976917 0.12814482756325
-0.2597581192366394 0.11308294238120781
-0.2597581192366394 0.09802105719916562
-0.2597581192366394 0.08295917201712344
-0.2597581192366394 0.08295917201712344
-0.2497423824082043 0.12814482756325
-0.2096794350944638 0.11308294238120781
-0.18964796143759355 0.09802105719916562
-0.21969517192289892 0.06789728683508126
-0.2096794350944638 0.052835401653039064
-0.21969517192289892 0.09802105719916562
-0.18964796143759355 0.11308294238120781
-0.1696164877807233 0.11308294238120781
-0.15960075095228818 0.08295917201712344
-0.15960075095228818 0.09802105719916562
-0.1696164877807233 0.052835401653039064
-0.1696164877807233 0.052835401653039064
-0.15960075095228818 0.11308294238120781
-0.1295535404669828 0.11308294238120781
-0.1295535404669828 0.11308294238120781
-0.1295535404669828 0.03777351647099688
-0.13956927729541793 0.052835401653039064
-0.1295535404669828 0.052835401653039064
-0.1295535404669828 0.09802105719916562
-0.10952206681011255 0.052835401653039064
-0.10952206681011255 0.06789728683508126
-0.13956927729541793 0.03777351647099688
-0.1295535404669828 0.0227116312889547
-0.1295535404669828 0.052835401653039064
-0.09950632998167742 0.06789728683508126
-0.07947485632480718 0.09802105719916562
-0.06945911949637205 0.052835401653039064
-0.0894905931532423 0.08295917201712344
-0.11953780363854767 0.052835401653039064
-0.10952206681011255 0.09802105719916562
-0.11953780363854767 0.14320671274529218
-0.10952206681011255 0.17333048310937654
-0.11953780363854767 0.17333048310937654
-0.13956927729541793 0.2185161386555031
-0.1696164877807233 0.293825564565714
-0.1696164877807233 0.3841968756579671
-0.11953780363854767 0.4745681867502202
0.030698248787979176 0.4745681867502202
0.2710759326704221 0.4143206460220515
0.7017526162931325 0.26370179420162965
1.1724922472295833 0.06789728683508126
1.6732790886513393 -0.1580309908955515
2.1640501932446603 -0.39902115380822645
2.624774087352676 -0.7605063981772389
2.9853406131763407 -1.0768059870001248
3.3058441916862646 -1.3629818054589262
3.676426454338364 -1.6943432794638542
4.19724476941699 -2.0407666386508243
4.748110294980922 -2.5378088496582167
5.248897136402679 -3.1252223717578618
5.599447925397908 -3.6975740086754647
5.8097783987950455 -4.104244908590604
5.889904293422527 -4.28498753077511
5.960014451221572 -4.269925645593068
5.909935767079396 -4.134368678954688
5.849841346108786 -4.013873597498351
5.749683977824435 -3.893378516042013
5.569400714912603 -3.6825121234934226
5.228865662745808 -3.381274419852579
4.868299136922143 -3.049912945847651
4.627921453039701 -2.7787990125708917
4.377528032328823 -2.5378088496582167
4.11711887478951 -2.236571146017373
3.8667254540786313 -2.085952294196951
3.4761117177696614 -1.9052096720124447
2.8150730870929435 -1.6642195090997698
2.043861351303439 -1.4834768869152637
1.3327440364845453 -1.3629818054589262
0.50143787972443 -1.2575486091846309
-0.3498997506925555 -1.1521154129103357
-1.0910642759967546 -1.0316203314539982
-1.6519455383891215 -0.8358158240874498
-1.852260274957824 -0.6550732019029436
-1.9123546959284348 -0.5948256611747749
-1.94240190641374 -0.5345781204466061
-1.8823074854431294 -0.4743305797184374
-1.8823074854431294 -0.39902115380822645
-1.8823074854431294 -0.278526072351889
-1.852260274957824 -0.18815476125963587
-1.7621186435019078 -0.08272156498534058
-1.7020242225312971 0.03777351647099688
-1.6519455383891215 0.052835401653039064
-1.6018668542469459 0.12814482756325
-1.5417724332763352 0.2034542534734609
-1.4916937491341595 0.3239493349297984
-1.4516308018204191 0.3992587608400093
-1.4215835913351138 0.44444441638613585
-1.3815206440213732 0.459506301568178
-1.3414576967076328 0.4745681867502202
-1.281363275737022 0.5649394978424733
-1.2212688547664112 0.6251870385706421
-1.1812059074526708 0.6553108089347264
-1.1511586969673653 0.6703726941167686
-1.1611744337958005 0.6703726941167686
-1.1511586969673653 0.6553108089347264
-1.1511586969673653 0.6553108089347264
-1.1411429601389302 0.700496464480853
-1.1711901706242356 0.7155583496628951
-1.1912216442811059 0.7155583496628951
-1.2112531179379762 0.700496464480853
-1.2212688547664112 0.6703726941167686
-1.2212688547664112 0.6553108089347264
-1.2312845915948463 0.7456821200269795
-1.2513160652517166 0.7758058903910638
-1.2513160652517166 0.7758058903910638
-1.2913790125654572 0.7607440052090217
-1.3314419598791976 0.7607440052090217
-1.3214262230507625 0.7758058903910638
-1.3314419598791976 0.8360534311192326
-1.3314419598791976 0.8511153163012748
-1.361489170364503 0.8059296607551483
-1.3715049071929382 0.7908677755731061
-1.3915363808498082 0.8360534311192326
-1.4115678545066785 0.8360534311192326
-1.4015521176782435 0.866177201483317
-1.4015521176782435 0.8963009718474013
-1.4115678545066785 0.9113628570294435
-1.4215835913351138 0.866177201483317
-1.4516308018204191 0.866177201483317
-1.4616465386488542 0.8812390866653592
-1.4516308018204191 0.941486627393528
-1.4215835913351138 0.941486627393528
-1.4315993281635488 0.941486627393528
-1.4616465386488542 0.941486627393528
-1.4816780123057245 0.9264247422114857
-1.4716622754772892 0.9716103977576123
-1.4416150649919839 1.0017341681216967
-1.4015521176782435 0.9866722829396545
-1.4215835913351138 0.9866722829396545
-1.4115678545066785 0.95654851257557
-1.4015521176782435 0.9264247422114857
-1.3715049071929382 0.95654851257557
-1.3114104862223273 0.9866722829396545
-1.2713475389085869 0.9866722829396545
-1.2312845915948463 0.95654851257557
-1.2312845915948463 0.9113628570294435
-1.201237381109541 0.941486627393528
-1.1511586969673653 0.8963009718474013
-1.0910642759967546 0.9264247422114857
-1.0209541181977089 0.9264247422114857
-0.9608596972270981 0.866177201483317
-0.9207967499133576 0.8360534311192326
-0.8807338025996171 0.8209915459371905
-0.8206393816290063 0.8059296607551483
-0.7405134870015253 0.8511153163012748
-0.6603875923740443 0.8360534311192326
-0.6203246450603038 0.8059296607551483
-0.550214487261258 0.7456821200269795
-0.5301830136043877 0.7155583496628951
-0.45005711897690676 0.7456821200269795
-0.36993122434942577 0.7306202348449373
-0.2898053297219448 0.700496464480853
-0.23972664557976917 0.6854345792988108
-0.19966369826602867 0.6101251533885999
-0.15960075095228818 0.6101251533885999
-0.09950632998167742 0.6251870385706421
-0.03941190901106669 0.5950632682065576
0.040713985616414296 0.5649394978424733
0.10080840658702504 0.5649394978424733
0.1308556170723304 0.4745681867502202
0.16090282755763577 0.4896300719322624
0.19095003804294114 0.4896300719322624
0.2710759326704221 0.4745681867502202
0.341186090469468 0.459506301568178
0.37123330095477336 0.4143206460220515
0.37123330095477336 0.35407310529388275
0.40128051144007876 0.33901122011184054
0.4313277219253841 0.3239493349297984
0.45135919558225435 0.3239493349297984
0.5314850902097353 0.30888744974775617
0.5114536165528651 0.2787636793836718
0.5214693533813002 0.24863990901958746
0.5314850902097353 0.2034542534734609
0.5415008270381705 0.18839236829141873
0.5615323006950407 0.24863990901958746
0.5915795111803461 0.18839236829141873
0.5615323006950407 0.14320671274529218
0.5515165638666056 0.14320671274529218
0.581563774351911 0.12814482756325
0.5515165638666056 0.11308294238120781
0.6216267216656515 0.11308294238120781
0.6015952480087812 0.09802105719916562
0.5715480375234758 0.12814482756325
0.5214693533813002 0.03777351647099688
0.5114536165528651 0.052835401653039064
0.49142214289599484 0.03777351647099688
0.4713906692391246 0.052835401653039064
0.49142214289599484 0.06789728683508126
0.4613749324106895 0.052835401653039064
0.421311985096949 0.052835401653039064
0.37123330095477336 0.0227116312889547
0.3512018272979031 0.03777351647099688
0.341186090469468 0.08295917201712344
0.3512018272979031 0.08295917201712344
0.32115461681259777 0.052835401653039064
0.2810916694988573 0.052835401653039064
0.26106019584198703 0.0227116312889547
0.2510444590135519 0.08295917201712344
0.24102872218511676 0.11308294238120781
0.26106019584198703 0.11308294238120781
0.23101298535668163 0.09802105719916562
0.20096577487137626 0.09802105719916562
0.18093430121450602 0.11308294238120781
0.20096577487137626 0.17333048310937654
0.21098151169981139 0.18839236829141873
0.26106019584198703 0.2185161386555031
0.23101298535668163 0.23357802383754528
0.21098151169981139 0.2185161386555031
0.21098151169981139 0.2034542534734609
0.20096577487137626 0.2185161386555031
0.2209972485282465 0.23357802383754528
0.24102872218511676 0.2185161386555031
0.2209972485282465 0.2034542534734609
0.18093430121450602 0.14320671274529218
0.16090282755763577 0.12814482756325
0.18093430121450602 0.12814482756325
0.20096577487137626 0.18839236829141873
0.26106019584198703 0.2034542534734609
0.2710759326704221 0.2034542534734609
0.2810916694988573 0.14320671274529218
0.26106019584198703 0.12814482756325
0.24102872218511676 0.11308294238120781
0.2510444590135519 0.15826859792733436
0.2810916694988573 0.11308294238120781
0.2510444590135519 0.11308294238120781
0.24102872218511676 0.11308294238120781
0.20096577487137626 0.14320671274529218
0.18093430121450602 0.15826859792733436
0.23101298535668163 0.12814482756325
0.23101298535668163 0.06789728683508126
0.21098151169981139 0.06789728683508126
0.21098151169981139 0.06789728683508126
0.23101298535668163 0.007649746106912516
0.24102872218511676 0.06789728683508126
0.2810916694988573 0.11308294238120781
0.32115461681259777 0.12814482756325
0.2810916694988573 0.09802105719916562
0.23101298535668163 0.06789728683508126
0.19095003804294114 0.06789728683508126
0.1308556170723304 0.09802105719916562
0.11082414341546017 0.11308294238120781
0.11082414341546017 0.09802105719916562
0.05072972244484942 0.11308294238120781
-0.00936469852576132 0.052835401653039064
-0.03941190901106669 0.08295917201712344
-0.09950632998167742 0.08295917201712344
-0.07947485632480718 0.12814482756325
-0.0894905931532423 0.17333048310937654
-0.07947485632480718 0.09802105719916562
-0.0894905931532423 0.08295917201712344
-0.11953780363854767 0.03777351647099688
-0.13956927729541793 0.03777351647099688
-0.10952206681011255 0.06789728683508126
-0.07947485632480718 0.08295917201712344
-0.07947485632480718 0.08295917201712344
-0.07947485632480718 0.0227116312889547
-0.10952206681011255 0.03777351647099688
-0.11953780363854767 0.052835401653039064
-0.0894905931532423 0.08295917201712344
-0.07947485632480718 0.03777351647099688
-0.0894905931532423 0.052835401653039064
-0.0894905931532423 0.007649746106912516
-0.10952206681011255 -0.03753590943921403
-0.0894905931532423 0.007649746106912516
-0.06945911949637205 0.007649746106912516
-0.049427645839501815 0.03777351647099688
-0.03941190901106669 -0.022474024257171852
-0.049427645839501815 -0.022474024257171852
-0.029396172182631564 -0.022474024257171852
-0.06945911949637205 -0.022474024257171852
-0.029396172182631564 0.03777351647099688
-0.00936469852576132 0.0227116312889547
-0.029396172182631564 -0.007412139075129668
-0.029396172182631564 -0.052597794621256216
-0.03941190901106669 -0.052597794621256216
-0.049427645839501815 -0.052597794621256216
-0.00936469852576132 0.007649746106912516
0.010666775131108927 0.007649746106912516
0.010666775131108927 -0.022474024257171852
-0.00936469852576132 -0.03753590943921403
0.010666775131108927 -0.022474024257171852
-0.00936469852576132 -0.022474024257171852
0.020682511959544052 0.0227116312889547
0.05072972244484942 0.007649746106912516
0.06074545927328454 0.007649746106912516
0.05072972244484942 -0.03753590943921403
0.05072972244484942 -0.052597794621256216
0.05072972244484942 -0.022474024257171852
0.0807769329301548 0.007649746106912516
0.11082414341546017 -0.007412139075129668
0.07076119610171967 -0.007412139075129668
0.07076119610171967 -0.022474024257171852
0.06074545927328454 -0.052597794621256216
0.030698248787979176 0.0227116312889547
0.010666775131108927 0.09802105719916562
0.010666775131108927 0.14320671274529218
-0.01938043535419644 0.2185161386555031
-0.03941190901106669 0.2787636793836718
-0.01938043535419644 0.30888744974775617
0.0807769329301548 0.35407310529388275
0.2911074063272924 0.3691349904759249
0.6416581953225217 0.23357802383754528
1.0523034052883617 0.03777351647099688
1.5130272993963774 -0.1730928760775937
1.953719719847523 -0.41408303899026866
2.4244593507839736 -0.7303826278131544
2.875167508063554 -1.0617441018180824
3.2257182970587834 -1.3479199202768841
3.5762690860540127 -1.6792813942818121
4.036992980162029 -2.055828523832867
4.52776408475535 -2.5378088496582167
5.058598136662411 -3.0348510606656087
5.519322030770427 -3.562017042037085
5.829809872451916 -4.074121138226519
6.000077398535312 -4.480792038141658
6.1302819773049695 -4.676596545508207
6.17034492461871 -4.63141088996208
6.110250503648099 -4.510915808505743
6.070187556334359 -4.405482612231447
6.0401403458490535 -4.224739990046941
5.929967240736267 -3.9988117123163085
5.639510872711648 -3.7427596642215915
5.298975820544854 -3.4264600753987056
5.008519452520235 -3.1252223717578618
4.7681417686377925 -2.793860897752934
4.557811295240655 -2.598056390386385
4.2673549272160365 -2.3721281126557527
3.8567097172501965 -2.176323605289204
3.1556081392597375 -1.9805190979226557
2.3243019824996223 -1.7395289350099807
1.553090246710118 -1.5286625424613902
0.7918942477490486 -1.4232293461870948
-0.00936469852576132 -1.3479199202768841
-0.8106236448005711 -1.2424867240025887
-1.4315993281635488 -1.0466822166360403
-1.7821501171587781 -0.9111252499976606
-1.9123546959284348 -0.8207539389054076
-1.9123546959284348 -0.7303826278131544
-1.9223704327568698 -0.6550732019029436
-1.932386169585305 -0.5948256611747749
-1.9223704327568698 -0.5044543500825217
-1.9023389590999997 -0.3839592686261843
-1.8622760117862591 -0.2634641871698468
-1.7921658539872132 -0.14296910571350932
-1.7120399593597322 -0.022474024257171852
-1.6619612752175568 0.052835401653039064
-1.5818353805900758 0.052835401653039064
-1.5017094859625948 0.18839236829141873
-1.4616465386488542 0.24863990901958746
-1.4015521176782435 0.35407310529388275
-1.361489170364503 0.3841968756579671
-1.3114104862223273 0.4143206460220515
-1.2713475389085869 0.44444441638613585
-1.2112531179379762 0.5197538422963468
-1.1311272233104952 0.6101251533885999
-1.0910642759967546 0.6251870385706421
-1.0810485391683196 0.6251870385706421
-1.0910642759967546 0.6251870385706421
-1.1010800128251899 0.5950632682065576
-1.1010800128251899 0.6402489237526843
-1.0910642759967546 0.6854345792988108
-1.111095749653625 0.6854345792988108
-1.12111148648206 0.6854345792988108
-1.1611744337958005 0.6251870385706421
-1.1812059074526708 0.6251870385706421
-1.1912216442811059 0.6703726941167686
-1.2212688547664112 0.6703726941167686
-1.2212688547664112 0.6854345792988108
-1.2312845915948463 0.700496464480853
-1.2413003284232815 0.6703726941167686
-1.3114104862223273 0.6854345792988108
-1.3013947493938922 0.7155583496628951
-1.3013947493938922 0.7456821200269795
-1.3214262230507625 0.7758058903910638
-1.3414576967076328 0.7758058903910638
-1.361489170364503 0.7306202348449373
-1.4015521176782435 0.7607440052090217
-1.4115678545066785 0.7758058903910638
-1.4015521176782435 0.8360534311192326
-1.3915363808498082 0.8360534311192326
-1.4215835913351138 0.8209915459371905
-1.4516308018204191 0.7908677755731061
-1.4816780123057245 0.8209915459371905
-1.4716622754772892 0.8511153163012748
-1.4516308018204191 0.8511153163012748
-1.4416150649919839 0.8812390866653592
-1.4416150649919839 0.8963009718474013
-1.4416150649919839 0.8360534311192326
-1.4716622754772892 0.866177201483317
-1.4716622754772892 0.866177201483317
-1.4315993281635488 0.9113628570294435
-1.4015521176782435 0.8963009718474013
-1.3815206440213732 0.9264247422114857
-1.4115678545066785 0.8812390866653592
-1.4215835913351138 0.8812390866653592
-1.3815206440213732 0.8963009718474013
-1.3514734335360679 0.9113628570294435
-1.3013947493938922 0.941486627393528
-1.2913790125654572 0.8963009718474013
-1.2913790125654572 0.8812390866653592
-1.281363275737022 0.8511153163012748
-1.2413003284232815 0.866177201483317
-1.1812059074526708 0.8511153163012748
-1.111095749653625 0.8812390866653592
-1.0910642759967546 0.8511153163012748
-1.030969855026144 0.7758058903910638
-0.9909069077124034 0.7758058903910638
-0.9608596972270981 0.7758058903910638
-0.8807338025996171 0.8059296607551483
-0.8006079079721361 0.7908677755731061
-0.7405134870015253 0.7758058903910638
-0.7204820133446551 0.7155583496628951
-0.6603875923740443 0.6703726941167686
-0.6103089082318687 0.700496464480853
-0.5101515399475175 0.7155583496628951
-0.46007285580534185 0.6854345792988108
-0.389962698006296 0.6553108089347264
-0.3298682770356853 0.5950632682065576
-0.26977385606507454 0.6101251533885999
-0.21969517192289892 0.5498776126604311
-0.10952206681011255 0.6101251533885999
-0.03941190901106669 0.5649394978424733
0.010666775131108927 0.5348157274783889
0.0807769329301548 0.5046919571143046
0.11082414341546017 0.459506301568178
0.1709185643860709 0.459506301568178
0.2209972485282465 0.4745681867502202
0.32115461681259777 0.42938253120409364
0.36121756412633826 0.3691349904759249
0.37123330095477336 0.3239493349297984
0.3912647746116436 0.293825564565714
0.40128051144007876 0.26370179420162965
0.45135919558225435 0.3239493349297984
0.48140640606755974 0.24863990901958746
0.50143787972443 0.2185161386555031
0.50143787972443 0.17333048310937654
0.5214693533813002 0.14320671274529218
0.5314850902097353 0.15826859792733436
0.5415008270381705 0.14320671274529218
0.5615323006950407 0.14320671274529218
0.5715480375234758 0.11308294238120781
0.5314850902097353 0.03777351647099688
0.5314850902097353 0.052835401653039064
0.5214693533813002 0.03777351647099688
0.5415008270381705 0.06789728683508126
0.5515165638666056 0.03777351647099688
0.5114536165528651 0.03777351647099688
0.48140640606755974 0.007649746106912516
0.4613749324106895 -0.007412139075129668
0.44134345875381925 0.007649746106912516
0.4313277219253841 0.03777351647099688
0.4613749324106895 0.007649746106912516
0.4313277219253841 -0.007412139075129668
0.40128051144007876 -0.03753590943921403
0.36121756412633826 -0.0676596798032984
0.37123330095477336 -0.007412139075129668
0.3812490377832085 0.007649746106912516
0.36121756412633826 0.0227116312889547
0.3512018272979031 0.0227116312889547
0.3011231431557275 -0.022474024257171852
0.2710759326704221 -0.007412139075129668
0.2209972485282465 0.0227116312889547
0.24102872218511676 0.06789728683508126
0.2510444590135519 0.06789728683508126
0.2209972485282465 0.052835401653039064
0.20096577487137626 0.03777351647099688
0.18093430121450602 0.052835401653039064
0.16090282755763577 0.08295917201712344
0.19095003804294114 0.14320671274529218
0.2209972485282465 0.18839236829141873
0.20096577487137626 0.17333048310937654
0.1709185643860709 0.18839236829141873
0.15088709072920065 0.12814482756325
0.1308556170723304 0.14320671274529218
0.14087135390076552 0.17333048310937654
0.14087135390076552 0.15826859792733436
0.10080840658702504 0.09802105719916562
0.09079266975858992 0.03777351647099688
0.0807769329301548 0.03777351647099688
0.12083988024389529 0.06789728683508126
0.14087135390076552 0.12814482756325
0.18093430121450602 0.09802105719916562
0.20096577487137626 0.09802105719916562
0.20096577487137626 0.052835401653039064
0.1709185643860709 0.06789728683508126
0.19095003804294114 0.03777351647099688
0.20096577487137626 0.06789728683508126
0.2209972485282465 0.06789728683508126
0.21098151169981139 0.08295917201712344
0.19095003804294114 0.03777351647099688
0.16090282755763577 0.0227116312889547
0.18093430121450602 0.0227116312889547
0.18093430121450602 0.0227116312889547
0.19095003804294114 0.007649746106912516
0.2209972485282465 0.0227116312889547
0.2209972485282465 -0.022474024257171852
0.2209972485282465 -0.007412139075129668
0.21098151169981139 0.0227116312889547
0.23101298535668163 0.06789728683508126
0.21098151169981139 0.052835401653039064
0.16090282755763577 0.03777351647099688
0.09079266975858992 0.0227116312889547
0.05072972244484942 -0.022474024257171852
-0.00936469852576132 0.0227116312889547
-0.03941190901106669 0.03777351647099688
-0.06945911949637205 0.03777351647099688
-0.11953780363854767 0.007649746106912516
-0.14958501412385306 -0.007412139075129668
-0.17963222460915843 -0.03753590943921403
-0.2096794350944638 -0.007412139075129668
-0.13956927729541793 0.052835401653039064
-0.13956927729541793 0.0227116312889547
-0.15960075095228818 0.007649746106912516
-0.14958501412385306 -0.0676596798032984
-0.18964796143759355 -0.08272156498534058
-0.17963222460915843 -0.022474024257171852
-0.14958501412385306 -0.052597794621256216
-0.10952206681011255 -0.007412139075129668
-0.11953780363854767 -0.022474024257171852
-0.1295535404669828 -0.052597794621256216
-0.11953780363854767 -0.08272156498534058
-0.14958501412385306 -0.03753590943921403
-0.10952206681011255 -0.03753590943921403
-0.07947485632480718 -0.007412139075129668
-0.09950632998167742 -0.022474024257171852
-0.09950632998167742 -0.08272156498534058
-0.11953780363854767 -0.0676596798032984
-0.09950632998167742 -0.0676596798032984
-0.07947485632480718 -0.0676596798032984
-0.03941190901106669 -0.03753590943921403
-0.06945911949637205 -0.0676596798032984
-0.06945911949637205 -0.09778345016738277
-0.09950632998167742 -0.08272156498534058
-0.1295535404669828 -0.08272156498534058
-0.0894905931532423 -0.0676596798032984
-0.07947485632480718 -0.0676596798032984
-0.05944338266793694 -0.052597794621256216
-0.049427645839501815 -0.09778345016738277
-0.09950632998167742 -0.11284533534942495
-0.09950632998167742 -0.09778345016738277
-0.05944338266793694 -0.0676596798032984
-0.01938043535419644 -0.052597794621256216
-0.03941190901106669 -0.052597794621256216
-0.03941190901106669 -0.11284533534942495
-0.05944338266793694 -0.09778345016738277
-0.05944338266793694 -0.0676596798032984
-0.029396172182631564 -0.03753590943921403
0.010666775131108927 -0.052597794621256216
0.0006510383026738047 -0.09778345016738277
0.0006510383026738047 -0.09778345016738277
-0.00936469852576132 -0.11284533534942495
0.010666775131108927 -0.09778345016738277
0.010666775131108927 -0.03753590943921403
0.030698248787979176 -0.03753590943921403
0.010666775131108927 -0.052597794621256216
0.010666775131108927 0.007649746106912516
-0.03941190901106669 0.007649746106912516
-0.05944338266793694 0.03777351647099688
-0.05944338266793694 0.12814482756325
-0.03941190901106669 0.2185161386555031
-0.01938043535419644 0.2787636793836718
0.0006510383026738047 0.2787636793836718
0.11082414341546017 0.24863990901958746
0.3111388799841626 0.23357802383754528
0.6717054058078271 0.15826859792733436
1.1224135630874077 -0.022474024257171852
1.563105983538553 -0.23334041680576242
1.9937826671612633 -0.4592686945363952
2.454506561269279 -0.8207539389054076
2.875167508063554 -1.1671772980923778
3.245749770715654 -1.4382912313691372
3.5963005597108832 -1.7094051646458965
4.057024453818899 -2.070890409014909
4.52776408475535 -2.5378088496582167
4.9985037156918 -3.0950986013937776
5.4492118729713805 -3.6222645827652538
5.739668240995999 -4.074121138226519
5.939982977564702 -4.405482612231447
6.070187556334359 -4.616349004780038
6.1302819773049695 -4.721782201054333
6.090219029991228 -4.676596545508207
6.020108872192183 -4.525977693687785
5.970030188050007 -4.390420727049405
5.929967240736267 -4.194616219682857
5.7196367673391295 -3.9235022864060976
5.429180399314511 -3.6674502383113805
5.118692557633022 -3.381274419852579
4.908362084235884 -3.080036716211735
4.6780001371818765 -2.808922782934976
4.4476381901278685 -2.598056390386385
4.1772132957601205 -2.402251883019837
3.7865995594511506 -2.266694916381457
3.2056868234019134 -2.055828523832867
2.464522298097714 -1.844962131284276
1.7634207201072556 -1.6642195090997698
1.1123978262589724 -1.5286625424613902
0.3812490377832085 -1.4081674610050527
-0.40999417166316626 -1.3629818054589262
-1.1411429601389302 -1.2274248388205466
-1.6719770120459918 -1.016558446271956
-1.94240190641374 -0.9261871351797029
-2.012512064212786 -0.8056920537233654
-2.042559274698091 -0.7153207426311123
-2.042559274698091 -0.6701350870849857
-2.042559274698091 -0.6249494315388592
-2.022527801041221 -0.5195162352645639
-2.002496327384351 -0.39902115380822645
-1.9524176432421751 -0.30864984271597334
-1.8923232222715645 -0.23334041680576242
-1.8622760117862591 -0.14296910571350932
-1.8121973276440835 -0.08272156498534058
-1.7420871698450378 0.052835401653039064
-1.6419298015606865 0.17333048310937654
-1.5718196437616405 0.23357802383754528
-1.5618039069332055 0.2787636793836718
-1.5317566964479001 0.293825564565714
-1.4616465386488542 0.3691349904759249
-1.4215835913351138 0.44444441638613585
-1.3414576967076328 0.5046919571143046
-1.2613318020801518 0.5197538422963468
-1.2413003284232815 0.5800013830245155
-1.2613318020801518 0.5950632682065576
-1.2513160652517166 0.5800013830245155
-1.2112531179379762 0.6251870385706421
-1.1912216442811059 0.5950632682065576
-1.1912216442811059 0.6251870385706421
-1.201237381109541 0.6251870385706421
-1.2513160652517166 0.5950632682065576
-1.2513160652517166 0.5800013830245155
-1.2713475389085869 0.6402489237526843
-1.2413003284232815 0.6553108089347264
-1.2413003284232815 0.6553108089347264
-1.281363275737022 0.6553108089347264
-1.2913790125654572 0.6402489237526843
-1.3414576967076328 0.6402489237526843
-1.3514734335360679 0.6703726941167686
-1.3514734335360679 0.6854345792988108
-1.3314419598791976 0.7155583496628951
-1.3715049071929382 0.7155583496628951
-1.4015521176782435 0.700496464480853
-1.4516308018204191 0.700496464480853
-1.4716622754772892 0.7456821200269795
-1.4616465386488542 0.7908677755731061
-1.4516308018204191 0.7758058903910638
-1.4816780123057245 0.7908677755731061
-1.5117252227910298 0.7607440052090217
-1.5417724332763352 0.7758058903910638
-1.5618039069332055 0.7908677755731061
-1.5417724332763352 0.866177201483317
-1.5217409596194649 0.8209915459371905
-1.5417724332763352 0.8360534311192326
-1.5517881701047702 0.8059296607551483
-1.5818353805900758 0.8059296607551483
-1.5718196437616405 0.8209915459371905
-1.5618039069332055 0.866177201483317
-1.5117252227910298 0.866177201483317
-1.5317566964479001 0.866177201483317
-1.5317566964479001 0.866177201483317
-1.5417724332763352 0.8360534311192326
-1.5217409596194649 0.8511153163012748
-1.4816780123057245 0.8812390866653592
-1.4315993281635488 0.8511153163012748
-1.4215835913351138 0.8511153163012748
-1.4015521176782435 0.8209915459371905
-1.3715049071929382 0.8209915459371905
-1.3414576967076328 0.8360534311192326
-1.3013947493938922 0.866177201483317
-1.2312845915948463 0.8511153163012748
-1.1912216442811059 0.8360534311192326
-1.1611744337958005 0.7758058903910638
-1.1411429601389302 0.7306202348449373
-1.12111148648206 0.7758058903910638
-1.030969855026144 0.8059296607551483
-0.9608596972270981 0.7758058903910638
-0.9207967499133576 0.7607440052090217
-0.8707180657711819 0.700496464480853
-0.8306551184574414 0.6703726941167686
-0.7705606974868306 0.6553108089347264
-0.7204820133446551 0.700496464480853
-0.6403561187171741 0.6703726941167686
-0.5702459609181282 0.6553108089347264
-0.5301830136043877 0.6101251533885999
-0.4801043294622121 0.5649394978424733
-0.42000990849160136 0.5649394978424733
-0.3498997506925555 0.5649394978424733
-0.26977385606507454 0.5800013830245155
-0.22971090875133404 0.5348157274783889
-0.17963222460915843 0.459506301568178
-0.1295535404669828 0.4745681867502202
-0.05944338266793694 0.4896300719322624
0.020682511959544052 0.4896300719322624
0.11082414341546017 0.4745681867502202
0.14087135390076552 0.4143206460220515
0.1709185643860709 0.3841968756579671
0.19095003804294114 0.30888744974775617
0.24102872218511676 0.33901122011184054
0.3111388799841626 0.3239493349297984
0.36121756412633826 0.3239493349297984
0.3912647746116436 0.30888744974775617
0.421311985096949 0.23357802383754528
0.44134345875381925 0.18839236829141873
0.4613749324106895 0.2034542534734609
0.49142214289599484 0.2034542534734609
0.5114536165528651 0.17333048310937654
0.5214693533813002 0.14320671274529218
0.5314850902097353 0.14320671274529218
0.50143787972443 0.06789728683508126
0.5114536165528651 0.11308294238120781
0.5314850902097353 0.12814482756325
0.5415008270381705 0.09802105719916562
0.5114536165528651 0.052835401653039064
0.49142214289599484 0.0227116312889547
0.48140640606755974 0.007649746106912516
0.44134345875381925 0.007649746106912516
0.4313277219253841 0.0227116312889547
0.44134345875381925 0.03777351647099688
0.41129624826851385 0.052835401653039064
0.37123330095477336 -0.022474024257171852
0.33117035364103287 -0.03753590943921403
0.32115461681259777 -0.03753590943921403
0.32115461681259777 0.007649746106912516
0.341186090469468 0.007649746106912516
0.32115461681259777 -0.007412139075129668
0.2510444590135519 -0.052597794621256216
0.23101298535668163 -0.03753590943921403
0.2209972485282465 -0.03753590943921403
0.2209972485282465 0.007649746106912516
0.2510444590135519 0.0227116312889547
0.21098151169981139 -0.022474024257171852
0.1709185643860709 -0.007412139075129668
0.15088709072920065 -0.022474024257171852
0.12083988024389529 0.007649746106912516
0.14087135390076552 0.052835401653039064
0.1308556170723304 0.052835401653039064
0.1308556170723304 0.03777351647099688
0.11082414341546017 0.052835401653039064
0.0807769329301548 0.052835401653039064
0.10080840658702504 0.09802105719916562
0.10080840658702504 0.12814482756325
0.12083988024389529 0.18839236829141873
0.12083988024389529 0.17333048310937654
0.0807769329301548 0.14320671274529218
0.05072972244484942 0.12814482756325
0.06074545927328454 0.14320671274529218
0.06074545927328454 0.17333048310937654
0.07076119610171967 0.17333048310937654
0.05072972244484942 0.18839236829141873
0.010666775131108927 0.06789728683508126
-0.00936469852576132 0.0227116312889547
-0.05944338266793694 0.052835401653039064
-0.029396172182631564 0.09802105719916562
0.020682511959544052 0.09802105719916562
0.05072972244484942 0.11308294238120781
0.05072972244484942 0.09802105719916562
0.040713985616414296 0.06789728683508126
0.07076119610171967 0.08295917201712344
0.0807769329301548 0.09802105719916562
0.09079266975858992 0.11308294238120781
0.07076119610171967 0.08295917201712344
0.07076119610171967 0.052835401653039064
0.05072972244484942 0.007649746106912516
0.05072972244484942 0.03777351647099688
0.07076119610171967 0.08295917201712344
0.09079266975858992 0.08295917201712344
0.0807769329301548 0.06789728683508126
0.06074545927328454 -0.007412139075129668
0.05072972244484942 -0.052597794621256216
0.06074545927328454 -0.022474024257171852
0.10080840658702504 -0.007412139075129668
0.1709185643860709 0.03777351647099688
0.1709185643860709 0.03777351647099688
0.18093430121450602 0.007649746106912516
0.14087135390076552 -0.022474024257171852
0.11082414341546017 0.03777351647099688
0.0807769329301548 0.007649746106912516
0.040713985616414296 0.052835401653039064
0.020682511959544052 0.06789728683508126
-0.01938043535419644 0.007649746106912516
-0.07947485632480718 -0.007412139075129668
-0.14958501412385306 0.0227116312889547
-0.17963222460915843 0.052835401653039064
-0.18964796143759355 0.03777351647099688
-0.21969517192289892 0.0227116312889547
-0.2597581192366394 0.03777351647099688
-0.2898053297219448 -0.007412139075129668
-0.26977385606507454 0.0227116312889547
-0.26977385606507454 -0.007412139075129668
-0.2597581192366394 0.007649746106912516
-0.2497423824082043 0.0227116312889547
-0.27978959289350963 -0.03753590943921403
-0.27978959289350963 -0.03753590943921403
-0.2898053297219448 -0.052597794621256216
-0.2597581192366394 0.03777351647099688
-0.23972664557976917 0.0227116312889547
-0.2597581192366394 -0.022474024257171852
-0.2597581192366394 -0.052597794621256216
-0.2597581192366394 -0.052597794621256216
-0.2497423824082043 -0.0676596798032984
-0.23972664557976917 -0.03753590943921403
-0.21969517192289892 -0.022474024257171852
-0.21969517192289892 -0.052597794621256216
-0.2597581192366394 -0.08272156498534058
-0.2597581192366394 -0.11284533534942495
-0.2497423824082043 -0.03753590943921403
-0.2096794350944638 -0.052597794621256216
-0.19966369826602867 -0.0676596798032984
-0.2096794350944638 -0.03753590943921403
-0.2096794350944638 -0.0676596798032984
-0.21969517192289892 -0.11284533534942495
-0.21969517192289892 -0.08272156498534058
-0.17963222460915843 -0.0676596798032984
-0.15960075095228818 -0.0676596798032984
-0.1696164877807233 -0.052597794621256216
-0.19966369826602867 -0.12790722053146714
-0.17963222460915843 -0.1580309908955515
-0.19966369826602867 -0.09778345016738277
-0.15960075095228818 -0.09778345016738277
-0.14958501412385306 -0.09778345016738277
-0.14958501412385306 -0.11284533534942495
-0.1696164877807233 -0.12790722053146714
-0.17963222460915843 -0.12790722053146714
-0.18964796143759355 -0.11284533534942495
-0.1696164877807233 -0.11284533534942495
-0.13956927729541793 -0.08272156498534058
-0.1295535404669828 -0.08272156498534058
-0.15960075095228818 -0.12790722053146714
-0.17963222460915843 -0.09778345016738277
-0.15960075095228818 -0.09778345016738277
-0.13956927729541793 -0.052597794621256216
-0.09950632998167742 -0.0676596798032984
-0.1295535404669828 -0.052597794621256216
-0.14958501412385306 -0.0676596798032984
-0.14958501412385306 -0.0676596798032984
-0.17963222460915843 -0.007412139075129668
-0.18964796143759355 0.08295917201712344
-0.17963222460915843 0.12814482756325
-0.17963222460915843 0.17333048310937654
-0.1696164877807233 0.2185161386555031
-0.0894905931532423 0.24863990901958746
0.07076119610171967 0.24863990901958746
0.41129624826851385 0.2185161386555031
0.8419729318912241 0.052835401653039064
1.2626338786854994 -0.14296910571350932
1.7033262991366447 -0.3387736130800577
2.134002982759355 -0.6249494315388592
2.5146009822398896 -0.9261871351797029
2.845120297578249 -1.2424867240025887
3.1455924024313027 -1.4985387720973058
3.5261904019118373 -1.7847145905561073
3.9568670855345474 -2.161261720107162
4.427606716470998 -2.643242045932512
4.918377821064319 -3.140284256939904
5.288960083716419 -3.637326467947296
5.519322030770427 -4.043997367862435
5.6795738200253885 -4.375358841867363
5.739668240995999 -4.525977693687785
5.7196367673391295 -4.541039578869827
5.619479399054778 -4.375358841867363
5.489274820285122 -4.315111301139194
5.419164662486075 -4.14943056413673
5.2689286100595485 -3.968687941952224
4.9484250315496245 -3.7578215494036336
4.577842768897526 -3.5168313864909586
4.237307716730731 -3.230655568032157
3.976898559191418 -2.97460351993744
3.74653661213741 -2.718551471842723
3.516174665083402 -2.522746964476174
3.3258756653431347 -2.342004342291668
3.0754822446322567 -2.236571146017373
2.624774087352676 -1.9805190979226557
2.053877088131874 -1.754590820192023
1.5030115625679423 -1.6340957387356856
0.8720201423765296 -1.4985387720973058
0.1709185643860709 -1.4533531165511793
-0.5401987504328228 -1.3027342647307574
-1.1611744337958005 -1.1219916425462513
-1.5718196437616405 -1.0014965610899138
-1.8021815908156484 -0.8810014796335763
-1.932386169585305 -0.8056920537233654
-1.9724491168990455 -0.7605063981772389
-1.9824648537274807 -0.7002588574490701
-1.9924805905559158 -0.5797637759927327
-1.9624333800706104 -0.5044543500825217
-1.9223704327568698 -0.39902115380822645
-1.94240190641374 -0.3387736130800577
-1.9123546959284348 -0.278526072351889
-1.8422445381293888 -0.21827853162372024
-1.7621186435019078 -0.11284533534942495
-1.7020242225312971 0.0227116312889547
-1.6419298015606865 0.08295917201712344
-1.5818353805900758 0.17333048310937654
-1.5718196437616405 0.2034542534734609
-1.5818353805900758 0.2185161386555031
-1.5517881701047702 0.293825564565714
-1.4516308018204191 0.3691349904759249
-1.3915363808498082 0.4143206460220515
-1.3514734335360679 0.42938253120409364
-1.3214262230507625 0.459506301568178
-1.3214262230507625 0.4745681867502202
-1.3013947493938922 0.5197538422963468
-1.2913790125654572 0.5348157274783889
-1.2713475389085869 0.5498776126604311
-1.2613318020801518 0.5649394978424733
-1.281363275737022 0.5348157274783889
-1.281363275737022 0.5197538422963468
-1.3214262230507625 0.5348157274783889
-1.3114104862223273 0.5950632682065576
-1.3114104862223273 0.5950632682065576
-1.3314419598791976 0.5800013830245155
-1.3514734335360679 0.5800013830245155
-1.3815206440213732 0.5348157274783889
-1.4115678545066785 0.5950632682065576
-1.3815206440213732 0.6402489237526843
-1.3715049071929382 0.6251870385706421
-1.4115678545066785 0.5950632682065576
-1.4315993281635488 0.6402489237526843
-1.4516308018204191 0.6101251533885999
-1.4816780123057245 0.6402489237526843
-1.4616465386488542 0.6854345792988108
-1.4416150649919839 0.7155583496628951
-1.4616465386488542 0.700496464480853
-1.4616465386488542 0.6854345792988108
-1.5017094859625948 0.700496464480853
-1.5317566964479001 0.700496464480853
-1.5217409596194649 0.7456821200269795
-1.4916937491341595 0.7456821200269795
-1.5217409596194649 0.7456821200269795
-1.5517881701047702 0.7456821200269795
-1.5618039069332055 0.7456821200269795
-1.5618039069332055 0.7607440052090217
-1.5618039069332055 0.7908677755731061
-1.5417724332763352 0.7607440052090217
-1.5517881701047702 0.7908677755731061
-1.5517881701047702 0.7456821200269795
-1.5618039069332055 0.7758058903910638
-1.5317566964479001 0.7908677755731061
-1.5017094859625948 0.8209915459371905
-1.4716622754772892 0.8209915459371905
-1.4416150649919839 0.7908677755731061
-1.4315993281635488 0.7607440052090217
-1.4315993281635488 0.7607440052090217
-1.4215835913351138 0.7758058903910638
-1.361489170364503 0.7758058903910638
-1.3013947493938922 0.7758058903910638
-1.281363275737022 0.7758058903910638
-1.2613318020801518 0.7306202348449373
-1.2413003284232815 0.7155583496628951
-1.201237381109541 0.7155583496628951
-1.12111148648206 0.7306202348449373
-1.0510013286830142 0.7456821200269795
-0.9909069077124034 0.700496464480853
-0.9608596972270981 0.6703726941167686
-0.9207967499133576 0.6402489237526843
-0.8607023289427468 0.6553108089347264
-0.7805764343152658 0.6553108089347264
-0.6804190660309146 0.6402489237526843
-0.6403561187171741 0.6101251533885999
-0.5802616977465633 0.5800013830245155
-0.550214487261258 0.5348157274783889
-0.4801043294622121 0.5498776126604311
-0.389962698006296 0.5800013830245155
-0.2998210665503799 0.5800013830245155
-0.26977385606507454 0.5348157274783889
-0.23972664557976917 0.5046919571143046
-0.19966369826602867 0.4745681867502202
-0.15960075095228818 0.44444441638613585
-0.0894905931532423 0.459506301568178
-0.00936469852576132 0.4143206460220515
0.05072972244484942 0.42938253120409364
0.0807769329301548 0.35407310529388275
0.12083988024389529 0.33901122011184054
0.15088709072920065 0.3239493349297984
0.19095003804294114 0.3239493349297984
0.2710759326704221 0.33901122011184054
0.2710759326704221 0.2787636793836718
0.2710759326704221 0.23357802383754528
0.2911074063272924 0.18839236829141873
0.33117035364103287 0.2034542534734609
0.37123330095477336 0.2034542534734609
0.41129624826851385 0.17333048310937654
0.40128051144007876 0.12814482756325
0.40128051144007876 0.09802105719916562
0.3812490377832085 0.06789728683508126
0.37123330095477336 0.052835401653039064
0.3912647746116436 0.08295917201712344
0.41129624826851385 0.06789728683508126
0.3812490377832085 0.052835401653039064
0.36121756412633826 -0.007412139075129668
0.341186090469468 -0.03753590943921403
0.3111388799841626 -0.007412139075129668
0.33117035364103287 0.0227116312889547
0.3512018272979031 0.007649746106912516
0.341186090469468 -0.052597794621256216
0.2911074063272924 -0.0676596798032984
0.26106019584198703 -0.08272156498534058
0.2209972485282465 -0.11284533534942495
0.20096577487137626 -0.007412139075129668
0.18093430121450602 -0.007412139075129668
0.15088709072920065 -0.052597794621256216
0.11082414341546017 -0.0676596798032984
0.0807769329301548 -0.08272156498534058
0.07076119610171967 -0.03753590943921403
0.05072972244484942 -0.022474024257171852
0.05072972244484942 -0.007412139075129668
0.030698248787979176 -0.007412139075129668
0.030698248787979176 -0.03753590943921403
-0.029396172182631564 -0.022474024257171852
-0.03941190901106669 -0.007412139075129668
-0.029396172182631564 0.052835401653039064
0.0006510383026738047 0.06789728683508126
-0.029396172182631564 0.06789728683508126
-0.01938043535419644 0.052835401653039064
-0.01938043535419644 0.06789728683508126
-0.00936469852576132 0.11308294238120781
0.0006510383026738047 0.15826859792733436
0.030698248787979176 0.12814482756325
-0.01938043535419644 0.12814482756325
-0.00936469852576132 0.09802105719916562
-0.01938043535419644 0.08295917201712344
-0.01938043535419644 0.11308294238120781
-0.029396172182631564 0.09802105719916562
-0.029396172182631564 0.09802105719916562
-0.049427645839501815 0.08295917201712344
-0.05944338266793694 0.052835401653039064
-0.05944338266793694 0.0227116312889547
-0.049427645839501815 0.06789728683508126
0.010666775131108927 0.09802105719916562
0.040713985616414296 0.08295917201712344
0.05072972244484942 0.03777351647099688
0.020682511959544052 0.03777351647099688
-0.029396172182631564 0.007649746106912516
-0.03941190901106669 0.0227116312889547
0.0006510383026738047 0.08295917201712344
0.05072972244484942 0.09802105719916562
0.010666775131108927 0.06789728683508126
0.0006510383026738047 0.007649746106912516
-0.01938043535419644 0.007649746106912516
-0.029396172182631564 0.052835401653039064
-0.01938043535419644 -0.007412139075129668
-0.03941190901106669 -0.007412139075129668
-0.00936469852576132 0.03777351647099688
-0.00936469852576132 -0.03753590943921403
0.030698248787979176 -0.022474024257171852
0.020682511959544052 0.03777351647099688
0.05072972244484942 0.08295917201712344
0.030698248787979176 0.11308294238120781
-0.029396172182631564 0.08295917201712344
-0.07947485632480718 0.052835401653039064
-0.11953780363854767 0.03777351647099688
-0.17963222460915843 0.09802105719916562
-0.2096794350944638 0.09802105719916562
-0.2497423824082043 0.06789728683508126
-0.3198525402072501 0.09802105719916562
-0.33988401386412037 0.03777351647099688
-0.37994696117786086 0.0227116312889547
-0.37994696117786086 0.052835401653039064
-0.33988401386412037 0.08295917201712344
-0.3298682770356853 0.06789728683508126
-0.3498997506925555 0.052835401653039064
-0.36993122434942577 0.0227116312889547
-0.3599154875209906 -0.007412139075129668
-0.37994696117786086 0.007649746106912516
-0.3498997506925555 0.03777351647099688
-0.3498997506925555 0.03777351647099688
-0.3599154875209906 0.0227116312889547
-0.36993122434942577 0.007649746106912516
-0.37994696117786086 -0.022474024257171852
-0.40999417166316626 0.0227116312889547
-0.3599154875209906 0.0227116312889547
-0.3198525402072501 0.0227116312889547
-0.33988401386412037 0.007649746106912516
-0.33988401386412037 -0.03753590943921403
-0.3498997506925555 -0.0676596798032984
-0.3498997506925555 -0.022474024257171852
-0.3198525402072501 0.007649746106912516
-0.2898053297219448 0.007649746106912516
-0.2898053297219448 0.0227116312889547
-0.30983680337881503 -0.022474024257171852
-0.30983680337881503 -0.052597794621256216
-0.3198525402072501 -0.03753590943921403
-0.27978959289350963 -0.03753590943921403
-0.26977385606507454 0.007649746106912516
-0.27978959289350963 -0.007412139075129668
-0.2597581192366394 -0.03753590943921403
-0.27978959289350963 -0.0676596798032984
-0.2597581192366394 -0.022474024257171852
-0.23972664557976917 0.007649746106912516
-0.21969517192289892 -0.022474024257171852
-0.22971090875133404 -0.03753590943921403
-0.22971090875133404 -0.0676596798032984
-0.2497423824082043 -0.0676596798032984
-0.22971090875133404 -0.022474024257171852
-0.19966369826602867 -0.007412139075129668
-0.1696164877807233 -0.007412139075129668
-0.17963222460915843 0.007649746106912516
-0.17963222460915843 -0.08272156498534058
-0.18964796143759355 -0.052597794621256216
-0.17963222460915843 -0.052597794621256216
-0.14958501412385306 -0.007412139075129668
-0.10952206681011255 -0.007412139075129668
-0.14958501412385306 -0.007412139075129668
-0.18964796143759355 -0.052597794621256216
-0.19966369826602867 -0.022474024257171852
-0.2497423824082043 0.0227116312889547
-0.2096794350944638 0.11308294238120781
-0.2096794350944638 0.14320671274529218
-0.23972664557976917 0.2034542534734609
-0.2497423824082043 0.23357802383754528
-0.23972664557976917 0.26370179420162965
-0.13956927729541793 0.3239493349297984
0.07076119610171967 0.35407310529388275
0.3512018272979031 0.2787636793836718
0.7117683531215676 0.12814482756325
1.1724922472295833 -0.08272156498534058
1.5831374571954233 -0.278526072351889
2.023829877646569 -0.5195162352645639
2.434475087612409 -0.8358158240874498
2.775010139779203 -1.1219916425462513
3.0654665078038215 -1.4232293461870948
3.4560802441127914 -1.6943432794638542
3.9368356118776773 -2.070890409014909
4.437622453299434 -2.567932620022301
4.9484250315496245 -3.0197891754835666
5.319007294201724 -3.5770789272191275
5.529337767598862 -3.9988117123163085
5.689589556853824 -4.315111301139194
5.789746925138175 -4.435606382595532
5.7697154514813045 -4.345235071503279
5.699605293682259 -4.254863760411025
5.619479399054778 -4.0891830234085615
5.489274820285122 -3.9837498271342664
5.2689286100595485 -3.7578215494036336
4.89834634740745 -3.5318932716730007
4.577842768897526 -3.1854699124860306
4.297402137701342 -2.9444797495733557
4.067040190647334 -2.688427701478638
3.8567097172501965 -2.522746964476174
3.656394980681494 -2.342004342291668
3.446064507284356 -2.161261720107162
3.0754822446322567 -1.9353334423765292
2.5146009822398896 -1.7696527053740652
1.9136567725337823 -1.5738481980075167
1.2726496155139344 -1.4382912313691372
0.5114536165528651 -1.3931055758230106
-0.2597581192366394 -1.2726104943666732
-0.9808911708839683 -1.1069297573642092
-1.4716622754772892 -0.9261871351797029
-1.7420871698450378 -0.8358158240874498
-1.9023389590999997 -0.7605063981772389
-2.042559274698091 -0.7153207426311123
-2.0525750115265264 -0.6249494315388592
-2.0625907483549617 -0.5948256611747749
-2.0325435378696564 -0.4743305797184374
-2.002496327384351 -0.3538354982620999
-2.022527801041221 -0.32371172789801556
-1.9924805905559158 -0.278526072351889
-1.9123546959284348 -0.18815476125963587
-1.8722917486146942 -0.11284533534942495
-1.7821501171587781 0.0227116312889547
-1.7120399593597322 0.12814482756325
-1.6519455383891215 0.14320671274529218
-1.6218983279038162 0.23357802383754528
-1.6218983279038162 0.24863990901958746
-1.5818353805900758 0.3239493349297984
-1.5217409596194649 0.3992587608400093
-1.4115678545066785 0.44444441638613585
-1.3815206440213732 0.4745681867502202
-1.3414576967076328 0.5046919571143046
-1.3314419598791976 0.5197538422963468
-1.2913790125654572 0.5649394978424733
-1.2613318020801518 0.6251870385706421
-1.2312845915948463 0.6251870385706421
-1.2312845915948463 0.6251870385706421
-1.2613318020801518 0.5800013830245155
-1.2913790125654572 0.5498776126604311
-1.3114104862223273 0.5800013830245155
-1.3214262230507625 0.6402489237526843
-1.2913790125654572 0.6402489237526843
-1.3114104862223273 0.6251870385706421
-1.361489170364503 0.6251870385706421
-1.3715049071929382 0.5950632682065576
-1.4015521176782435 0.6402489237526843
-1.3815206440213732 0.6703726941167686
-1.3815206440213732 0.6703726941167686
-1.4115678545066785 0.6854345792988108
-1.4215835913351138 0.6402489237526843
-1.4716622754772892 0.6402489237526843
-1.4916937491341595 0.6703726941167686
-1.4816780123057245 0.7306202348449373
-1.4916937491341595 0.7456821200269795
-1.4916937491341595 0.7306202348449373
-1.5217409596194649 0.7155583496628951
-1.5417724332763352 0.7155583496628951
-1.5517881701047702 0.7607440052090217
-1.5417724332763352 0.7758058903910638
-1.5317566964479001 0.7908677755731061
-1.5417724332763352 0.8059296607551483
-1.5517881701047702 0.7908677755731061
-1.5918511174185108 0.7607440052090217
-1.5918511174185108 0.8209915459371905
-1.5618039069332055 0.8209915459371905
-1.5517881701047702 0.866177201483317
-1.5618039069332055 0.8360534311192326
-1.5618039069332055 0.8511153163012748
-1.5918511174185108 0.8360534311192326
-1.5718196437616405 0.8511153163012748
-1.5517881701047702 0.8963009718474013
-1.5117252227910298 0.9264247422114857
-1.5217409596194649 0.8812390866653592
-1.5317566964479001 0.8812390866653592
-1.5217409596194649 0.866177201483317
-1.5217409596194649 0.8511153163012748
-1.4916937491341595 0.9113628570294435
-1.4516308018204191 0.8812390866653592
-1.4215835913351138 0.8963009718474013
-1.4115678545066785 0.8963009718474013
-1.3915363808498082 0.8511153163012748
-1.3815206440213732 0.866177201483317
-1.3114104862223273 0.8812390866653592
-1.2613318020801518 0.866177201483317
-1.2112531179379762 0.866177201483317
-1.1711901706242356 0.8209915459371905
-1.12111148648206 0.7758058903910638
-1.0910642759967546 0.7908677755731061
-1.0209541181977089 0.8059296607551483
-0.9508439603986629 0.8059296607551483
-0.8807338025996171 0.8059296607551483
-0.8306551184574414 0.7456821200269795
-0.8006079079721361 0.6854345792988108
-0.7705606974868306 0.7306202348449373
-0.6804190660309146 0.7456821200269795
-0.6103089082318687 0.7155583496628951
-0.550214487261258 0.6703726941167686
-0.49012006629064725 0.6251870385706421
-0.45005711897690676 0.6101251533885999
-0.36993122434942577 0.5950632682065576
-0.27978959289350963 0.6251870385706421
-0.2096794350944638 0.5950632682065576
-0.13956927729541793 0.5649394978424733
-0.10952206681011255 0.5649394978424733
-0.06945911949637205 0.5046919571143046
0.0006510383026738047 0.5046919571143046
0.06074545927328454 0.4896300719322624
0.11082414341546017 0.4896300719322624
0.20096577487137626 0.459506301568178
0.20096577487137626 0.3841968756579671
0.21098151169981139 0.33901122011184054
0.24102872218511676 0.33901122011184054
0.3111388799841626 0.3691349904759249
0.3512018272979031 0.30888744974775617
0.37123330095477336 0.30888744974775617
0.3812490377832085 0.23357802383754528
0.41129624826851385 0.2034542534734609
0.40128051144007876 0.2034542534734609
0.4313277219253841 0.2034542534734609
0.49142214289599484 0.2185161386555031
0.48140640606755974 0.17333048310937654
0.45135919558225435 0.12814482756325
0.44134345875381925 0.08295917201712344
0.421311985096949 0.11308294238120781
0.41129624826851385 0.12814482756325
0.4713906692391246 0.08295917201712344
0.45135919558225435 0.06789728683508126
0.421311985096949 0.03777351647099688
0.3912647746116436 0.007649746106912516
0.3912647746116436 -0.007412139075129668
0.3812490377832085 0.03777351647099688
0.40128051144007876 0.052835401653039064
0.36121756412633826 0.007649746106912516
0.36121756412633826 -0.022474024257171852
0.32115461681259777 -0.052597794621256216
0.3011231431557275 -0.007412139075129668
0.2911074063272924 0.0227116312889547
0.3111388799841626 0.03777351647099688
0.26106019584198703 -0.007412139075129668
0.23101298535668163 -0.007412139075129668
0.20096577487137626 -0.007412139075129668
0.18093430121450602 -0.007412139075129668
0.19095003804294114 0.03777351647099688
0.18093430121450602 0.03777351647099688
0.1308556170723304 0.03777351647099688
0.09079266975858992 -0.007412139075129668
0.06074545927328454 0.03777351647099688
0.05072972244484942 0.052835401653039064
0.0807769329301548 0.08295917201712344
0.07076119610171967 0.09802105719916562
0.07076119610171967 0.12814482756325
0.09079266975858992 0.11308294238120781
0.09079266975858992 0.11308294238120781
0.0807769329301548 0.15826859792733436
0.0807769329301548 0.2185161386555031
0.0807769329301548 0.23357802383754528
0.07076119610171967 0.18839236829141873
0.06074545927328454 0.15826859792733436
0.030698248787979176 0.14320671274529218
0.0006510383026738047 0.15826859792733436
0.010666775131108927 0.12814482756325
0.030698248787979176 0.11308294238120781
0.05072972244484942 0.12814482756325
0.040713985616414296 0.12814482756325
0.05072972244484942 0.11308294238120781
0.0807769329301548 0.11308294238120781
0.1308556170723304 0.15826859792733436
0.15088709072920065 0.14320671274529218
0.18093430121450602 0.14320671274529218
0.14087135390076552 0.09802105719916562
0.1308556170723304 0.06789728683508126
0.12083988024389529 0.06789728683508126
0.15088709072920065 0.12814482756325
0.14087135390076552 0.12814482756325
0.14087135390076552 0.12814482756325
0.10080840658702504 0.08295917201712344
0.07076119610171967 0.09802105719916562
0.0807769329301548 0.06789728683508126
0.0807769329301548 0.052835401653039064
0.11082414341546017 0.03777351647099688
0.12083988024389529 0.052835401653039064
0.14087135390076552 0.052835401653039064
0.12083988024389529 0.03777351647099688
0.11082414341546017 0.08295917201712344
0.11082414341546017 0.11308294238120781
0.11082414341546017 0.11308294238120781
0.040713985616414296 0.08295917201712344
-0.049427645839501815 0.06789728683508126
-0.05944338266793694 0.03777351647099688
-0.11953780363854767 0.08295917201712344
-0.11953780363854767 0.14320671274529218
-0.14958501412385306 0.09802105719916562
-0.18964796143759355 0.09802105719916562
-0.2497423824082043 0.08295917201712344
-0.26977385606507454 0.06789728683508126
-0.2898053297219448 0.052835401653039064
-0.26977385606507454 0.06789728683508126
-0.2497423824082043 0.11308294238120781
-0.2597581192366394 0.11308294238120781
-0.27978959289350963 0.06789728683508126
-0.2898053297219448 0.007649746106912516
-0.2898053297219448 0.052835401653039064
-0.27978959289350963 0.06789728683508126
-0.21969517192289892 0.09802105719916562
-0.21969517192289892 0.08295917201712344
-0.22971090875133404 0.007649746106912516
-0.21969517192289892 0.007649746106912516
-0.23972664557976917 0.03777351647099688
-0.21969517192289892 0.052835401653039064
-0.19966369826602867 0.08295917201712344
-0.23972664557976917 0.03777351647099688
-0.22971090875133404 0.007649746106912516
-0.21969517192289892 -0.022474024257171852
-0.23972664557976917 -0.022474024257171852
-0.2096794350944638 0.052835401653039064
-0.18964796143759355 0.06789728683508126
-0.17963222460915843 0.0227116312889547
-0.2096794350944638 -0.007412139075129668
-0.2096794350944638 -0.007412139075129668
-0.23972664557976917 0.0227116312889547
-0.21969517192289892 0.0227116312889547
-0.1696164877807233 0.03777351647099688
-0.17963222460915843 0.0227116312889547
-0.17963222460915843 0.007649746106912516
-0.19966369826602867 -0.0676596798032984
-0.19966369826602867 0.03777351647099688
-0.17963222460915843 0.0227116312889547
-0.15960075095228818 0.052835401653039064
-0.14958501412385306 0.0227116312889547
-0.15960075095228818 0.0227116312889547
-0.1696164877807233 0.0227116312889547
-0.15960075095228818 0.007649746106912516
-0.1295535404669828 0.03777351647099688
-0.1295535404669828 0.03777351647099688
-0.0894905931532423 0.03777351647099688
-0.09950632998167742 -0.022474024257171852
-0.09950632998167742 -0.007412139075129668
-0.10952206681011255 0.03777351647099688
-0.09950632998167742 0.03777351647099688
-0.07947485632480718 0.11308294238120781
-0.07947485632480718 0.12814482756325
-0.1295535404669828 0.14320671274529218
-0.14958501412385306 0.17333048310937654
-0.18964796143759355 0.26370179420162965
-0.17963222460915843 0.33901122011184054
-0.10952206681011255 0.4143206460220515
0.020682511959544052 0.42938253120409364
0.2710759326704221 0.35407310529388275
0.6416581953225217 0.17333048310937654
1.1123978262589724 -0.03753590943921403
1.633216141337599 -0.20321664644167806
2.1440187195877902 -0.48939246490047955
2.614758350524241 -0.8960633648156185
2.9853406131763407 -1.2575486091846309
3.3158599285146995 -1.5738481980075167
3.7365208753089747 -1.9052096720124447
4.277370664044471 -2.342004342291668
4.798188979123098 -2.8541084384811026
5.288960083716419 -3.4415219605807477
5.6294951358832135 -3.9837498271342664
5.849841346108786 -4.450668267777574
6.010093135363748 -4.691658430690249
6.100234766819664 -4.691658430690249
6.100234766819664 -4.646472775144122
6.020108872192183 -4.541039578869827
5.970030188050007 -4.435606382595532
5.839825609280351 -4.254863760411025
5.659542346368519 -3.968687941952224
5.3690859783439 -3.652388353129338
5.098661083976151 -3.381274419852579
4.838251926436838 -3.140284256939904
4.597874242554395 -2.884232208845187
4.327449348186647 -2.658303931114554
4.107103137961074 -2.402251883019837
3.7565523489658452 -2.161261720107162
3.185655349745043 -1.9805190979226557
2.454506561269279 -1.7847145905561073
1.6933105623082096 -1.6340957387356856
0.9321145633471403 -1.5286625424613902
0.1308556170723304 -1.4533531165511793
-0.6704033292024795 -1.2424867240025887
-1.3414576967076328 -1.1069297573642092
-1.8121973276440835 -0.9563109055437873
-2.0625907483549617 -0.8207539389054076
-2.1527323798108777 -0.7605063981772389
-2.162748116639313 -0.6400113167209014
-2.112669432497137 -0.5345781204466061
-2.0625907483549617 -0.4291449241723108
-2.0625907483549617 -0.3538354982620999
-2.0726064851833965 -0.278526072351889
-2.0325435378696564 -0.20321664644167806
-1.9724491168990455 -0.09778345016738277
-1.8923232222715645 0.03777351647099688
-1.772134380330343 0.14320671274529218
-1.7020242225312971 0.18839236829141873
-1.6719770120459918 0.26370179420162965
-1.6419298015606865 0.3239493349297984
-1.6118825910753811 0.3841968756579671
-1.5417724332763352 0.459506301568178
-1.4916937491341595 0.5348157274783889
-1.4416150649919839 0.5800013830245155
-1.3715049071929382 0.6101251533885999
-1.3514734335360679 0.6402489237526843
-1.3214262230507625 0.6402489237526843
-1.2913790125654572 0.6854345792988108
-1.2713475389085869 0.7306202348449373
-1.2613318020801518 0.7306202348449373
-1.2713475389085869 0.7456821200269795
-1.3013947493938922 0.7306202348449373
-1.3114104862223273 0.7456821200269795
-1.2913790125654572 0.7306202348449373
-1.3013947493938922 0.7607440052090217
-1.3214262230507625 0.7758058903910638
-1.3414576967076328 0.7908677755731061
-1.3715049071929382 0.7607440052090217
-1.4115678545066785 0.7908677755731061
-1.4115678545066785 0.8511153163012748
-1.4215835913351138 0.8511153163012748
-1.4416150649919839 0.8511153163012748
-1.4716622754772892 0.8209915459371905
-1.5017094859625948 0.8059296607551483
-1.5217409596194649 0.8059296607551483
-1.5317566964479001 0.866177201483317
-1.5117252227910298 0.941486627393528
-1.5417724332763352 0.9113628570294435
-1.5618039069332055 0.8511153163012748
-1.5718196437616405 0.8812390866653592
-1.6018668542469459 0.8963009718474013
-1.6118825910753811 0.95654851257557
-1.6018668542469459 0.941486627393528
-1.6018668542469459 0.9866722829396545
-1.6118825910753811 0.95654851257557
-1.6419298015606865 0.9264247422114857
-1.6719770120459918 0.9716103977576123
-1.6819927488744268 0.95654851257557
-1.6419298015606865 1.0017341681216967
-1.6218983279038162 1.0017341681216967
-1.6319140647322512 0.9716103977576123
-1.6519455383891215 0.95654851257557
-1.6419298015606865 1.0167960533037388
-1.6118825910753811 1.0318579384857811
-1.5918511174185108 1.0770435940319076
-1.5718196437616405 1.0318579384857811
-1.5618039069332055 1.0017341681216967
-1.5517881701047702 0.9866722829396545
-1.5517881701047702 1.0167960533037388
-1.4916937491341595 1.0469198236678232
-1.4516308018204191 1.0318579384857811
-1.4315993281635488 1.0619817088498653
-1.4015521176782435 1.0167960533037388
-1.4015521176782435 1.0017341681216967
-1.3414576967076328 1.0318579384857811
-1.3114104862223273 1.0469198236678232
-1.2312845915948463 0.9866722829396545
-1.1912216442811059 0.9866722829396545
-1.201237381109541 0.941486627393528
-1.1411429601389302 0.9264247422114857
-1.12111148648206 0.9264247422114857
-1.040985591854579 0.9264247422114857
-0.9408282235702278 0.9113628570294435
-0.9007652762564873 0.8963009718474013
-0.8506865921143116 0.8511153163012748
-0.7805764343152658 0.8059296607551483
-0.7304977501730902 0.8209915459371905
-0.6403561187171741 0.8059296607551483
-0.5702459609181282 0.8360534311192326
-0.5101515399475175 0.7908677755731061
-0.45005711897690676 0.7456821200269795
-0.40999417166316626 0.7155583496628951
-0.3599154875209906 0.7306202348449373
-0.27978959289350963 0.7306202348449373
-0.21969517192289892 0.7155583496628951
-0.1696164877807233 0.6703726941167686
-0.11953780363854767 0.6101251533885999
-0.05944338266793694 0.6101251533885999
-0.00936469852576132 0.5950632682065576
0.07076119610171967 0.5800013830245155
0.1308556170723304 0.5649394978424733
0.21098151169981139 0.5498776126604311
0.2209972485282465 0.5046919571143046
0.26106019584198703 0.459506301568178
0.2911074063272924 0.44444441638613585
0.36121756412633826 0.4745681867502202
0.41129624826851385 0.4143206460220515
0.421311985096949 0.4143206460220515
0.44134345875381925 0.33901122011184054
0.44134345875381925 0.33901122011184054
0.44134345875381925 0.30888744974775617
0.48140640606755974 0.30888744974775617
0.49142214289599484 0.2787636793836718
0.48140640606755974 0.2787636793836718
0.48140640606755974 0.26370179420162965
0.4613749324106895 0.18839236829141873
0.48140640606755974 0.17333048310937654
0.49142214289599484 0.2185161386555031
0.49142214289599484 0.2185161386555031
0.4613749324106895 0.18839236829141873
0.44134345875381925 0.12814482756325
0.40128051144007876 0.06789728683508126
0.3912647746116436 0.09802105719916562
0.3912647746116436 0.14320671274529218
0.3812490377832085 0.14320671274529218
0.3812490377832085 0.11308294238120781
0.341186090469468 0.09802105719916562
0.3011231431557275 0.09802105719916562
0.2810916694988573 0.09802105719916562
0.2810916694988573 0.17333048310937654
0.2810916694988573 0.12814482756325
0.26106019584198703 0.17333048310937654
0.2209972485282465 0.14320671274529218
0.21098151169981139 0.09802105719916562
0.1709185643860709 0.14320671274529218
0.1709185643860709 0.15826859792733436
0.18093430121450602 0.17333048310937654
0.15088709072920065 0.2185161386555031
0.1308556170723304 0.17333048310937654
0.12083988024389529 0.17333048310937654
0.12083988024389529 0.17333048310937654
0.14087135390076552 0.293825564565714
0.16090282755763577 0.3239493349297984
0.1308556170723304 0.33901122011184054
0.11082414341546017 0.3239493349297984
0.10080840658702504 0.3239493349297984
0.07076119610171967 0.3239493349297984
0.0807769329301548 0.3691349904759249
0.0807769329301548 0.3239493349297984
0.06074545927328454 0.30888744974775617
0.030698248787979176 0.24863990901958746
0.010666775131108927 0.2185161386555031
0.010666775131108927 0.24863990901958746
0.07076119610171967 0.26370179420162965
0.11082414341546017 0.26370179420162965
0.12083988024389529 0.2787636793836718
0.10080840658702504 0.2185161386555031
0.0807769329301548 0.2034542534734609
0.09079266975858992 0.18839236829141873
0.09079266975858992 0.18839236829141873
0.12083988024389529 0.23357802383754528
0.10080840658702504 0.24863990901958746
0.07076119610171967 0.2185161386555031
0.06074545927328454 0.2185161386555031
0.05072972244484942 0.18839236829141873
0.07076119610171967 0.2034542534734609
0.12083988024389529 0.18839236829141873
0.1308556170723304 0.15826859792733436
0.16090282755763577 0.14320671274529218
0.1308556170723304 0.15826859792733436
0.12083988024389529 0.2034542534734609
0.14087135390076552 0.2185161386555031
0.12083988024389529 0.23357802383754528
0.06074545927328454 0.23357802383754528
-0.01938043535419644 0.2034542534734609
-0.07947485632480718 0.15826859792733436
-0.1295535404669828 0.17333048310937654
-0.1696164877807233 0.2034542534734609
-0.1696164877807233 0.23357802383754528
-0.23972664557976917 0.2034542534734609
-0.2998210665503799 0.17333048310937654
-0.30983680337881503 0.17333048310937654
-0.3298682770356853 0.17333048310937654
-0.2898053297219448 0.17333048310937654
-0.2998210665503799 0.2034542534734609
-0.3198525402072501 0.2034542534734609
-0.3198525402072501 0.11308294238120781
-0.30983680337881503 0.12814482756325
-0.3198525402072501 0.11308294238120781
-0.26977385606507454 0.14320671274529218
-0.23972664557976917 0.18839236829141873
-0.2497423824082043 0.11308294238120781
-0.2597581192366394 0.09802105719916562
-0.26977385606507454 0.09802105719916562
-0.2497423824082043 0.12814482756325
-0.22971090875133404 0.11308294238120781
-0.18964796143759355 0.12814482756325
-0.17963222460915843 0.12814482756325
-0.2096794350944638 0.09802105719916562
-0.22971090875133404 0.08295917201712344
-0.22971090875133404 0.09802105719916562
-0.22971090875133404 0.11308294238120781
-0.17963222460915843 0.11308294238120781
-0.18964796143759355 0.11308294238120781
-0.19966369826602867 0.11308294238120781
-0.19966369826602867 0.08295917201712344
-0.21969517192289892 0.08295917201712344
-0.2096794350944638 0.09802105719916562
-0.1696164877807233 0.11308294238120781
-0.17963222460915843 0.11308294238120781
-0.18964796143759355 0.09802105719916562
-0.19966369826602867 0.06789728683508126
-0.19966369826602867 0.08295917201712344
-0.1696164877807233 0.08295917201712344
-0.14958501412385306 0.12814482756325
-0.13956927729541793 0.11308294238120781
-0.13956927729541793 0.06789728683508126
-0.14958501412385306 0.03777351647099688
-0.15960075095228818 0.08295917201712344
-0.1295535404669828 0.12814482756325
-0.11953780363854767 0.12814482756325
-0.11953780363854767 0.15826859792733436
-0.15960075095228818 0.15826859792733436
-0.18964796143759355 0.2185161386555031
-0.21969517192289892 0.293825564565714
-0.22971090875133404 0.42938253120409364
-0.18964796143759355 0.4745681867502202
-0.1295535404669828 0.5197538422963468
0.030698248787979176 0.44444441638613585
0.32115461681259777 0.3691349904759249
0.7918942477490486 0.18839236829141873
1.3828227206267207 -0.007412139075129668
1.9336882461906526 -0.2634641871698468
2.434475087612409 -0.6249494315388592
2.865151771235119 -1.0617441018180824
3.1656238760881728 -1.3931055758230106
3.5362061387402726 -1.6943432794638542
4.067040190647334 -2.0407666386508243
4.617905716211266 -2.5378088496582167
5.138724031289892 -3.170408027303988
5.579416451741038 -3.7728834345856757
5.839825609280351 -4.330173186321236
6.010093135363748 -4.661534660326164
6.140297714133404 -4.691658430690249
6.1302819773049695 -4.616349004780038
6.060171819505923 -4.510915808505743
5.970030188050007 -4.360296956685321
5.879888556594091 -4.194616219682857
5.639510872711648 -3.893378516042013
5.3089915573732895 -3.5168313864909586
4.9985037156918 -3.170408027303988
4.708047347667182 -2.8691703236631447
4.427606716470998 -2.673365816296596
4.187229032588555 -2.417313768201879
3.8567097172501965 -2.161261720107162
3.2757969812009593 -1.920271557194487
2.4745380349261494 -1.6792813942818121
1.6232004045091637 -1.5286625424613902
0.7818785109206134 -1.4382912313691372
-0.07947485632480718 -1.3027342647307574
-0.9608596972270981 -1.1370535277282934
-1.6118825910753811 -0.9412490203617451
-1.9624333800706104 -0.8056920537233654
-2.1026536956687023 -0.7153207426311123
-2.1527323798108777 -0.6550732019029436
-2.1527323798108777 -0.5647018908106904
-2.1226851693255724 -0.4743305797184374
-2.092637958840267 -0.3387736130800577
-2.0726064851833965 -0.21827853162372024
-2.0325435378696564 -0.12790722053146714
-1.9824648537274807 -0.052597794621256216
-1.9223704327568698 0.03777351647099688
-1.8622760117862591 0.17333048310937654
-1.7921658539872132 0.26370179420162965
-1.7020242225312971 0.35407310529388275
-1.6719770120459918 0.4143206460220515
-1.6619612752175568 0.42938253120409364
-1.6519455383891215 0.4745681867502202
-1.5818353805900758 0.5348157274783889
-1.5017094859625948 0.6101251533885999
-1.4315993281635488 0.6854345792988108
-1.3915363808498082 0.7456821200269795
-1.3815206440213732 0.6854345792988108
-1.4215835913351138 0.7306202348449373
-1.3915363808498082 0.7306202348449373
-1.3715049071929382 0.7607440052090217
-1.3514734335360679 0.7908677755731061
-1.3414576967076328 0.7908677755731061
-1.3815206440213732 0.7306202348449373
-1.4115678545066785 0.7456821200269795
-1.4516308018204191 0.7607440052090217
-1.4315993281635488 0.8209915459371905
-1.4616465386488542 0.8360534311192326
-1.4616465386488542 0.8360534311192326
-1.4816780123057245 0.7758058903910638
-1.4816780123057245 0.8360534311192326
-1.5117252227910298 0.8360534311192326
-1.5117252227910298 0.8812390866653592
-1.5017094859625948 0.8812390866653592
-1.5117252227910298 0.8812390866653592
-1.5417724332763352 0.8511153163012748
-1.5818353805900758 0.8963009718474013
-1.6018668542469459 0.8963009718474013
-1.5818353805900758 0.941486627393528
-1.5918511174185108 0.941486627393528
-1.6218983279038162 0.95654851257557
-1.6319140647322512 0.9264247422114857
-1.6819927488744268 0.941486627393528
-1.6819927488744268 0.95654851257557
-1.692008485702862 0.9716103977576123
-1.6619612752175568 1.0017341681216967
-1.6719770120459918 1.0017341681216967
-1.692008485702862 1.0167960533037388
-1.7120399593597322 0.95654851257557
-1.7420871698450378 0.9716103977576123
-1.6719770120459918 1.0469198236678232
-1.6519455383891215 1.0469198236678232
-1.6619612752175568 1.0619817088498653
-1.6719770120459918 1.0318579384857811
-1.6619612752175568 1.0017341681216967
-1.6619612752175568 1.0167960533037388
-1.6218983279038162 1.0770435940319076
-1.5818353805900758 1.0619817088498653
-1.5618039069332055 1.0770435940319076
-1.5317566964479001 0.9866722829396545
-1.5117252227910298 0.9716103977576123
-1.5117252227910298 1.0017341681216967
-1.4516308018204191 1.0318579384857811
-1.3815206440213732 1.0619817088498653
-1.3414576967076328 1.0167960533037388
-1.281363275737022 0.9716103977576123
-1.2513160652517166 0.941486627393528
-1.1812059074526708 0.9264247422114857
-1.111095749653625 0.9866722829396545
-1.040985591854579 0.9866722829396545
-0.9708754340555331 0.9113628570294435
-0.9207967499133576 0.8812390866653592
-0.9007652762564873 0.8511153163012748
-0.8306551184574414 0.8511153163012748
-0.7505292238299605 0.866177201483317
-0.6603875923740443 0.8511153163012748
-0.6002931714034336 0.8511153163012748
-0.5702459609181282 0.8059296607551483
-0.5201672767759526 0.7456821200269795
-0.470088592633777 0.7758058903910638
-0.40999417166316626 0.7607440052090217
-0.2998210665503799 0.7607440052090217
-0.23972664557976917 0.7306202348449373
-0.19966369826602867 0.7155583496628951
-0.18964796143759355 0.6703726941167686
-0.1295535404669828 0.6402489237526843
-0.05944338266793694 0.6703726941167686
0.030698248787979176 0.5950632682065576
0.07076119610171967 0.5800013830245155
0.1308556170723304 0.5498776126604311
0.14087135390076552 0.5197538422963468
0.16090282755763577 0.4745681867502202
0.23101298535668163 0.4745681867502202
0.2710759326704221 0.4896300719322624
0.2810916694988573 0.42938253120409364
0.32115461681259777 0.42938253120409364
0.341186090469468 0.33901122011184054
0.3512018272979031 0.3691349904759249
0.3812490377832085 0.33901122011184054
0.44134345875381925 0.3239493349297984
0.44134345875381925 0.2787636793836718
0.44134345875381925 0.26370179420162965
0.421311985096949 0.2185161386555031
0.40128051144007876 0.18839236829141873
0.4313277219253841 0.24863990901958746
0.45135919558225435 0.23357802383754528
0.4313277219253841 0.18839236829141873
0.40128051144007876 0.17333048310937654
0.37123330095477336 0.12814482756325
0.36121756412633826 0.15826859792733436
0.341186090469468 0.17333048310937654
0.32115461681259777 0.17333048310937654
0.2810916694988573 0.14320671274529218
0.2710759326704221 0.14320671274529218
0.2510444590135519 0.09802105719916562
0.2209972485282465 0.12814482756325
0.21098151169981139 0.14320671274529218
0.21098151169981139 0.15826859792733436
0.20096577487137626 0.14320671274529218
0.14087135390076552 0.12814482756325
0.11082414341546017 0.06789728683508126
0.0807769329301548 0.12814482756325
0.030698248787979176 0.15826859792733436
0.07076119610171967 0.17333048310937654
0.07076119610171967 0.17333048310937654
0.07076119610171967 0.18839236829141873
0.020682511959544052 0.17333048310937654
0.0006510383026738047 0.2034542534734609
0.030698248787979176 0.3239493349297984
0.040713985616414296 0.33901122011184054
0.030698248787979176 0.35407310529388275
0.040713985616414296 0.33901122011184054
0.010666775131108927 0.30888744974775617
0.010666775131108927 0.30888744974775617
0.040713985616414296 0.33901122011184054
0.030698248787979176 0.33901122011184054
0.0006510383026738047 0.293825564565714
-0.07947485632480718 0.24863990901958746
-0.05944338266793694 0.18839236829141873
-0.06945911949637205 0.2185161386555031
-0.03941190901106669 0.293825564565714
0.0006510383026738047 0.30888744974775617
0.020682511959544052 0.2787636793836718
0.030698248787979176 0.26370179420162965
0.030698248787979176 0.24863990901958746
0.0006510383026738047 0.26370179420162965
0.0006510383026738047 0.24863990901958746
-0.01938043535419644 0.26370179420162965
-0.00936469852576132 0.23357802383754528
-0.029396172182631564 0.23357802383754528
-0.049427645839501815 0.23357802383754528
-0.07947485632480718 0.2185161386555031
-0.049427645839501815 0.2185161386555031
-0.029396172182631564 0.2185161386555031
-0.00936469852576132 0.17333048310937654
-0.01938043535419644 0.14320671274529218
0.010666775131108927 0.14320671274529218
0.0006510383026738047 0.18839236829141873
0.0006510383026738047 0.26370179420162965
0.010666775131108927 0.26370179420162965
-0.049427645839501815 0.26370179420162965
-0.10952206681011255 0.2185161386555031
-0.15960075095228818 0.18839236829141873
-0.19966369826602867 0.2185161386555031
-0.2096794350944638 0.26370179420162965
-0.22971090875133404 0.26370179420162965
-0.2898053297219448 0.23357802383754528
-0.3298682770356853 0.2185161386555031
-0.37994696117786086 0.17333048310937654
-0.389962698006296 0.23357802383754528
-0.36993122434942577 0.23357802383754528
-0.33988401386412037 0.2034542534734609
-0.389962698006296 0.2185161386555031
-0.40999417166316626 0.15826859792733436
-0.40999417166316626 0.11308294238120781
-0.40999417166316626 0.12814482756325
-0.389962698006296 0.15826859792733436
-0.36993122434942577 0.15826859792733436
-0.37994696117786086 0.15826859792733436
-0.36993122434942577 0.14320671274529218
-0.389962698006296 0.09802105719916562
-0.3999784348347311 0.15826859792733436
-0.3599154875209906 0.14320671274529218
-0.3298682770356853 0.14320671274529218
-0.3298682770356853 0.14320671274529218
-0.33988401386412037 0.09802105719916562
-0.33988401386412037 0.08295917201712344
-0.33988401386412037 0.11308294238120781
-0.3298682770356853 0.12814482756325
-0.3298682770356853 0.14320671274529218
-0.3298682770356853 0.12814482756325
-0.3198525402072501 0.09802105719916562
-0.3198525402072501 0.11308294238120781
-0.3498997506925555 0.11308294238120781
-0.2898053297219448 0.14320671274529218
-0.2597581192366394 0.11308294238120781
-0.23972664557976917 0.12814482756325
-0.2497423824082043 0.09802105719916562
-0.2497423824082043 0.06789728683508126
-0.27978959289350963 0.11308294238120781
-0.2497423824082043 0.15826859792733436
-0.21969517192289892 0.14320671274529218
-0.21969517192289892 0.11308294238120781
-0.22971090875133404 0.06789728683508126
-0.22971090875133404 0.08295917201712344
-0.2497423824082043 0.09802105719916562
-0.22971090875133404 0.12814482756325
-0.2096794350944638 0.15826859792733436
-0.19966369826602867 0.17333048310937654
-0.23972664557976917 0.12814482756325
-0.2597581192366394 0.15826859792733436
-0.2898053297219448 0.24863990901958746
-0.27978959289350963 0.2787636793836718
-0.27978959289350963 0.3992587608400093
-0.26977385606507454 0.44444441638613585
-0.19966369826602867 0.4745681867502202
-0.049427645839501815 0.42938253120409364
0.2810916694988573 0.3841968756579671
0.7818785109206134 0.23357802383754528
1.312712562827675 0.007649746106912516
1.8435466147347366 -0.2935879575339312
2.3343177193280575 -0.6550732019029436
2.704899981980157 -1.1219916425462513
3.025403560490081 -1.4232293461870948
3.496143191426532 -1.7847145905561073
4.077055927475769 -2.251633031199415
4.617905716211266 -2.8541084384811026
5.038566663005541 -3.471645730944832
5.228865662745808 -4.013873597498351
5.379101715172335 -4.315111301139194
5.429180399314511 -4.360296956685321
5.3590702415154645 -4.254863760411025
5.168771241775198 -4.134368678954688
4.9484250315496245 -3.9988117123163085
4.708047347667182 -3.80300720494976
4.237307716730731 -3.471645730944832
3.7966152962795854 -3.155346142121946
3.426033033627486 -2.823984668117018
3.085497981460692 -2.598056390386385
2.8250888239213787 -2.3721281126557527
2.614758350524241 -2.131137949743078
2.3142862456711875 -1.9052096720124447
1.793467930592561 -1.6491576239177277
1.1724922472295833 -1.4533531165511793
0.5314850902097353 -1.2726104943666732
-0.1696164877807233 -1.2123629536385043
-0.8406708552858766 -1.1069297573642092
-1.3715049071929382 -0.9261871351797029
-1.6819927488744268 -0.7303826278131544
-1.852260274957824 -0.6249494315388592
-1.932386169585305 -0.5647018908106904
-1.9123546959284348 -0.5044543500825217
-1.9223704327568698 -0.4291449241723108
-1.9223704327568698 -0.30864984271597334
-1.8823074854431294 -0.18815476125963587
-1.8322288013009538 -0.052597794621256216
-1.7521029066734728 0.0227116312889547
-1.7220556961881675 0.11308294238120781
-1.6619612752175568 0.17333048310937654
-1.6118825910753811 0.26370179420162965
-1.5317566964479001 0.3691349904759249
-1.5117252227910298 0.4143206460220515
-1.4916937491341595 0.44444441638613585
-1.4416150649919839 0.4896300719322624
-1.4015521176782435 0.5197538422963468
-1.3514734335360679 0.5800013830245155
-1.2713475389085869 0.700496464480853
-1.2312845915948463 0.6854345792988108
-1.2413003284232815 0.700496464480853
-1.2413003284232815 0.6703726941167686
-1.2513160652517166 0.6854345792988108
-1.2613318020801518 0.6553108089347264
-1.2513160652517166 0.7456821200269795
-1.2613318020801518 0.7607440052090217
-1.281363275737022 0.7607440052090217
-1.3214262230507625 0.7155583496628951
-1.3414576967076328 0.700496464480853
-1.3514734335360679 0.7155583496628951
-1.3314419598791976 0.7456821200269795
-1.3414576967076328 0.7758058903910638
-1.361489170364503 0.8059296607551483
-1.3715049071929382 0.7758058903910638
-1.4115678545066785 0.8059296607551483
-1.4416150649919839 0.7908677755731061
-1.4416150649919839 0.8511153163012748
-1.4115678545066785 0.8360534311192326
-1.4315993281635488 0.8511153163012748
-1.4516308018204191 0.8059296607551483
-1.4616465386488542 0.8209915459371905
-1.4716622754772892 0.8511153163012748
-1.4616465386488542 0.9113628570294435
-1.4315993281635488 0.8963009718474013
-1.4616465386488542 0.941486627393528
-1.4516308018204191 0.8963009718474013
-1.4716622754772892 0.9113628570294435
-1.4916937491341595 0.8963009718474013
-1.4516308018204191 0.95654851257557
-1.4616465386488542 0.95654851257557
-1.4616465386488542 0.9866722829396545
-1.4416150649919839 0.941486627393528
-1.4716622754772892 0.9113628570294435
-1.4816780123057245 0.9716103977576123
-1.4315993281635488 0.9866722829396545
-1.4315993281635488 1.0167960533037388
-1.4215835913351138 0.9716103977576123
-1.4015521176782435 0.9716103977576123
-1.3915363808498082 0.941486627393528
-1.361489170364503 0.9716103977576123
-1.3114104862223273 0.9866722829396545
-1.2713475389085869 1.0017341681216967
-1.2312845915948463 1.0167960533037388
-1.2112531179379762 0.9264247422114857
-1.1812059074526708 0.941486627393528
-1.1812059074526708 0.9264247422114857
-1.1010800128251899 0.941486627393528
-1.0209541181977089 0.941486627393528
-0.9708754340555331 0.9264247422114857
-0.9408282235702278 0.8812390866653592
-0.9207967499133576 0.866177201483317
-0.8707180657711819 0.866177201483317
-0.790592171143701 0.8511153163012748
-0.7304977501730902 0.9113628570294435
-0.6603875923740443 0.866177201483317
-0.6002931714034336 0.7908677755731061
-0.550214487261258 0.7758058903910638
-0.5101515399475175 0.7758058903910638
-0.42000990849160136 0.7758058903910638
-0.33988401386412037 0.8059296607551483
-0.2998210665503799 0.7607440052090217
-0.2597581192366394 0.6703726941167686
-0.2096794350944638 0.6402489237526843
-0.15960075095228818 0.6854345792988108
-0.07947485632480718 0.6854345792988108
0.0006510383026738047 0.6553108089347264
0.030698248787979176 0.6402489237526843
0.040713985616414296 0.6101251533885999
0.09079266975858992 0.5649394978424733
0.09079266975858992 0.5649394978424733
0.18093430121450602 0.5498776126604311
0.21098151169981139 0.5197538422963468
0.24102872218511676 0.5046919571143046
0.2510444590135519 0.459506301568178
0.2710759326704221 0.4143206460220515
0.3011231431557275 0.3992587608400093
0.341186090469468 0.4143206460220515
0.37123330095477336 0.4143206460220515
0.40128051144007876 0.3841968756579671
0.3812490377832085 0.293825564565714
0.3812490377832085 0.2787636793836718
0.36121756412633826 0.24863990901958746
0.3912647746116436 0.30888744974775617
0.40128051144007876 0.293825564565714
0.40128051144007876 0.24863990901958746
0.3912647746116436 0.18839236829141873
0.36121756412633826 0.15826859792733436
0.341186090469468 0.17333048310937654
0.341186090469468 0.18839236829141873
0.36121756412633826 0.18839236829141873
0.3512018272979031 0.17333048310937654
0.32115461681259777 0.11308294238120781
0.3111388799841626 0.08295917201712344
0.2710759326704221 0.09802105719916562
0.3011231431557275 0.11308294238120781
0.2810916694988573 0.09802105719916562
0.2710759326704221 0.09802105719916562
0.23101298535668163 0.06789728683508126
0.2209972485282465 0.052835401653039064
0.1709185643860709 0.09802105719916562
0.18093430121450602 0.11308294238120781
0.16090282755763577 0.12814482756325
0.10080840658702504 0.11308294238120781
0.07076119610171967 0.12814482756325
0.07076119610171967 0.08295917201712344
0.040713985616414296 0.12814482756325
0.05072972244484942 0.17333048310937654
0.07076119610171967 0.15826859792733436
0.0807769329301548 0.2034542534734609
0.06074545927328454 0.18839236829141873
0.07076119610171967 0.2185161386555031
0.040713985616414296 0.2185161386555031
0.030698248787979176 0.2787636793836718
0.07076119610171967 0.2787636793836718
0.05072972244484942 0.24863990901958746
0.06074545927328454 0.2034542534734609
0.040713985616414296 0.2034542534734609
-0.029396172182631564 0.23357802383754528
-0.00936469852576132 0.2034542534734609
-0.01938043535419644 0.2185161386555031
-0.00936469852576132 0.2034542534734609
-0.00936469852576132 0.15826859792733436
0.0006510383026738047 0.2034542534734609
0.040713985616414296 0.2034542534734609
0.0807769329301548 0.24863990901958746
0.12083988024389529 0.24863990901958746
0.10080840658702504 0.2034542534734609
0.10080840658702504 0.17333048310937654
0.0807769329301548 0.09802105719916562
0.06074545927328454 0.18839236829141873
0.07076119610171967 0.2034542534734609
0.06074545927328454 0.2034542534734609
0.05072972244484942 0.2034542534734609
0.030698248787979176 0.14320671274529218
0.0006510383026738047 0.11308294238120781
-0.00936469852576132 0.12814482756325
0.010666775131108927 0.14320671274529218
0.06074545927328454 0.14320671274529218
0.0807769329301548 0.17333048310937654
0.06074545927328454 0.18839236829141873
0.05072972244484942 0.18839236829141873
0.020682511959544052 0.18839236829141873
-0.03941190901106669 0.2185161386555031
-0.05944338266793694 0.2034542534734609
-0.09950632998167742 0.18839236829141873
-0.14958501412385306 0.2034542534734609
-0.21969517192289892 0.15826859792733436
-0.30983680337881503 0.17333048310937654
-0.3298682770356853 0.18839236829141873
-0.3498997506925555 0.2034542534734609
-0.36993122434942577 0.17333048310937654
-0.36993122434942577 0.15826859792733436
-0.389962698006296 0.12814482756325
-0.389962698006296 0.14320671274529218
-0.389962698006296 0.18839236829141873
-0.36993122434942577 0.17333048310937654
-0.3599154875209906 0.15826859792733436
-0.3599154875209906 0.12814482756325
-0.37994696117786086 0.08295917201712344
-0.37994696117786086 0.12814482756325
-0.3498997506925555 0.14320671274529218
-0.3198525402072501 0.15826859792733436
-0.3298682770356853 0.09802105719916562
-0.33988401386412037 0.09802105719916562
-0.3498997506925555 0.08295917201712344
-0.3298682770356853 0.06789728683508126
-0.2898053297219448 0.11308294238120781
-0.2998210665503799 0.09802105719916562
-0.3198525402072501 0.09802105719916562
-0.33988401386412037 0.08295917201712344
-0.3198525402072501 0.052835401653039064
-0.30983680337881503 0.052835401653039064
-0.30983680337881503 0.08295917201712344
-0.26977385606507454 0.08295917201712344
-0.27978959289350963 0.06789728683508126
-0.27978959289350963 0.052835401653039064
-0.2898053297219448 0.052835401653039064
-0.2898053297219448 0.03777351647099688
-0.2597581192366394 0.06789728683508126
