-0.3737795754857749 0.0030602120294022507
-0.2983196307131133 0.04340237980479299
-0.3134116196676456 0.04340237980479299
-0.3737795754857749 0.016507601287865832
-0.4039635533948396 0.04340237980479299
-0.4039635533948396 0.12408671535557447
-0.3737795754857749 0.19132366164789236
-0.2983196307131133 0.21821844016481953
-0.2077676969859193 0.1644288831309652
-0.16249173012232232 0.09719193683864731
-0.14739974116779 0.05684976906325657
-0.13230775221325766 0.07029715832172015
-0.07193979639512835 0.07029715832172015
-0.07193979639512835 0.13753410461403806
-0.011571840576999039 0.11063932609711088
-0.026663829531531368 0.0030602120294022507
0.01861213733206562 -0.02383456648752491
0.07898009315019493 -0.050729345004452066
0.12425606001379191 -0.06417673426291565
0.2600839606045829 -0.06417673426291565
0.3355439053772445 -0.13141368055523356
0.3657278832863092 -0.21209801610601503
0.2902679385136475 -0.19865062684755144
0.2751759495591152 -0.1717558483306243
0.2751759495591152 -0.07762412352137923
0.3355439053772445 0.0030602120294022507
0.3355439053772445 0.0030602120294022507
0.2751759495591152 -0.03728195574598849
0.2600839606045829 -0.14486106981369712
0.18462401583192123 -0.13141368055523356
0.12425606001379191 -0.09107151277984281
0.01861213733206562 -0.09107151277984281
-0.102123774304193 -0.11796629129676997
-0.23795167489498395 -0.09107151277984281
-0.3586875865312426 -0.14486106981369712
-0.4794234981675012 -0.11796629129676997
-0.4341475313039042 -0.11796629129676997
-0.4039635533948396 -0.11796629129676997
-0.4341475313039042 -0.1717558483306243
-0.4945154871220335 -0.23899279462294218
-0.5548834429401629 -0.3196771301737237
-0.5548834429401629 -0.2658875731398693
-0.6001594098037598 -0.21209801610601503
-0.5850674208492275 -0.19865062684755144
-0.5850674208492275 -0.1583084590721607
-0.6454353766673568 -0.18520323758908785
-0.6756193545764215 -0.23899279462294218
-0.6756193545764215 -0.23899279462294218
-0.6605273656218892 -0.22554540536447862
-0.5850674208492275 -0.19865062684755144
-0.6152513987582922 -0.23899279462294218
-0.6303433877128245 -0.27933496239833294
-0.6756193545764215 -0.33312451943218724
-0.7359873103945508 -0.27933496239833294
-0.6907113435309538 -0.19865062684755144
-0.6756193545764215 -0.1583084590721607
-0.6152513987582922 -0.19865062684755144
-0.6001594098037598 -0.25244018388140577
-0.6152513987582922 -0.3196771301737237
-0.6152513987582922 -0.30622974091526006
-0.6152513987582922 -0.2658875731398693
-0.5699754318946951 -0.21209801610601503
-0.5548834429401629 -0.14486106981369712
-0.6001594098037598 -0.11796629129676997
-0.5548834429401629 -0.06417673426291565
-0.4945154871220335 -0.11796629129676997
-0.3134116196676456 -0.22554540536447862
-0.07193979639512835 -0.3600192979491144
0.19971600478645354 -0.4407036334998959
0.592107717604294 -0.4944931905337502
1.1052353420583931 -0.45415102275835945
1.7541908671032833 -0.373466687207578
2.463514347966303 -0.09107151277984281
3.2332057846474513 0.3661397220079189
3.7916093759651477 0.8905879030879985
4.017989210283132 1.3074569701003695
3.6105055085107596 1.5360625874942504
2.5842502596025616 1.6974312585958133
1.1505113089219903 1.6705364800788862
-0.2077676969859193 1.6705364800788862
-1.1887469790305207 1.6167469230450318
-1.7320585813936844 1.6167469230450318
-1.7471505703482169 1.7243260371127405
-1.5207707360302318 1.9260368759896942
-1.3245748796213115 2.181537271900502
-1.294390901712247 2.410142889294383
-1.339666868575844 2.4908272248451646
-1.4453107912575702 2.5311693926205554
-1.6113226697574259 2.6118537281713365
-1.7018746034846197 2.7463276207559724
-1.7471505703482169 2.8539067348236813
-1.7924265372118138 3.082512352217562
-1.7018746034846197 3.2304336340606614
-1.6867826145300875 3.3649075266452972
-1.7018746034846197 3.351460137386834
-1.6867826145300875 3.3245653588699065
-1.7169665924391522 3.1900914662852706
-1.7018746034846197 2.934591070374463
-1.6867826145300875 2.544616781879019
-1.6264146587119581 2.1411951041251114
-1.5811386918483612 1.7108786478542768
-1.475494769166635 1.3477991378757603
-1.3547588575303762 0.9981670171557071
-1.1887469790305207 0.621640117918727
-1.0831030563487942 0.25856060794021024
-0.9170911778489387 -0.050729345004452066
-0.7510792993490831 -0.2658875731398693
-0.5850674208492275 -0.373466687207578
-0.34359559757671027 -0.4138088549829687
-0.22285968594045164 -0.4407036334998959
-0.14739974116779 -0.5482827475676045
-0.17758371907685463 -0.5886249153429952
-0.22285968594045164 -0.6693092508937767
-0.16249173012232232 -0.6827566401522404
-0.08703178534966068 -0.6962040294107039
-0.011571840576999039 -0.7096514186691675
0.01861213733206562 -0.790335754219949
0.0638881041956626 -0.8710200897707304
0.048796115241130276 -0.9785992038384391
-0.011571840576999039 -0.9651518145799755
0.01861213733206562 -0.9517044253215119
0.0638881041956626 -0.8979148682876577
0.07898009315019493 -0.9517044253215119
0.10916407105925958 -0.9651518145799755
0.10916407105925958 -1.045836150130757
0.15444003792285657 -1.072730928647684
0.19971600478645354 -1.1130730964230748
0.2600839606045829 -1.1265204856815385
0.2902679385136475 -1.1937574319738564
0.2600839606045829 -1.2609943782661743
0.2600839606045829 -1.2878891567831015
0.2751759495591152 -1.301336546041565
0.30535992746817986 -1.301336546041565
0.3657278832863092 -1.2475469890077107
0.47137180596803546 -1.2878891567831015
0.4562798170135031 -1.4223630493677373
0.47137180596803546 -1.4761526064015915
0.47137180596803546 -1.5030473849185186
0.5166477728316324 -1.5299421634354458
0.6222916955133587 -1.5433895526939094
0.5770157286497618 -1.6106264989862273
0.592107717604294 -1.6778634452785453
0.6373836844678911 -1.7316530023123995
0.6977516402860204 -1.7451003915708632
0.7430276071496174 -1.7316530023123995
0.7883035740132144 -1.7988899486047174
0.8788555077404083 -1.906469062672426
0.909039485649473 -1.9602586197062803
0.9241314746040054 -2.0409429552570617
0.8788555077404083 -2.0274955659985983
0.9241314746040054 -2.014048176740135
0.9543154525130699 -2.014048176740135
1.0146834083311993 -2.014048176740135
1.0599593751947962 -2.0543903445155256
1.090143353103861 -2.10817990154938
1.1354193199674578 -2.1216272908078433
1.2108792647401196 -2.161969458583234
1.2712472205582488 -2.161969458583234
1.316523187421846 -2.1754168478416975
1.2712472205582488 -2.161969458583234
1.2561552316037166 -2.161969458583234
1.2108792647401196 -2.10817990154938
1.2561552316037166 -2.0274955659985983
1.2712472205582488 -1.9333638411893532
1.2863392095127812 -1.906469062672426
1.2108792647401196 -1.9333638411893532
1.1505113089219903 -1.946811230447817
1.0599593751947962 -1.8930216734139624
1.0146834083311993 -1.7451003915708632
0.9392234635585376 -1.6644160560200816
0.8788555077404083 -1.5702843312108365
0.7430276071496174 -1.5164947741769823
0.6373836844678911 -1.4761526064015915
0.5770157286497618 -1.3551261030754194
0.5468317507406971 -1.2744417675246378
0.5317397617861648 -1.2206522104907835
0.47137180596803546 -1.1668626534569293
0.3808198722408415 -1.1668626534569293
0.2600839606045829 -1.1534152641984656
0.15444003792285657 -1.0323887608722935
0.07898009315019493 -0.9382570360630483
0.048796115241130276 -0.8172305327368761
0.03370412628659795 -0.7768883649614854
0.01861213733206562 -0.8172305327368761
-0.056847807440596025 -0.8172305327368761
-0.102123774304193 -0.790335754219949
-0.13230775221325766 -0.7499935864445583
-0.17758371907685463 -0.7096514186691675
-0.2077676969859193 -0.6827566401522404
-0.3285036086221779 -0.6827566401522404
-0.38887156444030724 -0.6827566401522404
-0.38887156444030724 -0.6155196938599224
-0.4341475313039042 -0.5886249153429952
-0.3586875865312426 -0.5482827475676045
-0.34359559757671027 -0.5751775260845317
-0.3737795754857749 -0.6424144723768496
-0.4341475313039042 -0.6558618616353131
-0.4643315092129689 -0.6558618616353131
-0.4341475313039042 -0.628967083118386
-0.4190555423493719 -0.5617301368260681
-0.4190555423493719 -0.534835358309141
-0.4794234981675012 -0.5886249153429952
-0.5096074760765659 -0.628967083118386
-0.4643315092129689 -0.6155196938599224
-0.4039635533948396 -0.5751775260845317
-0.34359559757671027 -0.5482827475676045
-0.3285036086221779 -0.628967083118386
-0.38887156444030724 -0.6693092508937767
-0.4341475313039042 -0.723098807927631
-0.4794234981675012 -0.6827566401522404
-0.4794234981675012 -0.6424144723768496
-0.4190555423493719 -0.5482827475676045
-0.4039635533948396 -0.5886249153429952
-0.38887156444030724 -0.6155196938599224
-0.4190555423493719 -0.6424144723768496
-0.38887156444030724 -0.6693092508937767
-0.34359559757671027 -0.6424144723768496
-0.2983196307131133 -0.6155196938599224
-0.2983196307131133 -0.6558618616353131
-0.38887156444030724 -0.7365461971860946
-0.4039635533948396 -0.7096514186691675
-0.4794234981675012 -0.6693092508937767
-0.4341475313039042 -0.6020723046014589
-0.3285036086221779 -0.6155196938599224
-0.28322764175858095 -0.6424144723768496
-0.2983196307131133 -0.7096514186691675
-0.3586875865312426 -0.7768883649614854
-0.3586875865312426 -0.8037831434784125
-0.34359559757671027 -0.7768883649614854
-0.3285036086221779 -0.7096514186691675
-0.2983196307131133 -0.723098807927631
-0.38887156444030724 -0.6693092508937767
-0.4039635533948396 -0.7096514186691675
-0.4190555423493719 -0.7096514186691675
-0.38887156444030724 -0.6827566401522404
-0.2983196307131133 -0.6827566401522404
-0.3285036086221779 -0.6962040294107039
-0.3285036086221779 -0.723098807927631
-0.38887156444030724 -0.7365461971860946
-0.4190555423493719 -0.6558618616353131
-0.4341475313039042 -0.6155196938599224
-0.3737795754857749 -0.5079405797922137
-0.3134116196676456 -0.5213879690506774
-0.2681356528040486 -0.5617301368260681
-0.2681356528040486 -0.6020723046014589
-0.19267570803138698 -0.5751775260845317
-0.11721576325872533 -0.5617301368260681
-0.08703178534966068 -0.5886249153429952
-0.026663829531531368 -0.6020723046014589
-0.026663829531531368 -0.6558618616353131
-0.07193979639512835 -0.7365461971860946
-0.026663829531531368 -0.6693092508937767
0.048796115241130276 -0.6693092508937767
0.13934804896832423 -0.6693092508937767
0.24499197165005054 -0.7365461971860946
0.2751759495591152 -0.790335754219949
0.2902679385136475 -0.8441253112538033
0.24499197165005054 -0.8172305327368761
0.2902679385136475 -0.7768883649614854
0.3204519164227122 -0.723098807927631
0.3204519164227122 -0.6693092508937767
0.24499197165005054 -0.7096514186691675
0.2148079937409859 -0.6693092508937767
0.15444003792285657 -0.723098807927631
0.07898009315019493 -0.723098807927631
0.09407208210472726 -0.7096514186691675
-0.011571840576999039 -0.7096514186691675
-0.16249173012232232 -0.7768883649614854
-0.3285036086221779 -0.8441253112538033
-0.44923952025843655 -0.8441253112538033
-0.4945154871220335 -0.7768883649614854
-0.4643315092129689 -0.723098807927631
-0.4643315092129689 -0.7499935864445583
-0.4945154871220335 -0.8172305327368761
-0.5548834429401629 -0.8441253112538033
-0.6001594098037598 -0.884467479029194
-0.5850674208492275 -0.8441253112538033
-0.5699754318946951 -0.8306779219953397
-0.5850674208492275 -0.8710200897707304
-0.6454353766673568 -0.884467479029194
-0.6907113435309538 -0.884467479029194
-0.7359873103945508 -0.8306779219953397
-0.6907113435309538 -0.7768883649614854
-0.6756193545764215 -0.7499935864445583
-0.6303433877128245 -0.7634409757030218
-0.6756193545764215 -0.8172305327368761
-0.7208953214400184 -0.8979148682876577
-0.7661712883036155 -0.8979148682876577
-0.6907113435309538 -0.8306779219953397
-0.6756193545764215 -0.790335754219949
-0.6907113435309538 -0.790335754219949
-0.7208953214400184 -0.7768883649614854
-0.7510792993490831 -0.790335754219949
-0.7058033324854861 -0.7499935864445583
-0.7058033324854861 -0.7499935864445583
-0.5850674208492275 -0.7365461971860946
-0.5548834429401629 -0.790335754219949
-0.5699754318946951 -0.8441253112538033
-0.6001594098037598 -0.7768883649614854
-0.5850674208492275 -0.6693092508937767
-0.5397914539856306 -0.6693092508937767
-0.3737795754857749 -0.723098807927631
-0.2681356528040486 -0.8710200897707304
-0.026663829531531368 -0.9920465930969027
0.3355439053772445 -1.0323887608722935
0.8033955629677467 -1.0054939823553661
1.4372590990581045 -0.884467479029194
2.101306613057527 -0.6962040294107039
2.840814071829611 -0.3465719086906508
3.444493630010904 0.09719193683864731
3.7463334091015508 0.5275083931094818
3.625597497465292 0.9578248493803164
2.9162740166022725 1.2133252452911245
1.6636389333760895 1.2671148023249788
0.3355439053772445 1.15953568825727
-0.8416312330762771 1.065403963448025
-1.5660467028938287 0.97127223863878
-1.7773345482572813 1.038509184931098
-1.6113226697574259 1.253667413066515
-1.3547588575303762 1.5091678089773233
-1.3094828906667793 1.6974312585958133
-1.4000348243939733 1.8184577619219855
-1.5207707360302318 1.9529316545066213
-1.6264146587119581 2.0470633793158663
-1.6565986366210228 2.2084320504174295
-1.6867826145300875 2.2622216074512838
-1.7320585813936844 2.316011164485138
-1.762242559302749 2.4773798355867007
-1.7773345482572813 2.5177220033620915
-1.8226105151208785 2.705985452980582
-1.762242559302749 2.8673541240821447
-1.7320585813936844 2.8404593455652174
-1.7471505703482169 2.705985452980582
-1.7924265372118138 2.3832481107774557
-1.8377025040754107 2.06051076857433
-1.762242559302749 1.7108786478542768
-1.5811386918483612 1.3074569701003695
-1.4151268133485055 0.9578248493803164
-1.3547588575303762 0.5140610038510183
-1.2792989127577146 0.05684976906325657
-1.203838967985053 -0.30622974091526006
-1.068011067394262 -0.5079405797922137
-0.8567232220308094 -0.628967083118386
-0.6152513987582922 -0.6424144723768496
-0.4341475313039042 -0.8037831434784125
-0.28322764175858095 -0.9785992038384391
-0.23795167489498395 -1.0323887608722935
-0.19267570803138698 -1.1130730964230748
-0.16249173012232232 -1.1130730964230748
-0.14739974116779 -1.1668626534569293
-0.102123774304193 -1.2072048212323199
-0.102123774304193 -1.2072048212323199
-0.13230775221325766 -1.301336546041565
-0.08703178534966068 -1.3416787138169557
-0.026663829531531368 -1.3147839353000286
0.07898009315019493 -1.3282313245584922
0.12425606001379191 -1.4089156601092736
0.13934804896832423 -1.4627052171431278
0.07898009315019493 -1.5299421634354458
0.048796115241130276 -1.5433895526939094
0.01861213733206562 -1.4761526064015915
0.10916407105925958 -1.4627052171431278
0.15444003792285657 -1.4895999956600552
0.15444003792285657 -1.556836941952373
0.13934804896832423 -1.6106264989862273
0.2148079937409859 -1.6778634452785453
0.24499197165005054 -1.7047582237954724
0.2902679385136475 -1.718205613053936
0.2902679385136475 -1.7585477808293266
0.2902679385136475 -1.7988899486047174
0.2600839606045829 -1.8392321163801082
0.2902679385136475 -1.8661268948970353
0.35063589433177683 -1.7988899486047174
0.4260958391044385 -1.812337337863181
0.4562798170135031 -1.8661268948970353
0.5015557838771001 -1.9602586197062803
0.5015557838771001 -2.0812851230324525
0.5015557838771001 -2.10817990154938
0.5166477728316324 -2.10817990154938
0.592107717604294 -2.067837733773989
0.6071997065588264 -2.10817990154938
0.6675676623769558 -2.202311626358625
0.6977516402860204 -2.2695485726509426
0.727935618195085 -2.29644335116787
0.8033955629677467 -2.2695485726509426
0.909039485649473 -2.2829959619094065
0.9241314746040054 -2.4040224652355784
0.9694074414676023 -2.457812022269433
0.9392234635585376 -2.4981541900448234
0.9241314746040054 -2.48470680078636
0.999591419376667 -2.444364633010969
1.044867386240264 -2.444364633010969
1.044867386240264 -2.457812022269433
1.0297753972857315 -2.5116015793032873
1.1052353420583931 -2.5116015793032873
1.1052353420583931 -2.538496357820214
1.1354193199674578 -2.4981541900448234
1.2108792647401196 -2.444364633010969
1.180695286831055 -2.457812022269433
1.1656032978765225 -2.457812022269433
1.044867386240264 -2.444364633010969
1.0146834083311993 -2.3367855189432607
0.999591419376667 -2.229206404875552
0.9844994304221346 -2.161969458583234
0.9844994304221346 -2.1485220693247706
0.909039485649473 -2.1216272908078433
0.7883035740132144 -2.1216272908078433
0.7128436292405527 -2.0409429552570617
0.6524756734224234 -1.946811230447817
0.6071997065588264 -1.7719951700877903
0.5468317507406971 -1.718205613053936
0.4411878280589708 -1.6509686667616181
0.3355439053772445 -1.5837317204693002
0.2600839606045829 -1.4895999956600552
0.19971600478645354 -1.4627052171431278
0.18462401583192123 -1.3685734923338828
0.13934804896832423 -1.3416787138169557
-0.011571840576999039 -1.3551261030754194
-0.13230775221325766 -1.2878891567831015
-0.17758371907685463 -1.1803100427153927
-0.22285968594045164 -1.072730928647684
-0.22285968594045164 -1.0323887608722935
-0.2681356528040486 -1.0189413716138298
-0.34359559757671027 -1.045836150130757
-0.4039635533948396 -1.0592835393892206
-0.4945154871220335 -1.0592835393892206
-0.5096074760765659 -1.0323887608722935
-0.5246994650310982 -0.9517044253215119
-0.4945154871220335 -0.8979148682876577
-0.5397914539856306 -0.884467479029194
-0.6303433877128245 -0.9517044253215119
-0.6756193545764215 -0.8979148682876577
-0.6152513987582922 -0.8575727005122669
-0.5246994650310982 -0.8710200897707304
-0.5397914539856306 -0.8979148682876577
-0.5699754318946951 -0.9651518145799755
-0.6303433877128245 -1.0054939823553661
-0.7058033324854861 -0.9785992038384391
-0.6454353766673568 -0.8575727005122669
-0.6454353766673568 -0.8172305327368761
-0.6001594098037598 -0.8306779219953397
-0.6152513987582922 -0.8710200897707304
-0.6303433877128245 -0.9113622575461212
-0.6303433877128245 -0.9248096468045848
-0.6152513987582922 -0.884467479029194
-0.5548834429401629 -0.8979148682876577
-0.5699754318946951 -0.8979148682876577
-0.5850674208492275 -0.9382570360630483
-0.6907113435309538 -0.9248096468045848
-0.7208953214400184 -0.8710200897707304
-0.6454353766673568 -0.8172305327368761
-0.6001594098037598 -0.8037831434784125
-0.5397914539856306 -0.8441253112538033
-0.5699754318946951 -0.9382570360630483
-0.6001594098037598 -0.9651518145799755
-0.6303433877128245 -0.9651518145799755
-0.6001594098037598 -0.9248096468045848
-0.6303433877128245 -0.8710200897707304
-0.5850674208492275 -0.8575727005122669
-0.6001594098037598 -0.8575727005122669
-0.6303433877128245 -0.8575727005122669
-0.6001594098037598 -0.8979148682876577
-0.5699754318946951 -0.8710200897707304
-0.5548834429401629 -0.8575727005122669
-0.5246994650310982 -0.8710200897707304
-0.5397914539856306 -0.9113622575461212
-0.6454353766673568 -0.9517044253215119
-0.6605273656218892 -0.9113622575461212
-0.6454353766673568 -0.8575727005122669
-0.6152513987582922 -0.790335754219949
-0.6303433877128245 -0.7499935864445583
-0.5699754318946951 -0.8037831434784125
-0.5850674208492275 -0.8172305327368761
-0.5850674208492275 -0.7768883649614854
-0.4945154871220335 -0.7499935864445583
-0.4643315092129689 -0.7499935864445583
-0.4190555423493719 -0.7634409757030218
-0.4341475313039042 -0.7768883649614854
-0.4190555423493719 -0.7096514186691675
-0.3586875865312426 -0.6693092508937767
-0.3285036086221779 -0.6827566401522404
-0.25304366384951626 -0.6962040294107039
-0.17758371907685463 -0.7768883649614854
-0.13230775221325766 -0.8979148682876577
-0.14739974116779 -0.9517044253215119
-0.11721576325872533 -0.9651518145799755
-0.026663829531531368 -0.9785992038384391
0.048796115241130276 -0.9248096468045848
0.10916407105925958 -0.8441253112538033
0.0638881041956626 -0.8441253112538033
0.048796115241130276 -0.884467479029194
0.048796115241130276 -0.8710200897707304
0.0638881041956626 -0.8306779219953397
0.10916407105925958 -0.790335754219949
0.12425606001379191 -0.8172305327368761
0.003520148377533289 -0.8710200897707304
-0.102123774304193 -0.8979148682876577
-0.23795167489498395 -0.9113622575461212
-0.3285036086221779 -0.790335754219949
-0.4341475313039042 -0.7499935864445583
-0.5096074760765659 -0.8037831434784125
-0.5548834429401629 -0.884467479029194
-0.6152513987582922 -0.9651518145799755
-0.7058033324854861 -0.9920465930969027
-0.7058033324854861 -0.9517044253215119
-0.6756193545764215 -0.8979148682876577
-0.7510792993490831 -0.9113622575461212
-0.79635526621268 -0.9113622575461212
-0.8718152109853418 -0.9113622575461212
-0.8869071999398741 -0.8979148682876577
-0.8567232220308094 -0.8306779219953397
-0.79635526621268 -0.8575727005122669
-0.8114472551672124 -0.884467479029194
-0.8416312330762771 -0.9248096468045848
-0.9472751557580034 -0.9651518145799755
-0.977459133667068 -0.9785992038384391
-0.9623671447125357 -0.884467479029194
-0.9623671447125357 -0.8306779219953397
-0.932183166803471 -0.8172305327368761
-0.9472751557580034 -0.8710200897707304
-0.9623671447125357 -0.884467479029194
-0.9925511226216004 -0.9248096468045848
-0.932183166803471 -0.884467479029194
-0.9472751557580034 -0.8441253112538033
-0.8718152109853418 -0.8710200897707304
-0.8567232220308094 -0.9113622575461212
-0.932183166803471 -0.8979148682876577
-0.932183166803471 -0.8575727005122669
-0.8869071999398741 -0.7768883649614854
-0.8265392441217447 -0.6424144723768496
-0.7359873103945508 -0.6424144723768496
-0.7208953214400184 -0.7365461971860946
-0.6303433877128245 -0.8979148682876577
-0.5246994650310982 -1.045836150130757
-0.2681356528040486 -1.1265204856815385
0.0638881041956626 -1.072730928647684
0.4864637949225678 -1.0323887608722935
1.0146834083311993 -0.9382570360630483
1.648546944421557 -0.8575727005122669
2.342778436330044 -0.534835358309141
2.9917339613749343 -0.06417673426291565
3.4897695968745013 0.3795871112663825
3.5048615858290333 0.7023244534695084
2.9011820276477405 0.8905879030879985
1.6787309223306217 0.97127223863878
0.2902679385136475 0.9578248493803164
-0.9170911778489387 0.9443774601218529
-1.7320585813936844 0.9847196278972435
-1.9131624488480723 1.0519565741895616
-1.807518526166346 1.1460882989988066
-1.6113226697574259 1.3074569701003695
-1.5207707360302318 1.482273030460396
-1.5660467028938287 1.6167469230450318
-1.6867826145300875 1.7781155941465947
-1.7018746034846197 1.8856947082143034
-1.8678864819844754 1.9529316545066213
-2.0489903494388635 2.0470633793158663
-2.079174327347928 2.1949846611589656
-2.079174327347928 2.3966955000359196
-1.9886223936207341 2.5311693926205554
-1.8527944930299431 2.638748506688264
-1.89807045989354 2.6521958959467273
-1.9584384157116694 2.598406338912873
-2.033898360484331 2.504274614103628
-2.0640823383933955 2.2891163859682107
-2.0942663163024604 2.1008529363497206
-2.003714382575266 1.7781155941465947
-1.943346426757137 1.4284834734265417
-1.807518526166346 0.9981670171557071
-1.6565986366210228 0.5947453394017997
-1.5207707360302318 0.1644288831309652
-1.3849428354394409 -0.18520323758908785
-1.203838967985053 -0.46759841201682306
-1.0831030563487942 -0.6558618616353131
-0.9623671447125357 -0.723098807927631
-0.8265392441217447 -0.8172305327368761
-0.6907113435309538 -0.7768883649614854
-0.5096074760765659 -0.790335754219949
-0.44923952025843655 -0.8710200897707304
-0.4643315092129689 -0.9248096468045848
-0.4341475313039042 -1.0592835393892206
-0.4341475313039042 -1.0996257071646114
-0.3134116196676456 -1.1130730964230748
-0.3285036086221779 -1.1534152641984656
-0.2983196307131133 -1.139967874940002
-0.3134116196676456 -1.234099599749247
-0.34359559757671027 -1.2475469890077107
-0.3134116196676456 -1.2609943782661743
-0.2681356528040486 -1.2072048212323199
-0.25304366384951626 -1.2072048212323199
-0.14739974116779 -1.2878891567831015
-0.11721576325872533 -1.3416787138169557
-0.102123774304193 -1.4358104386262007
-0.13230775221325766 -1.4627052171431278
-0.13230775221325766 -1.4358104386262007
-0.056847807440596025 -1.3820208815923465
-0.011571840576999039 -1.4089156601092736
-0.026663829531531368 -1.4627052171431278
-0.011571840576999039 -1.4895999956600552
-0.041755818486063696 -1.5299421634354458
0.0638881041956626 -1.556836941952373
0.12425606001379191 -1.556836941952373
0.19971600478645354 -1.624073888244691
0.2148079937409859 -1.7047582237954724
0.16953202687738889 -1.7719951700877903
0.16953202687738889 -1.7719951700877903
0.16953202687738889 -1.7316530023123995
0.2751759495591152 -1.718205613053936
0.35063589433177683 -1.7988899486047174
0.3959118611953738 -1.8661268948970353
0.3808198722408415 -1.9333638411893532
0.3808198722408415 -2.0274955659985983
0.4864637949225678 -2.0409429552570617
0.5770157286497618 -2.0006007874816714
0.592107717604294 -2.067837733773989
0.6071997065588264 -2.10817990154938
0.5468317507406971 -2.1485220693247706
0.6222916955133587 -2.1888642371001614
0.7128436292405527 -2.1485220693247706
0.8033955629677467 -2.1754168478416975
0.863763518785876 -2.229206404875552
0.9241314746040054 -2.2695485726509426
0.8939474966949407 -2.3098907404263334
0.909039485649473 -2.29644335116787
0.909039485649473 -2.229206404875552
0.9694074414676023 -2.161969458583234
0.9694074414676023 -2.1888642371001614
0.9694074414676023 -2.1754168478416975
0.9844994304221346 -2.1754168478416975
0.9543154525130699 -2.1485220693247706
0.9844994304221346 -2.0947325122909164
1.0146834083311993 -1.9871533982232075
0.9543154525130699 -1.9602586197062803
0.8486715298313436 -1.946811230447817
0.7128436292405527 -1.906469062672426
0.592107717604294 -1.7988899486047174
0.5166477728316324 -1.6644160560200816
0.5619237396952295 -1.5433895526939094
0.5468317507406971 -1.5030473849185186
0.4864637949225678 -1.4895999956600552
0.3204519164227122 -1.4895999956600552
0.2600839606045829 -1.4223630493677373
0.18462401583192123 -1.3416787138169557
0.12425606001379191 -1.1668626534569293
0.07898009315019493 -1.0861783179061477
-0.056847807440596025 -1.0054939823553661
-0.14739974116779 -1.0323887608722935
-0.17758371907685463 -0.9920465930969027
-0.2077676969859193 -0.8710200897707304
-0.28322764175858095 -0.8306779219953397
-0.25304366384951626 -0.8306779219953397
-0.34359559757671027 -0.8575727005122669
-0.4341475313039042 -0.8441253112538033
-0.4945154871220335 -0.790335754219949
-0.5397914539856306 -0.6693092508937767
-0.5397914539856306 -0.6020723046014589
-0.5096074760765659 -0.628967083118386
-0.5548834429401629 -0.628967083118386
-0.5699754318946951 -0.6424144723768496
-0.5850674208492275 -0.6558618616353131
-0.5699754318946951 -0.6155196938599224
-0.5850674208492275 -0.5886249153429952
-0.6001594098037598 -0.6020723046014589
-0.6605273656218892 -0.6020723046014589
-0.7208953214400184 -0.6020723046014589
-0.7510792993490831 -0.5482827475676045
-0.7058033324854861 -0.534835358309141
-0.6605273656218892 -0.46759841201682306
-0.6152513987582922 -0.5079405797922137
-0.5850674208492275 -0.5751775260845317
-0.6605273656218892 -0.628967083118386
-0.7058033324854861 -0.6558618616353131
-0.6907113435309538 -0.6020723046014589
-0.6454353766673568 -0.5213879690506774
-0.6605273656218892 -0.4810458012752866
-0.6756193545764215 -0.5213879690506774
-0.7510792993490831 -0.5213879690506774
-0.6907113435309538 -0.534835358309141
-0.6152513987582922 -0.4810458012752866
-0.5397914539856306 -0.46759841201682306
-0.4945154871220335 -0.5079405797922137
-0.5548834429401629 -0.534835358309141
-0.6605273656218892 -0.5886249153429952
-0.6605273656218892 -0.5751775260845317
-0.6605273656218892 -0.5482827475676045
-0.6001594098037598 -0.40036146572450515
-0.5699754318946951 -0.45415102275835945
-0.6001594098037598 -0.4810458012752866
-0.5850674208492275 -0.534835358309141
-0.6152513987582922 -0.534835358309141
-0.5699754318946951 -0.5482827475676045
-0.5699754318946951 -0.5079405797922137
-0.5397914539856306 -0.5079405797922137
-0.6152513987582922 -0.5213879690506774
-0.6454353766673568 -0.4944931905337502
-0.6756193545764215 -0.5079405797922137
-0.6454353766673568 -0.4138088549829687
-0.5850674208492275 -0.3869140764660416
-0.5397914539856306 -0.40036146572450515
-0.5699754318946951 -0.4407036334998959
-0.5699754318946951 -0.4810458012752866
-0.6001594098037598 -0.46759841201682306
-0.5850674208492275 -0.3869140764660416
-0.5699754318946951 -0.3196771301737237
-0.4945154871220335 -0.27933496239833294
-0.4794234981675012 -0.27933496239833294
-0.4341475313039042 -0.2927823516567965
-0.4039635533948396 -0.30622974091526006
-0.3134116196676456 -0.23899279462294218
-0.2681356528040486 -0.25244018388140577
-0.2077676969859193 -0.33312451943218724
-0.2077676969859193 -0.40036146572450515
-0.23795167489498395 -0.46759841201682306
-0.16249173012232232 -0.46759841201682306
-0.07193979639512835 -0.4272562442414323
0.048796115241130276 -0.3869140764660416
0.10916407105925958 -0.4272562442414323
0.13934804896832423 -0.46759841201682306
0.10916407105925958 -0.5079405797922137
0.09407208210472726 -0.45415102275835945
0.13934804896832423 -0.4407036334998959
0.13934804896832423 -0.3600192979491144
0.16953202687738889 -0.3869140764660416
0.10916407105925958 -0.3869140764660416
0.01861213733206562 -0.4272562442414323
-0.041755818486063696 -0.40036146572450515
-0.07193979639512835 -0.3196771301737237
-0.102123774304193 -0.2658875731398693
-0.22285968594045164 -0.33312451943218724
-0.38887156444030724 -0.3869140764660416
-0.4945154871220335 -0.45415102275835945
-0.5096074760765659 -0.4810458012752866
-0.5699754318946951 -0.4272562442414323
-0.5397914539856306 -0.373466687207578
-0.5397914539856306 -0.373466687207578
-0.6303433877128245 -0.40036146572450515
-0.6303433877128245 -0.40036146572450515
-0.6907113435309538 -0.4138088549829687
-0.6605273656218892 -0.40036146572450515
-0.6001594098037598 -0.3869140764660416
-0.6001594098037598 -0.4272562442414323
-0.6756193545764215 -0.4810458012752866
-0.7812632772581478 -0.4810458012752866
-0.7812632772581478 -0.45415102275835945
-0.7661712883036155 -0.3465719086906508
-0.7510792993490831 -0.30622974091526006
-0.7359873103945508 -0.30622974091526006
-0.7058033324854861 -0.40036146572450515
-0.7359873103945508 -0.4407036334998959
-0.7208953214400184 -0.46759841201682306
-0.7208953214400184 -0.45415102275835945
-0.6756193545764215 -0.3600192979491144
-0.6605273656218892 -0.373466687207578
-0.6756193545764215 -0.3600192979491144
-0.7208953214400184 -0.373466687207578
-0.6907113435309538 -0.33312451943218724
-0.6454353766673568 -0.27933496239833294
-0.5699754318946951 -0.23899279462294218
-0.5096074760765659 -0.22554540536447862
-0.5096074760765659 -0.22554540536447862
-0.5096074760765659 -0.21209801610601503
-0.4643315092129689 -0.23899279462294218
-0.3737795754857749 -0.27933496239833294
-0.25304366384951626 -0.3869140764660416
0.0638881041956626 -0.4138088549829687
0.3959118611953738 -0.45415102275835945
0.8788555077404083 -0.4407036334998959
1.512719043830766 -0.30622974091526006
2.2069505357392534 -0.23899279462294218
2.8709980497386756 0.04340237980479299
3.444493630010904 0.4064818897833096
3.8821613096923415 0.7292192319864356
3.9576212544650033 1.1191935204818795
3.55013755269263 1.3746939163926875
2.5540662816934967 1.5898521445281046
1.180695286831055 1.6705364800788862
-0.14739974116779 1.6301943123034954
-1.1887469790305207 1.5360625874942504
-1.6867826145300875 1.5226151982357867
-1.6264146587119581 1.6301943123034954
-1.339666868575844 1.8587999296973763
-1.158563001121456 2.0739581578327937
-1.2189309569395852 2.2353268289343564
-1.3698508464849086 2.3698007215189922
-1.5207707360302318 2.4773798355867007
-1.6264146587119581 2.598406338912873
-1.671690625575555 2.7732223992728997
-1.6415066476664906 2.894248902599072
-1.6113226697574259 3.015275405925244
-1.5509547139392965 3.0959597414760256
-1.5358627249847643 3.122854519992953
-1.5962306808028934 3.243881023319125
-1.6565986366210228 3.2573284125775888
-1.6565986366210228 3.1363019092514164
-1.6565986366210228 2.9614858488913898
-1.671690625575555 2.638748506688264
-1.5962306808028934 2.275668996709747
-1.4604027802121025 1.9125894867312305
-1.3094828906667793 1.4957204197188596
-1.1283790232123914 1.15953568825727
-1.022735100530665 0.715771842727972
-0.932183166803471 0.33924494349099177
-0.8114472551672124 0.07029715832172015
-0.6756193545764215 -0.07762412352137923
-0.4643315092129689 -0.10451890203830638
-0.23795167489498395 -0.14486106981369712
-0.07193979639512835 -0.19865062684755144
0.003520148377533289 -0.3465719086906508
0.03370412628659795 -0.4810458012752866
0.07898009315019493 -0.5213879690506774
0.10916407105925958 -0.5751775260845317
0.18462401583192123 -0.5213879690506774
0.19971600478645354 -0.6020723046014589
0.2148079937409859 -0.6155196938599224
0.15444003792285657 -0.6693092508937767
0.16953202687738889 -0.6827566401522404
0.2902679385136475 -0.6155196938599224
0.3204519164227122 -0.628967083118386
0.41100385014990615 -0.723098807927631
0.35063589433177683 -0.8037831434784125
0.35063589433177683 -0.8441253112538033
0.3355439053772445 -0.8575727005122669
0.3657278832863092 -0.8575727005122669
0.3959118611953738 -0.8172305327368761
0.47137180596803546 -0.8172305327368761
0.5015557838771001 -0.8710200897707304
0.4864637949225678 -0.9382570360630483
0.5166477728316324 -0.9920465930969027
0.5770157286497618 -1.0323887608722935
0.6222916955133587 -1.0189413716138298
0.6826596513314881 -1.072730928647684
0.6826596513314881 -1.0861783179061477
0.6071997065588264 -1.1668626534569293
0.6373836844678911 -1.1534152641984656
0.7128436292405527 -1.1534152641984656
0.7430276071496174 -1.139967874940002
0.8335795408768113 -1.1803100427153927
0.8939474966949407 -1.2878891567831015
0.8939474966949407 -1.3820208815923465
0.9241314746040054 -1.4627052171431278
0.9694074414676023 -1.4358104386262007
1.0297753972857315 -1.3954682708508102
1.0599593751947962 -1.4492578278846644
1.1052353420583931 -1.5030473849185186
1.0599593751947962 -1.5837317204693002
1.1354193199674578 -1.5702843312108365
1.1957872757855872 -1.5702843312108365
1.2863392095127812 -1.5837317204693002
1.316523187421846 -1.624073888244691
1.3014311984673135 -1.7316530023123995
1.3617991542854428 -1.785442559346254
1.3919831321945075 -1.812337337863181
1.4221671101035722 -1.7585477808293266
1.4976270548762338 -1.7316530023123995
1.5429030217398307 -1.718205613053936
1.5730869996488954 -1.7047582237954724
1.5730869996488954 -1.7451003915708632
1.5881789886034277 -1.7047582237954724
1.6183629665124923 -1.7047582237954724
1.648546944421557 -1.624073888244691
1.6334549554670248 -1.5971791097277637
1.5730869996488954 -1.5837317204693002
1.4825350659217014 -1.5433895526939094
1.376891143239975 -1.4358104386262007
1.3467071653309104 -1.3282313245584922
1.3316151763763782 -1.2206522104907835
1.316523187421846 -1.1803100427153927
1.2108792647401196 -1.139967874940002
1.090143353103861 -1.139967874940002
1.0297753972857315 -1.0592835393892206
0.9694074414676023 -0.9651518145799755
0.909039485649473 -0.8037831434784125
0.818487551922279 -0.7365461971860946
0.727935618195085 -0.6558618616353131
0.5770157286497618 -0.6020723046014589
0.5619237396952295 -0.534835358309141
0.5619237396952295 -0.4944931905337502
0.5317397617861648 -0.4272562442414323
0.5015557838771001 -0.3869140764660416
0.41100385014990615 -0.4272562442414323
0.3204519164227122 -0.4138088549829687
0.2298999826955182 -0.3196771301737237
0.18462401583192123 -0.23899279462294218
0.16953202687738889 -0.13141368055523356
0.19971600478645354 -0.11796629129676997
0.18462401583192123 -0.14486106981369712
0.13934804896832423 -0.19865062684755144
0.048796115241130276 -0.1717558483306243
0.07898009315019493 -0.1717558483306243
0.09407208210472726 -0.11796629129676997
0.0638881041956626 -0.14486106981369712
0.03370412628659795 -0.1583084590721607
0.003520148377533289 -0.14486106981369712
-0.041755818486063696 -0.09107151277984281
0.003520148377533289 -0.06417673426291565
0.048796115241130276 -0.050729345004452066
0.0638881041956626 -0.050729345004452066
0.07898009315019493 -0.11796629129676997
-0.011571840576999039 -0.14486106981369712
-0.011571840576999039 -0.14486106981369712
-0.056847807440596025 -0.10451890203830638
0.003520148377533289 -0.02383456648752491
0.048796115241130276 -0.02383456648752491
0.01861213733206562 -0.050729345004452066
0.03370412628659795 -0.07762412352137923
0.003520148377533289 -0.06417673426291565
0.048796115241130276 -0.06417673426291565
0.09407208210472726 -0.03728195574598849
0.07898009315019493 -0.07762412352137923
0.09407208210472726 -0.07762412352137923
0.048796115241130276 -0.1583084590721607
0.01861213733206562 -0.09107151277984281
0.03370412628659795 -0.050729345004452066
0.10916407105925958 0.0030602120294022507
0.10916407105925958 0.016507601287865832
0.09407208210472726 -0.09107151277984281
0.07898009315019493 -0.10451890203830638
0.048796115241130276 -0.13141368055523356
0.07898009315019493 -0.11796629129676997
0.13934804896832423 -0.07762412352137923
0.10916407105925958 -0.07762412352137923
0.12425606001379191 -0.07762412352137923
0.07898009315019493 -0.09107151277984281
0.0638881041956626 -0.050729345004452066
0.09407208210472726 -0.02383456648752491
0.18462401583192123 -0.01038717722906133
0.2298999826955182 -0.07762412352137923
0.2148079937409859 -0.07762412352137923
0.13934804896832423 -0.10451890203830638
0.07898009315019493 -0.13141368055523356
0.0638881041956626 -0.050729345004452066
0.0638881041956626 0.016507601287865832
0.12425606001379191 0.08374454758018372
0.15444003792285657 0.09719193683864731
0.10916407105925958 0.05684976906325657
0.10916407105925958 0.05684976906325657
0.2148079937409859 0.08374454758018372
0.35063589433177683 0.07029715832172015
0.35063589433177683 0.08374454758018372
0.3657278832863092 0.04340237980479299
0.3355439053772445 0.08374454758018372
0.3808198722408415 0.08374454758018372
0.4260958391044385 0.07029715832172015
0.5166477728316324 0.05684976906325657
0.5619237396952295 0.016507601287865832
0.6524756734224234 -0.03728195574598849
0.6826596513314881 -0.09107151277984281
0.6826596513314881 -0.1583084590721607
0.727935618195085 -0.10451890203830638
0.8033955629677467 -0.09107151277984281
0.8335795408768113 -0.06417673426291565
0.8033955629677467 -0.06417673426291565
0.7581195961041497 -0.09107151277984281
0.7581195961041497 -0.02383456648752491
0.773211585058682 0.0030602120294022507
0.7883035740132144 0.04340237980479299
0.8033955629677467 -0.02383456648752491
0.6675676623769558 -0.07762412352137923
0.5619237396952295 -0.10451890203830638
0.4411878280589708 -0.050729345004452066
0.3355439053772445 -0.02383456648752491
0.2751759495591152 0.04340237980479299
0.2148079937409859 0.04340237980479299
0.15444003792285657 -0.03728195574598849
0.07898009315019493 -0.10451890203830638
0.0638881041956626 -0.11796629129676997
0.03370412628659795 -0.07762412352137923
0.01861213733206562 -0.06417673426291565
0.01861213733206562 -0.10451890203830638
-0.056847807440596025 -0.09107151277984281
-0.102123774304193 -0.13141368055523356
-0.14739974116779 -0.07762412352137923
-0.19267570803138698 -0.03728195574598849
-0.102123774304193 -0.02383456648752491
-0.07193979639512835 -0.050729345004452066
-0.11721576325872533 -0.11796629129676997
-0.16249173012232232 -0.1717558483306243
-0.22285968594045164 -0.1583084590721607
-0.22285968594045164 -0.06417673426291565
-0.17758371907685463 0.016507601287865832
-0.16249173012232232 0.0030602120294022507
-0.17758371907685463 -0.050729345004452066
-0.22285968594045164 -0.07762412352137923
-0.17758371907685463 -0.09107151277984281
-0.11721576325872533 -0.10451890203830638
-0.08703178534966068 -0.06417673426291565
-0.041755818486063696 -0.07762412352137923
-0.07193979639512835 -0.09107151277984281
-0.11721576325872533 -0.11796629129676997
-0.13230775221325766 0.0030602120294022507
-0.056847807440596025 0.13753410461403806
0.01861213733206562 0.24511321868174668
0.10916407105925958 0.20477105090635594
0.10916407105925958 0.02995499054632941
0.2902679385136475 -0.14486106981369712
0.4864637949225678 -0.25244018388140577
0.8939474966949407 -0.27933496239833294
1.3919831321945075 -0.18520323758908785
1.9956626903758006 -0.09107151277984281
2.6748021933297554 0.05684976906325657
3.35394169628371 0.4064818897833096
3.9576212544650033 0.8905879030879985
4.3801969451919085 1.3746939163926875
4.365104956237376 1.7781155941465947
3.625597497465292 1.966379043765085
2.2673184915573823 1.9260368759896942
0.727935618195085 1.87224731895584
-0.5850674208492275 1.8856947082143034
-1.2189309569395852 1.9529316545066213
-1.3245748796213115 2.06051076857433
-1.0529190784397298 2.24877421819282
-0.8869071999398741 2.450485057069774
-0.8718152109853418 2.571511560395946
-0.9925511226216004 2.6656432852051912
-1.0378270894851973 2.8404593455652174
-1.0981950453033267 3.0018280166667806
-1.203838967985053 3.109407130734489
-1.2792989127577146 3.1900914662852706
-1.3094828906667793 3.33801274812837
-1.294390901712247 3.4724866407130057
-1.2189309569395852 3.6473027010730323
-1.1283790232123914 3.727987036623814
-1.113287034257859 3.6741974795899597
-1.1887469790305207 3.3783549159037607
-1.294390901712247 3.0959597414760256
-1.3245748796213115 2.732880231497509
-1.2340229458941177 2.450485057069774
-1.0378270894851973 2.1143003256081845
-0.9170911778489387 1.6705364800788862
-0.7812632772581478 1.1998778560326608
-0.6454353766673568 0.7561140105033627
-0.4945154871220335 0.41992927904177324
-0.3134116196676456 0.20477105090635594
-0.11721576325872533 0.13753410461403806
0.12425606001379191 0.07029715832172015
0.2298999826955182 -0.050729345004452066
0.2600839606045829 -0.10451890203830638
0.30535992746817986 -0.1717558483306243
0.35063589433177683 -0.1583084590721607
0.41100385014990615 -0.1717558483306243
0.47137180596803546 -0.25244018388140577
0.5317397617861648 -0.3600192979491144
0.5317397617861648 -0.45415102275835945
0.5317397617861648 -0.5079405797922137
0.5468317507406971 -0.4810458012752866
0.5619237396952295 -0.46759841201682306
0.5468317507406971 -0.46759841201682306
0.592107717604294 -0.4810458012752866
0.5619237396952295 -0.5213879690506774
0.592107717604294 -0.5617301368260681
0.6675676623769558 -0.5886249153429952
0.7128436292405527 -0.5617301368260681
0.8033955629677467 -0.6827566401522404
0.7581195961041497 -0.7096514186691675
0.6977516402860204 -0.7499935864445583
0.6977516402860204 -0.7499935864445583
0.727935618195085 -0.723098807927631
0.8335795408768113 -0.6827566401522404
0.8788555077404083 -0.7365461971860946
0.909039485649473 -0.7768883649614854
0.9392234635585376 -0.8979148682876577
0.9694074414676023 -0.9382570360630483
1.0146834083311993 -0.9651518145799755
1.0599593751947962 -0.9517044253215119
1.1203273310129256 -1.045836150130757
1.1203273310129256 -1.0861783179061477
1.0599593751947962 -1.139967874940002
1.0750513641493287 -1.1534152641984656
1.180695286831055 -1.1130730964230748
1.2863392095127812 -1.1130730964230748
1.3467071653309104 -1.2206522104907835
1.3617991542854428 -1.3416787138169557
1.316523187421846 -1.4223630493677373
1.3316151763763782 -1.4358104386262007
1.4070751211490398 -1.3954682708508102
1.4674430769671691 -1.3954682708508102
1.5730869996488954 -1.3685734923338828
1.5881789886034277 -1.4492578278846644
1.5579950106943632 -1.5030473849185186
1.6334549554670248 -1.5299421634354458
1.6787309223306217 -1.5299421634354458
1.7692828560578158 -1.5433895526939094
1.8447428008304774 -1.556836941952373
1.8145588229214127 -1.5837317204693002
1.739098878148751 -1.5433895526939094
1.7541908671032833 -1.5433895526939094
1.7692828560578158 -1.4627052171431278
1.8447428008304774 -1.4358104386262007
1.8900187676940743 -1.3954682708508102
1.829650811875945 -1.3820208815923465
1.7089149002396864 -1.4089156601092736
1.693822911285154 -1.3147839353000286
1.5730869996488954 -1.2475469890077107
1.5730869996488954 -1.0861783179061477
1.4523510880126367 -0.9920465930969027
1.4070751211490398 -0.9651518145799755
1.2863392095127812 -0.8979148682876577
1.180695286831055 -0.8575727005122669
1.1052353420583931 -0.7096514186691675
1.090143353103861 -0.6558618616353131
1.0146834083311993 -0.5886249153429952
0.909039485649473 -0.534835358309141
0.7430276071496174 -0.5213879690506774
0.6826596513314881 -0.3869140764660416
0.6071997065588264 -0.27933496239833294
0.6071997065588264 -0.18520323758908785
0.6071997065588264 -0.13141368055523356
0.5468317507406971 -0.11796629129676997
0.4562798170135031 -0.1583084590721607
0.41100385014990615 -0.13141368055523356
0.35063589433177683 -0.06417673426291565
0.30535992746817986 -0.01038717722906133
0.30535992746817986 0.016507601287865832
0.2600839606045829 0.05684976906325657
0.18462401583192123 0.07029715832172015
0.10916407105925958 0.07029715832172015
0.13934804896832423 0.08374454758018372
0.19971600478645354 0.09719193683864731
0.18462401583192123 0.08374454758018372
0.13934804896832423 0.02995499054632941
0.0638881041956626 0.0030602120294022507
-0.026663829531531368 0.016507601287865832
-0.011571840576999039 0.13753410461403806
0.003520148377533289 0.21821844016481953
0.09407208210472726 0.19132366164789236
0.10916407105925958 0.13753410461403806
0.0638881041956626 0.08374454758018372
0.0638881041956626 0.08374454758018372
0.10916407105925958 0.09719193683864731
0.12425606001379191 0.11063932609711088
0.13934804896832423 0.11063932609711088
0.09407208210472726 0.08374454758018372
0.0638881041956626 0.1644288831309652
0.03370412628659795 0.15098149387250162
0.09407208210472726 0.1778762723894288
0.15444003792285657 0.20477105090635594
0.16953202687738889 0.15098149387250162
0.16953202687738889 0.08374454758018372
0.15444003792285657 0.016507601287865832
0.13934804896832423 0.02995499054632941
0.10916407105925958 0.09719193683864731
0.12425606001379191 0.1778762723894288
0.15444003792285657 0.1644288831309652
0.16953202687738889 0.12408671535557447
0.18462401583192123 0.09719193683864731
0.15444003792285657 0.04340237980479299
0.16953202687738889 0.04340237980479299
0.2298999826955182 0.08374454758018372
0.2298999826955182 0.09719193683864731
0.19971600478645354 0.02995499054632941
0.12425606001379191 0.04340237980479299
0.09407208210472726 0.08374454758018372
0.10916407105925958 0.1644288831309652
0.15444003792285657 0.19132366164789236
0.2148079937409859 0.13753410461403806
0.2298999826955182 0.07029715832172015
0.15444003792285657 0.04340237980479299
0.13934804896832423 0.05684976906325657
0.13934804896832423 0.15098149387250162
0.16953202687738889 0.27200799719867386
0.2148079937409859 0.27200799719867386
0.2298999826955182 0.27200799719867386
0.2600839606045829 0.21821844016481953
0.3204519164227122 0.20477105090635594
0.3959118611953738 0.24511321868174668
0.4260958391044385 0.2854553864571374
0.47137180596803546 0.25856060794021024
0.4864637949225678 0.1778762723894288
0.4562798170135031 0.05684976906325657
0.47137180596803546 0.09719193683864731
0.5317397617861648 0.12408671535557447
0.6524756734224234 0.13753410461403806
0.7430276071496174 0.09719193683864731
0.8486715298313436 0.016507601287865832
0.8335795408768113 -0.06417673426291565
0.8486715298313436 -0.03728195574598849
0.818487551922279 0.05684976906325657
0.8486715298313436 0.07029715832172015
0.8486715298313436 0.13753410461403806
0.818487551922279 0.13753410461403806
0.6977516402860204 0.13753410461403806
0.6524756734224234 0.09719193683864731
0.5770157286497618 0.09719193683864731
0.5468317507406971 0.12408671535557447
0.4864637949225678 0.08374454758018372
0.30535992746817986 0.04340237980479299
0.13934804896832423 -0.01038717722906133
0.03370412628659795 0.04340237980479299
0.003520148377533289 0.08374454758018372
0.003520148377533289 0.13753410461403806
0.048796115241130276 0.15098149387250162
0.01861213733206562 0.04340237980479299
-0.011571840576999039 -0.02383456648752491
-0.08703178534966068 -0.03728195574598849
-0.102123774304193 0.0030602120294022507
-0.102123774304193 0.11063932609711088
-0.11721576325872533 0.08374454758018372
-0.17758371907685463 0.11063932609711088
-0.2077676969859193 0.11063932609711088
-0.25304366384951626 0.05684976906325657
-0.19267570803138698 0.11063932609711088
-0.14739974116779 0.08374454758018372
-0.13230775221325766 0.05684976906325657
-0.16249173012232232 0.016507601287865832
-0.22285968594045164 0.016507601287865832
-0.2983196307131133 0.02995499054632941
-0.2681356528040486 0.12408671535557447
-0.23795167489498395 0.1778762723894288
-0.19267570803138698 0.19132366164789236
-0.16249173012232232 0.12408671535557447
-0.17758371907685463 0.07029715832172015
-0.19267570803138698 0.05684976906325657
-0.19267570803138698 0.15098149387250162
-0.13230775221325766 0.23166582942328312
-0.08703178534966068 0.27200799719867386
-0.102123774304193 0.23166582942328312
0.003520148377533289 0.11063932609711088
0.13934804896832423 -0.03728195574598849
0.47137180596803546 -0.07762412352137923
0.909039485649473 -0.03728195574598849
1.4674430769671691 0.04340237980479299
2.1314905909665915 0.07029715832172015
2.8709980497386756 0.27200799719867386
3.55013755269263 0.7023244534695084
4.138725121919391 1.2940095808419059
4.395288934146441 1.7915629834050584
3.9274372765559384 2.1008529363497206
2.70498617123882 2.154642493383575
1.0750513641493287 2.020168600798939
-0.3134116196676456 1.966379043765085
-1.2340229458941177 1.9394842652481576
-1.3849428354394409 2.0470633793158663
-1.158563001121456 2.221879439675893
-0.9019991888944064 2.410142889294383
-0.8869071999398741 2.598406338912873
-0.9925511226216004 2.786669788531363
-1.0981950453033267 2.934591070374463
-1.1283790232123914 3.055617573700635
-1.1283790232123914 3.1631966877683437
-1.2792989127577146 3.216986244802198
-1.3547588575303762 3.2573284125775888
-1.3547588575303762 3.4590392514545423
-1.294390901712247 3.660750090331496
-1.2642069238031823 3.7952239829161316
-1.2491149348486499 3.8490135399499863
-1.3547588575303762 3.6473027010730323
-1.3849428354394409 3.33801274812837
-1.3698508464849086 2.9480384596329263
-1.2792989127577146 2.598406338912873
-1.1434710121669236 2.2622216074512838
-0.977459133667068 1.8184577619219855
-0.9019991888944064 1.3074569701003695
-0.8416312330762771 0.9174826816049256
-0.7058033324854861 0.5947453394017997
-0.5397914539856306 0.4064818897833096
-0.2983196307131133 0.29890277571560103
-0.056847807440596025 0.1778762723894288
0.10916407105925958 0.016507601287865832
0.18462401583192123 -0.07762412352137923
0.16953202687738889 -0.14486106981369712
0.19971600478645354 -0.1583084590721607
0.24499197165005054 -0.13141368055523356
0.2902679385136475 -0.18520323758908785
0.3204519164227122 -0.23899279462294218
0.3355439053772445 -0.3196771301737237
0.3808198722408415 -0.373466687207578
0.4411878280589708 -0.4272562442414323
0.47137180596803546 -0.40036146572450515
0.5015557838771001 -0.46759841201682306
0.4864637949225678 -0.4944931905337502
0.4562798170135031 -0.5751775260845317
0.41100385014990615 -0.534835358309141
0.47137180596803546 -0.4944931905337502
0.5619237396952295 -0.534835358309141
0.6373836844678911 -0.5617301368260681
0.6222916955133587 -0.628967083118386
0.6373836844678911 -0.723098807927631
0.592107717604294 -0.8037831434784125
0.6826596513314881 -0.723098807927631
0.7128436292405527 -0.6962040294107039
0.7883035740132144 -0.7096514186691675
0.7883035740132144 -0.7768883649614854
0.818487551922279 -0.8710200897707304
0.8486715298313436 -0.9248096468045848
0.9241314746040054 -0.9517044253215119
0.9694074414676023 -0.9382570360630483
1.0297753972857315 -1.0054939823553661
1.0297753972857315 -1.1265204856815385
1.0297753972857315 -1.1668626534569293
1.0599593751947962 -1.1803100427153927
1.1052353420583931 -1.1937574319738564
1.180695286831055 -1.1803100427153927
1.2712472205582488 -1.2609943782661743
1.3014311984673135 -1.3282313245584922
1.2712472205582488 -1.4358104386262007
1.316523187421846 -1.4627052171431278
1.3467071653309104 -1.4358104386262007
1.4221671101035722 -1.4358104386262007
1.512719043830766 -1.3820208815923465
1.512719043830766 -1.4627052171431278
1.512719043830766 -1.5299421634354458
1.5278110327852985 -1.5164947741769823
1.5881789886034277 -1.5030473849185186
1.6787309223306217 -1.4761526064015915
1.7089149002396864 -1.4627052171431278
1.60327097755796 -1.4895999956600552
1.5429030217398307 -1.4895999956600552
1.4976270548762338 -1.4089156601092736
1.4825350659217014 -1.301336546041565
1.4976270548762338 -1.2206522104907835
1.4372590990581045 -1.1668626534569293
1.3919831321945075 -1.1534152641984656
1.3467071653309104 -1.1803100427153927
1.2712472205582488 -1.1265204856815385
1.180695286831055 -0.9785992038384391
1.1203273310129256 -0.8575727005122669
1.0297753972857315 -0.790335754219949
0.9543154525130699 -0.723098807927631
0.818487551922279 -0.6693092508937767
0.7581195961041497 -0.5617301368260681
0.727935618195085 -0.45415102275835945
0.6826596513314881 -0.40036146572450515
0.6524756734224234 -0.373466687207578
0.5468317507406971 -0.3196771301737237
0.4260958391044385 -0.27933496239833294
0.30535992746817986 -0.19865062684755144
0.2600839606045829 -0.10451890203830638
0.24499197165005054 0.0030602120294022507
0.2298999826955182 0.02995499054632941
0.19971600478645354 0.0030602120294022507
0.10916407105925958 -0.050729345004452066
0.048796115241130276 -0.03728195574598849
0.048796115241130276 -0.03728195574598849
0.003520148377533289 0.04340237980479299
-0.026663829531531368 0.08374454758018372
-0.056847807440596025 0.05684976906325657
-0.11721576325872533 0.09719193683864731
-0.13230775221325766 0.09719193683864731
-0.14739974116779 0.11063932609711088
-0.13230775221325766 0.15098149387250162
-0.08703178534966068 0.09719193683864731
-0.13230775221325766 0.07029715832172015
-0.19267570803138698 -0.01038717722906133
-0.23795167489498395 0.07029715832172015
-0.23795167489498395 0.08374454758018372
-0.16249173012232232 0.19132366164789236
-0.13230775221325766 0.20477105090635594
-0.11721576325872533 0.09719193683864731
-0.17758371907685463 0.07029715832172015
-0.22285968594045164 0.05684976906325657
-0.16249173012232232 0.07029715832172015
-0.19267570803138698 0.07029715832172015
-0.13230775221325766 0.13753410461403806
-0.17758371907685463 0.09719193683864731
-0.25304366384951626 0.11063932609711088
-0.2077676969859193 0.13753410461403806
-0.2077676969859193 0.12408671535557447
-0.11721576325872533 0.13753410461403806
-0.102123774304193 0.09719193683864731
-0.13230775221325766 0.04340237980479299
-0.13230775221325766 0.0030602120294022507
-0.19267570803138698 0.016507601287865832
-0.22285968594045164 0.13753410461403806
-0.16249173012232232 0.11063932609711088
-0.14739974116779 0.15098149387250162
-0.13230775221325766 0.13753410461403806
-0.16249173012232232 0.07029715832172015
-0.22285968594045164 0.04340237980479299
-0.16249173012232232 0.04340237980479299
-0.14739974116779 0.08374454758018372
-0.11721576325872533 0.08374454758018372
-0.16249173012232232 0.02995499054632941
-0.23795167489498395 0.02995499054632941
-0.2681356528040486 0.08374454758018372
-0.25304366384951626 0.13753410461403806
-0.2077676969859193 0.1644288831309652
-0.17758371907685463 0.12408671535557447
-0.19267570803138698 0.05684976906325657
-0.2077676969859193 0.04340237980479299
-0.22285968594045164 0.02995499054632941
-0.23795167489498395 0.1778762723894288
-0.22285968594045164 0.24511321868174668
-0.16249173012232232 0.25856060794021024
-0.13230775221325766 0.25856060794021024
-0.11721576325872533 0.20477105090635594
-0.08703178534966068 0.24511321868174668
0.01861213733206562 0.23166582942328312
0.09407208210472726 0.25856060794021024
0.12425606001379191 0.1778762723894288
0.12425606001379191 0.15098149387250162
0.09407208210472726 0.07029715832172015
0.09407208210472726 0.09719193683864731
0.16953202687738889 0.12408671535557447
0.2751759495591152 0.12408671535557447
0.4260958391044385 0.05684976906325657
0.47137180596803546 0.02995499054632941
0.47137180596803546 -0.06417673426291565
0.4562798170135031 -0.06417673426291565
0.4411878280589708 -0.01038717722906133
0.4411878280589708 0.09719193683864731
0.4864637949225678 0.09719193683864731
0.3959118611953738 0.15098149387250162
0.30535992746817986 0.09719193683864731
0.2600839606045829 0.05684976906325657
0.12425606001379191 0.09719193683864731
0.12425606001379191 0.11063932609711088
0.03370412628659795 0.04340237980479299
-0.14739974116779 -0.02383456648752491
-0.25304366384951626 -0.050729345004452066
-0.34359559757671027 -0.01038717722906133
-0.38887156444030724 0.04340237980479299
-0.3285036086221779 0.07029715832172015
-0.3134116196676456 0.11063932609711088
-0.3285036086221779 0.02995499054632941
-0.4039635533948396 -0.02383456648752491
-0.44923952025843655 -0.09107151277984281
-0.4341475313039042 -0.03728195574598849
-0.4643315092129689 -0.03728195574598849
-0.44923952025843655 0.0030602120294022507
-0.5246994650310982 -0.03728195574598849
-0.5699754318946951 -0.01038717722906133
-0.5850674208492275 -0.02383456648752491
-0.5850674208492275 0.05684976906325657
-0.5246994650310982 0.09719193683864731
-0.4794234981675012 0.04340237980479299
-0.5096074760765659 -0.050729345004452066
-0.5699754318946951 -0.09107151277984281
-0.6152513987582922 -0.07762412352137923
-0.6152513987582922 -0.03728195574598849
-0.5246994650310982 0.05684976906325657
-0.5246994650310982 0.05684976906325657
-0.5850674208492275 0.04340237980479299
-0.5548834429401629 0.04340237980479299
-0.4945154871220335 0.016507601287865832
-0.44923952025843655 -0.01038717722906133
-0.3737795754857749 0.05684976906325657
-0.3737795754857749 0.12408671535557447
-0.4190555423493719 0.15098149387250162
-0.4039635533948396 0.02995499054632941
-0.28322764175858095 -0.050729345004452066
-0.08703178534966068 -0.11796629129676997
0.2751759495591152 -0.13141368055523356
0.818487551922279 -0.09107151277984281
1.4070751211490398 -0.050729345004452066
2.116398602012059 0.016507601287865832
2.7653541270569493 0.3123501649740646
3.474677607919969 0.7830087890202899
3.942529265510471 1.2805621915834424
3.9123452876014064 1.7108786478542768
3.082285895102128 1.8587999296973763
1.7994668339668802 1.87224731895584
0.3204519164227122 1.805010372663522
-0.8265392441217447 1.7512208156296676
-1.4905867581211671 1.7512208156296676
-1.5509547139392965 1.805010372663522
-1.3245748796213115 1.9260368759896942
-1.203838967985053 2.1143003256081845
-1.203838967985053 2.316011164485138
-1.3094828906667793 2.504274614103628
-1.3547588575303762 2.6521958959467273
-1.4000348243939733 2.786669788531363
-1.4905867581211671 2.8539067348236813
-1.6415066476664906 2.880801513340608
-1.7018746034846197 2.9614858488913898
-1.7018746034846197 3.0959597414760256
-1.6264146587119581 3.3245653588699065
-1.5811386918483612 3.4186970836791515
-1.6264146587119581 3.4590392514545423
-1.7320585813936844 3.351460137386834
-1.7924265372118138 3.1363019092514164
-1.7773345482572813 2.894248902599072
-1.6415066476664906 2.598406338912873
-1.5056787470756996 2.1949846611589656
-1.4302188023030378 1.7377734263712041
-1.3547588575303762 1.253667413066515
-1.2792989127577146 0.8367983460541442
-1.1283790232123914 0.5409557823679454
-0.932183166803471 0.33924494349099177
-0.6907113435309538 0.1644288831309652
-0.5246994650310982 0.07029715832172015
-0.3285036086221779 -0.06417673426291565
-0.23795167489498395 -0.13141368055523356
-0.17758371907685463 -0.25244018388140577
-0.07193979639512835 -0.23899279462294218
-0.056847807440596025 -0.33312451943218724
-0.056847807440596025 -0.3869140764660416
-0.11721576325872533 -0.4138088549829687
-0.102123774304193 -0.4272562442414323
-0.026663829531531368 -0.4272562442414323
0.0638881041956626 -0.4810458012752866
0.09407208210472726 -0.4944931905337502
0.13934804896832423 -0.5751775260845317
0.12425606001379191 -0.6155196938599224
0.12425606001379191 -0.6693092508937767
0.10916407105925958 -0.628967083118386
0.15444003792285657 -0.6155196938599224
0.09407208210472726 -0.5886249153429952
0.13934804896832423 -0.6424144723768496
0.19971600478645354 -0.7096514186691675
0.19971600478645354 -0.7365461971860946
0.2751759495591152 -0.790335754219949
0.3204519164227122 -0.7768883649614854
0.35063589433177683 -0.8575727005122669
0.35063589433177683 -0.9248096468045848
0.30535992746817986 -0.9517044253215119
0.35063589433177683 -0.9248096468045848
0.3808198722408415 -0.9248096468045848
0.4411878280589708 -0.8979148682876577
0.5015557838771001 -1.0189413716138298
0.6071997065588264 -1.0996257071646114
0.5468317507406971 -1.2206522104907835
0.5770157286497618 -1.2744417675246378
0.592107717604294 -1.234099599749247
0.6675676623769558 -1.2206522104907835
0.7581195961041497 -1.234099599749247
0.7581195961041497 -1.301336546041565
0.818487551922279 -1.4089156601092736
0.8486715298313436 -1.4761526064015915
0.9241314746040054 -1.4627052171431278
0.9241314746040054 -1.5164947741769823
1.0146834083311993 -1.5433895526939094
1.0297753972857315 -1.556836941952373
1.044867386240264 -1.624073888244691
1.0297753972857315 -1.624073888244691
1.090143353103861 -1.5702843312108365
1.1957872757855872 -1.5702843312108365
1.2561552316037166 -1.5971791097277637
1.241063242649184 -1.624073888244691
1.2259712536946519 -1.7047582237954724
1.2259712536946519 -1.6644160560200816
1.2259712536946519 -1.5702843312108365
1.2108792647401196 -1.5164947741769823
1.241063242649184 -1.4089156601092736
1.2108792647401196 -1.3954682708508102
1.1203273310129256 -1.3820208815923465
1.0599593751947962 -1.3416787138169557
1.0146834083311993 -1.234099599749247
0.9844994304221346 -1.0996257071646114
0.909039485649473 -1.0861783179061477
0.7883035740132144 -1.0323887608722935
0.6826596513314881 -0.9651518145799755
0.5468317507406971 -0.8575727005122669
0.4562798170135031 -0.6962040294107039
0.4562798170135031 -0.6155196938599224
0.4260958391044385 -0.5482827475676045
0.35063589433177683 -0.5617301368260681
0.2600839606045829 -0.534835358309141
0.13934804896832423 -0.46759841201682306
0.003520148377533289 -0.3869140764660416
0.003520148377533289 -0.25244018388140577
0.01861213733206562 -0.22554540536447862
-0.07193979639512835 -0.19865062684755144
-0.17758371907685463 -0.19865062684755144
-0.2077676969859193 -0.22554540536447862
-0.23795167489498395 -0.1717558483306243
-0.19267570803138698 -0.13141368055523356
-0.16249173012232232 -0.11796629129676997
-0.28322764175858095 -0.13141368055523356
-0.3285036086221779 -0.11796629129676997
-0.38887156444030724 -0.07762412352137923
-0.4039635533948396 -0.02383456648752491
-0.3586875865312426 0.05684976906325657
-0.3134116196676456 -0.02383456648752491
-0.34359559757671027 -0.10451890203830638
-0.38887156444030724 -0.14486106981369712
-0.38887156444030724 -0.1583084590721607
-0.4039635533948396 -0.10451890203830638
-0.4341475313039042 -0.03728195574598849
-0.4039635533948396 0.016507601287865832
-0.44923952025843655 -0.02383456648752491
-0.4341475313039042 -0.07762412352137923
-0.44923952025843655 -0.06417673426291565
-0.4190555423493719 -0.07762412352137923
-0.3134116196676456 -0.050729345004452066
-0.28322764175858095 -0.06417673426291565
-0.3737795754857749 -0.11796629129676997
-0.4341475313039042 -0.13141368055523356
-0.4643315092129689 -0.09107151277984281
-0.4039635533948396 -0.03728195574598849
-0.34359559757671027 0.016507601287865832
-0.3586875865312426 -0.02383456648752491
-0.2983196307131133 -0.09107151277984281
-0.3586875865312426 -0.13141368055523356
-0.4039635533948396 -0.18520323758908785
-0.4039635533948396 -0.07762412352137923
-0.34359559757671027 0.0030602120294022507
-0.3134116196676456 0.0030602120294022507
-0.3586875865312426 -0.01038717722906133
-0.38887156444030724 -0.09107151277984281
-0.3737795754857749 -0.07762412352137923
-0.3134116196676456 -0.09107151277984281
-0.2983196307131133 -0.050729345004452066
-0.2983196307131133 -0.03728195574598849
-0.38887156444030724 -0.06417673426291565
-0.4190555423493719 -0.050729345004452066
-0.4190555423493719 -0.050729345004452066
-0.4039635533948396 0.04340237980479299
-0.4039635533948396 0.08374454758018372
-0.3586875865312426 0.016507601287865832
-0.3737795754857749 0.016507601287865832
-0.3586875865312426 -0.01038717722906133
-0.3285036086221779 0.016507601287865832
-0.34359559757671027 0.09719193683864731
-0.25304366384951626 0.09719193683864731
-0.16249173012232232 0.19132366164789236
-0.13230775221325766 0.15098149387250162
-0.16249173012232232 0.12408671535557447
-0.13230775221325766 0.09719193683864731
-0.056847807440596025 0.0030602120294022507
0.003520148377533289 0.04340237980479299
0.09407208210472726 0.016507601287865832
0.09407208210472726 -0.02383456648752491
0.09407208210472726 -0.050729345004452066
0.15444003792285657 -0.06417673426291565
0.19971600478645354 -0.02383456648752491
0.3355439053772445 0.02995499054632941
0.35063589433177683 0.016507601287865832
0.3657278832863092 -0.03728195574598849
0.3808198722408415 -0.10451890203830638
0.2751759495591152 -0.07762412352137923
0.3355439053772445 0.0030602120294022507
0.2600839606045829 0.04340237980479299
0.2148079937409859 0.05684976906325657
0.13934804896832423 0.07029715832172015
-0.026663829531531368 -0.01038717722906133
-0.17758371907685463 -0.02383456648752491
-0.25304366384951626 -0.03728195574598849
-0.25304366384951626 -0.03728195574598849
-0.25304366384951626 -0.03728195574598849
-0.34359559757671027 -0.09107151277984281
-0.44923952025843655 -0.13141368055523356
-0.5246994650310982 -0.07762412352137923
-0.5246994650310982 -0.050729345004452066
-0.4945154871220335 0.0030602120294022507
-0.4039635533948396 -0.02383456648752491
-0.4341475313039042 -0.09107151277984281
-0.5096074760765659 -0.13141368055523356
-0.5850674208492275 -0.1583084590721607
-0.5850674208492275 -0.13141368055523356
-0.5699754318946951 -0.03728195574598849
-0.5096074760765659 -0.06417673426291565
-0.5246994650310982 -0.07762412352137923
-0.5699754318946951 -0.07762412352137923
-0.5850674208492275 -0.09107151277984281
-0.5548834429401629 -0.050729345004452066
-0.5096074760765659 -0.06417673426291565
-0.4794234981675012 -0.050729345004452066
-0.5246994650310982 -0.10451890203830638
-0.5699754318946951 -0.11796629129676997
-0.5548834429401629 -0.03728195574598849
-0.5548834429401629 0.016507601287865832
-0.4643315092129689 0.04340237980479299
-0.38887156444030724 0.04340237980479299
-0.3737795754857749 0.07029715832172015
-0.3586875865312426 0.07029715832172015
-0.3737795754857749 0.07029715832172015
-0.28322764175858095 -0.03728195574598849
-0.11721576325872533 -0.10451890203830638
0.16953202687738889 -0.14486106981369712
0.5468317507406971 -0.1717558483306243
1.044867386240264 -0.10451890203830638
1.7541908671032833 0.05684976906325657
2.5842502596025616 0.2854553864571374
3.3690336852382425 0.6619822856941177
3.9576212544650033 1.0519565741895616
4.214185066692052 1.3612465271342238
3.80670136491968 1.6301943123034954
2.7804461160114817 1.8319051511804492
1.3467071653309104 1.9125894867312305
-0.056847807440596025 1.87224731895584
-1.0378270894851973 1.8587999296973763
-1.5358627249847643 1.8319051511804492
-1.4604027802121025 1.87224731895584
-1.1887469790305207 2.033615990057403
-1.0831030563487942 2.275668996709747
-1.0831030563487942 2.4639324463282373
-1.203838967985053 2.598406338912873
-1.3094828906667793 2.7463276207559724
-1.4604027802121025 2.8539067348236813
-1.5207707360302318 2.974933238149853
-1.5811386918483612 3.082512352217562
-1.5207707360302318 3.2304336340606614
-1.4151268133485055 3.297670580352979
-1.3849428354394409 3.405249694420688
-1.4302188023030378 3.432144472937615
-1.5056787470756996 3.4724866407130057
-1.5962306808028934 3.3918023051622246
-1.6415066476664906 3.1900914662852706
-1.5509547139392965 2.8673541240821447
-1.5207707360302318 2.4235902785528465
-1.3547588575303762 2.0067212115404756
-1.2340229458941177 1.5360625874942504
-1.0831030563487942 1.132640909740343
-0.9472751557580034 0.7561140105033627
-0.7812632772581478 0.4333766683002368
-0.6303433877128245 0.27200799719867386
-0.4794234981675012 0.15098149387250162
-0.3134116196676456 0.05684976906325657
-0.11721576325872533 0.07029715832172015
0.01861213733206562 0.02995499054632941
0.12425606001379191 -0.07762412352137923
0.13934804896832423 -0.19865062684755144
0.13934804896832423 -0.27933496239833294
0.12425606001379191 -0.33312451943218724
0.12425606001379191 -0.33312451943218724
0.19971600478645354 -0.3196771301737237
0.2600839606045829 -0.30622974091526006
0.2600839606045829 -0.40036146572450515
0.30535992746817986 -0.4407036334998959
0.2902679385136475 -0.4810458012752866
0.3355439053772445 -0.4944931905337502
0.3959118611953738 -0.5213879690506774
0.4411878280589708 -0.6020723046014589
0.4260958391044385 -0.628967083118386
0.3808198722408415 -0.6155196938599224
0.3657278832863092 -0.628967083118386
0.4411878280589708 -0.6155196938599224
0.4864637949225678 -0.6020723046014589
0.5619237396952295 -0.6424144723768496
0.592107717604294 -0.723098807927631
0.592107717604294 -0.7768883649614854
0.6071997065588264 -0.8441253112538033
0.6524756734224234 -0.8441253112538033
0.6977516402860204 -0.8306779219953397
0.7128436292405527 -0.8441253112538033
0.727935618195085 -0.8979148682876577
0.727935618195085 -0.9248096468045848
0.7430276071496174 -0.9785992038384391
0.8486715298313436 -0.9920465930969027
0.9241314746040054 -1.0189413716138298
0.999591419376667 -1.072730928647684
1.0297753972857315 -1.1534152641984656
1.0297753972857315 -1.2206522104907835
1.0146834083311993 -1.2609943782661743
1.0297753972857315 -1.2072048212323199
1.1052353420583931 -1.234099599749247
1.2259712536946519 -1.2609943782661743
1.2712472205582488 -1.2878891567831015
1.2863392095127812 -1.4358104386262007
1.3014311984673135 -1.4761526064015915
1.376891143239975 -1.4895999956600552
1.4070751211490398 -1.4492578278846644
1.4825350659217014 -1.4223630493677373
1.4674430769671691 -1.4223630493677373
1.4674430769671691 -1.4895999956600552
1.4976270548762338 -1.5030473849185186
1.5429030217398307 -1.4761526064015915
1.6183629665124923 -1.3820208815923465
1.7089149002396864 -1.4089156601092736
1.6636389333760895 -1.3820208815923465
1.60327097755796 -1.3954682708508102
1.5278110327852985 -1.3551261030754194
1.512719043830766 -1.2475469890077107
1.4674430769671691 -1.1130730964230748
1.4523510880126367 -1.0189413716138298
1.3316151763763782 -1.0189413716138298
1.2561552316037166 -1.0054939823553661
1.1505113089219903 -0.9651518145799755
1.1052353420583931 -0.8306779219953397
1.044867386240264 -0.7499935864445583
1.044867386240264 -0.6827566401522404
0.9392234635585376 -0.6558618616353131
0.773211585058682 -0.5482827475676045
0.7128436292405527 -0.46759841201682306
0.6675676623769558 -0.3196771301737237
0.6373836844678911 -0.25244018388140577
0.6524756734224234 -0.19865062684755144
0.5770157286497618 -0.21209801610601503
0.4411878280589708 -0.21209801610601503
0.3657278832863092 -0.1583084590721607
0.2751759495591152 -0.06417673426291565
0.2148079937409859 0.07029715832172015
0.24499197165005054 0.05684976906325657
0.19971600478645354 0.07029715832172015
0.13934804896832423 0.05684976906325657
0.10916407105925958 0.05684976906325657
0.07898009315019493 0.016507601287865832
0.07898009315019493 0.08374454758018372
0.0638881041956626 0.09719193683864731
0.03370412628659795 0.07029715832172015
-0.041755818486063696 0.04340237980479299
-0.102123774304193 0.11063932609711088
-0.102123774304193 0.1778762723894288
-0.056847807440596025 0.21821844016481953
-0.041755818486063696 0.23166582942328312
0.01861213733206562 0.15098149387250162
-0.056847807440596025 0.08374454758018372
-0.08703178534966068 0.09719193683864731
-0.07193979639512835 0.09719193683864731
-0.041755818486063696 0.1644288831309652
-0.011571840576999039 0.1644288831309652
-0.056847807440596025 0.20477105090635594
-0.102123774304193 0.1778762723894288
-0.11721576325872533 0.19132366164789236
-0.07193979639512835 0.19132366164789236
-0.011571840576999039 0.15098149387250162
0.01861213733206562 0.09719193683864731
-0.011571840576999039 0.08374454758018372
-0.056847807440596025 0.04340237980479299
-0.11721576325872533 0.08374454758018372
-0.13230775221325766 0.15098149387250162
-0.102123774304193 0.21821844016481953
-0.07193979639512835 0.1644288831309652
-0.07193979639512835 0.15098149387250162
-0.07193979639512835 0.05684976906325657
-0.056847807440596025 0.02995499054632941
-0.102123774304193 0.04340237980479299
-0.056847807440596025 0.09719193683864731
-0.026663829531531368 0.11063932609711088
-0.07193979639512835 0.11063932609711088
-0.08703178534966068 0.07029715832172015
-0.11721576325872533 0.11063932609711088
-0.14739974116779 0.13753410461403806
-0.056847807440596025 0.12408671535557447
-0.011571840576999039 0.09719193683864731
0.003520148377533289 0.04340237980479299
-0.102123774304193 0.07029715832172015
-0.2077676969859193 0.08374454758018372
-0.14739974116779 0.1644288831309652
-0.11721576325872533 0.20477105090635594
-0.08703178534966068 0.21821844016481953
-0.07193979639512835 0.20477105090635594
-0.07193979639512835 0.1778762723894288
-0.08703178534966068 0.1644288831309652
-0.08703178534966068 0.20477105090635594
0.03370412628659795 0.2854553864571374
0.09407208210472726 0.24511321868174668
0.09407208210472726 0.2854553864571374
0.07898009315019493 0.23166582942328312
0.12425606001379191 0.2854553864571374
0.18462401583192123 0.25856060794021024
0.2600839606045829 0.24511321868174668
0.3657278832863092 0.1778762723894288
0.3959118611953738 0.05684976906325657
0.35063589433177683 -0.02383456648752491
0.41100385014990615 -0.050729345004452066
0.4562798170135031 0.0030602120294022507
0.5619237396952295 0.07029715832172015
0.6373836844678911 0.09719193683864731
0.6222916955133587 0.08374454758018372
0.5468317507406971 0.07029715832172015
0.47137180596803546 0.07029715832172015
0.5166477728316324 0.04340237980479299
0.4864637949225678 0.05684976906325657
0.47137180596803546 0.09719193683864731
0.35063589433177683 0.07029715832172015
0.19971600478645354 0.05684976906325657
0.01861213733206562 0.11063932609711088
-0.056847807440596025 0.09719193683864731
-0.102123774304193 0.08374454758018372
-0.102123774304193 0.02995499054632941
-0.17758371907685463 -0.03728195574598849
-0.23795167489498395 -0.03728195574598849
-0.3285036086221779 -0.07762412352137923
-0.34359559757671027 -0.050729345004452066
-0.3586875865312426 0.05684976906325657
-0.3285036086221779 0.04340237980479299
-0.38887156444030724 -0.02383456648752491
-0.4190555423493719 -0.02383456648752491
-0.4341475313039042 -0.03728195574598849
-0.4039635533948396 -0.03728195574598849
-0.38887156444030724 -0.02383456648752491
-0.38887156444030724 -0.03728195574598849
-0.4794234981675012 -0.06417673426291565
-0.5096074760765659 -0.03728195574598849
-0.5397914539856306 -0.01038717722906133
-0.5096074760765659 0.02995499054632941
-0.5096074760765659 0.05684976906325657
-0.44923952025843655 0.02995499054632941
-0.4039635533948396 -0.03728195574598849
-0.4341475313039042 -0.06417673426291565
-0.4643315092129689 -0.07762412352137923
-0.4794234981675012 -0.03728195574598849
-0.4341475313039042 0.04340237980479299
-0.3737795754857749 0.07029715832172015
-0.4341475313039042 0.07029715832172015
-0.4039635533948396 0.04340237980479299
-0.38887156444030724 0.11063932609711088
-0.3134116196676456 0.13753410461403806
-0.17758371907685463 0.05684976906325657
-0.011571840576999039 -0.07762412352137923
0.19971600478645354 -0.19865062684755144
0.5166477728316324 -0.22554540536447862
0.9694074414676023 -0.11796629129676997
1.7692828560578158 0.05684976906325657
2.569158270648029 0.3123501649740646
3.3388497073291776 0.7426666212448991
3.9123452876014064 1.15953568825727
4.184001088782988 1.4419308626850054
3.8821613096923415 1.7512208156296676
2.9011820276477405 1.9260368759896942
1.512719043830766 1.9798264330235484
0.09407208210472726 1.993273822282012
-1.0529190784397298 1.9529316545066213
-1.5509547139392965 1.9125894867312305
-1.5207707360302318 2.020168600798939
-1.2189309569395852 2.275668996709747
-1.0529190784397298 2.504274614103628
-1.0981950453033267 2.5580641711374823
-1.2491149348486499 2.6790906744636547
-1.4151268133485055 2.786669788531363
-1.5207707360302318 2.9480384596329263
-1.6264146587119581 3.1631966877683437
-1.6867826145300875 3.297670580352979
-1.5811386918483612 3.4590392514545423
-1.5056787470756996 3.52627619774686
-1.5207707360302318 3.52627619774686
-1.5509547139392965 3.5800657547807146
-1.5811386918483612 3.52627619774686
-1.6113226697574259 3.3783549159037607
-1.6264146587119581 3.122854519992953
-1.6113226697574259 2.800117177789827
-1.5509547139392965 2.4370376678113104
-1.4453107912575702 2.033615990057403
-1.294390901712247 1.5898521445281046
-1.1434710121669236 1.1864304667741972
-1.0076431115761326 0.809903567537217
-0.8718152109853418 0.39303450052484606
-0.7359873103945508 0.15098149387250162
-0.6001594098037598 0.016507601287865832
-0.4190555423493719 0.02995499054632941
-0.23795167489498395 -0.01038717722906133
-0.11721576325872533 -0.09107151277984281
-0.08703178534966068 -0.14486106981369712
-0.041755818486063696 -0.2658875731398693
-0.08703178534966068 -0.3600192979491144
-0.011571840576999039 -0.40036146572450515
0.048796115241130276 -0.4138088549829687
0.10916407105925958 -0.45415102275835945
0.10916407105925958 -0.5213879690506774
0.07898009315019493 -0.5617301368260681
0.0638881041956626 -0.5886249153429952
0.09407208210472726 -0.5751775260845317
0.15444003792285657 -0.6020723046014589
0.2298999826955182 -0.6155196938599224
0.2600839606045829 -0.6693092508937767
0.2298999826955182 -0.7768883649614854
0.2751759495591152 -0.7768883649614854
0.19971600478645354 -0.8172305327368761
0.18462401583192123 -0.723098807927631
0.2902679385136475 -0.7365461971860946
0.3204519164227122 -0.790335754219949
0.3355439053772445 -0.8306779219953397
0.3808198722408415 -0.8710200897707304
0.3959118611953738 -0.9113622575461212
0.5015557838771001 -0.9113622575461212
0.5468317507406971 -0.9920465930969027
0.5468317507406971 -1.045836150130757
0.5468317507406971 -1.1130730964230748
0.5317397617861648 -1.139967874940002
0.5770157286497618 -1.1265204856815385
0.6373836844678911 -1.1265204856815385
0.773211585058682 -1.139967874940002
0.7883035740132144 -1.2206522104907835
0.773211585058682 -1.3416787138169557
0.7883035740132144 -1.3820208815923465
0.8335795408768113 -1.4223630493677373
0.909039485649473 -1.4358104386262007
0.9844994304221346 -1.4492578278846644
0.9694074414676023 -1.4627052171431278
0.999591419376667 -1.4895999956600552
0.999591419376667 -1.5299421634354458
1.044867386240264 -1.5030473849185186
1.1656032978765225 -1.5433895526939094
1.2259712536946519 -1.5971791097277637
1.2561552316037166 -1.6644160560200816
1.241063242649184 -1.7316530023123995
1.2108792647401196 -1.7451003915708632
1.241063242649184 -1.6644160560200816
1.2863392095127812 -1.5971791097277637
1.3617991542854428 -1.5971791097277637
1.376891143239975 -1.6106264989862273
1.3919831321945075 -1.6375212775031545
1.3014311984673135 -1.6106264989862273
1.3467071653309104 -1.5702843312108365
1.3617991542854428 -1.5299421634354458
1.3467071653309104 -1.4895999956600552
1.2863392095127812 -1.4492578278846644
1.180695286831055 -1.4223630493677373
1.044867386240264 -1.2609943782661743
0.9844994304221346 -1.1937574319738564
0.9694074414676023 -1.072730928647684
0.9392234635585376 -1.0054939823553661
0.8486715298313436 -0.9920465930969027
0.727935618195085 -0.9517044253215119
0.6524756734224234 -0.9113622575461212
0.5619237396952295 -0.8037831434784125
0.5015557838771001 -0.6693092508937767
0.4562798170135031 -0.6424144723768496
0.3808198722408415 -0.4944931905337502
0.30535992746817986 -0.46759841201682306
0.2148079937409859 -0.4272562442414323
0.18462401583192123 -0.3465719086906508
0.13934804896832423 -0.30622974091526006
0.15444003792285657 -0.2927823516567965
0.07898009315019493 -0.25244018388140577
-0.056847807440596025 -0.2658875731398693
-0.14739974116779 -0.23899279462294218
-0.19267570803138698 -0.10451890203830638
-0.17758371907685463 -0.06417673426291565
-0.17758371907685463 -0.06417673426291565
-0.25304366384951626 -0.06417673426291565
-0.2681356528040486 -0.09107151277984281
-0.28322764175858095 -0.11796629129676997
-0.3134116196676456 -0.09107151277984281
-0.2983196307131133 -0.050729345004452066
-0.3134116196676456 -0.06417673426291565
-0.3737795754857749 -0.06417673426291565
-0.4190555423493719 -0.07762412352137923
-0.4341475313039042 0.0030602120294022507
-0.4190555423493719 -0.01038717722906133
-0.3737795754857749 0.016507601287865832
-0.3134116196676456 0.0030602120294022507
-0.3737795754857749 -0.03728195574598849
-0.38887156444030724 -0.07762412352137923
-0.4341475313039042 -0.050729345004452066
-0.4341475313039042 -0.03728195574598849
-0.4190555423493719 0.0030602120294022507
-0.3586875865312426 0.04340237980479299
-0.38887156444030724 0.05684976906325657
-0.4190555423493719 0.0030602120294022507
-0.4643315092129689 -0.02383456648752491
-0.4039635533948396 -0.02383456648752491
-0.38887156444030724 -0.01038717722906133
-0.3586875865312426 -0.050729345004452066
-0.3586875865312426 -0.050729345004452066
-0.4190555423493719 -0.09107151277984281
-0.4341475313039042 -0.06417673426291565
-0.4341475313039042 -0.01038717722906133
-0.4039635533948396 0.02995499054632941
-0.3586875865312426 0.07029715832172015
-0.3737795754857749 -0.01038717722906133
-0.4039635533948396 -0.03728195574598849
-0.38887156444030724 -0.06417673426291565
-0.3586875865312426 -0.09107151277984281
-0.34359559757671027 -0.03728195574598849
-0.3285036086221779 -0.03728195574598849
-0.34359559757671027 -0.050729345004452066
-0.4039635533948396 -0.050729345004452066
-0.44923952025843655 0.016507601287865832
-0.44923952025843655 0.04340237980479299
-0.3737795754857749 0.02995499054632941
-0.3285036086221779 0.04340237980479299
-0.34359559757671027 0.0030602120294022507
-0.3737795754857749 -0.07762412352137923
-0.38887156444030724 -0.03728195574598849
-0.4190555423493719 -0.01038717722906133
-0.4190555423493719 0.05684976906325657
-0.3737795754857749 0.09719193683864731
-0.4190555423493719 0.11063932609711088
-0.4039635533948396 0.11063932609711088
-0.4341475313039042 0.1644288831309652
-0.4039635533948396 0.15098149387250162
-0.2983196307131133 0.13753410461403806
-0.25304366384951626 0.11063932609711088
-0.17758371907685463 0.08374454758018372
-0.19267570803138698 0.11063932609711088
-0.19267570803138698 0.11063932609711088
-0.17758371907685463 0.12408671535557447
-0.11721576325872533 0.19132366164789236
0.003520148377533289 0.12408671535557447
0.03370412628659795 0.05684976906325657
0.048796115241130276 0.016507601287865832
0.0638881041956626 -0.050729345004452066
0.15444003792285657 -0.09107151277984281
0.2298999826955182 -0.11796629129676997
0.2902679385136475 -0.09107151277984281
0.30535992746817986 -0.09107151277984281
0.2751759495591152 -0.09107151277984281
0.24499197165005054 -0.03728195574598849
0.2751759495591152 -0.01038717722906133
0.30535992746817986 0.07029715832172015
0.35063589433177683 0.04340237980479299
0.2902679385136475 0.02995499054632941
0.2148079937409859 -0.050729345004452066
0.10916407105925958 -0.10451890203830638
0.048796115241130276 -0.050729345004452066
-0.011571840576999039 -0.01038717722906133
-0.11721576325872533 0.02995499054632941
-0.23795167489498395 -0.02383456648752491
-0.3586875865312426 -0.02383456648752491
-0.4341475313039042 -0.06417673426291565
-0.4643315092129689 -0.06417673426291565
-0.4341475313039042 -0.050729345004452066
-0.4039635533948396 -0.09107151277984281
-0.4794234981675012 -0.14486106981369712
-0.5850674208492275 -0.19865062684755144
-0.6454353766673568 -0.1583084590721607
-0.6756193545764215 -0.10451890203830638
-0.6454353766673568 -0.050729345004452066
-0.6152513987582922 -0.02383456648752491
-0.6756193545764215 -0.02383456648752491
-0.7359873103945508 -0.09107151277984281
-0.7208953214400184 -0.13141368055523356
-0.6454353766673568 -0.11796629129676997
-0.6454353766673568 -0.09107151277984281
-0.6454353766673568 -0.07762412352137923
-0.6907113435309538 -0.09107151277984281
-0.7359873103945508 -0.09107151277984281
-0.7661712883036155 -0.050729345004452066
-0.7510792993490831 -0.02383456648752491
-0.7208953214400184 0.016507601287865832
-0.6907113435309538 -0.050729345004452066
-0.6454353766673568 -0.10451890203830638
-0.6605273656218892 -0.1717558483306243
-0.7058033324854861 -0.1717558483306243
-0.7058033324854861 -0.10451890203830638
-0.6756193545764215 -0.03728195574598849
-0.6605273656218892 -0.01038717722906133
-0.6454353766673568 0.05684976906325657
-0.6454353766673568 0.07029715832172015
-0.6001594098037598 0.08374454758018372
-0.5397914539856306 0.0030602120294022507
-0.34359559757671027 -0.14486106981369712
-0.13230775221325766 -0.21209801610601503
0.15444003792285657 -0.27933496239833294
0.47137180596803546 -0.25244018388140577
0.9844994304221346 -0.1717558483306243
1.6787309223306217 0.08374454758018372
2.433330370057238 0.3661397220079189
3.127561861965725 0.7964561782787535
3.625597497465292 1.1729830775157337
3.7916093759651477 1.4688256412019325
3.429401641056372 1.7377734263712041
2.478606336920835 1.8587999296973763
1.1203273310129256 1.8856947082143034
-0.19267570803138698 1.8453525404389126
-1.2189309569395852 1.8184577619219855
-1.7018746034846197 1.87224731895584
-1.7320585813936844 1.966379043765085
-1.475494769166635 2.1411951041251114
-1.294390901712247 2.3966955000359196
-1.3094828906667793 2.5311693926205554
-1.4453107912575702 2.598406338912873
-1.6415066476664906 2.6253011174298004
-1.7471505703482169 2.8135645670482905
-1.8377025040754107 2.988380627408317
-1.8377025040754107 3.1631966877683437
-1.8226105151208785 3.270775801836052
-1.7924265372118138 3.351460137386834
-1.7471505703482169 3.432144472937615
-1.762242559302749 3.4590392514545423
-1.7924265372118138 3.4590392514545423
-1.762242559302749 3.3918023051622246
-1.7924265372118138 3.176644077026807
-1.8377025040754107 2.880801513340608
-1.8527944930299431 2.544616781879019
-1.762242559302749 2.2353268289343564
-1.6113226697574259 1.8856947082143034
-1.4604027802121025 1.5360625874942504
-1.2792989127577146 1.0788513527064887
-1.158563001121456 0.6350875071771905
-1.0981950453033267 0.2854553864571374
-0.932183166803471 0.08374454758018372
-0.7510792993490831 0.0030602120294022507
-0.5096074760765659 0.016507601287865832
-0.3586875865312426 -0.10451890203830638
-0.28322764175858095 -0.14486106981369712
-0.3285036086221779 -0.22554540536447862
-0.34359559757671027 -0.27933496239833294
-0.25304366384951626 -0.30622974091526006
-0.19267570803138698 -0.3465719086906508
-0.102123774304193 -0.4138088549829687
-0.102123774304193 -0.5079405797922137
-0.102123774304193 -0.5751775260845317
-0.16249173012232232 -0.6020723046014589
-0.14739974116779 -0.6424144723768496
-0.11721576325872533 -0.5213879690506774
-0.026663829531531368 -0.6424144723768496
-0.041755818486063696 -0.6693092508937767
-0.026663829531531368 -0.723098807927631
-0.026663829531531368 -0.7768883649614854
0.03370412628659795 -0.8172305327368761
0.07898009315019493 -0.7768883649614854
0.13934804896832423 -0.8306779219953397
0.10916407105925958 -0.884467479029194
0.07898009315019493 -0.884467479029194
0.0638881041956626 -0.8710200897707304
0.10916407105925958 -0.8710200897707304
0.19971600478645354 -0.8710200897707304
0.24499197165005054 -0.9113622575461212
0.2902679385136475 -0.9920465930969027
0.30535992746817986 -1.072730928647684
0.2751759495591152 -1.1265204856815385
0.3204519164227122 -1.1668626534569293
0.3808198722408415 -1.0996257071646114
0.4260958391044385 -1.1534152641984656
0.4411878280589708 -1.1803100427153927
0.47137180596803546 -1.2475469890077107
0.4562798170135031 -1.3147839353000286
0.5770157286497618 -1.3282313245584922
0.6071997065588264 -1.3282313245584922
0.7128436292405527 -1.3820208815923465
0.727935618195085 -1.5433895526939094
0.6977516402860204 -1.5433895526939094
0.6524756734224234 -1.5702843312108365
0.6826596513314881 -1.556836941952373
0.7581195961041497 -1.5299421634354458
0.863763518785876 -1.5299421634354458
0.8939474966949407 -1.624073888244691
0.8788555077404083 -1.7047582237954724
0.8939474966949407 -1.7047582237954724
0.9543154525130699 -1.718205613053936
1.0297753972857315 -1.6778634452785453
1.044867386240264 -1.7047582237954724
1.044867386240264 -1.6913108345370087
1.044867386240264 -1.7316530023123995
1.044867386240264 -1.6913108345370087
1.0297753972857315 -1.624073888244691
1.090143353103861 -1.5837317204693002
1.1505113089219903 -1.5433895526939094
1.1052353420583931 -1.5702843312108365
0.999591419376667 -1.5164947741769823
0.909039485649473 -1.4761526064015915
0.8335795408768113 -1.3954682708508102
0.7883035740132144 -1.2878891567831015
0.7581195961041497 -1.1668626534569293
0.6222916955133587 -1.0861783179061477
0.5619237396952295 -1.0592835393892206
0.4260958391044385 -1.0054939823553661
0.3959118611953738 -0.9517044253215119
0.3657278832863092 -0.8306779219953397
0.35063589433177683 -0.7768883649614854
0.19971600478645354 -0.7499935864445583
0.10916407105925958 -0.7096514186691675
0.003520148377533289 -0.6155196938599224
-0.07193979639512835 -0.4810458012752866
-0.102123774304193 -0.40036146572450515
-0.056847807440596025 -0.373466687207578
-0.14739974116779 -0.3600192979491144
-0.19267570803138698 -0.3600192979491144
-0.3134116196676456 -0.3600192979491144
-0.3285036086221779 -0.33312451943218724
-0.3737795754857749 -0.25244018388140577
-0.4039635533948396 -0.21209801610601503
-0.4945154871220335 -0.19865062684755144
-0.4945154871220335 -0.21209801610601503
-0.5850674208492275 -0.19865062684755144
-0.6001594098037598 -0.1717558483306243
-0.5699754318946951 -0.1583084590721607
-0.5397914539856306 -0.14486106981369712
-0.5699754318946951 -0.1717558483306243
-0.6454353766673568 -0.21209801610601503
-0.7058033324854861 -0.18520323758908785
-0.7058033324854861 -0.13141368055523356
-0.6605273656218892 -0.07762412352137923
-0.6605273656218892 -0.09107151277984281
-0.6303433877128245 -0.10451890203830638
-0.6303433877128245 -0.19865062684755144
-0.6605273656218892 -0.19865062684755144
-0.6907113435309538 -0.21209801610601503
-0.6605273656218892 -0.1583084590721607
-0.6303433877128245 -0.1717558483306243
-0.6907113435309538 -0.13141368055523356
-0.7359873103945508 -0.18520323758908785
-0.7208953214400184 -0.14486106981369712
-0.6605273656218892 -0.14486106981369712
-0.6152513987582922 -0.13141368055523356
-0.5699754318946951 -0.19865062684755144
-0.5699754318946951 -0.18520323758908785
-0.6001594098037598 -0.25244018388140577
-0.6454353766673568 -0.23899279462294218
-0.7058033324854861 -0.21209801610601503
-0.6605273656218892 -0.1717558483306243
-0.6152513987582922 -0.10451890203830638
-0.6152513987582922 -0.1717558483306243
-0.6454353766673568 -0.21209801610601503
-0.6303433877128245 -0.18520323758908785
-0.6605273656218892 -0.22554540536447862
-0.6001594098037598 -0.19865062684755144
-0.5850674208492275 -0.21209801610601503
-0.6001594098037598 -0.19865062684755144
-0.6605273656218892 -0.25244018388140577
-0.7359873103945508 -0.25244018388140577
-0.7058033324854861 -0.1717558483306243
-0.7058033324854861 -0.09107151277984281
-0.6454353766673568 -0.10451890203830638
-0.6605273656218892 -0.09107151277984281
-0.6152513987582922 -0.1583084590721607
-0.6605273656218892 -0.11796629129676997
-0.5699754318946951 -0.10451890203830638
-0.5397914539856306 -0.07762412352137923
-0.4945154871220335 -0.06417673426291565
-0.4341475313039042 -0.06417673426291565
-0.44923952025843655 -0.02383456648752491
-0.44923952025843655 -0.06417673426291565
-0.38887156444030724 -0.03728195574598849
-0.3285036086221779 -0.07762412352137923
-0.2983196307131133 -0.13141368055523356
-0.23795167489498395 -0.21209801610601503
-0.22285968594045164 -0.2658875731398693
-0.17758371907685463 -0.30622974091526006
-0.14739974116779 -0.23899279462294218
-0.07193979639512835 -0.23899279462294218
-0.011571840576999039 -0.1717558483306243
-0.026663829531531368 -0.19865062684755144
-0.041755818486063696 -0.23899279462294218
-0.026663829531531368 -0.23899279462294218
0.003520148377533289 -0.22554540536447862
0.03370412628659795 -0.14486106981369712
0.03370412628659795 -0.1583084590721607
-0.07193979639512835 -0.21209801610601503
-0.17758371907685463 -0.23899279462294218
-0.3285036086221779 -0.23899279462294218
-0.38887156444030724 -0.14486106981369712
-0.4794234981675012 -0.10451890203830638
-0.5246994650310982 -0.13141368055523356
-0.5850674208492275 -0.22554540536447862
-0.6907113435309538 -0.30622974091526006
-0.7812632772581478 -0.2927823516567965
-0.7661712883036155 -0.2658875731398693
-0.8114472551672124 -0.27933496239833294
-0.8114472551672124 -0.23899279462294218
-0.9170911778489387 -0.25244018388140577
-0.932183166803471 -0.2927823516567965
-0.9623671447125357 -0.2658875731398693
-0.932183166803471 -0.25244018388140577
-0.8869071999398741 -0.18520323758908785
-0.8567232220308094 -0.23899279462294218
-0.9170911778489387 -0.3196771301737237
-0.9472751557580034 -0.3465719086906508
-1.0378270894851973 -0.373466687207578
-1.0378270894851973 -0.30622974091526006
-1.0076431115761326 -0.19865062684755144
-1.022735100530665 -0.19865062684755144
-1.022735100530665 -0.19865062684755144
-1.0378270894851973 -0.23899279462294218
-1.0831030563487942 -0.30622974091526006
-1.0831030563487942 -0.2658875731398693
-1.022735100530665 -0.22554540536447862
-0.977459133667068 -0.23899279462294218
-0.9925511226216004 -0.27933496239833294
-1.0529190784397298 -0.2927823516567965
-1.0981950453033267 -0.2658875731398693
-1.068011067394262 -0.21209801610601503
-0.9623671447125357 -0.1583084590721607
-0.8869071999398741 -0.1583084590721607
-0.8567232220308094 -0.14486106981369712
-0.8567232220308094 -0.1583084590721607
-0.8567232220308094 -0.1583084590721607
-0.8114472551672124 -0.23899279462294218
-0.6454353766673568 -0.30622974091526006
-0.44923952025843655 -0.40036146572450515
-0.22285968594045164 -0.4138088549829687
0.18462401583192123 -0.40036146572450515
0.6826596513314881 -0.3465719086906508
1.3467071653309104 -0.18520323758908785
2.0862146241029946 0.09719193683864731
2.735170149147885 0.4064818897833096
3.248297773601984 0.7023244534695084
3.429401641056372 0.97127223863878
3.1426538509202575 1.226772634549588
2.342778436330044 1.482273030460396
1.1505113089219903 1.5629573660111775
-0.102123774304193 1.5629573660111775
-1.1887469790305207 1.5091678089773233
-1.8829784709390078 1.4553782519434688
-2.079174327347928 1.5360625874942504
-1.9282544378026047 1.6974312585958133
-1.6565986366210228 1.8453525404389126
-1.6113226697574259 2.0067212115404756
-1.7169665924391522 2.087405547091257
-1.9131624488480723 2.181537271900502
-2.0188063715297986 2.3832481107774557
-2.079174327347928 2.5177220033620915
-2.1546342721205898 2.692538063722118
-2.109358305256993 2.7194328422390455
-2.1395422831660573 2.7732223992728997
-2.0489903494388635 2.800117177789827
-2.0640823383933955 2.9076962918575355
-2.079174327347928 3.028722795183708
-2.0640823383933955 3.122854519992953
-2.1395422831660573 3.109407130734489
-2.169726261075122 2.9614858488913898
-2.2904621727113805 2.692538063722118
-2.305554161665913 2.450485057069774
-2.169726261075122 2.1680898826420387
-1.9886223936207341 1.87224731895584
-1.807518526166346 1.5360625874942504
-1.7471505703482169 1.1191935204818795
-1.671690625575555 0.7292192319864356
-1.5962306808028934 0.33924494349099177
-1.475494769166635 0.12408671535557447
-1.3094828906667793 -0.02383456648752491
-1.1283790232123914 -0.07762412352137923
-0.932183166803471 -0.14486106981369712
-0.8114472551672124 -0.2658875731398693
-0.7359873103945508 -0.3196771301737237
-0.6756193545764215 -0.3465719086906508
-0.5850674208492275 -0.373466687207578
-0.5548834429401629 -0.4944931905337502
-0.5246994650310982 -0.5886249153429952
-0.5096074760765659 -0.6424144723768496
-0.5548834429401629 -0.6827566401522404
-0.4945154871220335 -0.6558618616353131
-0.4341475313039042 -0.6155196938599224
-0.3586875865312426 -0.6155196938599224
-0.34359559757671027 -0.7096514186691675
-0.38887156444030724 -0.7634409757030218
-0.3737795754857749 -0.8037831434784125
-0.38887156444030724 -0.8306779219953397
-0.2681356528040486 -0.8172305327368761
-0.2077676969859193 -0.8441253112538033
-0.22285968594045164 -0.9113622575461212
-0.2681356528040486 -0.9785992038384391
-0.3134116196676456 -0.9785992038384391
-0.25304366384951626 -0.9248096468045848
-0.16249173012232232 -0.9113622575461212
-0.102123774304193 -0.9785992038384391
-0.056847807440596025 -0.9785992038384391
-0.056847807440596025 -1.045836150130757
-0.056847807440596025 -1.1130730964230748
-0.041755818486063696 -1.1668626534569293
0.003520148377533289 -1.1534152641984656
0.0638881041956626 -1.1265204856815385
0.03370412628659795 -1.2072048212323199
-0.011571840576999039 -1.234099599749247
0.0638881041956626 -1.2744417675246378
0.09407208210472726 -1.301336546041565
0.2148079937409859 -1.301336546041565
0.3355439053772445 -1.3685734923338828
0.3657278832863092 -1.4358104386262007
0.35063589433177683 -1.5030473849185186
0.35063589433177683 -1.5837317204693002
0.3355439053772445 -1.5971791097277637
0.41100385014990615 -1.5837317204693002
0.4864637949225678 -1.5837317204693002
0.5166477728316324 -1.6375212775031545
0.5015557838771001 -1.6778634452785453
0.5317397617861648 -1.7585477808293266
0.6373836844678911 -1.7451003915708632
0.6675676623769558 -1.7451003915708632
0.773211585058682 -1.785442559346254
0.7581195961041497 -1.8392321163801082
0.773211585058682 -1.8930216734139624
0.7581195961041497 -1.8661268948970353
0.7883035740132144 -1.8392321163801082
0.818487551922279 -1.7719951700877903
0.8939474966949407 -1.6913108345370087
0.909039485649473 -1.7451003915708632
0.909039485649473 -1.785442559346254
0.863763518785876 -1.7719951700877903
0.909039485649473 -1.718205613053936
0.9241314746040054 -1.6644160560200816
0.8788555077404083 -1.556836941952373
0.818487551922279 -1.5433895526939094
0.727935618195085 -1.5030473849185186
0.6222916955133587 -1.4492578278846644
0.5770157286497618 -1.3282313245584922
0.5770157286497618 -1.2475469890077107
0.5317397617861648 -1.1668626534569293
0.4864637949225678 -1.1668626534569293
0.41100385014990615 -1.1534152641984656
0.2751759495591152 -1.072730928647684
0.2298999826955182 -0.9920465930969027
0.18462401583192123 -0.9382570360630483
0.09407208210472726 -0.8306779219953397
-0.011571840576999039 -0.7768883649614854
-0.08703178534966068 -0.7096514186691675
-0.19267570803138698 -0.628967083118386
-0.22285968594045164 -0.5617301368260681
-0.22285968594045164 -0.4810458012752866
-0.2077676969859193 -0.4407036334998959
-0.2983196307131133 -0.4272562442414323
-0.4341475313039042 -0.4810458012752866
-0.5548834429401629 -0.4272562442414323
-0.5397914539856306 -0.3465719086906508
-0.5246994650310982 -0.2927823516567965
-0.5397914539856306 -0.19865062684755144
-0.6001594098037598 -0.22554540536447862
-0.6605273656218892 -0.25244018388140577
-0.6907113435309538 -0.2658875731398693
-0.6907113435309538 -0.23899279462294218
-0.7058033324854861 -0.22554540536447862
-0.6454353766673568 -0.22554540536447862
-0.7208953214400184 -0.22554540536447862
-0.7661712883036155 -0.21209801610601503
-0.8416312330762771 -0.25244018388140577
-0.8114472551672124 -0.1717558483306243
-0.7510792993490831 -0.10451890203830638
-0.7208953214400184 -0.11796629129676997
-0.6907113435309538 -0.14486106981369712
-0.79635526621268 -0.22554540536447862
-0.8567232220308094 -0.25244018388140577
-0.8114472551672124 -0.25244018388140577
-0.8265392441217447 -0.19865062684755144
-0.8265392441217447 -0.1717558483306243
-0.79635526621268 -0.18520323758908785
-0.79635526621268 -0.1717558483306243
-0.8567232220308094 -0.19865062684755144
-0.8416312330762771 -0.1717558483306243
-0.7661712883036155 -0.11796629129676997
-0.7208953214400184 -0.19865062684755144
-0.7058033324854861 -0.18520323758908785
-0.7510792993490831 -0.22554540536447862
-0.7510792993490831 -0.23899279462294218
-0.7510792993490831 -0.18520323758908785
-0.7661712883036155 -0.1583084590721607
-0.6756193545764215 -0.14486106981369712
-0.7058033324854861 -0.1583084590721607
-0.7359873103945508 -0.19865062684755144
-0.7661712883036155 -0.19865062684755144
-0.7510792993490831 -0.22554540536447862
-0.6907113435309538 -0.18520323758908785
-0.6756193545764215 -0.19865062684755144
-0.6756193545764215 -0.22554540536447862
-0.6907113435309538 -0.25244018388140577
-0.7661712883036155 -0.21209801610601503
-0.7812632772581478 -0.1717558483306243
-0.7510792993490831 -0.10451890203830638
-0.7058033324854861 -0.07762412352137923
-0.6605273656218892 -0.11796629129676997
-0.6756193545764215 -0.1717558483306243
-0.6907113435309538 -0.22554540536447862
-0.6907113435309538 -0.13141368055523356
-0.6907113435309538 -0.07762412352137923
-0.5850674208492275 -0.050729345004452066
-0.6152513987582922 -0.07762412352137923
-0.6001594098037598 -0.07762412352137923
-0.5850674208492275 -0.07762412352137923
-0.4945154871220335 -0.01038717722906133
-0.4039635533948396 0.05684976906325657
-0.3285036086221779 0.0030602120294022507
-0.2681356528040486 -0.07762412352137923
-0.2681356528040486 -0.1717558483306243
-0.3134116196676456 -0.18520323758908785
-0.23795167489498395 -0.14486106981369712
-0.2077676969859193 -0.11796629129676997
-0.102123774304193 -0.13141368055523356
-0.041755818486063696 -0.19865062684755144
-0.011571840576999039 -0.19865062684755144
-0.056847807440596025 -0.1717558483306243
-0.026663829531531368 -0.13141368055523356
0.003520148377533289 -0.1583084590721607
0.07898009315019493 -0.14486106981369712
0.07898009315019493 -0.1583084590721607
-0.041755818486063696 -0.19865062684755144
-0.056847807440596025 -0.19865062684755144
-0.11721576325872533 -0.11796629129676997
-0.14739974116779 -0.06417673426291565
-0.17758371907685463 -0.06417673426291565
-0.3586875865312426 -0.09107151277984281
-0.5246994650310982 -0.1583084590721607
-0.5699754318946951 -0.19865062684755144
-0.6001594098037598 -0.19865062684755144
-0.6303433877128245 -0.18520323758908785
-0.6605273656218892 -0.21209801610601503
-0.6756193545764215 -0.18520323758908785
-0.7510792993490831 -0.18520323758908785
-0.8416312330762771 -0.19865062684755144
-0.8567232220308094 -0.14486106981369712
-0.79635526621268 -0.11796629129676997
-0.7510792993490831 -0.1583084590721607
-0.7661712883036155 -0.21209801610601503
-0.8265392441217447 -0.2658875731398693
-0.8869071999398741 -0.2658875731398693
-0.9019991888944064 -0.21209801610601503
-0.9019991888944064 -0.1717558483306243
-0.9019991888944064 -0.1717558483306243
-0.8869071999398741 -0.1717558483306243
-0.9170911778489387 -0.1583084590721607
-0.9472751557580034 -0.1583084590721607
-0.932183166803471 -0.1717558483306243
-0.8869071999398741 -0.14486106981369712
-0.8265392441217447 -0.1583084590721607
-0.8416312330762771 -0.19865062684755144
-0.8718152109853418 -0.23899279462294218
-0.932183166803471 -0.21209801610601503
-0.9019991888944064 -0.18520323758908785
-0.8265392441217447 -0.13141368055523356
-0.79635526621268 -0.09107151277984281
-0.7510792993490831 -0.09107151277984281
-0.7812632772581478 -0.13141368055523356
-0.7510792993490831 -0.10451890203830638
-0.7058033324854861 -0.050729345004452066
-0.6152513987582922 -0.050729345004452066
-0.4945154871220335 -0.11796629129676997
-0.3134116196676456 -0.25244018388140577
-0.08703178534966068 -0.3465719086906508
0.2751759495591152 -0.3196771301737237
0.818487551922279 -0.18520323758908785
1.5730869996488954 -0.11796629129676997
2.2522265026028503 0.04340237980479299
2.931366005556805 0.27200799719867386
3.444493630010904 0.5409557823679454
3.7916093759651477 0.877140513829535
3.761425398056083 1.1998778560326608
3.203021806738387 1.5226151982357867
2.101306613057527 1.7377734263712041
0.727935618195085 1.7512208156296676
-0.6152513987582922 1.6839838693373497
-1.5660467028938287 1.6570890908204226
-1.9735304046662017 1.7108786478542768
-1.9282544378026047 1.8184577619219855
-1.6565986366210228 1.9529316545066213
-1.5509547139392965 2.1008529363497206
-1.6264146587119581 2.2084320504174295
-1.7773345482572813 2.356353332260529
-1.8527944930299431 2.504274614103628
-1.8829784709390078 2.705985452980582
-1.943346426757137 2.7597750100144363
-2.003714382575266 2.8135645670482905
-2.0640823383933955 2.8673541240821447
-2.0942663163024604 2.974933238149853
-2.033898360484331 3.109407130734489
-1.9131624488480723 3.216986244802198
-1.9131624488480723 3.311117969611443
-1.9886223936207341 3.2573284125775888
-2.0640823383933955 3.0959597414760256
-2.169726261075122 2.8673541240821447
-2.124450294211525 2.638748506688264
-2.003714382575266 2.356353332260529
-1.807518526166346 1.9260368759896942
-1.6867826145300875 1.4419308626850054
-1.5811386918483612 0.9578248493803164
-1.4453107912575702 0.5678505608848726
-1.3547588575303762 0.33924494349099177
-1.158563001121456 0.15098149387250162
-0.9472751557580034 0.09719193683864731
-0.7661712883036155 -0.02383456648752491
-0.6605273656218892 -0.09107151277984281
-0.5850674208492275 -0.1717558483306243
-0.5246994650310982 -0.22554540536447862
-0.3586875865312426 -0.23899279462294218
-0.3285036086221779 -0.33312451943218724
-0.3285036086221779 -0.40036146572450515
-0.34359559757671027 -0.4810458012752866
-0.2983196307131133 -0.5213879690506774
-0.2983196307131133 -0.5213879690506774
-0.25304366384951626 -0.46759841201682306
-0.19267570803138698 -0.4810458012752866
-0.2077676969859193 -0.5617301368260681
-0.17758371907685463 -0.628967083118386
-0.13230775221325766 -0.6558618616353131
-0.07193979639512835 -0.723098807927631
-0.041755818486063696 -0.6962040294107039
0.01861213733206562 -0.6962040294107039
0.01861213733206562 -0.7634409757030218
-0.026663829531531368 -0.790335754219949
-0.08703178534966068 -0.790335754219949
-0.026663829531531368 -0.7499935864445583
0.07898009315019493 -0.7499935864445583
0.15444003792285657 -0.7499935864445583
0.19971600478645354 -0.8710200897707304
0.15444003792285657 -0.9382570360630483
0.15444003792285657 -0.9382570360630483
0.2298999826955182 -0.9517044253215119
0.2902679385136475 -0.9651518145799755
0.3204519164227122 -0.9651518145799755
0.35063589433177683 -1.045836150130757
0.35063589433177683 -1.0861783179061477
0.35063589433177683 -1.1130730964230748
0.41100385014990615 -1.1130730964230748
0.5468317507406971 -1.139967874940002
0.6071997065588264 -1.1803100427153927
0.6524756734224234 -1.2878891567831015
0.6524756734224234 -1.2878891567831015
0.6373836844678911 -1.3551261030754194
0.6826596513314881 -1.3685734923338828
0.7430276071496174 -1.3820208815923465
0.818487551922279 -1.3954682708508102
0.8335795408768113 -1.4089156601092736
0.8939474966949407 -1.5164947741769823
0.909039485649473 -1.5433895526939094
0.9844994304221346 -1.5433895526939094
1.044867386240264 -1.5433895526939094
1.1354193199674578 -1.5971791097277637
1.1505113089219903 -1.6106264989862273
1.1203273310129256 -1.7047582237954724
1.0750513641493287 -1.6375212775031545
1.1656032978765225 -1.5971791097277637
1.2259712536946519 -1.5299421634354458
1.2712472205582488 -1.556836941952373
1.2863392095127812 -1.556836941952373
1.2712472205582488 -1.6106264989862273
1.2712472205582488 -1.6106264989862273
1.2561552316037166 -1.5433895526939094
1.2561552316037166 -1.4492578278846644
1.2561552316037166 -1.3820208815923465
1.2108792647401196 -1.3551261030754194
1.1052353420583931 -1.3551261030754194
0.9694074414676023 -1.234099599749247
0.8939474966949407 -1.1534152641984656
0.863763518785876 -1.072730928647684
0.818487551922279 -0.9920465930969027
0.6977516402860204 -0.9785992038384391
0.592107717604294 -0.9382570360630483
0.5468317507406971 -0.8441253112538033
0.41100385014990615 -0.7365461971860946
0.3657278832863092 -0.6424144723768496
0.3204519164227122 -0.5213879690506774
0.2298999826955182 -0.5079405797922137
0.09407208210472726 -0.4407036334998959
0.048796115241130276 -0.40036146572450515
-0.026663829531531368 -0.3869140764660416
0.003520148377533289 -0.25244018388140577
-0.026663829531531368 -0.25244018388140577
-0.11721576325872533 -0.27933496239833294
-0.23795167489498395 -0.2927823516567965
-0.3285036086221779 -0.22554540536447862
-0.4039635533948396 -0.13141368055523356
-0.38887156444030724 -0.050729345004452066
-0.3586875865312426 -0.01038717722906133
-0.38887156444030724 -0.07762412352137923
-0.44923952025843655 -0.09107151277984281
-0.4643315092129689 -0.14486106981369712
-0.4794234981675012 -0.07762412352137923
-0.4643315092129689 -0.03728195574598849
-0.4945154871220335 -0.03728195574598849
-0.5246994650310982 -0.02383456648752491
-0.6001594098037598 -0.050729345004452066
-0.6001594098037598 -0.02383456648752491
-0.6152513987582922 0.04340237980479299
-0.5548834429401629 0.07029715832172015
-0.5397914539856306 0.016507601287865832
-0.5246994650310982 -0.02383456648752491
-0.5699754318946951 -0.06417673426291565
-0.6454353766673568 -0.09107151277984281
-0.6303433877128245 -0.03728195574598849
-0.6152513987582922 0.02995499054632941
-0.6001594098037598 0.04340237980479299
-0.5699754318946951 0.04340237980479299
-0.5850674208492275 0.0030602120294022507
-0.5850674208492275 -0.02383456648752491
-0.5548834429401629 -0.01038717722906133
-0.5096074760765659 0.0030602120294022507
-0.4643315092129689 0.02995499054632941
-0.5096074760765659 -0.03728195574598849
-0.5850674208492275 -0.050729345004452066
-0.6152513987582922 -0.02383456648752491
-0.6454353766673568 0.0030602120294022507
-0.5548834429401629 0.05684976906325657
-0.4794234981675012 0.11063932609711088
-0.4794234981675012 0.05684976906325657
-0.4794234981675012 -0.050729345004452066
-0.5246994650310982 -0.02383456648752491
-0.5246994650310982 -0.050729345004452066
-0.4794234981675012 0.016507601287865832
-0.44923952025843655 0.04340237980479299
-0.4190555423493719 0.05684976906325657
-0.44923952025843655 0.08374454758018372
-0.4794234981675012 0.09719193683864731
-0.4190555423493719 0.1778762723894288
-0.3285036086221779 0.20477105090635594
-0.23795167489498395 0.1778762723894288
-0.19267570803138698 0.15098149387250162
-0.2077676969859193 0.11063932609711088
-0.25304366384951626 0.11063932609711088
-0.22285968594045164 0.15098149387250162
-0.19267570803138698 0.13753410461403806
-0.11721576325872533 0.12408671535557447
-0.08703178534966068 0.08374454758018372
-0.08703178534966068 0.04340237980479299
-0.08703178534966068 0.07029715832172015
0.003520148377533289 0.02995499054632941
0.10916407105925958 0.0030602120294022507
0.2148079937409859 -0.02383456648752491
0.2148079937409859 -0.03728195574598849
0.19971600478645354 -0.09107151277984281
0.12425606001379191 -0.050729345004452066
0.12425606001379191 0.0030602120294022507
0.15444003792285657 0.11063932609711088
0.15444003792285657 0.12408671535557447
0.16953202687738889 0.11063932609711088
0.13934804896832423 0.04340237980479299
0.0638881041956626 0.016507601287865832
-0.011571840576999039 0.0030602120294022507
-0.11721576325872533 0.04340237980479299
-0.22285968594045164 0.04340237980479299
-0.3586875865312426 0.04340237980479299
-0.4945154871220335 -0.03728195574598849
-0.5548834429401629 -0.06417673426291565
-0.5850674208492275 -0.02383456648752491
-0.6001594098037598 0.02995499054632941
-0.5850674208492275 -0.01038717722906133
-0.5548834429401629 -0.03728195574598849
-0.6454353766673568 -0.10451890203830638
-0.6907113435309538 -0.10451890203830638
-0.6907113435309538 -0.07762412352137923
-0.6907113435309538 -0.050729345004452066
-0.7058033324854861 -0.02383456648752491
-0.7510792993490831 -0.06417673426291565
-0.79635526621268 -0.10451890203830638
-0.8265392441217447 -0.06417673426291565
-0.79635526621268 -0.03728195574598849
-0.7661712883036155 -0.01038717722906133
-0.7208953214400184 0.016507601287865832
-0.7510792993490831 -0.07762412352137923
-0.7359873103945508 -0.1583084590721607
-0.8718152109853418 -0.09107151277984281
-0.8567232220308094 -0.09107151277984281
-0.79635526621268 0.016507601287865832
-0.7812632772581478 0.04340237980479299
-0.7510792993490831 0.05684976906325657
-0.7510792993490831 -0.02383456648752491
-0.7510792993490831 -0.02383456648752491
-0.7359873103945508 -0.03728195574598849
-0.6756193545764215 0.0030602120294022507
-0.6303433877128245 0.0030602120294022507
-0.6303433877128245 0.02995499054632941
-0.6907113435309538 0.02995499054632941
-0.7208953214400184 0.13753410461403806
-0.6303433877128245 0.1778762723894288
-0.5246994650310982 0.11063932609711088
-0.38887156444030724 -0.01038717722906133
-0.08703178534966068 -0.10451890203830638
0.13934804896832423 -0.21209801610601503
0.6071997065588264 -0.1717558483306243
1.2259712536946519 -0.14486106981369712
2.010754679330333 0.02995499054632941
2.7804461160114817 0.29890277571560103
3.444493630010904 0.6619822856941177
3.897253298646874 1.0519565741895616
3.9727132434195354 1.4419308626850054
3.535045563738098 1.7377734263712041
2.5087903148299 1.9529316545066213
1.180695286831055 1.899142097472767
-0.11721576325872533 1.8587999296973763
-1.2642069238031823 1.7646682048881313
-1.9886223936207341 1.7915629834050584
-2.0942663163024604 1.9394842652481576
-1.9131624488480723 2.1680898826420387
-1.6565986366210228 2.3698007215189922
-1.6565986366210228 2.571511560395946
-1.762242559302749 2.6656432852051912
-1.807518526166346 2.7732223992728997
-1.9131624488480723 2.9076962918575355
-1.943346426757137 2.988380627408317
-1.9886223936207341 3.0690649629590983
-1.9886223936207341 3.203538855543734
-1.9886223936207341 3.311117969611443
-2.033898360484331 3.445591862196079
-2.033898360484331 3.539723587005324
-2.003714382575266 3.5800657547807146
-2.003714382575266 3.5128288084883965
-2.0188063715297986 3.297670580352979
-2.003714382575266 2.974933238149853
-2.0489903494388635 2.598406338912873
-1.9584384157116694 2.181537271900502
-1.7320585813936844 1.8453525404389126
-1.5509547139392965 1.4419308626850054
-1.4604027802121025 1.0788513527064887
-1.4151268133485055 0.7292192319864356
-1.2491149348486499 0.5006136145925547
-1.0831030563487942 0.3661397220079189
-0.8114472551672124 0.25856060794021024
-0.5850674208492275 0.1644288831309652
-0.44923952025843655 0.07029715832172015
-0.3586875865312426 -0.03728195574598849
-0.3285036086221779 -0.11796629129676997
-0.3134116196676456 -0.1583084590721607
-0.2983196307131133 -0.11796629129676997
-0.2077676969859193 -0.1583084590721607
-0.16249173012232232 -0.22554540536447862
-0.17758371907685463 -0.27933496239833294
-0.16249173012232232 -0.3600192979491144
-0.13230775221325766 -0.3600192979491144
-0.08703178534966068 -0.373466687207578
-0.026663829531531368 -0.46759841201682306
0.01861213733206562 -0.5079405797922137
-0.026663829531531368 -0.5213879690506774
-0.041755818486063696 -0.4810458012752866
-0.041755818486063696 -0.5079405797922137
0.01861213733206562 -0.4810458012752866
0.12425606001379191 -0.4810458012752866
0.13934804896832423 -0.534835358309141
0.16953202687738889 -0.6020723046014589
0.15444003792285657 -0.6424144723768496
0.19971600478645354 -0.6962040294107039
0.2298999826955182 -0.6827566401522404
0.2902679385136475 -0.6827566401522404
0.2902679385136475 -0.723098807927631
0.2902679385136475 -0.7768883649614854
0.2902679385136475 -0.790335754219949
0.3204519164227122 -0.8172305327368761
0.3808198722408415 -0.7768883649614854
0.5317397617861648 -0.8172305327368761
0.5770157286497618 -0.9248096468045848
0.5166477728316324 -0.9920465930969027
0.5619237396952295 -1.0323887608722935
0.6222916955133587 -1.072730928647684
0.6826596513314881 -1.0592835393892206
0.773211585058682 -1.0592835393892206
0.8033955629677467 -1.1265204856815385
0.818487551922279 -1.1803100427153927
0.8939474966949407 -1.2072048212323199
0.9694074414676023 -1.2475469890077107
1.044867386240264 -1.2744417675246378
1.1203273310129256 -1.3416787138169557
1.1354193199674578 -1.3954682708508102
1.1354193199674578 -1.4895999956600552
1.1354193199674578 -1.4895999956600552
1.1354193199674578 -1.4627052171431278
1.241063242649184 -1.4223630493677373
1.3467071653309104 -1.4358104386262007
1.3467071653309104 -1.5030473849185186
1.376891143239975 -1.5433895526939094
1.376891143239975 -1.5433895526939094
1.3919831321945075 -1.5030473849185186
1.4523510880126367 -1.4895999956600552
1.4674430769671691 -1.4223630493677373
1.4221671101035722 -1.3820208815923465
1.376891143239975 -1.3685734923338828
1.316523187421846 -1.2878891567831015
1.2712472205582488 -1.1937574319738564
1.241063242649184 -1.1265204856815385
1.1957872757855872 -1.045836150130757
1.1203273310129256 -1.045836150130757
1.0146834083311993 -0.9785992038384391
0.818487551922279 -0.9248096468045848
0.727935618195085 -0.8037831434784125
0.6524756734224234 -0.6558618616353131
0.6071997065588264 -0.5751775260845317
0.5468317507406971 -0.46759841201682306
0.4562798170135031 -0.5079405797922137
0.35063589433177683 -0.46759841201682306
0.2902679385136475 -0.3869140764660416
0.2298999826955182 -0.3196771301737237
0.19971600478645354 -0.2658875731398693
0.09407208210472726 -0.19865062684755144
0.003520148377533289 -0.19865062684755144
-0.07193979639512835 -0.10451890203830638
-0.13230775221325766 -0.050729345004452066
-0.16249173012232232 0.04340237980479299
-0.11721576325872533 0.05684976906325657
-0.19267570803138698 0.02995499054632941
-0.25304366384951626 0.016507601287865832
-0.3586875865312426 -0.02383456648752491
-0.38887156444030724 0.016507601287865832
-0.4190555423493719 0.11063932609711088
-0.4190555423493719 0.11063932609711088
-0.4341475313039042 0.15098149387250162
-0.5096074760765659 0.12408671535557447
-0.5246994650310982 0.09719193683864731
-0.4945154871220335 0.13753410461403806
-0.4643315092129689 0.13753410461403806
-0.4039635533948396 0.09719193683864731
-0.4794234981675012 0.04340237980479299
-0.4945154871220335 0.04340237980479299
-0.5699754318946951 0.05684976906325657
-0.6152513987582922 0.08374454758018372
-0.5096074760765659 0.19132366164789236
-0.4341475313039042 0.21821844016481953
-0.44923952025843655 0.1778762723894288
-0.44923952025843655 0.12408671535557447
-0.4794234981675012 0.12408671535557447
-0.4341475313039042 0.05684976906325657
-0.4039635533948396 0.12408671535557447
-0.44923952025843655 0.12408671535557447
-0.44923952025843655 0.09719193683864731
-0.5397914539856306 0.09719193683864731
-0.5850674208492275 0.13753410461403806
-0.5246994650310982 0.1644288831309652
-0.4341475313039042 0.20477105090635594
-0.34359559757671027 0.1644288831309652
-0.3586875865312426 0.09719193683864731
-0.3737795754857749 0.05684976906325657
-0.4039635533948396 0.02995499054632941
-0.4341475313039042 0.08374454758018372
-0.4190555423493719 0.1778762723894288
-0.34359559757671027 0.23166582942328312
-0.34359559757671027 0.25856060794021024
-0.34359559757671027 0.19132366164789236
-0.3134116196676456 0.15098149387250162
-0.22285968594045164 0.15098149387250162
-0.102123774304193 0.20477105090635594
-0.026663829531531368 0.20477105090635594
0.01861213733206562 0.19132366164789236
-0.041755818486063696 0.15098149387250162
-0.041755818486063696 0.11063932609711088
-0.056847807440596025 0.15098149387250162
0.048796115241130276 0.1778762723894288
0.15444003792285657 0.09719193683864731
0.24499197165005054 0.0030602120294022507
0.2902679385136475 -0.07762412352137923
0.2751759495591152 -0.07762412352137923
0.3355439053772445 -0.06417673426291565
0.3355439053772445 0.0030602120294022507
0.35063589433177683 0.04340237980479299
0.3355439053772445 0.07029715832172015
0.3204519164227122 0.04340237980479299
0.24499197165005054 0.016507601287865832
0.2751759495591152 0.07029715832172015
0.2902679385136475 0.05684976906325657
0.2298999826955182 0.04340237980479299
0.09407208210472726 0.016507601287865832
-0.102123774304193 -0.02383456648752491
-0.2681356528040486 0.0030602120294022507
-0.34359559757671027 0.02995499054632941
-0.34359559757671027 0.04340237980479299
-0.34359559757671027 0.08374454758018372
-0.4039635533948396 0.016507601287865832
-0.4341475313039042 -0.050729345004452066
-0.4945154871220335 -0.06417673426291565
-0.5246994650310982 -0.06417673426291565
-0.5548834429401629 -0.02383456648752491
-0.5246994650310982 -0.03728195574598849
-0.5548834429401629 -0.02383456648752491
-0.6303433877128245 -0.03728195574598849
-0.6756193545764215 0.0030602120294022507
-0.6605273656218892 0.0030602120294022507
-0.6152513987582922 0.0030602120294022507
-0.5699754318946951 0.0030602120294022507
-0.6152513987582922 -0.03728195574598849
-0.6303433877128245 -0.09107151277984281
-0.6756193545764215 -0.09107151277984281
-0.7510792993490831 -0.02383456648752491
-0.6907113435309538 0.02995499054632941
-0.6454353766673568 0.05684976906325657
-0.6605273656218892 0.016507601287865832
-0.5850674208492275 -0.03728195574598849
-0.5850674208492275 -0.02383456648752491
-0.5699754318946951 -0.03728195574598849
-0.5397914539856306 -0.01038717722906133
-0.5246994650310982 0.07029715832172015
