-0.8671199222662228 -0.17827974362701648
-0.9460420385426417 -0.18838664089593496
-0.8408125501740832 -0.23892112724052741
-0.7355830618055247 -0.24902802450944592
-0.577738829252687 -0.24902802450944592
-0.5908925152987569 -0.2591349217783644
-0.5908925152987569 -0.2894556135851199
-0.6171998873908965 -0.37031079173646786
-0.6566609455291059 -0.3804176890053863
-0.6040462013448267 -0.36020389446754936
-0.5514314571605474 -0.32988320266079385
-0.4988167129762682 -0.35009699719863085
-0.5251240850684078 -0.4309521753499788
-0.5251240850684078 -0.46127286715673427
-0.511970399022338 -0.44105907261889726
-0.48566302693019836 -0.44105907261889726
-0.4988167129762682 -0.45116596988781577
-0.5382777711144776 -0.48148666169457127
-0.5645851432066172 -0.5219142507702452
-0.5514314571605474 -0.5219142507702452
-0.5251240850684078 -0.46127286715673427
-0.47250934088412855 -0.48148666169457127
-0.4198945966998493 -0.5320211480391637
-0.45935565483805874 -0.5421280453080822
-0.4198945966998493 -0.5320211480391637
-0.40674091065377954 -0.5017004562324082
-0.3804335385616399 -0.5118073535013268
-0.3804335385616399 -0.5421280453080822
-0.4462019687919889 -0.5118073535013268
-0.48566302693019836 -0.5017004562324082
-0.4330482827459191 -0.4915935589634897
-0.3672798525155701 -0.4915935589634897
-0.32781879437736067 -0.5118073535013268
-0.31466510833129085 -0.5118073535013268
-0.31466510833129085 -0.48148666169457127
-0.31466510833129085 -0.44105907261889726
-0.28835773623915123 -0.4309521753499788
-0.2752040501930814 -0.45116596988781577
-0.2620503641470116 -0.45116596988781577
-0.19628193391666257 -0.45116596988781577
-0.16997456182452295 -0.36020389446754936
-0.20943561996273238 -0.2894556135851199
-0.235742992054872 -0.2995625108540384
-0.2620503641470116 -0.2995625108540384
-0.2225893060088022 -0.3096694081229569
-0.18312824787059276 -0.2591349217783644
-0.0778987595020343 -0.19849353816485346
-0.0778987595020343 -0.18838664089593496
-0.0910524455481041 -0.21870733270269044
-0.0910524455481041 -0.23892112724052741
-0.0778987595020343 -0.16817284635809798
-0.051591387409894676 -0.10753146274458703
-0.012130329271685253 -0.08731766820675003
-0.025284015317755062 -0.09742456547566854
-0.025284015317755062 -0.1378521545513425
-0.025284015317755062 -0.11763836001350551
-0.051591387409894676 -0.01656938732432059
-0.012130329271685253 -0.0064624900554020965
0.027330728866524174 -0.02667628459323908
0.014177042820454365 -0.05699697639999456
0.014177042820454365 -0.01656938732432059
-0.06474507345596449 0.02385820175135338
-0.0778987595020343 0.03396509902027187
-0.051591387409894676 0.03396509902027187
0.027330728866524174 0.03396509902027187
0.10625284514294303 0.06428579082702736
0.0667917870047336 0.07439268809594585
0.04048441491259398 0.05417889355810886
0.0010233567743845565 0.06428579082702736
0.027330728866524174 0.06428579082702736
0.0667917870047336 0.11482027717161981
0.04048441491259398 0.15524786624729378
0.05363810095866379 0.15524786624729378
0.11940653118901283 0.09460648263378284
0.14571390328115244 0.11482027717161981
0.1983286474654317 0.18556855805404926
0.23778970560364113 0.20578235259188626
0.1983286474654317 0.20578235259188626
0.2114823335115015 0.15524786624729378
0.17202127537329207 0.16535476351621228
0.18517496141936188 0.21588924986080474
0.2509433916497109 0.24620994166756022
0.31671182188006 0.2765306334743157
0.30355813583399016 0.22599614712972324
0.29040444978792035 0.23610304439864171
0.23778970560364113 0.2664237362053972
0.27725076374185054 0.3068513252810712
0.31671182188006 0.3068513252810712
0.3298655079261298 0.3270651198189082
0.31671182188006 0.3169582225499897
0.31671182188006 0.3270651198189082
0.29040444978792035 0.3472789143567451
0.29040444978792035 0.36749270889458213
0.3693265660643392 0.3371720170878267
0.4087876242025486 0.3068513252810712
0.3956339381564788 0.3169582225499897
0.3561728800182694 0.3472789143567451
0.3693265660643392 0.2967444280121527
0.3430191939721996 0.28663753074323417
0.31671182188006 0.3068513252810712
0.3430191939721996 0.3270651198189082
0.3430191939721996 0.3270651198189082
0.30355813583399016 0.3169582225499897
0.27725076374185054 0.2765306334743157
0.22463601955757131 0.28663753074323417
0.2640970776957807 0.3169582225499897
0.27725076374185054 0.3472789143567451
0.23778970560364113 0.3169582225499897
0.2114823335115015 0.28663753074323417
0.14571390328115244 0.3068513252810712
0.0799454730508034 0.3068513252810712
0.05363810095866379 0.3068513252810712
0.0799454730508034 0.2765306334743157
0.0799454730508034 0.23610304439864171
0.05363810095866379 0.22599614712972324
0.05363810095866379 0.23610304439864171
0.04048441491259398 0.2664237362053972
0.09309915909687322 0.24620994166756022
0.11940653118901283 0.24620994166756022
0.11940653118901283 0.24620994166756022
0.09309915909687322 0.2765306334743157
0.027330728866524174 0.2563168389364787
-0.012130329271685253 0.24620994166756022
-0.03843770136382487 0.2967444280121527
0.0667917870047336 0.2967444280121527
0.09309915909687322 0.3371720170878267
0.0667917870047336 0.3472789143567451
0.0010233567743845565 0.2967444280121527
-0.051591387409894676 0.2967444280121527
0.0010233567743845565 0.2967444280121527
0.0010233567743845565 0.3270651198189082
-0.025284015317755062 0.3270651198189082
-0.03843770136382487 0.2563168389364787
-0.0910524455481041 0.22599614712972324
-0.10420613159417391 0.23610304439864171
-0.11735981764024372 0.2563168389364787
-0.06474507345596449 0.2563168389364787
-0.06474507345596449 0.20578235259188626
-0.051591387409894676 0.16535476351621228
-0.0778987595020343 0.15524786624729378
-0.10420613159417391 0.18556855805404926
-0.10420613159417391 0.21588924986080474
-0.15682087577845316 0.18556855805404926
-0.19628193391666257 0.17546166078513079
-0.2225893060088022 0.15524786624729378
-0.24889667810094182 0.19567545532296776
-0.2225893060088022 0.18556855805404926
-0.20943561996273238 0.16535476351621228
-0.20943561996273238 0.18556855805404926
-0.2225893060088022 0.19567545532296776
-0.2225893060088022 0.22599614712972324
-0.24889667810094182 0.19567545532296776
-0.2620503641470116 0.18556855805404926
-0.235742992054872 0.20578235259188626
-0.15682087577845316 0.19567545532296776
-0.15682087577845316 0.21588924986080474
-0.11735981764024372 0.17546166078513079
-0.11735981764024372 0.1350340717094568
-0.15682087577845316 0.16535476351621228
-0.14366718973238335 0.19567545532296776
-0.14366718973238335 0.19567545532296776
-0.13051350368631354 0.16535476351621228
-0.10420613159417391 0.1249271744405383
-0.06474507345596449 0.1350340717094568
-0.03843770136382487 0.16535476351621228
0.027330728866524174 0.15524786624729378
0.04048441491259398 0.17546166078513079
-0.025284015317755062 0.16535476351621228
0.014177042820454365 0.17546166078513079
-0.025284015317755062 0.19567545532296776
-0.051591387409894676 0.18556855805404926
-0.025284015317755062 0.20578235259188626
0.0667917870047336 0.24620994166756022
0.09309915909687322 0.2765306334743157
0.09309915909687322 0.2765306334743157
0.014177042820454365 0.23610304439864171
-0.025284015317755062 0.2664237362053972
-0.012130329271685253 0.2967444280121527
0.04048441491259398 0.3472789143567451
-0.025284015317755062 0.38770650343241914
-0.0778987595020343 0.3270651198189082
-0.15682087577845316 0.2967444280121527
-0.16997456182452295 0.2967444280121527
-0.14366718973238335 0.3371720170878267
-0.15682087577845316 0.3169582225499897
-0.20943561996273238 0.28663753074323417
-0.19628193391666257 0.2765306334743157
-0.19628193391666257 0.2664237362053972
-0.15682087577845316 0.28663753074323417
-0.10420613159417391 0.28663753074323417
-0.11735981764024372 0.24620994166756022
-0.14366718973238335 0.2765306334743157
-0.15682087577845316 0.23610304439864171
-0.18312824787059276 0.18556855805404926
-0.15682087577845316 0.1249271744405383
-0.10420613159417391 0.11482027717161981
-0.051591387409894676 0.1451409689783753
-0.025284015317755062 0.15524786624729378
-0.06474507345596449 0.1350340717094568
-0.051591387409894676 0.11482027717161981
-0.0778987595020343 0.1350340717094568
-0.06474507345596449 0.1451409689783753
-0.051591387409894676 0.1350340717094568
-0.051591387409894676 0.23610304439864171
-0.0910524455481041 0.3068513252810712
-0.14366718973238335 0.22599614712972324
-0.19628193391666257 0.1451409689783753
-0.15682087577845316 0.1350340717094568
-0.14366718973238335 0.15524786624729378
-0.16997456182452295 0.17546166078513079
-0.18312824787059276 0.15524786624729378
-0.18312824787059276 0.1350340717094568
-0.16997456182452295 0.2664237362053972
-0.13051350368631354 0.3472789143567451
-0.13051350368631354 0.38770650343241914
-0.11735981764024372 0.37759960616350063
-0.10420613159417391 0.39781340070133764
-0.13051350368631354 0.4281340925080931
-0.20943561996273238 0.46856168158376704
-0.18312824787059276 0.4281340925080931
-0.11735981764024372 0.4281340925080931
-0.10420613159417391 0.4180271952391746
-0.10420613159417391 0.38770650343241914
-0.06474507345596449 0.36749270889458213
-0.051591387409894676 0.3068513252810712
-0.012130329271685253 0.3169582225499897
-0.025284015317755062 0.28663753074323417
-0.10420613159417391 0.2664237362053972
-0.11735981764024372 0.19567545532296776
-0.14366718973238335 0.17546166078513079
-0.10420613159417391 0.21588924986080474
0.10625284514294303 0.24620994166756022
0.3298655079261298 0.20578235259188626
0.514017112571107 0.17546166078513079
0.7770908334925033 0.16535476351621228
1.0533182404599692 0.1451409689783753
1.2900845892892259 0.11482027717161981
1.5005435660263426 0.10471337990270133
1.7373099148555993 0.11482027717161981
2.0003836357769953 0.1451409689783753
2.36868684506695 0.10471337990270133
2.7501437404029745 0.02385820175135338
3.06583220550865 0.01375130448243489
3.210522752015418 0.05417889355810886
3.0921395776007894 0.04407199628919037
2.8422195427254633 -0.03678318186215757
2.513377391573718 -0.07721077093783155
2.026691007869135 -0.02667628459323908
1.2637772171970862 -0.01656938732432059
0.4087876242025486 -0.01656938732432059
-0.16997456182452295 -0.01656938732432059
-0.577738829252687 0.02385820175135338
-0.7881978059898039 0.03396509902027187
-0.8013514920358737 -0.0064624900554020965
-0.7355830618055247 -0.02667628459323908
-0.6566609455291059 0.02385820175135338
-0.577738829252687 0.05417889355810886
-0.511970399022338 -0.02667628459323908
-0.45935565483805874 -0.147959051820261
-0.39358722460770973 -0.15806594908917948
-0.30151142228522104 -0.127745257282424
-0.2620503641470116 -0.1378521545513425
-0.24889667810094182 -0.19849353816485346
-0.31466510833129085 -0.22881422997160894
-0.32781879437736067 -0.24902802450944592
-0.3541261664695003 -0.2591349217783644
-0.3541261664695003 -0.3096694081229569
-0.31466510833129085 -0.35009699719863085
-0.30151142228522104 -0.32988320266079385
-0.28835773623915123 -0.2995625108540384
-0.28835773623915123 -0.36020389446754936
-0.2620503641470116 -0.46127286715673427
-0.2225893060088022 -0.45116596988781577
-0.16997456182452295 -0.4208452780810603
-0.13051350368631354 -0.4309521753499788
-0.14366718973238335 -0.4915935589634897
-0.10420613159417391 -0.5421280453080822
-0.19628193391666257 -0.5421280453080822
-0.20943561996273238 -0.5017004562324082
-0.19628193391666257 -0.5320211480391637
-0.24889667810094182 -0.5522349425770007
-0.24889667810094182 -0.5522349425770007
-0.24889667810094182 -0.5825556343837561
-0.20943561996273238 -0.6431970179972671
-0.20943561996273238 -0.6937315043418596
-0.2225893060088022 -0.6533039152661856
-0.15682087577845316 -0.5926625316526747
-0.14366718973238335 -0.6330901207283487
-0.15682087577845316 -0.6634108125351041
-0.235742992054872 -0.6533039152661856
-0.24889667810094182 -0.5623418398459192
-0.235742992054872 -0.5320211480391637
-0.16997456182452295 -0.5825556343837561
-0.13051350368631354 -0.5522349425770007
-0.10420613159417391 -0.5017004562324082
-0.11735981764024372 -0.5320211480391637
-0.14366718973238335 -0.5320211480391637
-0.16997456182452295 -0.5017004562324082
-0.14366718973238335 -0.45116596988781577
-0.20943561996273238 -0.4309521753499788
-0.15682087577845316 -0.4915935589634897
-0.11735981764024372 -0.5017004562324082
-0.06474507345596449 -0.46127286715673427
-0.025284015317755062 -0.45116596988781577
-0.025284015317755062 -0.47137976442565277
-0.051591387409894676 -0.4915935589634897
-0.0778987595020343 -0.4915935589634897
-0.051591387409894676 -0.46127286715673427
0.0010233567743845565 -0.4309521753499788
0.0799454730508034 -0.44105907261889726
0.10625284514294303 -0.3905245862743048
0.09309915909687322 -0.36020389446754936
0.0799454730508034 -0.4107383808121418
0.13256021723508266 -0.4309521753499788
0.14571390328115244 -0.4107383808121418
0.15886758932722225 -0.35009699719863085
0.13256021723508266 -0.35009699719863085
0.0667917870047336 -0.37031079173646786
0.09309915909687322 -0.35009699719863085
0.10625284514294303 -0.36020389446754936
0.09309915909687322 -0.4006314835432233
0.09309915909687322 -0.37031079173646786
0.11940653118901283 -0.35009699719863085
0.10625284514294303 -0.31977630539187535
0.15886758932722225 -0.36020389446754936
0.2509433916497109 -0.4107383808121418
0.30355813583399016 -0.3804176890053863
0.31671182188006 -0.2894556135851199
0.3430191939721996 -0.32988320266079385
0.3430191939721996 -0.36020389446754936
0.31671182188006 -0.33999009992971235
0.27725076374185054 -0.31977630539187535
0.2640970776957807 -0.31977630539187535
0.2509433916497109 -0.32988320266079385
0.27725076374185054 -0.2692418190472829
0.29040444978792035 -0.20860043543377196
0.3693265660643392 -0.23892112724052741
0.30355813583399016 -0.2995625108540384
0.2114823335115015 -0.23892112724052741
0.10625284514294303 -0.15806594908917948
0.0799454730508034 -0.15806594908917948
0.10625284514294303 -0.16817284635809798
0.11940653118901283 -0.147959051820261
0.10625284514294303 -0.09742456547566854
0.05363810095866379 -0.08731766820675003
-0.03843770136382487 -0.08731766820675003
0.0010233567743845565 -0.04689007913107607
-0.012130329271685253 0.0036444072135163965
-0.051591387409894676 0.0036444072135163965
-0.11735981764024372 -0.04689007913107607
-0.13051350368631354 -0.0064624900554020965
-0.0910524455481041 0.04407199628919037
-0.06474507345596449 0.07439268809594585
-0.11735981764024372 0.02385820175135338
-0.11735981764024372 0.0036444072135163965
-0.16997456182452295 0.03396509902027187
-0.20943561996273238 0.05417889355810886
-0.20943561996273238 0.03396509902027187
-0.19628193391666257 0.08449958536486434
-0.16997456182452295 0.08449958536486434
-0.20943561996273238 0.08449958536486434
-0.20943561996273238 0.02385820175135338
-0.2620503641470116 0.01375130448243489
-0.2752040501930814 0.08449958536486434
-0.30151142228522104 0.09460648263378284
-0.2620503641470116 0.08449958536486434
-0.24889667810094182 0.04407199628919037
-0.2620503641470116 0.08449958536486434
-0.235742992054872 0.11482027717161981
-0.235742992054872 0.05417889355810886
-0.235742992054872 0.08449958536486434
-0.235742992054872 0.09460648263378284
-0.2225893060088022 0.1350340717094568
-0.18312824787059276 0.1350340717094568
-0.16997456182452295 0.09460648263378284
-0.235742992054872 0.1451409689783753
-0.3804335385616399 0.16535476351621228
-0.45935565483805874 0.1451409689783753
-0.47250934088412855 0.11482027717161981
-0.45935565483805874 0.10471337990270133
-0.4330482827459191 0.1249271744405383
-0.39358722460770973 0.16535476351621228
-0.3672798525155701 0.11482027717161981
-0.3672798525155701 0.10471337990270133
-0.39358722460770973 0.10471337990270133
-0.4330482827459191 0.08449958536486434
-0.4462019687919889 0.03396509902027187
-0.4330482827459191 0.02385820175135338
-0.4462019687919889 0.06428579082702736
-0.45935565483805874 0.08449958536486434
-0.4988167129762682 0.04407199628919037
-0.5382777711144776 0.01375130448243489
-0.5514314571605474 0.02385820175135338
-0.5382777711144776 0.07439268809594585
-0.45935565483805874 0.05417889355810886
-0.4462019687919889 0.0036444072135163965
-0.4462019687919889 0.01375130448243489
-0.48566302693019836 0.03396509902027187
-0.6040462013448267 0.06428579082702736
-0.6303535734369663 0.04407199628919037
-0.6040462013448267 0.04407199628919037
-0.5645851432066172 0.10471337990270133
-0.5382777711144776 0.06428579082702736
-0.5251240850684078 0.0036444072135163965
-0.5645851432066172 -0.01656938732432059
-0.5251240850684078 0.05417889355810886
-0.48566302693019836 0.09460648263378284
-0.47250934088412855 0.04407199628919037
-0.4462019687919889 -0.0064624900554020965
-0.47250934088412855 0.0036444072135163965
-0.511970399022338 0.03396509902027187
-0.3672798525155701 0.03396509902027187
-0.2620503641470116 -0.01656938732432059
-0.11735981764024372 -0.04689007913107607
0.0667917870047336 -0.01656938732432059
0.27725076374185054 -0.01656938732432059
0.38248025211040904 -0.03678318186215757
0.47455605443289767 -0.01656938732432059
0.5534781707093165 -0.0064624900554020965
0.7113224032621542 -0.04689007913107607
0.8560129497689222 -0.09742456547566854
0.7639371474464335 -0.11763836001350551
0.3298655079261298 -0.10753146274458703
-0.30151142228522104 -0.147959051820261
-0.8671199222662228 -0.147959051820261
-1.3669599920168756 -0.1378521545513425
-1.6563410850304114 -0.08731766820675003
-2.0641053524585753 -0.10753146274458703
-2.4718696198867396 -0.16817284635809798
-2.8138654570845545 -0.16817284635809798
-3.0900928640520204 -0.127745257282424
-3.3663202710194864 -0.11763836001350551
-3.616240305894813 -0.147959051820261
-3.866160340770139 -0.18838664089593496
-4.024004573322977 -0.15806594908917948
-4.089773003553326 -0.127745257282424
-4.0108508872769075 -0.07721077093783155
-3.9056213989083486 -0.11763836001350551
-3.80039191053979 -0.127745257282424
-3.82669928263193 -0.127745257282424
-3.7872382244937204 -0.10753146274458703
-3.6951624221712316 -0.10753146274458703
-3.4452423872959055 -0.11763836001350551
-3.221629724512719 -0.07721077093783155
-2.9980170617295316 -0.09742456547566854
-2.8927875733609736 -0.147959051820261
-2.827019143130624 -0.147959051820261
-2.6691749105777864 -0.08731766820675003
-2.4061011896563906 -0.07721077093783155
-2.1430274687349944 -0.127745257282424
-1.8536463757214585 -0.16817284635809798
-1.5905726548000623 -0.20860043543377196
-1.3011915617865266 -0.16817284635809798
-0.9986567827269209 -0.15806594908917948
-0.7355830618055247 -0.19849353816485346
-0.5514314571605474 -0.20860043543377196
-0.40674091065377954 -0.19849353816485346
-0.31466510833129085 -0.21870733270269044
-0.28835773623915123 -0.2591349217783644
-0.2620503641470116 -0.2591349217783644
-0.20943561996273238 -0.24902802450944592
-0.11735981764024372 -0.19849353816485346
-0.051591387409894676 -0.21870733270269044
0.0010233567743845565 -0.2692418190472829
0.0667917870047336 -0.2793487163162014
0.14571390328115244 -0.22881422997160894
0.1983286474654317 -0.21870733270269044
0.29040444978792035 -0.23892112724052741
0.29040444978792035 -0.2793487163162014
0.2114823335115015 -0.2894556135851199
0.1983286474654317 -0.24902802450944592
0.30355813583399016 -0.2591349217783644
0.43509499629468823 -0.2894556135851199
0.43509499629468823 -0.2692418190472829
0.31671182188006 -0.2894556135851199
0.30355813583399016 -0.2894556135851199
0.3693265660643392 -0.31977630539187535
0.46140236838682785 -0.32988320266079385
0.5403244846632467 -0.33999009992971235
0.5534781707093165 -0.31977630539187535
0.5797855428014561 -0.31977630539187535
0.6455539730318052 -0.35009699719863085
0.7113224032621542 -0.37031079173646786
0.7507834614003637 -0.36020389446754936
0.724476089308224 -0.3804176890053863
0.6850150311700146 -0.4006314835432233
0.6850150311700146 -0.4208452780810603
0.7902445195385731 -0.4006314835432233
0.869166635814992 -0.36020389446754936
0.8823203218610618 -0.3905245862743048
0.8954740079071315 -0.4006314835432233
0.9612424381374806 -0.3804176890053863
1.0270108683678296 -0.37031079173646786
0.9743961241835504 -0.33999009992971235
0.9875498102296202 -0.3804176890053863
1.0270108683678296 -0.36020389446754936
1.1190866706903182 -0.3096694081229569
1.1848551009206674 -0.2995625108540384
1.2900845892892259 -0.2995625108540384
1.3295456474274352 -0.35009699719863085
1.276930903243156 -0.3096694081229569
1.276930903243156 -0.22881422997160894
1.2900845892892259 -0.24902802450944592
1.3690067055656447 -0.31977630539187535
1.3690067055656447 -0.32988320266079385
1.3426993334735051 -0.2894556135851199
1.3558530195195748 -0.23892112724052741
1.4742361939342032 -0.2692418190472829
1.5663119962566918 -0.2793487163162014
1.5400046241645522 -0.2894556135851199
1.408467763703854 -0.2793487163162014
1.2243161590588767 -0.3096694081229569
1.198008786966737 -0.31977630539187535
1.276930903243156 -0.2995625108540384
1.421621449749924 -0.23892112724052741
1.487389879980273 -0.23892112724052741
1.3821603916117144 -0.2894556135851199
1.3032382753352956 -0.31977630539187535
1.2637772171970862 -0.2793487163162014
1.3032382753352956 -0.2793487163162014
1.3426993334735051 -0.2793487163162014
1.2243161590588767 -0.3096694081229569
1.0533182404599692 -0.31977630539187535
0.9743961241835504 -0.2591349217783644
0.9349350660453409 -0.22881422997160894
0.8560129497689222 -0.2692418190472829
0.7507834614003637 -0.22881422997160894
0.6455539730318052 -0.22881422997160894
0.5929392288475259 -0.22881422997160894
0.5666318567553863 -0.23892112724052741
0.514017112571107 -0.23892112724052741
0.4219413102486184 -0.20860043543377196
0.29040444978792035 -0.147959051820261
0.2114823335115015 -0.16817284635809798
0.1983286474654317 -0.20860043543377196
0.15886758932722225 -0.19849353816485346
0.09309915909687322 -0.1378521545513425
0.027330728866524174 -0.127745257282424
0.09309915909687322 -0.1378521545513425
0.09309915909687322 -0.147959051820261
0.09309915909687322 -0.1378521545513425
0.0667917870047336 -0.127745257282424
-0.012130329271685253 -0.11763836001350551
-0.051591387409894676 -0.11763836001350551
-0.03843770136382487 -0.08731766820675003
-0.0778987595020343 -0.08731766820675003
-0.06474507345596449 -0.127745257282424
-0.03843770136382487 -0.18838664089593496
-0.051591387409894676 -0.147959051820261
-0.051591387409894676 -0.09742456547566854
-0.03843770136382487 -0.07721077093783155
-0.012130329271685253 -0.1378521545513425
-0.025284015317755062 -0.11763836001350551
-0.0910524455481041 -0.16817284635809798
-0.18312824787059276 -0.147959051820261
-0.16997456182452295 -0.15806594908917948
-0.13051350368631354 -0.17827974362701648
-0.10420613159417391 -0.147959051820261
-0.14366718973238335 -0.18838664089593496
-0.14366718973238335 -0.23892112724052741
-0.14366718973238335 -0.20860043543377196
-0.0910524455481041 -0.16817284635809798
-0.10420613159417391 -0.15806594908917948
-0.13051350368631354 -0.20860043543377196
-0.13051350368631354 -0.2692418190472829
-0.10420613159417391 -0.2692418190472829
-0.051591387409894676 -0.2591349217783644
0.0010233567743845565 -0.23892112724052741
0.014177042820454365 -0.23892112724052741
-0.012130329271685253 -0.22881422997160894
-0.0778987595020343 -0.22881422997160894
-0.051591387409894676 -0.2591349217783644
-0.051591387409894676 -0.3096694081229569
-0.025284015317755062 -0.2591349217783644
0.027330728866524174 -0.22881422997160894
0.0010233567743845565 -0.17827974362701648
0.0667917870047336 -0.23892112724052741
0.04048441491259398 -0.2692418190472829
0.04048441491259398 -0.20860043543377196
-0.012130329271685253 -0.1378521545513425
0.014177042820454365 -0.1378521545513425
-0.012130329271685253 -0.16817284635809798
-0.012130329271685253 -0.16817284635809798
-0.012130329271685253 -0.11763836001350551
0.04048441491259398 -0.09742456547566854
0.10625284514294303 -0.08731766820675003
0.18517496141936188 -0.09742456547566854
0.2114823335115015 -0.05699697639999456
0.1983286474654317 -0.05699697639999456
0.18517496141936188 -0.07721077093783155
0.27725076374185054 -0.06710387366891306
0.44824868234075804 -0.04689007913107607
0.5534781707093165 0.03396509902027187
0.6324002869857354 0.03396509902027187
0.7113224032621542 -0.04689007913107607
0.8033982055846429 -0.04689007913107607
0.9743961241835504 0.0036444072135163965
1.2506235311510163 0.04407199628919037
1.618926740440971 0.04407199628919037
1.9214615195005766 0.02385820175135338
2.158227868329833 0.0036444072135163965
2.39499421715909 0.01375130448243489
2.6843753101726255 0.04407199628919037
3.0526785194625803 0.02385820175135338
3.4341354147986047 0.02385820175135338
3.7498238799042802 0.02385820175135338
4.104973403148165 0.0036444072135163965
4.315432379885282 -0.06710387366891306
4.394354496161701 -0.09742456547566854
4.48643029848419 -0.0064624900554020965
4.604813472898818 0.04407199628919037
4.670581903129166 0.01375130448243489
4.631120844990957 -0.01656938732432059
4.42066186825384 0.0036444072135163965
3.9208217985031877 0.01375130448243489
3.184215379923278 -0.0064624900554020965
2.1976889264680426 -0.03678318186215757
1.0664719265060392 -0.06710387366891306
0.05363810095866379 -0.02667628459323908
-0.577738829252687 0.0036444072135163965
-0.9855030966808511 0.0036444072135163965
-1.1828083873718982 0.0036444072135163965
-1.406421050155085 -0.0064624900554020965
-1.616880026892202 0.02385820175135338
-1.8536463757214585 0.0036444072135163965
-2.103566410596785 -0.02667628459323908
-2.3403327594260412 -0.03678318186215757
-2.4455622477945997 0.0036444072135163965
-2.4192548757024603 0.0036444072135163965
-2.3929475036103205 0.01375130448243489
-2.366640131518181 -0.0064624900554020965
-2.43240856174853 -0.05699697639999456
-2.4455622477945997 -0.02667628459323908
-2.4061011896563906 0.01375130448243489
-2.3403327594260412 0.02385820175135338
-2.2614106431496226 -0.04689007913107607
-2.2351032710574827 -0.09742456547566854
-2.1824885268732035 -0.10753146274458703
-2.1167200966428545 -0.05699697639999456
-2.0509516664125056 -0.03678318186215757
-2.011490608274296 -0.07721077093783155
-1.945722178043947 -0.04689007913107607
-1.8799537478135981 -0.06710387366891306
-1.8010316315371793 -0.10753146274458703
-1.7484168873529 -0.09742456547566854
-1.7484168873529 -0.10753146274458703
-1.6958021431686208 -0.09742456547566854
-1.6037263408461322 -0.05699697639999456
-1.5248042245697133 -0.07721077093783155
-1.5248042245697133 -0.147959051820261
-1.551111596661853 -0.20860043543377196
-1.5248042245697133 -0.19849353816485346
-1.4327284222472245 -0.16817284635809798
-1.340652619924736 -0.17827974362701648
-1.261730503648317 -0.2692418190472829
-1.3143452478325963 -0.31977630539187535
-1.3011915617865266 -0.3096694081229569
-1.261730503648317 -0.2692418190472829
-1.2485768176022474 -0.2793487163162014
-1.261730503648317 -0.33999009992971235
-1.2222694455101077 -0.3096694081229569
-1.2485768176022474 -0.31977630539187535
-1.2880378757404567 -0.33999009992971235
-1.2485768176022474 -0.3804176890053863
-1.1696547013258285 -0.35009699719863085
-1.1433473292336889 -0.35009699719863085
-1.1696547013258285 -0.3096694081229569
-1.274884189694387 -0.32988320266079385
-1.406421050155085 -0.32988320266079385
-1.3932673641090152 -0.24902802450944592
-1.340652619924736 -0.127745257282424
-1.327498933878666 -0.127745257282424
-1.3669599920168756 -0.2692418190472829
-1.3932673641090152 -0.4006314835432233
-1.3669599920168756 -0.36020389446754936
-1.261730503648317 -0.2793487163162014
-1.1828083873718982 -0.23892112724052741
-1.1828083873718982 -0.24902802450944592
-1.1696547013258285 -0.23892112724052741
-1.1565010152797586 -0.18838664089593496
-1.1170399571415492 -0.09742456547566854
-1.1170399571415492 -0.16817284635809798
-1.1038862710954793 -0.2793487163162014
-1.1038862710954793 -0.31977630539187535
-1.0775788990033397 -0.2995625108540384
-1.0381178408651304 -0.2995625108540384
-0.9723494106347813 -0.2793487163162014
-0.9065809804044322 -0.2692418190472829
-0.8408125501740832 -0.20860043543377196
-0.7618904338976643 -0.1378521545513425
-0.7618904338976643 -0.03678318186215757
-0.7487367478515945 -0.09742456547566854
-0.7355830618055247 -0.20860043543377196
-0.6566609455291059 -0.24902802450944592
-0.6303535734369663 -0.20860043543377196
-0.6171998873908965 -0.17827974362701648
-0.577738829252687 -0.16817284635809798
-0.45935565483805874 -0.22881422997160894
-0.4330482827459191 -0.2793487163162014
-0.39358722460770973 -0.2793487163162014
-0.31466510833129085 -0.24902802450944592
-0.235742992054872 -0.22881422997160894
-0.18312824787059276 -0.19849353816485346
-0.18312824787059276 -0.18838664089593496
-0.20943561996273238 -0.1378521545513425
-0.19628193391666257 -0.03678318186215757
-0.16997456182452295 -0.05699697639999456
-0.235742992054872 -0.18838664089593496
-0.15682087577845316 -0.2692418190472829
-0.0778987595020343 -0.2692418190472829
-0.025284015317755062 -0.19849353816485346
-0.051591387409894676 -0.15806594908917948
-0.051591387409894676 -0.15806594908917948
-0.06474507345596449 -0.17827974362701648
0.04048441491259398 -0.18838664089593496
0.11940653118901283 -0.20860043543377196
0.0799454730508034 -0.19849353816485346
0.0010233567743845565 -0.22881422997160894
-0.025284015317755062 -0.23892112724052741
-0.025284015317755062 -0.24902802450944592
0.0010233567743845565 -0.22881422997160894
-0.03843770136382487 -0.20860043543377196
-0.0778987595020343 -0.20860043543377196
-0.16997456182452295 -0.19849353816485346
-0.18312824787059276 -0.20860043543377196
-0.20943561996273238 -0.17827974362701648
-0.235742992054872 -0.127745257282424
-0.20943561996273238 -0.127745257282424
-0.11735981764024372 -0.19849353816485346
-0.06474507345596449 -0.23892112724052741
-0.13051350368631354 -0.21870733270269044
-0.2225893060088022 -0.22881422997160894
-0.2620503641470116 -0.2894556135851199
-0.31466510833129085 -0.37031079173646786
-0.32781879437736067 -0.33999009992971235
-0.32781879437736067 -0.2995625108540384
-0.3409724804234305 -0.36020389446754936
-0.3541261664695003 -0.47137976442565277
-0.39358722460770973 -0.5623418398459192
-0.4988167129762682 -0.5522349425770007
-0.6171998873908965 -0.5320211480391637
-0.577738829252687 -0.5118073535013268
-0.47250934088412855 -0.5623418398459192
-0.4330482827459191 -0.5926625316526747
-0.39358722460770973 -0.6128763261905117
-0.4988167129762682 -0.6128763261905117
-0.6698146315751757 -0.6229832234594301
-0.7092756897133852 -0.6027694289215931
-0.6435072594830361 -0.6027694289215931
-0.5251240850684078 -0.6330901207283487
-0.48566302693019836 -0.7139452988796966
-0.5645851432066172 -0.7745866824932075
-0.6698146315751757 -0.7846935797621261
-0.6961220036673154 -0.744265990686452
-0.6171998873908965 -0.744265990686452
-0.4988167129762682 -0.7745866824932075
-0.48566302693019836 -0.8352280661067185
-0.5382777711144776 -0.8756556551823925
-0.4988167129762682 -0.8150142715688815
-0.4198945966998493 -0.8150142715688815
-0.39358722460770973 -0.8352280661067185
-0.47250934088412855 -0.865548757913474
-0.5645851432066172 -0.9160832442580664
-0.5908925152987569 -0.905976346989148
-0.5645851432066172 -0.8958694497202294
-0.45935565483805874 -0.9362970387959034
-0.3672798525155701 -0.9969384224094143
-0.3541261664695003 -0.9666177306026589
-0.4198945966998493 -0.9464039360648219
-0.45935565483805874 -0.9767246278715774
-0.39358722460770973 -1.0272591142161698
-0.3672798525155701 -0.9969384224094143
-0.3804335385616399 -0.865548757913474
-0.4330482827459191 -0.764479785224289
-0.4330482827459191 -0.764479785224289
-0.4198945966998493 -0.865548757913474
-0.3804335385616399 -0.905976346989148
-0.40674091065377954 -0.8554418606445555
-0.3541261664695003 -0.8352280661067185
-0.3541261664695003 -0.885762552451311
-0.3541261664695003 -0.9362970387959034
-0.40674091065377954 -0.9160832442580664
-0.511970399022338 -0.8958694497202294
-0.5514314571605474 -0.9160832442580664
-0.5514314571605474 -0.9666177306026589
-0.47250934088412855 -0.9565108333337404
-0.40674091065377954 -0.9565108333337404
-0.4462019687919889 -0.9160832442580664
-0.45935565483805874 -0.9464039360648219
-0.4988167129762682 -0.9666177306026589
-0.47250934088412855 -0.9362970387959034
-0.4330482827459191 -0.9160832442580664
-0.4462019687919889 -0.9666177306026589
-0.4462019687919889 -1.0171522169472513
-0.5514314571605474 -1.0373660114850884
-0.577738829252687 -0.9868315251404959
-0.6040462013448267 -0.926190141526985
-0.6171998873908965 -0.9464039360648219
-0.6040462013448267 -1.0272591142161698
-0.5645851432066172 -1.0171522169472513
-0.48566302693019836 -0.9666177306026589
-0.4988167129762682 -0.9160832442580664
-0.4988167129762682 -0.9565108333337404
-0.577738829252687 -0.9868315251404959
-0.6566609455291059 -0.9969384224094143
-0.6435072594830361 -0.9464039360648219
-0.5645851432066172 -0.865548757913474
-0.47250934088412855 -0.865548757913474
-0.3804335385616399 -0.905976346989148
-0.3672798525155701 -0.8958694497202294
-0.3409724804234305 -0.845334963375637
-0.30151142228522104 -0.8352280661067185
-0.235742992054872 -0.8251211688378
-0.2225893060088022 -0.8554418606445555
-0.24889667810094182 -0.8251211688378
-0.31466510833129085 -0.7846935797621261
-0.32781879437736067 -0.7846935797621261
-0.2620503641470116 -0.8150142715688815
-0.19628193391666257 -0.7948004770310445
-0.06474507345596449 -0.7341590934175336
0.05363810095866379 -0.6937315043418596
-0.03843770136382487 -0.7543728879553706
-0.18312824787059276 -0.8049073742999631
-0.24889667810094182 -0.8150142715688815
-0.2620503641470116 -0.7846935797621261
-0.24889667810094182 -0.7139452988796966
-0.24889667810094182 -0.7139452988796966
-0.24889667810094182 -0.764479785224289
-0.24889667810094182 -0.724052196148615
-0.19628193391666257 -0.6937315043418596
-0.24889667810094182 -0.7341590934175336
-0.31466510833129085 -0.724052196148615
-0.15682087577845316 -0.703838401610778
-0.0778987595020343 -0.6735177098040226
-0.06474507345596449 -0.6533039152661856
-0.012130329271685253 -0.6229832234594301
0.05363810095866379 -0.6431970179972671
0.11940653118901283 -0.6229832234594301
0.15886758932722225 -0.5724487371148377
0.15886758932722225 -0.5522349425770007
0.10625284514294303 -0.5623418398459192
0.0667917870047336 -0.6330901207283487
-0.012130329271685253 -0.6229832234594301
-0.0910524455481041 -0.6027694289215931
-0.025284015317755062 -0.5017004562324082
-0.051591387409894676 -0.5118073535013268
-0.06474507345596449 -0.5118073535013268
-0.025284015317755062 -0.5421280453080822
0.027330728866524174 -0.48148666169457127
0.014177042820454365 -0.44105907261889726
0.0010233567743845565 -0.46127286715673427
-0.012130329271685253 -0.5017004562324082
-0.051591387409894676 -0.5118073535013268
-0.10420613159417391 -0.5017004562324082
-0.051591387409894676 -0.4107383808121418
-0.03843770136382487 -0.3905245862743048
0.04048441491259398 -0.4006314835432233
0.10625284514294303 -0.4006314835432233
0.04048441491259398 -0.3905245862743048
0.014177042820454365 -0.36020389446754936
0.09309915909687322 -0.37031079173646786
0.23778970560364113 -0.36020389446754936
0.38248025211040904 -0.37031079173646786
0.3430191939721996 -0.33999009992971235
0.2640970776957807 -0.31977630539187535
0.17202127537329207 -0.33999009992971235
0.18517496141936188 -0.35009699719863085
0.2114823335115015 -0.31977630539187535
0.2640970776957807 -0.2995625108540384
0.30355813583399016 -0.2894556135851199
0.30355813583399016 -0.32988320266079385
0.2114823335115015 -0.3905245862743048
0.18517496141936188 -0.33999009992971235
0.23778970560364113 -0.24902802450944592
0.3693265660643392 -0.21870733270269044
0.44824868234075804 -0.24902802450944592
0.4087876242025486 -0.2793487163162014
0.30355813583399016 -0.2894556135851199
0.2640970776957807 -0.20860043543377196
0.31671182188006 -0.17827974362701648
0.4087876242025486 -0.2591349217783644
0.43509499629468823 -0.2793487163162014
0.47455605443289767 -0.2591349217783644
0.46140236838682785 -0.20860043543377196
0.4219413102486184 -0.18838664089593496
0.4087876242025486 -0.21870733270269044
0.4219413102486184 -0.21870733270269044
0.44824868234075804 -0.17827974362701648
0.5271707986171769 -0.15806594908917948
0.5797855428014561 -0.18838664089593496
0.5534781707093165 -0.22881422997160894
0.4877097404789675 -0.2591349217783644
0.3956339381564788 -0.20860043543377196
0.2640970776957807 -0.18838664089593496
0.22463601955757131 -0.20860043543377196
0.2640970776957807 -0.2591349217783644
0.30355813583399016 -0.24902802450944592
0.2640970776957807 -0.20860043543377196
0.31671182188006 -0.21870733270269044
0.3693265660643392 -0.2793487163162014
0.4087876242025486 -0.33999009992971235
0.3693265660643392 -0.35009699719863085
0.3956339381564788 -0.2793487163162014
0.44824868234075804 -0.2692418190472829
0.47455605443289767 -0.2692418190472829
0.3956339381564788 -0.3096694081229569
0.31671182188006 -0.3096694081229569
0.27725076374185054 -0.2692418190472829
0.3693265660643392 -0.22881422997160894
0.5403244846632467 -0.2591349217783644
0.6718613451239448 -0.2793487163162014
0.6981687172160844 -0.2591349217783644
0.7507834614003637 -0.23892112724052741
0.8297055776767825 -0.2591349217783644
0.8297055776767825 -0.2591349217783644
0.7639371474464335 -0.2793487163162014
0.7376297753542939 -0.2591349217783644
0.7507834614003637 -0.21870733270269044
0.8823203218610618 -0.22881422997160894
0.9086276939532013 -0.3096694081229569
0.8428592637228524 -0.2995625108540384
0.8428592637228524 -0.2692418190472829
0.8954740079071315 -0.22881422997160894
0.9217813799992711 -0.22881422997160894
0.7507834614003637 -0.2894556135851199
0.5666318567553863 -0.3096694081229569
0.5666318567553863 -0.2591349217783644
0.6718613451239448 -0.21870733270269044
0.7639371474464335 -0.2692418190472829
0.7113224032621542 -0.31977630539187535
0.7113224032621542 -0.33999009992971235
0.7507834614003637 -0.2894556135851199
0.8428592637228524 -0.2692418190472829
0.8954740079071315 -0.2692418190472829
0.9086276939532013 -0.2793487163162014
0.9480887520914107 -0.2692418190472829
0.9480887520914107 -0.24902802450944592
0.9743961241835504 -0.2995625108540384
0.9612424381374806 -0.31977630539187535
0.9217813799992711 -0.2995625108540384
0.8954740079071315 -0.2793487163162014
0.8165518916307127 -0.2793487163162014
0.7639371474464335 -0.2894556135851199
0.7770908334925033 -0.32988320266079385
0.9217813799992711 -0.2894556135851199
1.0664719265060392 -0.22881422997160894
1.198008786966737 -0.21870733270269044
1.2637772171970862 -0.2692418190472829
1.408467763703854 -0.35009699719863085
1.618926740440971 -0.2894556135851199
1.829385717178088 -0.2591349217783644
1.974076263684856 -0.2692418190472829
2.171381554375903 -0.31977630539187535
2.4213015892512293 -0.3096694081229569
2.736990054356905 -0.2591349217783644
3.1710616938772085 -0.23892112724052741
3.5393649031671632 -0.23892112724052741
3.894514426411048 -0.2793487163162014
4.1575881473324445 -0.23892112724052741
4.341739751977421 -0.22881422997160894
4.512737670576329 -0.22881422997160894
4.381200810115631 -0.2894556135851199
4.210202891516723 -0.3096694081229569
3.9076681124571175 -0.21870733270269044
3.342059612476116 -0.18838664089593496
2.092459438099484 -0.20860043543377196
0.6455539730318052 -0.2591349217783644
-0.4330482827459191 -0.2692418190472829
-0.9986567827269209 -0.19849353816485346
-1.2880378757404567 -0.147959051820261
-1.4458821082932944 -0.1378521545513425
-1.472189480385434 -0.16817284635809798
-1.406421050155085 -0.16817284635809798
-1.3801136780629453 -0.1378521545513425
-1.4984968524775737 -0.15806594908917948
-1.5905726548000623 -0.19849353816485346
-1.616880026892202 -0.19849353816485346
-1.5248042245697133 -0.16817284635809798
-1.5248042245697133 -0.17827974362701648
-1.6694947710764811 -0.21870733270269044
-1.8931074338596678 -0.24902802450944592
-2.103566410596785 -0.18838664089593496
-2.1824885268732035 -0.16817284635809798
-2.1956422129192736 -0.20860043543377196
-2.2087958989653433 -0.2894556135851199
-2.221949585011413 -0.3096694081229569
-2.314025387333902 -0.23892112724052741
-2.43240856174853 -0.20860043543377196
-2.4192548757024603 -0.22881422997160894
-2.379793817564251 -0.2591349217783644
-2.314025387333902 -0.21870733270269044
-2.3271790733799715 -0.22881422997160894
-2.4192548757024603 -0.24902802450944592
-2.4455622477945997 -0.2793487163162014
-2.43240856174853 -0.2692418190472829
-2.4192548757024603 -0.21870733270269044
-2.45871593384067 -0.22881422997160894
-2.498176991978879 -0.2793487163162014
-2.4850233059328093 -0.24902802450944592
-2.4850233059328093 -0.17827974362701648
-2.563945422209228 -0.147959051820261
-2.6823285966238566 -0.17827974362701648
-2.734943340808136 -0.2591349217783644
-2.787558084992415 -0.2591349217783644
-2.774404398946345 -0.18838664089593496
-2.6560212245317167 -0.16817284635809798
-2.4718696198867396 -0.18838664089593496
-2.379793817564251 -0.20860043543377196
-2.3534864454721114 -0.16817284635809798
-2.3929475036103205 -0.19849353816485346
-2.524484364071019 -0.22881422997160894
-2.563945422209228 -0.21870733270269044
-2.5507917361631582 -0.1378521545513425
-2.5507917361631582 -0.1378521545513425
-2.6297138524395773 -0.16817284635809798
-2.577099108255298 -0.19849353816485346
-2.45871593384067 -0.147959051820261
-2.3271790733799715 -0.09742456547566854
-2.2745643291956923 -0.09742456547566854
-2.2614106431496226 -0.1378521545513425
-2.2351032710574827 -0.147959051820261
-2.1956422129192736 -0.127745257282424
-2.1167200966428545 -0.11763836001350551
-1.9983369222282263 -0.11763836001350551
-2.1430274687349944 -0.08731766820675003
-2.1956422129192736 -0.03678318186215757
-2.1298737826889242 -0.09742456547566854
-2.011490608274296 -0.15806594908917948
-1.9325684919978774 -0.1378521545513425
-1.8668000617675282 -0.05699697639999456
-1.7221095152607604 -0.02667628459323908
-1.5905726548000623 -0.05699697639999456
-1.551111596661853 -0.07721077093783155
-1.6300337129382718 -0.01656938732432059
-1.6431873989843415 -0.0064624900554020965
-1.5248042245697133 -0.01656938732432059
-1.3143452478325963 -0.02667628459323908
-1.274884189694387 -0.0064624900554020965
-1.406421050155085 -0.01656938732432059
-1.5774189687539926 -0.04689007913107607
-1.5905726548000623 -0.06710387366891306
-1.4984968524775737 0.0036444072135163965
-1.406421050155085 0.04407199628919037
-1.327498933878666 -0.0064624900554020965
-1.3143452478325963 -0.06710387366891306
-1.3932673641090152 -0.03678318186215757
-1.4590357943393641 0.03396509902027187
-1.406421050155085 0.05417889355810886
-1.2091157594640378 0.02385820175135338
-0.9065809804044322 0.01375130448243489
-0.8671199222662228 0.02385820175135338
-1.0249641548190604 0.01375130448243489
-1.1696547013258285 -0.02667628459323908
-1.1565010152797586 -0.01656938732432059
-1.0381178408651304 0.03396509902027187
-1.0381178408651304 0.05417889355810886
-0.9328883524965719 0.06428579082702736
-0.7355830618055247 0.02385820175135338
-0.6566609455291059 0.04407199628919037
-0.7750441199437341 0.08449958536486434
-0.853966236220153 0.09460648263378284
-0.7487367478515945 0.04407199628919037
-0.6303535734369663 0.01375130448243489
-0.6040462013448267 0.05417889355810886
-0.7224293757594549 0.09460648263378284
-0.8145051780819436 0.10471337990270133
-0.7355830618055247 0.11482027717161981
-0.6698146315751757 0.10471337990270133
-0.6566609455291059 0.11482027717161981
-0.6698146315751757 0.04407199628919037
-0.6698146315751757 0.05417889355810886
-0.6566609455291059 0.04407199628919037
-0.6829683176212455 0.10471337990270133
-0.6566609455291059 0.1350340717094568
-0.6435072594830361 0.07439268809594585
-0.5514314571605474 0.05417889355810886
-0.5645851432066172 0.09460648263378284
-0.6040462013448267 0.1249271744405383
-0.6435072594830361 0.08449958536486434
-0.6435072594830361 0.05417889355810886
-0.6303535734369663 0.07439268809594585
-0.5514314571605474 0.10471337990270133
-0.3804335385616399 0.1249271744405383
-0.3409724804234305 0.05417889355810886
-0.47250934088412855 0.07439268809594585
-0.6566609455291059 0.10471337990270133
-0.6698146315751757 0.06428579082702736
-0.6303535734369663 0.04407199628919037
-0.7092756897133852 0.03396509902027187
-0.7355830618055247 0.10471337990270133
-0.6829683176212455 0.09460648263378284
-0.6171998873908965 0.05417889355810886
-0.6435072594830361 0.04407199628919037
-0.6566609455291059 0.05417889355810886
-0.6303535734369663 0.06428579082702736
-0.6566609455291059 0.04407199628919037
-0.7487367478515945 0.03396509902027187
-0.7355830618055247 0.11482027717161981
-0.5908925152987569 0.08449958536486434
-0.511970399022338 0.02385820175135338
-0.6171998873908965 0.01375130448243489
-0.6829683176212455 0.04407199628919037
-0.6961220036673154 0.09460648263378284
-0.7487367478515945 0.08449958536486434
-0.6698146315751757 0.0036444072135163965
-0.6171998873908965 0.0036444072135163965
-0.5908925152987569 0.05417889355810886
-0.511970399022338 0.06428579082702736
-0.511970399022338 0.02385820175135338
-0.6040462013448267 0.0036444072135163965
-0.7355830618055247 0.03396509902027187
-0.8145051780819436 0.03396509902027187
-0.7618904338976643 0.02385820175135338
-0.6698146315751757 0.0036444072135163965
-0.5251240850684078 0.0036444072135163965
-0.39358722460770973 0.03396509902027187
-0.32781879437736067 -0.0064624900554020965
-0.32781879437736067 -0.03678318186215757
-0.3672798525155701 -0.01656938732432059
-0.28835773623915123 0.04407199628919037
-0.11735981764024372 0.04407199628919037
0.04048441491259398 0.02385820175135338
0.09309915909687322 -0.01656938732432059
0.17202127537329207 -0.02667628459323908
0.14571390328115244 -0.02667628459323908
0.0799454730508034 -0.01656938732432059
-0.012130329271685253 -0.03678318186215757
0.0010233567743845565 -0.04689007913107607
0.11940653118901283 -0.06710387366891306
0.27725076374185054 -0.127745257282424
0.30355813583399016 -0.18838664089593496
0.1983286474654317 -0.16817284635809798
-0.2225893060088022 -0.16817284635809798
-0.9723494106347813 -0.22881422997160894
-2.024644294320366 -0.2894556135851199
-3.1164002361441603 -0.3096694081229569
-4.129234061691536 -0.2692418190472829
-4.957916282593933 -0.2591349217783644
-5.484063724436726 -0.2793487163162014
-5.668215329081703 -0.2995625108540384
-5.668215329081703 -0.2894556135851199
-5.641907956989564 -0.2894556135851199
-5.6550616430356335 -0.2894556135851199
-5.628754270943493 -0.2692418190472829
-5.4446026662985165 -0.19849353816485346
-5.2341436895613995 -0.16817284635809798
-4.9842236546860725 -0.18838664089593496
-4.839533108179305 -0.21870733270269044
-4.681688875626468 -0.19849353816485346
-4.471229898889351 -0.09742456547566854
-4.142387747737605 -0.05699697639999456
-3.82669928263193 -0.05699697639999456
-3.4978571314801847 -0.06710387366891306
-3.0769391780059507 -0.02667628459323908
-2.616560166393507 0.0036444072135163965
-2.2745643291956923 0.02385820175135338
-2.1430274687349944 -0.05699697639999456
-2.169334840827134 -0.02667628459323908
-2.1298737826889242 -0.01656938732432059
-2.011490608274296 -0.03678318186215757
-1.8010316315371793 -0.05699697639999456
-1.5248042245697133 -0.03678318186215757
-1.3801136780629453 0.02385820175135338
-1.340652619924736 0.01375130448243489
-1.3143452478325963 -0.04689007913107607
-1.261730503648317 -0.05699697639999456
-1.06442521295727 -0.01656938732432059
-0.8802736083122926 0.01375130448243489
-0.6435072594830361 -0.02667628459323908
-0.39358722460770973 -0.07721077093783155
-0.235742992054872 -0.04689007913107607
-0.11735981764024372 -0.01656938732432059
0.05363810095866379 -0.01656938732432059
0.3298655079261298 -0.0064624900554020965
0.43509499629468823 0.0036444072135163965
0.43509499629468823 0.02385820175135338
0.4219413102486184 0.01375130448243489
0.514017112571107 -0.02667628459323908
0.6455539730318052 -0.05699697639999456
0.6850150311700146 0.01375130448243489
0.7639371474464335 0.05417889355810886
0.8428592637228524 0.02385820175135338
0.9086276939532013 -0.02667628459323908
0.9349350660453409 -0.02667628459323908
1.01385718232176 0.02385820175135338
1.0796256125521089 0.04407199628919037
1.198008786966737 0.02385820175135338
1.2637772171970862 0.0036444072135163965
1.3426993334735051 0.02385820175135338
1.3953140776577844 0.02385820175135338
1.3821603916117144 0.02385820175135338
1.5005435660263426 -0.0064624900554020965
1.6452341125331107 0.02385820175135338
1.6452341125331107 0.04407199628919037
1.5005435660263426 0.02385820175135338
1.408467763703854 -0.01656938732432059
1.4479288218420636 -0.01656938732432059
1.618926740440971 0.01375130448243489
1.8162320311320181 0.05417889355810886
1.8688467753162974 0.0036444072135163965
1.9214615195005766 -0.02667628459323908
1.9346152055466463 0.0036444072135163965
1.9346152055466463 0.02385820175135338
1.9214615195005766 0.03396509902027187
1.960922577638786 0.0036444072135163965
1.974076263684856 0.01375130448243489
2.0135373218230654 0.03396509902027187
2.0529983799612745 0.04407199628919037
2.105613124145554 0.01375130448243489
2.184535240421973 -0.0064624900554020965
2.2766110427444617 0.06428579082702736
2.250303670652322 0.06428579082702736
2.1450741822837633 0.01375130448243489
2.0135373218230654 -0.0064624900554020965
2.0003836357769953 0.01375130448243489
2.0529983799612745 0.06428579082702736
2.118766810191624 0.06428579082702736
2.158227868329833 0.02385820175135338
2.171381554375903 -0.03678318186215757
2.171381554375903 -0.0064624900554020965
2.1450741822837633 0.06428579082702736
2.118766810191624 0.05417889355810886
2.0661520660073447 0.03396509902027187
1.960922577638786 0.02385820175135338
1.9477688915927163 0.03396509902027187
1.9083078334545067 0.0036444072135163965
1.8425394032241578 -0.03678318186215757
1.7110025427634596 -0.02667628459323908
1.6452341125331107 0.0036444072135163965
1.5926193683488314 0.01375130448243489
1.5400046241645522 -0.02667628459323908
1.4610825078881333 -0.07721077093783155
1.487389879980273 -0.04689007913107607
1.5400046241645522 0.03396509902027187
1.5005435660263426 0.02385820175135338
1.3295456474274352 -0.01656938732432059
1.1322403567363881 -0.07721077093783155
1.01385718232176 -0.03678318186215757
1.00070349627569 -0.0064624900554020965
1.0270108683678296 0.0036444072135163965
0.9349350660453409 -0.02667628459323908
0.8954740079071315 -0.03678318186215757
0.8297055776767825 -0.03678318186215757
0.7376297753542939 -0.03678318186215757
0.7113224032621542 -0.05699697639999456
0.6192466009396655 -0.04689007913107607
0.5534781707093165 -0.0064624900554020965
0.5271707986171769 0.02385820175135338
0.5403244846632467 -0.0064624900554020965
0.5534781707093165 -0.05699697639999456
0.5534781707093165 -0.07721077093783155
0.5271707986171769 -0.01656938732432059
0.43509499629468823 0.04407199628919037
0.3693265660643392 0.02385820175135338
0.27725076374185054 -0.02667628459323908
0.1983286474654317 -0.05699697639999456
0.17202127537329207 -0.02667628459323908
0.14571390328115244 0.01375130448243489
0.10625284514294303 -0.01656938732432059
0.10625284514294303 -0.04689007913107607
0.0667917870047336 -0.05699697639999456
0.027330728866524174 -0.01656938732432059
-0.012130329271685253 0.0036444072135163965
0.0010233567743845565 -0.02667628459323908
-0.012130329271685253 -0.03678318186215757
-0.012130329271685253 -0.01656938732432059
0.0010233567743845565 -0.01656938732432059
-0.03843770136382487 -0.04689007913107607
-0.0910524455481041 -0.07721077093783155
-0.06474507345596449 -0.02667628459323908
0.027330728866524174 0.02385820175135338
0.014177042820454365 0.01375130448243489
-0.0778987595020343 -0.03678318186215757
-0.13051350368631354 -0.07721077093783155
-0.16997456182452295 -0.02667628459323908
-0.13051350368631354 0.0036444072135163965
-0.0910524455481041 -0.02667628459323908
-0.0910524455481041 -0.05699697639999456
-0.06474507345596449 -0.04689007913107607
-0.10420613159417391 -0.02667628459323908
-0.10420613159417391 -0.03678318186215757
-0.14366718973238335 -0.05699697639999456
-0.19628193391666257 -0.04689007913107607
-0.19628193391666257 -0.01656938732432059
-0.18312824787059276 -0.02667628459323908
-0.19628193391666257 -0.07721077093783155
-0.2752040501930814 -0.07721077093783155
-0.2620503641470116 -0.01656938732432059
-0.19628193391666257 0.0036444072135163965
-0.2225893060088022 -0.02667628459323908
-0.24889667810094182 -0.07721077093783155
-0.2225893060088022 -0.08731766820675003
-0.14366718973238335 -0.04689007913107607
-0.15682087577845316 -0.03678318186215757
-0.18312824787059276 -0.06710387366891306
-0.2752040501930814 -0.10753146274458703
-0.39358722460770973 -0.07721077093783155
-0.4462019687919889 -0.06710387366891306
-0.3672798525155701 -0.05699697639999456
-0.24889667810094182 -0.07721077093783155
-0.18312824787059276 -0.09742456547566854
-0.18312824787059276 -0.05699697639999456
-0.19628193391666257 -0.06710387366891306
-0.2225893060088022 -0.10753146274458703
-0.24889667810094182 -0.10753146274458703
-0.2620503641470116 -0.05699697639999456
-0.28835773623915123 -0.02667628459323908
-0.32781879437736067 -0.02667628459323908
-0.3804335385616399 -0.10753146274458703
-0.39358722460770973 -0.127745257282424
-0.40674091065377954 -0.09742456547566854
-0.3672798525155701 -0.05699697639999456
-0.3409724804234305 -0.06710387366891306
-0.31466510833129085 -0.08731766820675003
-0.28835773623915123 -0.10753146274458703
-0.28835773623915123 -0.08731766820675003
-0.3672798525155701 -0.05699697639999456
-0.4330482827459191 -0.05699697639999456
-0.4462019687919889 -0.07721077093783155
-0.4198945966998493 -0.04689007913107607
-0.45935565483805874 -0.06710387366891306
-0.5382777711144776 -0.09742456547566854
-0.511970399022338 -0.127745257282424
-0.4198945966998493 -0.07721077093783155
-0.3541261664695003 -0.01656938732432059
-0.39358722460770973 -0.05699697639999456
-0.3541261664695003 -0.08731766820675003
-0.3409724804234305 -0.09742456547566854
-0.28835773623915123 -0.06710387366891306
-0.32781879437736067 -0.05699697639999456
-0.32781879437736067 -0.07721077093783155
-0.3409724804234305 -0.08731766820675003
-0.3672798525155701 -0.06710387366891306
-0.3672798525155701 -0.06710387366891306
-0.32781879437736067 -0.07721077093783155
-0.32781879437736067 -0.07721077093783155
-0.32781879437736067 -0.03678318186215757
-0.3409724804234305 -0.04689007913107607
-0.32781879437736067 -0.09742456547566854
-0.3541261664695003 -0.127745257282424
-0.40674091065377954 -0.10753146274458703
-0.3804335385616399 -0.05699697639999456
-0.30151142228522104 -0.04689007913107607
-0.30151142228522104 -0.08731766820675003
-0.3541261664695003 -0.127745257282424
-0.39358722460770973 -0.127745257282424
-0.4198945966998493 -0.11763836001350551
-0.30151142228522104 -0.1378521545513425
-0.15682087577845316 -0.147959051820261
-0.14366718973238335 -0.11763836001350551
-0.20943561996273238 -0.09742456547566854
-0.28835773623915123 -0.127745257282424
-0.32781879437736067 -0.1378521545513425
-0.19628193391666257 -0.11763836001350551
-0.0910524455481041 -0.09742456547566854
-0.0910524455481041 -0.10753146274458703
-0.0910524455481041 -0.1378521545513425
-0.13051350368631354 -0.147959051820261
-0.15682087577845316 -0.10753146274458703
-0.10420613159417391 -0.05699697639999456
-0.012130329271685253 -0.05699697639999456
0.014177042820454365 -0.08731766820675003
-0.012130329271685253 -0.09742456547566854
-0.06474507345596449 -0.08731766820675003
-0.10420613159417391 -0.11763836001350551
-0.051591387409894676 -0.127745257282424
-0.025284015317755062 -0.09742456547566854
-0.0910524455481041 -0.07721077093783155
-0.16997456182452295 -0.08731766820675003
-0.2225893060088022 -0.10753146274458703
-0.235742992054872 -0.11763836001350551
-0.18312824787059276 -0.04689007913107607
-0.14366718973238335 -0.06710387366891306
-0.2225893060088022 -0.05699697639999456
-0.31466510833129085 -0.10753146274458703
-0.3804335385616399 -0.09742456547566854
-0.39358722460770973 -0.07721077093783155
-0.3541261664695003 -0.05699697639999456
-0.3409724804234305 -0.05699697639999456
-0.2752040501930814 -0.03678318186215757
-0.30151142228522104 -0.03678318186215757
-0.31466510833129085 -0.05699697639999456
-0.30151142228522104 -0.09742456547566854
-0.2752040501930814 -0.07721077093783155
-0.2620503641470116 -0.01656938732432059
-0.30151142228522104 -0.0064624900554020965
-0.3804335385616399 -0.05699697639999456
-0.3672798525155701 -0.03678318186215757
-0.2752040501930814 -0.0064624900554020965
-0.2225893060088022 0.0036444072135163965
-0.24889667810094182 -0.02667628459323908
-0.30151142228522104 -0.02667628459323908
-0.31466510833129085 -0.0064624900554020965
-0.32781879437736067 -0.0064624900554020965
-0.28835773623915123 -0.01656938732432059
-0.24889667810094182 -0.0064624900554020965
-0.18312824787059276 0.04407199628919037
-0.11735981764024372 0.02385820175135338
-0.10420613159417391 -0.03678318186215757
-0.19628193391666257 -0.04689007913107607
-0.30151142228522104 0.01375130448243489
-0.31466510833129085 0.04407199628919037
-0.24889667810094182 0.01375130448243489
-0.2225893060088022 0.0036444072135163965
-0.2752040501930814 0.02385820175135338
-0.3541261664695003 -0.0064624900554020965
-0.3541261664695003 -0.02667628459323908
-0.20943561996273238 -0.03678318186215757
-0.19628193391666257 -0.0064624900554020965
-0.235742992054872 0.01375130448243489
-0.2620503641470116 -0.02667628459323908
-0.2752040501930814 -0.06710387366891306
-0.28835773623915123 -0.04689007913107607
-0.2620503641470116 0.0036444072135163965
-0.16997456182452295 -0.0064624900554020965
-0.10420613159417391 -0.04689007913107607
0.10625284514294303 -0.04689007913107607
0.2509433916497109 -0.04689007913107607
0.4877097404789675 -0.03678318186215757
0.7113224032621542 -0.06710387366891306
1.01385718232176 -0.02667628459323908
1.2506235311510163 -0.0064624900554020965
1.4479288218420636 -0.04689007913107607
1.6057730543949011 -0.09742456547566854
1.7899246590398785 -0.06710387366891306
2.0529983799612745 0.02385820175135338
2.36868684506695 0.03396509902027187
2.526531077619788 0.0036444072135163965
2.4739163334355085 -0.01656938732432059
2.2766110427444617 0.0036444072135163965
2.092459438099484 0.01375130448243489
1.69784885671739 0.02385820175135338
0.9217813799992711 0.02385820175135338
-0.025284015317755062 0.09460648263378284
-0.7224293757594549 0.10471337990270133
-1.1828083873718982 0.04407199628919037
-1.3669599920168756 0.06428579082702736
-1.327498933878666 0.1249271744405383
-1.1959620734179681 0.1350340717094568
-1.0249641548190604 0.08449958536486434
-0.9197346664505021 0.06428579082702736
-0.853966236220153 0.03396509902027187
-0.8408125501740832 0.03396509902027187
-0.7618904338976643 0.02385820175135338
-0.6435072594830361 0.02385820175135338
-0.5645851432066172 0.01375130448243489
-0.5382777711144776 -0.03678318186215757
-0.5514314571605474 -0.09742456547566854
-0.5908925152987569 -0.08731766820675003
-0.5645851432066172 -0.02667628459323908
-0.5514314571605474 -0.07721077093783155
-0.5908925152987569 -0.09742456547566854
-0.5908925152987569 -0.10753146274458703
-0.5251240850684078 -0.09742456547566854
-0.511970399022338 -0.10753146274458703
-0.47250934088412855 -0.09742456547566854
-0.47250934088412855 -0.03678318186215757
-0.45935565483805874 -0.03678318186215757
-0.45935565483805874 -0.09742456547566854
-0.4330482827459191 -0.09742456547566854
-0.3672798525155701 -0.06710387366891306
-0.28835773623915123 -0.05699697639999456
-0.2752040501930814 -0.08731766820675003
-0.3541261664695003 -0.04689007913107607
-0.40674091065377954 -0.05699697639999456
-0.3672798525155701 -0.07721077093783155
-0.24889667810094182 -0.08731766820675003
-0.18312824787059276 -0.03678318186215757
-0.2225893060088022 -0.01656938732432059
-0.2752040501930814 -0.05699697639999456
-0.32781879437736067 -0.06710387366891306
-0.30151142228522104 -0.02667628459323908
-0.2752040501930814 -0.0064624900554020965
-0.19628193391666257 0.01375130448243489
-0.13051350368631354 0.03396509902027187
-0.10420613159417391 0.04407199628919037
-0.15682087577845316 0.01375130448243489
-0.18312824787059276 -0.04689007913107607
-0.13051350368631354 0.0036444072135163965
-0.0910524455481041 0.04407199628919037
-0.0778987595020343 0.04407199628919037
-0.10420613159417391 0.02385820175135338
-0.0778987595020343 0.05417889355810886
-0.051591387409894676 0.03396509902027187
-0.051591387409894676 0.02385820175135338
-0.03843770136382487 0.03396509902027187
-0.06474507345596449 0.09460648263378284
-0.0910524455481041 0.08449958536486434
-0.14366718973238335 0.06428579082702736
-0.10420613159417391 0.07439268809594585
-0.012130329271685253 0.07439268809594585
0.04048441491259398 0.06428579082702736
0.09309915909687322 0.05417889355810886
0.05363810095866379 0.07439268809594585
-0.03843770136382487 0.09460648263378284
-0.10420613159417391 0.07439268809594585
-0.11735981764024372 0.09460648263378284
-0.051591387409894676 0.16535476351621228
-0.025284015317755062 0.1451409689783753
-0.025284015317755062 0.10471337990270133
0.0010233567743845565 0.09460648263378284
-0.012130329271685253 0.1249271744405383
-0.051591387409894676 0.1350340717094568
-0.06474507345596449 0.1350340717094568
-0.0778987595020343 0.17546166078513079
-0.0778987595020343 0.16535476351621228
-0.0778987595020343 0.1249271744405383
-0.051591387409894676 0.1249271744405383
-0.012130329271685253 0.15524786624729378
0.04048441491259398 0.18556855805404926
0.05363810095866379 0.18556855805404926
-0.025284015317755062 0.19567545532296776
-0.025284015317755062 0.20578235259188626
-0.03843770136382487 0.1451409689783753
-0.03843770136382487 0.16535476351621228
-0.051591387409894676 0.19567545532296776
0.027330728866524174 0.2664237362053972
0.0799454730508034 0.23610304439864171
0.11940653118901283 0.22599614712972324
0.13256021723508266 0.24620994166756022
0.10625284514294303 0.2765306334743157
0.09309915909687322 0.24620994166756022
0.10625284514294303 0.2563168389364787
0.11940653118901283 0.2765306334743157
0.10625284514294303 0.28663753074323417
0.05363810095866379 0.2765306334743157
0.014177042820454365 0.28663753074323417
0.0010233567743845565 0.3472789143567451
0.09309915909687322 0.37759960616350063
0.15886758932722225 0.3472789143567451
0.23778970560364113 0.28663753074323417
0.23778970560364113 0.3169582225499897
0.1983286474654317 0.38770650343241914
0.18517496141936188 0.36749270889458213
0.17202127537329207 0.36749270889458213
0.17202127537329207 0.38770650343241914
0.18517496141936188 0.36749270889458213
0.0667917870047336 0.3371720170878267
0.014177042820454365 0.3270651198189082
0.014177042820454365 0.36749270889458213
0.09309915909687322 0.4180271952391746
0.15886758932722225 0.4281340925080931
0.14571390328115244 0.37759960616350063
0.09309915909687322 0.3472789143567451
0.11940653118901283 0.38770650343241914
0.14571390328115244 0.38770650343241914
0.14571390328115244 0.36749270889458213
0.11940653118901283 0.36749270889458213
0.0799454730508034 0.38770650343241914
0.11940653118901283 0.35738581162566363
0.13256021723508266 0.3472789143567451
0.10625284514294303 0.35738581162566363
0.11940653118901283 0.37759960616350063
0.14571390328115244 0.36749270889458213
0.11940653118901283 0.2967444280121527
0.027330728866524174 0.2765306334743157
-0.0778987595020343 0.2967444280121527
-0.06474507345596449 0.3270651198189082
0.0010233567743845565 0.2967444280121527
0.0799454730508034 0.2765306334743157
0.13256021723508266 0.28663753074323417
0.13256021723508266 0.28663753074323417
0.10625284514294303 0.23610304439864171
0.09309915909687322 0.23610304439864171
0.10625284514294303 0.24620994166756022
0.14571390328115244 0.2765306334743157
0.2114823335115015 0.23610304439864171
0.1983286474654317 0.17546166078513079
0.15886758932722225 0.18556855805404926
0.17202127537329207 0.22599614712972324
0.2114823335115015 0.19567545532296776
0.18517496141936188 0.1350340717094568
0.22463601955757131 0.11482027717161981
0.22463601955757131 0.17546166078513079
0.2114823335115015 0.19567545532296776
0.2640970776957807 0.18556855805404926
0.27725076374185054 0.16535476351621228
0.2640970776957807 0.19567545532296776
0.2640970776957807 0.19567545532296776
0.23778970560364113 0.15524786624729378
0.23778970560364113 0.11482027717161981
0.2509433916497109 0.16535476351621228
0.2640970776957807 0.21588924986080474
0.2640970776957807 0.20578235259188626
0.23778970560364113 0.1350340717094568
0.17202127537329207 0.1249271744405383
0.15886758932722225 0.15524786624729378
0.18517496141936188 0.16535476351621228
0.17202127537329207 0.11482027717161981
0.17202127537329207 0.10471337990270133
0.10625284514294303 0.1249271744405383
0.09309915909687322 0.1451409689783753
0.10625284514294303 0.1350340717094568
0.1983286474654317 0.08449958536486434
0.23778970560364113 0.1249271744405383
0.2114823335115015 0.15524786624729378
0.18517496141936188 0.16535476351621228
0.10625284514294303 0.08449958536486434
0.13256021723508266 0.06428579082702736
0.22463601955757131 0.11482027717161981
0.29040444978792035 0.15524786624729378
0.3298655079261298 0.11482027717161981
0.27725076374185054 0.05417889355810886
0.22463601955757131 0.04407199628919037
0.1983286474654317 0.10471337990270133
0.23778970560364113 0.1350340717094568
0.1983286474654317 0.08449958536486434
0.18517496141936188 0.05417889355810886
0.13256021723508266 0.09460648263378284
0.09309915909687322 0.11482027717161981
0.11940653118901283 0.08449958536486434
0.13256021723508266 0.05417889355810886
0.14571390328115244 0.07439268809594585
0.13256021723508266 0.08449958536486434
0.09309915909687322 0.08449958536486434
0.04048441491259398 0.02385820175135338
0.027330728866524174 0.01375130448243489
0.04048441491259398 0.07439268809594585
0.0667917870047336 0.09460648263378284
0.05363810095866379 0.08449958536486434
0.027330728866524174 0.01375130448243489
-0.025284015317755062 0.03396509902027187
-0.051591387409894676 0.08449958536486434
-0.051591387409894676 0.07439268809594585
-0.025284015317755062 0.02385820175135338
0.0010233567743845565 -0.01656938732432059
0.0010233567743845565 0.03396509902027187
0.0010233567743845565 0.05417889355810886
0.05363810095866379 0.04407199628919037
0.0667917870047336 0.03396509902027187
0.0799454730508034 0.06428579082702736
-0.012130329271685253 0.08449958536486434
-0.051591387409894676 0.02385820175135338
-0.15682087577845316 -0.04689007913107607
-0.18312824787059276 -0.03678318186215757
-0.11735981764024372 0.06428579082702736
0.09309915909687322 0.06428579082702736
0.30355813583399016 0.01375130448243489
0.5929392288475259 -0.0064624900554020965
0.8954740079071315 0.01375130448243489
1.1453940427824578 0.04407199628919037
1.3426993334735051 0.03396509902027187
1.5005435660263426 0.0036444072135163965
1.6452341125331107 -0.0064624900554020965
1.9083078334545067 0.02385820175135338
2.2108426125141123 0.02385820175135338
2.5396847636658575 0.0036444072135163965
2.8948342869097425 0.02385820175135338
3.2368301241075574 0.08449958536486434
3.407828042706465 0.07439268809594585
3.420981728752535 0.01375130448243489
3.2631374961996973 -0.02667628459323908
3.0526785194625803 -0.01656938732432059
2.644914252034416 0.07439268809594585
1.763617286947739 0.09460648263378284
0.6324002869857354 0.07439268809594585
-0.31466510833129085 0.07439268809594585
-0.8408125501740832 0.11482027717161981
-1.0381178408651304 0.11482027717161981
-1.06442521295727 0.09460648263378284
-0.9986567827269209 0.06428579082702736
-0.8934272943583624 0.08449958536486434
-0.7092756897133852 0.1249271744405383
-0.6435072594830361 0.08449958536486434
-0.5908925152987569 0.03396509902027187
-0.5514314571605474 0.03396509902027187
-0.4330482827459191 0.10471337990270133
-0.3409724804234305 0.09460648263378284
-0.2620503641470116 0.02385820175135338
-0.28835773623915123 -0.05699697639999456
-0.3409724804234305 -0.01656938732432059
-0.3409724804234305 0.02385820175135338
-0.32781879437736067 0.0036444072135163965
-0.30151142228522104 -0.04689007913107607
-0.31466510833129085 -0.05699697639999456
-0.3409724804234305 -0.04689007913107607
-0.31466510833129085 -0.05699697639999456
-0.32781879437736067 -0.08731766820675003
-0.2752040501930814 -0.07721077093783155
-0.2752040501930814 -0.03678318186215757
-0.24889667810094182 -0.06710387366891306
-0.2620503641470116 -0.10753146274458703
-0.28835773623915123 -0.10753146274458703
-0.2752040501930814 -0.05699697639999456
-0.24889667810094182 -0.03678318186215757
-0.2225893060088022 -0.07721077093783155
-0.20943561996273238 -0.11763836001350551
-0.2225893060088022 -0.1378521545513425
-0.235742992054872 -0.07721077093783155
-0.2752040501930814 -0.08731766820675003
-0.30151142228522104 -0.09742456547566854
-0.30151142228522104 -0.09742456547566854
-0.2620503641470116 -0.08731766820675003
-0.235742992054872 -0.10753146274458703
-0.20943561996273238 -0.15806594908917948
-0.18312824787059276 -0.127745257282424
-0.19628193391666257 -0.09742456547566854
-0.19628193391666257 -0.07721077093783155
-0.235742992054872 -0.11763836001350551
-0.235742992054872 -0.147959051820261
-0.24889667810094182 -0.11763836001350551
-0.18312824787059276 -0.10753146274458703
-0.16997456182452295 -0.1378521545513425
-0.11735981764024372 -0.127745257282424
-0.10420613159417391 -0.1378521545513425
-0.11735981764024372 -0.147959051820261
-0.11735981764024372 -0.17827974362701648
-0.0910524455481041 -0.16817284635809798
-0.012130329271685253 -0.127745257282424
-0.012130329271685253 -0.08731766820675003
-0.025284015317755062 -0.18838664089593496
-0.025284015317755062 -0.21870733270269044
-0.025284015317755062 -0.1378521545513425
0.0010233567743845565 -0.11763836001350551
0.0799454730508034 -0.127745257282424
0.10625284514294303 -0.147959051820261
0.11940653118901283 -0.147959051820261
0.13256021723508266 -0.147959051820261
0.10625284514294303 -0.16817284635809798
0.13256021723508266 -0.19849353816485346
0.13256021723508266 -0.147959051820261
0.1983286474654317 -0.127745257282424
0.17202127537329207 -0.11763836001350551
0.15886758932722225 -0.17827974362701648
0.15886758932722225 -0.15806594908917948
0.14571390328115244 -0.10753146274458703
0.18517496141936188 -0.08731766820675003
0.17202127537329207 -0.1378521545513425
0.14571390328115244 -0.15806594908917948
0.15886758932722225 -0.15806594908917948
0.1983286474654317 -0.09742456547566854
0.2114823335115015 -0.09742456547566854
0.2509433916497109 -0.11763836001350551
0.27725076374185054 -0.09742456547566854
0.2640970776957807 -0.06710387366891306
0.30355813583399016 -0.11763836001350551
0.30355813583399016 -0.1378521545513425
0.30355813583399016 -0.06710387366891306
0.3430191939721996 -0.03678318186215757
0.38248025211040904 -0.01656938732432059
0.38248025211040904 -0.09742456547566854
0.3693265660643392 -0.09742456547566854
0.30355813583399016 -0.03678318186215757
0.30355813583399016 -0.02667628459323908
0.31671182188006 -0.05699697639999456
0.31671182188006 -0.08731766820675003
0.31671182188006 -0.05699697639999456
0.27725076374185054 -0.03678318186215757
0.2640970776957807 -0.03678318186215757
0.27725076374185054 -0.05699697639999456
0.27725076374185054 -0.0064624900554020965
0.2509433916497109 0.0036444072135163965
0.23778970560364113 -0.04689007913107607
0.1983286474654317 -0.10753146274458703
0.17202127537329207 -0.07721077093783155
0.17202127537329207 -0.0064624900554020965
0.1983286474654317 -0.02667628459323908
0.14571390328115244 -0.04689007913107607
0.10625284514294303 -0.05699697639999456
0.05363810095866379 -0.03678318186215757
0.04048441491259398 -0.05699697639999456
-0.03843770136382487 -0.07721077093783155
-0.025284015317755062 -0.04689007913107607
-0.051591387409894676 0.0036444072135163965
-0.025284015317755062 -0.02667628459323908
0.0010233567743845565 -0.08731766820675003
0.0010233567743845565 -0.05699697639999456
0.0010233567743845565 -0.01656938732432059
0.027330728866524174 -0.01656938732432059
0.014177042820454365 -0.05699697639999456
-0.03843770136382487 -0.09742456547566854
-0.025284015317755062 -0.09742456547566854
-0.025284015317755062 -0.05699697639999456
0.0010233567743845565 -0.05699697639999456
-0.025284015317755062 -0.07721077093783155
-0.06474507345596449 -0.06710387366891306
-0.10420613159417391 -0.04689007913107607
-0.0778987595020343 -0.10753146274458703
-0.06474507345596449 -0.10753146274458703
0.0010233567743845565 -0.08731766820675003
0.027330728866524174 -0.03678318186215757
-0.012130329271685253 -0.0064624900554020965
-0.03843770136382487 -0.07721077093783155
-0.0910524455481041 -0.10753146274458703
-0.13051350368631354 -0.07721077093783155
-0.11735981764024372 -0.02667628459323908
-0.14366718973238335 -0.04689007913107607
-0.14366718973238335 -0.07721077093783155
-0.14366718973238335 -0.07721077093783155
-0.11735981764024372 -0.06710387366891306
-0.10420613159417391 -0.05699697639999456
-0.051591387409894676 -0.07721077093783155
0.0010233567743845565 -0.07721077093783155
0.014177042820454365 -0.01656938732432059
0.04048441491259398 0.0036444072135163965
0.027330728866524174 -0.04689007913107607
0.04048441491259398 -0.08731766820675003
0.027330728866524174 -0.04689007913107607
0.05363810095866379 0.01375130448243489
0.0799454730508034 -0.02667628459323908
0.0667917870047336 -0.04689007913107607
0.04048441491259398 -0.07721077093783155
0.0667917870047336 -0.02667628459323908
0.0667917870047336 0.01375130448243489
0.09309915909687322 0.0036444072135163965
0.0667917870047336 -0.02667628459323908
0.014177042820454365 -0.03678318186215757
-0.03843770136382487 -0.02667628459323908
-0.06474507345596449 -0.0064624900554020965
-0.051591387409894676 -0.03678318186215757
-0.051591387409894676 -0.04689007913107607
-0.06474507345596449 -0.02667628459323908
-0.03843770136382487 -0.01656938732432059
-0.051591387409894676 -0.05699697639999456
-0.051591387409894676 -0.06710387366891306
-0.03843770136382487 -0.05699697639999456
-0.012130329271685253 -0.01656938732432059
-0.03843770136382487 -0.03678318186215757
-0.025284015317755062 -0.05699697639999456
-0.0778987595020343 -0.10753146274458703
-0.06474507345596449 -0.05699697639999456
-0.03843770136382487 0.0036444072135163965
0.027330728866524174 0.0036444072135163965
0.04048441491259398 -0.06710387366891306
0.04048441491259398 -0.06710387366891306
0.0010233567743845565 -0.03678318186215757
-0.012130329271685253 -0.0064624900554020965
0.014177042820454365 -0.02667628459323908
0.0667917870047336 -0.03678318186215757
0.05363810095866379 -0.03678318186215757
0.0010233567743845565 -0.0064624900554020965
0.0010233567743845565 -0.01656938732432059
-0.03843770136382487 -0.03678318186215757
-0.03843770136382487 -0.03678318186215757
-0.06474507345596449 -0.0064624900554020965
-0.0910524455481041 0.01375130448243489
-0.15682087577845316 -0.04689007913107607
-0.18312824787059276 -0.07721077093783155
-0.16997456182452295 -0.03678318186215757
-0.15682087577845316 0.01375130448243489
-0.0910524455481041 0.04407199628919037
-0.11735981764024372 -0.02667628459323908
-0.11735981764024372 -0.05699697639999456
-0.15682087577845316 -0.04689007913107607
-0.15682087577845316 -0.01656938732432059
-0.11735981764024372 0.0036444072135163965
-0.0778987595020343 -0.0064624900554020965
-0.051591387409894676 -0.03678318186215757
-0.03843770136382487 -0.01656938732432059
-0.0910524455481041 -0.01656938732432059
-0.10420613159417391 -0.0064624900554020965
-0.13051350368631354 -0.02667628459323908
-0.0910524455481041 -0.02667628459323908
-0.06474507345596449 -0.0064624900554020965
-0.0778987595020343 0.0036444072135163965
-0.0778987595020343 -0.02667628459323908
-0.06474507345596449 -0.03678318186215757
-0.051591387409894676 -0.01656938732432059
-0.051591387409894676 -0.01656938732432059
-0.10420613159417391 0.01375130448243489
-0.14366718973238335 -0.03678318186215757
-0.18312824787059276 -0.05699697639999456
-0.13051350368631354 -0.05699697639999456
0.0010233567743845565 -0.01656938732432059
0.18517496141936188 -0.0064624900554020965
0.3561728800182694 -0.02667628459323908
0.5271707986171769 -0.03678318186215757
0.7113224032621542 -0.03678318186215757
0.9349350660453409 0.04407199628919037
1.1717014148745974 0.01375130448243489
1.3953140776577844 0.01375130448243489
1.6057730543949011 -0.01656938732432059
1.829385717178088 0.0036444072135163965
2.0661520660073447 0.03396509902027187
2.3423794729748106 0.05417889355810886
2.6317605659883463 0.04407199628919037
2.947449031094022 0.05417889355810886
3.1447543217850686 0.07439268809594585
3.210522752015418 0.08449958536486434
3.2368301241075574 0.03396509902027187
3.06583220550865 0.03396509902027187
2.7501437404029745 0.06428579082702736
2.171381554375903 0.08449958536486434
1.2374698451049466 0.11482027717161981
0.2640970776957807 0.09460648263378284
-0.3804335385616399 0.07439268809594585
-0.6829683176212455 0.1249271744405383
-0.853966236220153 0.18556855805404926
-0.9591957245887115 0.18556855805404926
-0.9460420385426417 0.17546166078513079
-0.8671199222662228 0.11482027717161981
-0.7750441199437341 0.11482027717161981
-0.6829683176212455 0.1350340717094568
-0.5908925152987569 0.16535476351621228
-0.5514314571605474 0.1350340717094568
-0.5251240850684078 0.11482027717161981
-0.48566302693019836 0.09460648263378284
-0.47250934088412855 0.1249271744405383
-0.4988167129762682 0.1350340717094568
-0.5382777711144776 0.10471337990270133
-0.511970399022338 0.07439268809594585
-0.48566302693019836 0.08449958536486434
-0.4988167129762682 0.07439268809594585
-0.6171998873908965 0.07439268809594585
-0.6698146315751757 0.02385820175135338
-0.5514314571605474 0.02385820175135338
-0.39358722460770973 0.01375130448243489
-0.30151142228522104 0.04407199628919037
-0.2752040501930814 0.03396509902027187
-0.24889667810094182 -0.02667628459323908
-0.2225893060088022 -0.02667628459323908
-0.19628193391666257 -0.0064624900554020965
-0.15682087577845316 0.02385820175135338
-0.2225893060088022 0.02385820175135338
-0.24889667810094182 -0.01656938732432059
-0.235742992054872 -0.02667628459323908
-0.20943561996273238 -0.01656938732432059
-0.18312824787059276 0.05417889355810886
-0.14366718973238335 0.05417889355810886
-0.10420613159417391 0.01375130448243489
-0.16997456182452295 -0.03678318186215757
-0.18312824787059276 -0.01656938732432059
-0.24889667810094182 0.0036444072135163965
-0.16997456182452295 0.02385820175135338
-0.13051350368631354 0.0036444072135163965
-0.18312824787059276 -0.01656938732432059
-0.19628193391666257 -0.03678318186215757
-0.16997456182452295 -0.03678318186215757
-0.14366718973238335 -0.0064624900554020965
-0.15682087577845316 -0.04689007913107607
-0.15682087577845316 -0.02667628459323908
-0.15682087577845316 -0.01656938732432059
-0.14366718973238335 -0.01656938732432059
-0.11735981764024372 -0.03678318186215757
-0.10420613159417391 -0.08731766820675003
-0.0910524455481041 -0.05699697639999456
-0.06474507345596449 -0.01656938732432059
-0.051591387409894676 -0.0064624900554020965
-0.0910524455481041 -0.04689007913107607
-0.13051350368631354 -0.09742456547566854
-0.14366718973238335 -0.09742456547566854
-0.15682087577845316 -0.04689007913107607
-0.11735981764024372 -0.0064624900554020965
-0.14366718973238335 -0.02667628459323908
-0.13051350368631354 -0.07721077093783155
-0.11735981764024372 -0.08731766820675003
-0.11735981764024372 -0.03678318186215757
-0.10420613159417391 -0.0064624900554020965
-0.051591387409894676 -0.02667628459323908
-0.025284015317755062 -0.04689007913107607
-0.012130329271685253 -0.05699697639999456
-0.051591387409894676 -0.03678318186215757
-0.051591387409894676 -0.0064624900554020965
0.027330728866524174 0.02385820175135338
0.13256021723508266 -0.02667628459323908
0.15886758932722225 -0.02667628459323908
0.18517496141936188 -0.02667628459323908
0.18517496141936188 -0.01656938732432059
0.18517496141936188 0.01375130448243489
0.2114823335115015 -0.0064624900554020965
0.29040444978792035 -0.01656938732432059
0.30355813583399016 0.0036444072135163965
0.30355813583399016 -0.0064624900554020965
0.23778970560364113 -0.04689007913107607
0.18517496141936188 -0.05699697639999456
0.17202127537329207 -0.04689007913107607
0.2509433916497109 -0.01656938732432059
0.3298655079261298 0.03396509902027187
0.38248025211040904 0.0036444072135163965
0.3693265660643392 -0.05699697639999456
0.3693265660643392 -0.06710387366891306
0.4087876242025486 -0.03678318186215757
0.4087876242025486 0.02385820175135338
0.3693265660643392 0.0036444072135163965
0.3693265660643392 -0.05699697639999456
0.3561728800182694 -0.08731766820675003
0.3298655079261298 -0.05699697639999456
0.3430191939721996 0.01375130448243489
0.3956339381564788 0.0036444072135163965
0.3956339381564788 -0.02667628459323908
0.3561728800182694 -0.04689007913107607
0.3430191939721996 -0.04689007913107607
0.3430191939721996 -0.01656938732432059
0.30355813583399016 -0.02667628459323908
0.31671182188006 -0.02667628459323908
0.31671182188006 -0.05699697639999456
0.3561728800182694 -0.02667628459323908
0.3430191939721996 -0.0064624900554020965
0.3693265660643392 -0.0064624900554020965
0.3561728800182694 -0.03678318186215757
0.3561728800182694 -0.03678318186215757
0.30355813583399016 -0.01656938732432059
0.2640970776957807 -0.01656938732432059
0.2114823335115015 -0.03678318186215757
0.14571390328115244 -0.02667628459323908
0.13256021723508266 -0.0064624900554020965
0.11940653118901283 0.01375130448243489
0.14571390328115244 0.02385820175135338
0.23778970560364113 -0.01656938732432059
0.29040444978792035 -0.04689007913107607
0.38248025211040904 0.01375130448243489
0.3956339381564788 0.04407199628919037
0.38248025211040904 0.05417889355810886
0.3298655079261298 -0.0064624900554020965
0.2509433916497109 -0.03678318186215757
0.22463601955757131 -0.01656938732432059
0.23778970560364113 0.02385820175135338
0.2509433916497109 0.0036444072135163965
0.27725076374185054 0.01375130448243489
0.2640970776957807 0.02385820175135338
0.23778970560364113 -0.01656938732432059
0.2509433916497109 -0.0064624900554020965
0.22463601955757131 -0.01656938732432059
0.2114823335115015 -0.0064624900554020965
0.2640970776957807 0.0036444072135163965
0.2640970776957807 0.05417889355810886
0.27725076374185054 0.05417889355810886
0.31671182188006 0.01375130448243489
0.3430191939721996 -0.0064624900554020965
0.3561728800182694 0.03396509902027187
0.3693265660643392 0.08449958536486434
0.30355813583399016 0.05417889355810886
0.29040444978792035 0.03396509902027187
0.29040444978792035 0.0036444072135163965
0.27725076374185054 0.02385820175135338
0.23778970560364113 0.06428579082702736
0.1983286474654317 0.07439268809594585
0.17202127537329207 0.04407199628919037
0.1983286474654317 0.03396509902027187
0.1983286474654317 0.05417889355810886
0.2114823335115015 0.05417889355810886
0.1983286474654317 0.05417889355810886
0.15886758932722225 0.02385820175135338
0.09309915909687322 0.04407199628919037
0.04048441491259398 0.08449958536486434
0.04048441491259398 0.05417889355810886
0.0667917870047336 0.03396509902027187
0.10625284514294303 0.07439268809594585
0.11940653118901283 0.1249271744405383
0.11940653118901283 0.11482027717161981
0.09309915909687322 0.10471337990270133
0.0667917870047336 0.05417889355810886
0.10625284514294303 0.06428579082702736
0.14571390328115244 0.1249271744405383
0.2509433916497109 0.1350340717094568
0.2640970776957807 0.10471337990270133
0.27725076374185054 0.06428579082702736
0.2509433916497109 0.07439268809594585
0.2509433916497109 0.1350340717094568
0.30355813583399016 0.1249271744405383
0.30355813583399016 0.08449958536486434
0.30355813583399016 0.06428579082702736
0.22463601955757131 0.10471337990270133
0.23778970560364113 0.11482027717161981
0.1983286474654317 0.11482027717161981
0.30355813583399016 0.09460648263378284
0.3956339381564788 0.1451409689783753
0.43509499629468823 0.1451409689783753
0.43509499629468823 0.1350340717094568
0.3956339381564788 0.10471337990270133
0.3693265660643392 0.09460648263378284
0.3298655079261298 0.15524786624729378
0.31671182188006 0.16535476351621228
0.2640970776957807 0.1249271744405383
0.23778970560364113 0.06428579082702736
0.2509433916497109 0.08449958536486434
0.2114823335115015 0.08449958536486434
0.14571390328115244 0.11482027717161981
0.14571390328115244 0.08449958536486434
0.13256021723508266 0.07439268809594585
0.15886758932722225 0.11482027717161981
0.14571390328115244 0.10471337990270133
0.11940653118901283 0.10471337990270133
0.11940653118901283 0.1249271744405383
0.11940653118901283 0.09460648263378284
0.11940653118901283 0.04407199628919037
0.11940653118901283 0.02385820175135338
0.11940653118901283 0.02385820175135338
0.10625284514294303 0.05417889355810886
0.18517496141936188 0.01375130448243489
0.2640970776957807 0.01375130448243489
0.27725076374185054 0.03396509902027187
0.2114823335115015 0.01375130448243489
0.13256021723508266 -0.02667628459323908
0.10625284514294303 -0.01656938732432059
0.10625284514294303 0.01375130448243489
0.14571390328115244 0.03396509902027187
0.17202127537329207 -0.0064624900554020965
0.0799454730508034 -0.05699697639999456
0.0010233567743845565 -0.03678318186215757
-0.012130329271685253 -0.0064624900554020965
0.04048441491259398 -0.01656938732432059
0.09309915909687322 -0.04689007913107607
0.11940653118901283 -0.04689007913107607
0.0799454730508034 -0.03678318186215757
0.0667917870047336 -0.07721077093783155
0.05363810095866379 -0.10753146274458703
0.0799454730508034 -0.05699697639999456
0.11940653118901283 -0.04689007913107607
0.13256021723508266 -0.06710387366891306
0.13256021723508266 -0.127745257282424
0.05363810095866379 -0.127745257282424
-0.03843770136382487 -0.04689007913107607
-0.012130329271685253 -0.02667628459323908
0.04048441491259398 -0.06710387366891306
0.13256021723508266 -0.07721077093783155
0.14571390328115244 -0.02667628459323908
0.0799454730508034 -0.07721077093783155
-0.025284015317755062 -0.08731766820675003
-0.051591387409894676 -0.07721077093783155
0.027330728866524174 -0.01656938732432059
0.2114823335115015 -0.05699697639999456
0.44824868234075804 -0.09742456547566854
0.6981687172160844 -0.08731766820675003
0.9612424381374806 -0.03678318186215757
1.276930903243156 -0.02667628459323908
1.5136972520724126 -0.07721077093783155
1.69784885671739 -0.05699697639999456
1.895154147408437 -0.03678318186215757
2.092459438099484 -0.01656938732432059
2.36868684506695 -0.01656938732432059
2.710682682264765 0.01375130448243489
3.0526785194625803 0.05417889355810886
3.2368301241075574 0.02385820175135338
3.276291182245767 -0.02667628459323908
3.131600635738999 -0.03678318186215757
2.881680600863673 0.01375130448243489
2.4870700194815782 0.06428579082702736
1.7504636009016692 0.06428579082702736
0.8033982055846429 0.05417889355810886
0.014177042820454365 0.10471337990270133
-0.39358722460770973 0.15524786624729378
-0.6171998873908965 0.1451409689783753
-0.6171998873908965 0.1249271744405383
-0.5645851432066172 0.1249271744405383
-0.45935565483805874 0.17546166078513079
-0.3409724804234305 0.15524786624729378
-0.32781879437736067 0.10471337990270133
-0.3541261664695003 0.09460648263378284
-0.28835773623915123 0.1249271744405383
-0.13051350368631354 0.16535476351621228
-0.0910524455481041 0.08449958536486434
-0.13051350368631354 0.03396509902027187
-0.16997456182452295 0.05417889355810886
-0.2225893060088022 0.08449958536486434
-0.19628193391666257 0.10471337990270133
-0.20943561996273238 0.03396509902027187
-0.235742992054872 0.02385820175135338
-0.19628193391666257 0.04407199628919037
-0.15682087577845316 0.01375130448243489
-0.11735981764024372 0.0036444072135163965
-0.051591387409894676 0.0036444072135163965
-0.012130329271685253 0.04407199628919037
-0.012130329271685253 0.05417889355810886
-0.051591387409894676 -0.0064624900554020965
-0.0778987595020343 -0.04689007913107607
-0.03843770136382487 -0.0064624900554020965
-0.025284015317755062 0.05417889355810886
0.014177042820454365 0.04407199628919037
0.0010233567743845565 -0.02667628459323908
-0.025284015317755062 -0.04689007913107607
-0.03843770136382487 0.0036444072135163965
-0.025284015317755062 0.03396509902027187
0.014177042820454365 0.01375130448243489
0.027330728866524174 0.03396509902027187
0.027330728866524174 0.05417889355810886
-0.012130329271685253 0.03396509902027187
-0.03843770136382487 -0.03678318186215757
-0.025284015317755062 -0.02667628459323908
0.0010233567743845565 0.05417889355810886
0.04048441491259398 0.09460648263378284
0.04048441491259398 0.05417889355810886
0.04048441491259398 -0.01656938732432059
-0.03843770136382487 0.0036444072135163965
-0.025284015317755062 0.06428579082702736
0.05363810095866379 0.05417889355810886
0.11940653118901283 0.01375130448243489
0.15886758932722225 -0.0064624900554020965
0.11940653118901283 0.01375130448243489
0.0667917870047336 0.04407199628919037
0.11940653118901283 0.03396509902027187
0.17202127537329207 0.04407199628919037
0.2114823335115015 0.07439268809594585
0.23778970560364113 0.09460648263378284
0.1983286474654317 0.03396509902027187
0.17202127537329207 -0.02667628459323908
0.15886758932722225 -0.0064624900554020965
0.2114823335115015 0.08449958536486434
0.2640970776957807 0.10471337990270133
0.2509433916497109 0.07439268809594585
0.2114823335115015 0.01375130448243489
0.2509433916497109 0.03396509902027187
0.27725076374185054 0.06428579082702736
0.30355813583399016 0.05417889355810886
0.3561728800182694 0.05417889355810886
0.3956339381564788 0.05417889355810886
0.4087876242025486 0.06428579082702736
0.4219413102486184 0.06428579082702736
0.43509499629468823 0.04407199628919037
0.4877097404789675 0.02385820175135338
0.4877097404789675 0.04407199628919037
0.43509499629468823 0.07439268809594585
0.3693265660643392 0.04407199628919037
0.3956339381564788 0.01375130448243489
0.3693265660643392 -0.0064624900554020965
0.4087876242025486 0.04407199628919037
0.4219413102486184 0.04407199628919037
0.38248025211040904 0.07439268809594585
0.3561728800182694 0.04407199628919037
0.38248025211040904 0.03396509902027187
0.4087876242025486 0.05417889355810886
0.44824868234075804 0.07439268809594585
0.47455605443289767 0.04407199628919037
0.43509499629468823 0.04407199628919037
0.4087876242025486 0.04407199628919037
0.38248025211040904 0.05417889355810886
0.3693265660643392 0.07439268809594585
0.4219413102486184 0.04407199628919037
0.44824868234075804 0.05417889355810886
0.4087876242025486 0.08449958536486434
0.47455605443289767 0.10471337990270133
0.4877097404789675 0.06428579082702736
0.4877097404789675 0.02385820175135338
0.5008634265250372 0.07439268809594585
0.44824868234075804 0.10471337990270133
0.46140236838682785 0.11482027717161981
0.38248025211040904 0.06428579082702736
0.3561728800182694 0.04407199628919037
0.3298655079261298 0.09460648263378284
0.31671182188006 0.1350340717094568
0.3430191939721996 0.1350340717094568
0.3298655079261298 0.06428579082702736
0.31671182188006 0.03396509902027187
0.29040444978792035 0.05417889355810886
0.2640970776957807 0.08449958536486434
0.22463601955757131 0.08449958536486434
0.23778970560364113 0.05417889355810886
0.23778970560364113 0.07439268809594585
0.23778970560364113 0.09460648263378284
0.2640970776957807 0.08449958536486434
0.2640970776957807 0.07439268809594585
0.2509433916497109 0.07439268809594585
0.29040444978792035 0.04407199628919037
0.2114823335115015 0.09460648263378284
0.1983286474654317 0.07439268809594585
0.13256021723508266 0.0036444072135163965
0.14571390328115244 0.01375130448243489
0.14571390328115244 0.06428579082702736
0.13256021723508266 0.10471337990270133
0.09309915909687322 0.11482027717161981
0.04048441491259398 0.03396509902027187
0.014177042820454365 0.01375130448243489
0.05363810095866379 0.01375130448243489
0.13256021723508266 0.07439268809594585
0.17202127537329207 0.10471337990270133
0.14571390328115244 0.08449958536486434
0.10625284514294303 0.03396509902027187
0.0667917870047336 0.03396509902027187
0.10625284514294303 0.09460648263378284
0.09309915909687322 0.10471337990270133
0.10625284514294303 0.08449958536486434
0.09309915909687322 0.04407199628919037
0.0799454730508034 0.02385820175135338
0.05363810095866379 0.03396509902027187
0.05363810095866379 0.06428579082702736
0.04048441491259398 0.06428579082702736
0.0667917870047336 0.04407199628919037
0.10625284514294303 0.04407199628919037
0.0799454730508034 0.05417889355810886
0.014177042820454365 0.07439268809594585
-0.012130329271685253 0.03396509902027187
0.014177042820454365 0.01375130448243489
0.027330728866524174 0.02385820175135338
0.09309915909687322 0.04407199628919037
0.10625284514294303 0.02385820175135338
0.0799454730508034 -0.02667628459323908
0.0799454730508034 -0.0064624900554020965
0.09309915909687322 0.02385820175135338
0.09309915909687322 0.03396509902027187
0.11940653118901283 0.01375130448243489
0.10625284514294303 -0.02667628459323908
0.0667917870047336 -0.06710387366891306
0.04048441491259398 -0.03678318186215757
0.09309915909687322 -0.0064624900554020965
0.10625284514294303 0.02385820175135338
0.09309915909687322 -0.01656938732432059
0.09309915909687322 -0.04689007913107607
0.05363810095866379 -0.07721077093783155
0.05363810095866379 -0.02667628459323908
0.0667917870047336 0.0036444072135163965
0.0799454730508034 -0.01656938732432059
0.0799454730508034 -0.02667628459323908
0.05363810095866379 -0.03678318186215757
0.0667917870047336 -0.02667628459323908
0.13256021723508266 -0.0064624900554020965
0.22463601955757131 -0.03678318186215757
0.29040444978792035 -0.04689007913107607
0.29040444978792035 -0.03678318186215757
0.27725076374185054 -0.02667628459323908
0.3693265660643392 -0.01656938732432059
0.5271707986171769 -0.06710387366891306
0.7113224032621542 -0.09742456547566854
0.9086276939532013 -0.07721077093783155
0.9743961241835504 -0.05699697639999456
1.00070349627569 -0.06710387366891306
0.9480887520914107 -0.08731766820675003
0.9875498102296202 -0.11763836001350551
1.0796256125521089 -0.09742456547566854
1.211162473012807 -0.07721077093783155
1.1848551009206674 -0.08731766820675003
0.9349350660453409 -0.147959051820261
0.47455605443289767 -0.20860043543377196
-0.14366718973238335 -0.19849353816485346
-0.6829683176212455 -0.1378521545513425
-1.0775788990033397 -0.09742456547566854
-1.3669599920168756 -0.10753146274458703
-1.6563410850304114 -0.15806594908917948
-2.037797980366436 -0.19849353816485346
-2.379793817564251 -0.15806594908917948
-2.708635968715996 -0.08731766820675003
-2.9322486314991827 -0.06710387366891306
-3.1427076082362997 -0.09742456547566854
-3.326859212881277 -0.1378521545513425
-3.4978571314801847 -0.10753146274458703
-3.6293939919408826 -0.04689007913107607
-3.734623480309441 -0.02667628459323908
-3.892467712862279 -0.01656938732432059
-4.076619317507256 -0.03678318186215757
-4.221309864014024 -0.02667628459323908
-4.3923077826129315 0.0036444072135163965
-4.458076212843281 0.05417889355810886
-4.51069095702756 0.03396509902027187
-4.48438358493542 0.05417889355810886
-4.418615154705071 0.08449958536486434
-4.326539352382582 0.1350340717094568
-4.287078294244373 0.1451409689783753
-4.208156177967954 0.1350340717094568
-4.089773003553326 0.1249271744405383
-4.024004573322977 0.1350340717094568
-4.024004573322977 0.18556855805404926
-3.9056213989083486 0.20578235259188626
-3.734623480309441 0.15524786624729378
-3.4847034454341146 0.15524786624729378
-3.313705526835207 0.16535476351621228
-3.1427076082362997 0.22599614712972324
-3.011170747775602 0.24620994166756022
-2.800711771038485 0.21588924986080474
-2.616560166393507 0.16535476351621228
-2.3929475036103205 0.1451409689783753
-2.1956422129192736 0.22599614712972324
-1.945722178043947 0.23610304439864171
-1.6958021431686208 0.18556855805404926
-1.472189480385434 0.1249271744405383
-1.3143452478325963 0.10471337990270133
-1.1696547013258285 0.1451409689783753
-0.9723494106347813 0.17546166078513079
-0.7487367478515945 0.17546166078513079
-0.6303535734369663 0.1249271744405383
-0.5382777711144776 0.07439268809594585
-0.45935565483805874 0.10471337990270133
-0.40674091065377954 0.10471337990270133
-0.39358722460770973 0.11482027717161981
-0.31466510833129085 0.11482027717161981
-0.235742992054872 0.08449958536486434
-0.06474507345596449 0.09460648263378284
0.027330728866524174 0.07439268809594585
0.11940653118901283 0.06428579082702736
0.2640970776957807 0.03396509902027187
0.3956339381564788 0.05417889355810886
0.5929392288475259 0.05417889355810886
0.7639371474464335 0.05417889355810886
0.9480887520914107 0.01375130448243489
1.1059329846442485 -0.03678318186215757
1.3163919613813655 -0.01656938732432059
1.5400046241645522 0.0036444072135163965
1.6715414846252503 0.02385820175135338
1.7373099148555993 -0.01656938732432059
1.763617286947739 -0.10753146274458703
1.829385717178088 -0.09742456547566854
1.9346152055466463 -0.03678318186215757
2.026691007869135 -0.01656938732432059
2.0661520660073447 -0.05699697639999456
2.0661520660073447 -0.1378521545513425
2.0661520660073447 -0.1378521545513425
2.118766810191624 -0.09742456547566854
2.158227868329833 -0.07721077093783155
2.2108426125141123 -0.09742456547566854
2.2634573566983915 -0.147959051820261
2.3292257869287405 -0.147959051820261
2.3423794729748106 -0.127745257282424
2.4213015892512293 -0.10753146274458703
2.5396847636658575 -0.1378521545513425
2.5396847636658575 -0.17827974362701648
2.5002237055276484 -0.16817284635809798
2.5002237055276484 -0.17827974362701648
2.5659921357579973 -0.15806594908917948
2.658067938080486 -0.16817284635809798
2.8290658566793936 -0.21870733270269044
2.934295345047952 -0.17827974362701648
2.947449031094022 -0.147959051820261
2.8948342869097425 -0.15806594908917948
2.8290658566793936 -0.23892112724052741
2.7764511124951143 -0.23892112724052741
2.8159121706333234 -0.18838664089593496
2.921141659001882 -0.17827974362701648
2.947449031094022 -0.18838664089593496
2.9079879729558122 -0.22881422997160894
2.8159121706333234 -0.22881422997160894
2.8422195427254633 -0.21870733270269044
2.8948342869097425 -0.11763836001350551
2.973756403186161 -0.147959051820261
2.934295345047952 -0.19849353816485346
2.9869100892322313 -0.18838664089593496
3.0263711473704404 -0.127745257282424
3.0789858915547197 -0.05699697639999456
3.131600635738999 0.05417889355810886
3.1710616938772085 0.1249271744405383
3.157908007831139 0.18556855805404926
3.197369065969348 0.28663753074323417
3.2631374961996973 0.2967444280121527
3.2894448682918367 0.28663753074323417
3.2631374961996973 0.3169582225499897
3.0921395776007894 0.3371720170878267
2.8422195427254633 0.3371720170878267
2.6186068799422766 0.3169582225499897
2.5002237055276484 0.2664237362053972
2.460762647389439 0.28663753074323417
2.4870700194815782 0.2967444280121527
2.460762647389439 0.3169582225499897
2.39499421715909 0.2563168389364787
2.302918414836601 0.19567545532296776
2.1976889264680426 0.19567545532296776
2.158227868329833 0.22599614712972324
2.1450741822837633 0.21588924986080474
2.118766810191624 0.16535476351621228
2.026691007869135 0.1249271744405383
1.8425394032241578 0.10471337990270133
1.6583877985791804 0.1350340717094568
1.553158310210622 0.10471337990270133
1.553158310210622 0.06428579082702736
1.5794656823027615 0.07439268809594585
1.553158310210622 0.09460648263378284
1.5268509381184823 0.05417889355810886
1.4610825078881333 -0.0064624900554020965
1.4347751357959937 0.01375130448243489
1.4347751357959937 0.06428579082702736
1.5136972520724126 0.1249271744405383
1.4742361939342032 0.05417889355810886
1.4479288218420636 -0.0064624900554020965
1.3821603916117144 -0.0064624900554020965
1.3295456474274352 0.02385820175135338
1.2506235311510163 0.05417889355810886
1.1190866706903182 0.02385820175135338
0.9480887520914107 -0.01656938732432059
0.724476089308224 -0.0064624900554020965
0.6060929148935957 0.0036444072135163965
0.5797855428014561 -0.02667628459323908
0.6192466009396655 -0.02667628459323908
0.658707659077875 0.0036444072135163965
0.658707659077875 0.05417889355810886
0.6192466009396655 0.02385820175135338
0.514017112571107 -0.02667628459323908
0.3693265660643392 -0.02667628459323908
0.2509433916497109 0.03396509902027187
0.10625284514294303 0.07439268809594585
0.04048441491259398 0.06428579082702736
-0.025284015317755062 0.0036444072135163965
-0.051591387409894676 0.02385820175135338
-0.0778987595020343 0.05417889355810886
-0.03843770136382487 0.05417889355810886
0.014177042820454365 0.03396509902027187
0.027330728866524174 0.02385820175135338
0.0010233567743845565 0.01375130448243489
-0.025284015317755062 0.02385820175135338
-0.025284015317755062 -0.01656938732432059
0.027330728866524174 -0.0064624900554020965
0.0010233567743845565 0.02385820175135338
-0.0778987595020343 0.03396509902027187
-0.16997456182452295 0.02385820175135338
-0.20943561996273238 -0.02667628459323908
-0.15682087577845316 -0.03678318186215757
-0.06474507345596449 0.02385820175135338
0.04048441491259398 0.04407199628919037
0.10625284514294303 0.02385820175135338
0.13256021723508266 -0.02667628459323908
0.10625284514294303 -0.03678318186215757
0.11940653118901283 0.0036444072135163965
0.17202127537329207 0.02385820175135338
0.1983286474654317 -0.02667628459323908
0.18517496141936188 -0.02667628459323908
0.17202127537329207 -0.03678318186215757
0.11940653118901283 0.0036444072135163965
0.13256021723508266 -0.03678318186215757
0.13256021723508266 -0.0064624900554020965
0.17202127537329207 0.01375130448243489
0.2114823335115015 0.03396509902027187
0.1983286474654317 0.01375130448243489
0.15886758932722225 -0.01656938732432059
0.17202127537329207 -0.01656938732432059
0.2114823335115015 0.05417889355810886
0.3430191939721996 0.05417889355810886
0.3561728800182694 0.02385820175135338
0.27725076374185054 -0.0064624900554020965
0.1983286474654317 0.0036444072135163965
0.05363810095866379 0.05417889355810886
-0.03843770136382487 0.03396509902027187
-0.0910524455481041 -0.0064624900554020965
-0.11735981764024372 -0.0064624900554020965
-0.0778987595020343 0.02385820175135338
-0.012130329271685253 0.0036444072135163965
0.04048441491259398 0.02385820175135338
0.09309915909687322 -0.02667628459323908
0.14571390328115244 0.02385820175135338
0.14571390328115244 0.03396509902027187
0.11940653118901283 0.0036444072135163965
0.15886758932722225 -0.03678318186215757
0.17202127537329207 -0.02667628459323908
0.1983286474654317 0.04407199628919037
0.1983286474654317 0.06428579082702736
0.1983286474654317 0.03396509902027187
0.2114823335115015 0.0036444072135163965
0.18517496141936188 0.02385820175135338
0.13256021723508266 0.04407199628919037
0.13256021723508266 0.05417889355810886
0.13256021723508266 0.02385820175135338
0.17202127537329207 0.0036444072135163965
0.22463601955757131 0.02385820175135338
0.3693265660643392 0.01375130448243489
0.44824868234075804 0.02385820175135338
0.43509499629468823 0.04407199628919037
0.38248025211040904 0.08449958536486434
0.30355813583399016 0.09460648263378284
0.38248025211040904 0.11482027717161981
0.5666318567553863 0.08449958536486434
0.7376297753542939 0.08449958536486434
0.7770908334925033 0.10471337990270133
0.43509499629468823 0.1249271744405383
-0.051591387409894676 0.08449958536486434
-0.3672798525155701 0.0036444072135163965
-0.4988167129762682 -0.02667628459323908
-0.4988167129762682 0.01375130448243489
-0.40674091065377954 0.05417889355810886
-0.28835773623915123 0.03396509902027187
-0.19628193391666257 -0.0064624900554020965
-0.15682087577845316 -0.02667628459323908
-0.10420613159417391 -0.0064624900554020965
-0.0778987595020343 0.0036444072135163965
-0.025284015317755062 0.01375130448243489
0.027330728866524174 -0.02667628459323908
0.05363810095866379 0.01375130448243489
0.05363810095866379 0.03396509902027187
0.05363810095866379 -0.0064624900554020965
0.0667917870047336 -0.03678318186215757
0.09309915909687322 -0.01656938732432059
0.18517496141936188 0.02385820175135338
0.2114823335115015 0.04407199628919037
0.15886758932722225 0.02385820175135338
0.10625284514294303 -0.02667628459323908
0.1983286474654317 0.0036444072135163965
0.2640970776957807 0.03396509902027187
0.27725076374185054 0.03396509902027187
0.1983286474654317 -0.02667628459323908
0.09309915909687322 -0.04689007913107607
-0.025284015317755062 -0.05699697639999456
-0.051591387409894676 0.01375130448243489
-0.012130329271685253 0.03396509902027187
0.04048441491259398 -0.0064624900554020965
0.04048441491259398 -0.02667628459323908
0.05363810095866379 -0.01656938732432059
0.11940653118901283 -0.02667628459323908
0.1983286474654317 -0.0064624900554020965
0.30355813583399016 -0.02667628459323908
0.3561728800182694 -0.02667628459323908
0.31671182188006 -0.01656938732432059
0.27725076374185054 -0.01656938732432059
0.27725076374185054 -0.06710387366891306
0.30355813583399016 -0.06710387366891306
0.3430191939721996 -0.0064624900554020965
0.30355813583399016 0.0036444072135163965
0.15886758932722225 0.0036444072135163965
-0.03843770136382487 -0.04689007913107607
-0.2225893060088022 -0.07721077093783155
-0.28835773623915123 -0.02667628459323908
-0.2225893060088022 0.01375130448243489
-0.11735981764024372 0.01375130448243489
-0.012130329271685253 -0.0064624900554020965
0.11940653118901283 -0.04689007913107607
0.23778970560364113 -0.02667628459323908
0.30355813583399016 0.0036444072135163965
0.31671182188006 0.0036444072135163965
0.3298655079261298 -0.0064624900554020965
0.2114823335115015 -0.02667628459323908
0.05363810095866379 -0.02667628459323908
-0.10420613159417391 -0.02667628459323908
-0.18312824787059276 0.0036444072135163965
-0.235742992054872 0.0036444072135163965
-0.2620503641470116 0.06428579082702736
-0.235742992054872 0.05417889355810886
-0.2225893060088022 -0.02667628459323908
-0.15682087577845316 -0.06710387366891306
-0.2225893060088022 -0.11763836001350551
-0.235742992054872 -0.08731766820675003
-0.18312824787059276 -0.04689007913107607
-0.051591387409894676 -0.06710387366891306
0.10625284514294303 -0.127745257282424
0.14571390328115244 -0.1378521545513425
0.22463601955757131 -0.127745257282424
0.3693265660643392 -0.08731766820675003
0.5271707986171769 -0.1378521545513425
0.6324002869857354 -0.147959051820261
0.7113224032621542 -0.17827974362701648
0.8560129497689222 -0.1378521545513425
1.0664719265060392 -0.08731766820675003
1.3426993334735051 -0.09742456547566854
1.6715414846252503 -0.11763836001350551
1.9872299497309256 -0.10753146274458703
2.184535240421973 -0.10753146274458703
2.3292257869287405 -0.09742456547566854
2.526531077619788 -0.08731766820675003
2.8422195427254633 -0.07721077093783155
3.1710616938772085 -0.07721077093783155
3.3815206706143255 -0.04689007913107607
3.460442786890744 -0.03678318186215757
3.420981728752535 -0.07721077093783155
3.342059612476116 -0.07721077093783155
3.157908007831139 -0.03678318186215757
2.710682682264765 0.0036444072135163965
1.9083078334545067 0.03396509902027187
0.8165518916307127 0.01375130448243489
-0.10420613159417391 0.0036444072135163965
-0.6171998873908965 0.04407199628919037
-0.8671199222662228 0.08449958536486434
-0.9460420385426417 0.1451409689783753
-1.0512715269112 0.11482027717161981
-1.0118104687729907 0.08449958536486434
-0.8934272943583624 0.09460648263378284
-0.7618904338976643 0.11482027717161981
-0.7092756897133852 0.1249271744405383
-0.6303535734369663 0.11482027717161981
-0.5908925152987569 0.09460648263378284
-0.5251240850684078 0.08449958536486434
-0.511970399022338 0.07439268809594585
-0.511970399022338 0.11482027717161981
-0.4330482827459191 0.08449958536486434
-0.4330482827459191 0.10471337990270133
-0.3541261664695003 0.10471337990270133
-0.2620503641470116 0.07439268809594585
-0.18312824787059276 0.04407199628919037
-0.03843770136382487 -0.01656938732432059
0.2640970776957807 0.02385820175135338
0.43509499629468823 0.06428579082702736
0.38248025211040904 0.07439268809594585
0.09309915909687322 0.02385820175135338
-0.40674091065377954 0.0036444072135163965
-0.7224293757594549 0.01375130448243489
-0.7881978059898039 0.04407199628919037
-0.6829683176212455 0.02385820175135338
-0.5251240850684078 -0.01656938732432059
-0.4198945966998493 -0.05699697639999456
-0.3804335385616399 -0.03678318186215757
-0.3541261664695003 0.02385820175135338
-0.30151142228522104 0.04407199628919037
-0.24889667810094182 0.01375130448243489
-0.2620503641470116 -0.0064624900554020965
-0.2752040501930814 -0.0064624900554020965
-0.28835773623915123 0.0036444072135163965
-0.2620503641470116 0.02385820175135338
-0.14366718973238335 0.01375130448243489
-0.051591387409894676 -0.01656938732432059
-0.06474507345596449 -0.02667628459323908
-0.025284015317755062 -0.04689007913107607
-0.025284015317755062 -0.04689007913107607
-0.012130329271685253 -0.04689007913107607
0.014177042820454365 -0.02667628459323908
0.0667917870047336 -0.01656938732432059
0.05363810095866379 -0.01656938732432059
0.027330728866524174 -0.05699697639999456
-0.025284015317755062 -0.09742456547566854
0.0010233567743845565 -0.08731766820675003
0.05363810095866379 -0.0064624900554020965
0.10625284514294303 0.01375130448243489
0.17202127537329207 0.01375130448243489
0.15886758932722225 -0.03678318186215757
0.09309915909687322 -0.05699697639999456
0.014177042820454365 -0.02667628459323908
-0.012130329271685253 -0.0064624900554020965
-0.012130329271685253 -0.01656938732432059
-0.025284015317755062 -0.03678318186215757
-0.03843770136382487 -0.07721077093783155
-0.051591387409894676 -0.07721077093783155
-0.06474507345596449 -0.01656938732432059
-0.051591387409894676 -0.02667628459323908
0.0010233567743845565 -0.05699697639999456
0.0667917870047336 -0.03678318186215757
0.11940653118901283 -0.02667628459323908
0.17202127537329207 -0.02667628459323908
0.2509433916497109 -0.04689007913107607
0.4219413102486184 -0.05699697639999456
0.658707659077875 -0.04689007913107607
0.7639371474464335 -0.0064624900554020965
0.6718613451239448 -0.01656938732432059
0.3956339381564788 -0.04689007913107607
-0.025284015317755062 -0.07721077093783155
-0.31466510833129085 -0.05699697639999456
-0.5382777711144776 -0.02667628459323908
-0.6303535734369663 -0.0064624900554020965
-0.6040462013448267 -0.05699697639999456
-0.47250934088412855 -0.08731766820675003
-0.3804335385616399 -0.04689007913107607
-0.24889667810094182 -0.03678318186215757
-0.11735981764024372 -0.04689007913107607
-0.10420613159417391 -0.07721077093783155
-0.14366718973238335 -0.09742456547566854
-0.14366718973238335 -0.09742456547566854
-0.11735981764024372 -0.06710387366891306
-0.051591387409894676 -0.07721077093783155
0.0010233567743845565 -0.10753146274458703
0.0010233567743845565 -0.09742456547566854
0.0010233567743845565 -0.10753146274458703
-0.051591387409894676 -0.09742456547566854
-0.10420613159417391 -0.07721077093783155
-0.11735981764024372 -0.05699697639999456
-0.06474507345596449 -0.05699697639999456
-0.0778987595020343 -0.03678318186215757
-0.0778987595020343 -0.07721077093783155
-0.06474507345596449 -0.08731766820675003
-0.012130329271685253 -0.10753146274458703
0.0799454730508034 -0.08731766820675003
0.13256021723508266 -0.01656938732432059
0.14571390328115244 0.01375130448243489
0.1983286474654317 -0.05699697639999456
0.2640970776957807 -0.06710387366891306
0.38248025211040904 -0.04689007913107607
0.5534781707093165 0.0036444072135163965
0.6718613451239448 0.03396509902027187
0.6455539730318052 0.0036444072135163965
0.47455605443289767 -0.04689007913107607
0.23778970560364113 -0.06710387366891306
0.0667917870047336 -0.04689007913107607
0.05363810095866379 0.02385820175135338
0.0667917870047336 0.0036444072135163965
0.0799454730508034 -0.02667628459323908
0.014177042820454365 -0.05699697639999456
-0.06474507345596449 -0.05699697639999456
-0.13051350368631354 -0.01656938732432059
-0.20943561996273238 -0.03678318186215757
-0.24889667810094182 -0.06710387366891306
-0.31466510833129085 -0.08731766820675003
-0.32781879437736067 -0.05699697639999456
-0.2752040501930814 -0.04689007913107607
-0.15682087577845316 -0.01656938732432059
-0.025284015317755062 -0.01656938732432059
0.05363810095866379 0.0036444072135163965
0.0010233567743845565 0.05417889355810886
-0.03843770136382487 0.03396509902027187
-0.0910524455481041 -0.0064624900554020965
-0.11735981764024372 -0.03678318186215757
-0.06474507345596449 0.0036444072135163965
-0.025284015317755062 0.07439268809594585
-0.051591387409894676 0.05417889355810886
-0.06474507345596449 0.0036444072135163965
-0.10420613159417391 -0.01656938732432059
-0.0910524455481041 0.0036444072135163965
-0.051591387409894676 0.05417889355810886
-0.025284015317755062 0.06428579082702736
0.0010233567743845565 0.02385820175135338
0.014177042820454365 -0.01656938732432059
-0.051591387409894676 -0.0064624900554020965
-0.03843770136382487 0.05417889355810886
0.014177042820454365 0.05417889355810886
0.0667917870047336 0.02385820175135338
0.10625284514294303 0.03396509902027187
0.13256021723508266 0.06428579082702736
0.0799454730508034 0.03396509902027187
-0.03843770136382487 0.02385820175135338
-0.0910524455481041 0.0036444072135163965
-0.06474507345596449 0.0036444072135163965
-0.025284015317755062 0.02385820175135338
0.014177042820454365 0.02385820175135338
0.0010233567743845565 0.02385820175135338
-0.0778987595020343 -0.0064624900554020965
-0.0910524455481041 0.03396509902027187
-0.051591387409894676 0.07439268809594585
-0.0778987595020343 0.07439268809594585
-0.0910524455481041 -0.0064624900554020965
-0.11735981764024372 -0.04689007913107607
-0.15682087577845316 -0.02667628459323908
-0.0778987595020343 0.03396509902027187
0.027330728866524174 0.07439268809594585
0.11940653118901283 0.03396509902027187
0.14571390328115244 0.0036444072135163965
0.10625284514294303 -0.02667628459323908
0.05363810095866379 0.05417889355810886
0.0667917870047336 0.08449958536486434
0.11940653118901283 0.05417889355810886
0.13256021723508266 0.03396509902027187
0.18517496141936188 0.02385820175135338
0.27725076374185054 0.05417889355810886
0.2640970776957807 0.06428579082702736
0.3298655079261298 0.06428579082702736
0.3956339381564788 0.04407199628919037
0.44824868234075804 0.08449958536486434
0.514017112571107 0.08449958536486434
0.44824868234075804 0.03396509902027187
0.3561728800182694 0.01375130448243489
0.2509433916497109 0.02385820175135338
0.3561728800182694 0.06428579082702736
0.514017112571107 0.09460648263378284
0.6060929148935957 0.04407199628919037
0.6455539730318052 -0.01656938732432059
0.5271707986171769 0.01375130448243489
0.46140236838682785 0.02385820175135338
0.38248025211040904 0.05417889355810886
0.3956339381564788 0.02385820175135338
0.46140236838682785 0.02385820175135338
0.5403244846632467 -0.03678318186215757
0.6850150311700146 -0.06710387366891306
0.869166635814992 -0.11763836001350551
1.0401645544138995 -0.10753146274458703
1.1059329846442485 -0.09742456547566854
1.0796256125521089 -0.10753146274458703
0.9875498102296202 -0.20860043543377196
0.869166635814992 -0.23892112724052741
0.6455539730318052 -0.18838664089593496
0.30355813583399016 -0.17827974362701648
-0.28835773623915123 -0.19849353816485346
-1.3143452478325963 -0.2591349217783644
-2.4718696198867396 -0.22881422997160894
-3.4189350152037656 -0.20860043543377196
-4.076619317507256 -0.147959051820261
-4.405461468659001 -0.18838664089593496
-4.563305701211839 -0.18838664089593496
-4.747457305856816 -0.18838664089593496
-4.944762596547863 -0.15806594908917948
-5.0236847128242825 -0.147959051820261
-4.971069968640003 -0.15806594908917948
-4.8132257360871655 -0.1378521545513425
-4.589613073303979 -0.06710387366891306
-4.287078294244373 -0.08731766820675003
-3.958236143092628 -0.11763836001350551
-3.616240305894813 -0.08731766820675003
-3.274244468696998 -0.0064624900554020965
-3.063785491959881 0.04407199628919037
-2.8796338873149034 0.02385820175135338
-2.7217896547620657 -0.01656938732432059
-2.43240856174853 0.01375130448243489
-2.1298737826889242 0.05417889355810886
-1.8404926896753886 0.04407199628919037
-1.6694947710764811 0.02385820175135338
-1.5642652827079226 0.02385820175135338
-1.4458821082932944 0.06428579082702736
-1.3143452478325963 0.04407199628919037
-1.130193643187619 -0.01656938732432059
-0.8934272943583624 0.01375130448243489
-0.7487367478515945 0.04407199628919037
-0.6829683176212455 0.01375130448243489
-0.6698146315751757 -0.04689007913107607
-0.5908925152987569 -0.04689007913107607
-0.5251240850684078 0.0036444072135163965
-0.47250934088412855 -0.01656938732432059
-0.4462019687919889 -0.03678318186215757
-0.3541261664695003 -0.0064624900554020965
-0.2620503641470116 0.0036444072135163965
-0.10420613159417391 0.0036444072135163965
0.0667917870047336 -0.02667628459323908
0.17202127537329207 0.01375130448243489
0.31671182188006 0.05417889355810886
0.47455605443289767 0.04407199628919037
0.6850150311700146 0.0036444072135163965
0.8560129497689222 0.03396509902027187
0.9875498102296202 0.08449958536486434
1.1190866706903182 0.05417889355810886
1.1717014148745974 0.04407199628919037
1.198008786966737 0.04407199628919037
1.1848551009206674 0.09460648263378284
1.2243161590588767 0.06428579082702736
1.2900845892892259 0.02385820175135338
1.421621449749924 0.03396509902027187
1.5268509381184823 0.09460648263378284
1.6320804264870408 0.08449958536486434
1.69784885671739 0.04407199628919037
1.8030783450859484 0.02385820175135338
1.9083078334545067 0.04407199628919037
1.9083078334545067 0.08449958536486434
1.8688467753162974 0.03396509902027187
1.8162320311320181 0.04407199628919037
1.8556930892702277 0.05417889355810886
1.9872299497309256 0.05417889355810886
2.0793057520534144 0.03396509902027187
2.237149984606252 0.06428579082702736
2.3818405311130197 0.11482027717161981
2.434455275297299 0.07439268809594585
2.3555331590208803 0.0036444072135163965
2.2108426125141123 -0.02667628459323908
2.1450741822837633 0.03396509902027187
2.184535240421973 0.04407199628919037
2.2239962985601824 0.01375130448243489
2.2239962985601824 0.0036444072135163965
2.184535240421973 -0.0064624900554020965
2.184535240421973 0.0036444072135163965
2.1976889264680426 -0.01656938732432059
2.316072100882671 0.0036444072135163965
2.4213015892512293 0.04407199628919037
2.39499421715909 -0.01656938732432059
2.2897647287905314 -0.04689007913107607
2.2634573566983915 -0.05699697639999456
2.2766110427444617 -0.01656938732432059
2.3292257869287405 0.0036444072135163965
2.3555331590208803 0.0036444072135163965
2.2897647287905314 0.01375130448243489
2.1976889264680426 0.01375130448243489
2.0661520660073447 -0.02667628459323908
1.9477688915927163 -0.01656938732432059
1.8688467753162974 0.02385820175135338
1.7767709729938088 0.05417889355810886
1.8162320311320181 0.04407199628919037
1.8820004613623673 0.0036444072135163965
1.8820004613623673 0.04407199628919037
1.8030783450859484 0.06428579082702736
1.7110025427634596 0.06428579082702736
1.618926740440971 0.03396509902027187
1.5663119962566918 0.08449958536486434
1.4610825078881333 0.07439268809594585
1.3690067055656447 0.03396509902027187
1.2900845892892259 0.05417889355810886
1.2374698451049466 0.11482027717161981
1.1059329846442485 0.1249271744405383
1.01385718232176 0.07439268809594585
0.9612424381374806 0.05417889355810886
0.9217813799992711 0.07439268809594585
0.869166635814992 0.08449958536486434
0.8165518916307127 0.07439268809594585
0.8033982055846429 0.08449958536486434
0.7639371474464335 0.11482027717161981
0.6718613451239448 0.08449958536486434
0.5403244846632467 0.04407199628919037
0.44824868234075804 0.07439268809594585
0.43509499629468823 0.1249271744405383
0.5008634265250372 0.09460648263378284
0.5403244846632467 0.06428579082702736
0.514017112571107 0.10471337990270133
0.43509499629468823 0.11482027717161981
0.4087876242025486 0.08449958536486434
0.47455605443289767 0.06428579082702736
0.514017112571107 0.09460648263378284
0.46140236838682785 0.1249271744405383
0.3430191939721996 0.07439268809594585
0.2509433916497109 0.05417889355810886
0.23778970560364113 0.06428579082702736
0.30355813583399016 0.10471337990270133
0.3298655079261298 0.09460648263378284
0.4087876242025486 0.06428579082702736
0.4219413102486184 0.08449958536486434
0.4087876242025486 0.07439268809594585
0.4087876242025486 0.07439268809594585
0.38248025211040904 0.04407199628919037
0.31671182188006 0.11482027717161981
0.2640970776957807 0.1249271744405383
0.1983286474654317 0.07439268809594585
0.11940653118901283 0.04407199628919037
0.14571390328115244 0.08449958536486434
0.2114823335115015 0.10471337990270133
0.3298655079261298 0.09460648263378284
0.3693265660643392 0.07439268809594585
0.27725076374185054 0.10471337990270133
0.18517496141936188 0.08449958536486434
0.15886758932722225 0.05417889355810886
0.14571390328115244 0.06428579082702736
0.17202127537329207 0.10471337990270133
0.17202127537329207 0.11482027717161981
