2.2766110427444617 -0.44105907261889726
2.5396847636658575 -0.5219142507702452
2.8027584845872537 -0.6229832234594301
3.06583220550865 -0.7745866824932075
3.197369065969348 -0.8756556551823925
3.184215379923278 -0.9362970387959034
3.0789858915547197 -0.9464039360648219
2.8422195427254633 -1.0171522169472513
2.434455275297299 -1.0373660114850884
1.69784885671739 -1.0373660114850884
0.6718613451239448 -0.905976346989148
-0.16997456182452295 -0.724052196148615
-0.6566609455291059 -0.5926625316526747
-0.8671199222662228 -0.5320211480391637
-0.9723494106347813 -0.48148666169457127
-0.9855030966808511 -0.45116596988781577
-0.9328883524965719 -0.4309521753499788
-0.7881978059898039 -0.4006314835432233
-0.6435072594830361 -0.35009699719863085
-0.5382777711144776 -0.32988320266079385
-0.4988167129762682 -0.32988320266079385
-0.48566302693019836 -0.31977630539187535
-0.45935565483805874 -0.36020389446754936
-0.4462019687919889 -0.31977630539187535
-0.3804335385616399 -0.2692418190472829
-0.3409724804234305 -0.2591349217783644
-0.3409724804234305 -0.2793487163162014
-0.3672798525155701 -0.2692418190472829
-0.39358722460770973 -0.2995625108540384
-0.40674091065377954 -0.2793487163162014
-0.40674091065377954 -0.23892112724052741
-0.30151142228522104 -0.18838664089593496
-0.2225893060088022 -0.21870733270269044
-0.3409724804234305 -0.21870733270269044
-0.4988167129762682 -0.21870733270269044
-0.6435072594830361 -0.17827974362701648
-0.6961220036673154 -0.127745257282424
-0.6171998873908965 -0.11763836001350551
-0.5382777711144776 -0.09742456547566854
-0.511970399022338 -0.11763836001350551
-0.4988167129762682 -0.11763836001350551
-0.4988167129762682 -0.10753146274458703
-0.47250934088412855 -0.06710387366891306
-0.40674091065377954 -0.05699697639999456
-0.3804335385616399 -0.05699697639999456
-0.3804335385616399 -0.11763836001350551
-0.3804335385616399 -0.127745257282424
-0.39358722460770973 -0.1378521545513425
-0.3672798525155701 -0.127745257282424
-0.3409724804234305 -0.127745257282424
-0.3409724804234305 -0.10753146274458703
-0.30151142228522104 -0.11763836001350551
-0.32781879437736067 -0.127745257282424
-0.31466510833129085 -0.15806594908917948
-0.31466510833129085 -0.1378521545513425
-0.30151142228522104 -0.127745257282424
-0.30151142228522104 -0.10753146274458703
-0.30151142228522104 -0.15806594908917948
-0.31466510833129085 -0.147959051820261
-0.30151142228522104 -0.127745257282424
-0.2620503641470116 -0.1378521545513425
-0.235742992054872 -0.10753146274458703
-0.24889667810094182 -0.11763836001350551
-0.2225893060088022 -0.1378521545513425
-0.235742992054872 -0.16817284635809798
-0.20943561996273238 -0.16817284635809798
-0.2620503641470116 -0.127745257282424
-0.24889667810094182 -0.11763836001350551
-0.235742992054872 -0.147959051820261
-0.2225893060088022 -0.1378521545513425
-0.20943561996273238 -0.16817284635809798
-0.15682087577845316 -0.15806594908917948
-0.11735981764024372 -0.1378521545513425
-0.0778987595020343 -0.09742456547566854
-0.06474507345596449 -0.10753146274458703
-0.11735981764024372 -0.127745257282424
-0.19628193391666257 -0.11763836001350551
-0.24889667810094182 -0.127745257282424
-0.2620503641470116 -0.127745257282424
-0.11735981764024372 -0.09742456547566854
-0.10420613159417391 -0.08731766820675003
-0.16997456182452295 -0.09742456547566854
-0.2225893060088022 -0.127745257282424
-0.2620503641470116 -0.09742456547566854
-0.2752040501930814 -0.07721077093783155
-0.24889667810094182 -0.05699697639999456
-0.24889667810094182 -0.03678318186215757
-0.2752040501930814 -0.05699697639999456
-0.28835773623915123 -0.06710387366891306
-0.28835773623915123 -0.05699697639999456
-0.2225893060088022 -0.03678318186215757
-0.20943561996273238 -0.03678318186215757
-0.16997456182452295 -0.03678318186215757
-0.14366718973238335 -0.01656938732432059
-0.14366718973238335 -0.05699697639999456
-0.16997456182452295 -0.05699697639999456
-0.16997456182452295 -0.03678318186215757
-0.14366718973238335 -0.0064624900554020965
-0.14366718973238335 -0.03678318186215757
-0.14366718973238335 -0.02667628459323908
-0.18312824787059276 -0.04689007913107607
-0.13051350368631354 -0.04689007913107607
-0.10420613159417391 -0.02667628459323908
-0.10420613159417391 0.0036444072135163965
-0.11735981764024372 -0.01656938732432059
-0.11735981764024372 -0.02667628459323908
-0.13051350368631354 -0.08731766820675003
-0.15682087577845316 -0.05699697639999456
-0.11735981764024372 -0.02667628459323908
-0.06474507345596449 -0.0064624900554020965
-0.012130329271685253 0.0036444072135163965
-0.012130329271685253 -0.03678318186215757
0.0010233567743845565 -0.07721077093783155
-0.012130329271685253 -0.05699697639999456
0.014177042820454365 -0.01656938732432059
0.014177042820454365 -0.02667628459323908
0.0799454730508034 -0.03678318186215757
0.0667917870047336 -0.05699697639999456
0.04048441491259398 -0.08731766820675003
0.027330728866524174 -0.06710387366891306
0.0667917870047336 -0.07721077093783155
0.09309915909687322 -0.07721077093783155
0.09309915909687322 -0.06710387366891306
0.09309915909687322 -0.07721077093783155
0.05363810095866379 -0.09742456547566854
0.04048441491259398 -0.09742456547566854
0.0667917870047336 -0.08731766820675003
0.0667917870047336 -0.09742456547566854
0.13256021723508266 -0.10753146274458703
0.10625284514294303 -0.11763836001350551
0.10625284514294303 -0.1378521545513425
0.0799454730508034 -0.1378521545513425
0.09309915909687322 -0.127745257282424
0.15886758932722225 -0.11763836001350551
0.15886758932722225 -0.1378521545513425
0.17202127537329207 -0.15806594908917948
0.17202127537329207 -0.17827974362701648
0.13256021723508266 -0.16817284635809798
0.15886758932722225 -0.1378521545513425
0.15886758932722225 -0.1378521545513425
0.11940653118901283 -0.127745257282424
0.09309915909687322 -0.15806594908917948
0.05363810095866379 -0.16817284635809798
0.05363810095866379 -0.147959051820261
0.0799454730508034 -0.15806594908917948
0.14571390328115244 -0.1378521545513425
0.14571390328115244 -0.11763836001350551
0.15886758932722225 -0.15806594908917948
0.09309915909687322 -0.15806594908917948
0.10625284514294303 -0.147959051820261
0.0799454730508034 -0.147959051820261
0.0799454730508034 -0.127745257282424
0.0667917870047336 -0.11763836001350551
0.0799454730508034 -0.1378521545513425
0.04048441491259398 -0.17827974362701648
0.014177042820454365 -0.16817284635809798
0.0010233567743845565 -0.127745257282424
0.014177042820454365 -0.127745257282424
0.0010233567743845565 -0.11763836001350551
0.0010233567743845565 -0.147959051820261
-0.03843770136382487 -0.15806594908917948
-0.051591387409894676 -0.147959051820261
-0.025284015317755062 -0.147959051820261
0.0010233567743845565 -0.11763836001350551
0.0010233567743845565 -0.09742456547566854
-0.012130329271685253 -0.127745257282424
-0.03843770136382487 -0.15806594908917948
-0.06474507345596449 -0.1378521545513425
-0.0778987595020343 -0.11763836001350551
-0.051591387409894676 -0.09742456547566854
-0.012130329271685253 -0.11763836001350551
0.014177042820454365 -0.10753146274458703
0.027330728866524174 -0.16817284635809798
0.0799454730508034 -0.16817284635809798
0.09309915909687322 -0.147959051820261
0.13256021723508266 -0.15806594908917948
0.13256021723508266 -0.127745257282424
0.1983286474654317 -0.15806594908917948
0.2640970776957807 -0.19849353816485346
0.3430191939721996 -0.20860043543377196
0.4087876242025486 -0.21870733270269044
0.514017112571107 -0.22881422997160894
0.5666318567553863 -0.2591349217783644
0.5929392288475259 -0.2995625108540384
0.5797855428014561 -0.31977630539187535
0.5008634265250372 -0.33999009992971235
0.47455605443289767 -0.2995625108540384
0.47455605443289767 -0.2995625108540384
0.6324002869857354 -0.2894556135851199
0.7376297753542939 -0.31977630539187535
0.6324002869857354 -0.31977630539187535
0.3693265660643392 -0.2995625108540384
0.23778970560364113 -0.2591349217783644
0.14571390328115244 -0.24902802450944592
0.0667917870047336 -0.21870733270269044
-0.235742992054872 -0.147959051820261
-0.9197346664505021 -0.02667628459323908
-2.024644294320366 0.15524786624729378
-3.1821686663745092 0.3371720170878267
-4.102926689599395 0.5393099624661966
-4.642227817488258 0.6605927296932185
-4.826379422133235 0.7414479078445664
-4.918455224455724 0.8020892914580773
-4.931608910501794 0.8829444696094253
-4.852686794225375 0.9233720586850992
-4.694842561672537 0.9840134422986102
-4.576459387257909 0.9739065450296917
-4.444922526797211 0.9840134422986102
-4.260770922152234 0.9536927504918548
-3.9845435151847677 1.004227236836447
-3.589932933802673 0.9941203395675287
-3.2347834105587885 0.9840134422986102
-2.9322486314991827 1.0244410313742842
-2.827019143130624 1.0143341341053658
-2.774404398946345 1.0345479286432027
-2.6823285966238566 1.0951893122567136
-2.379793817564251 1.105296209525632
-2.103566410596785 1.1255100040634691
-1.8668000617675282 1.0850824149877951
-1.6694947710764811 1.0345479286432027
-1.4327284222472245 0.9637996477607732
-1.274884189694387 0.9435858532229362
-1.0381178408651304 0.9031582641472622
-0.9328883524965719 0.8930513668783437
-0.8671199222662228 0.8121961887269958
-0.8671199222662228 0.7919823941891588
-0.8934272943583624 0.7515548051134848
-0.8145051780819436 0.7313410105756478
-0.6698146315751757 0.7010203187688924
-0.5251240850684078 0.6302720378864629
-0.40674091065377954 0.549416859735115
-0.28835773623915123 0.4382409897770116
-0.0910524455481041 0.3270651198189082
0.09309915909687322 0.23610304439864171
0.29040444978792035 0.1451409689783753
0.47455605443289767 0.02385820175135338
0.6455539730318052 -0.09742456547566854
0.8033982055846429 -0.22881422997160894
0.9217813799992711 -0.37031079173646786
1.01385718232176 -0.4309521753499788
1.0664719265060392 -0.47137976442565277
1.0796256125521089 -0.5118073535013268
1.1059329846442485 -0.5522349425770007
1.1453940427824578 -0.5926625316526747
1.1848551009206674 -0.6330901207283487
1.2506235311510163 -0.6634108125351041
1.3295456474274352 -0.6735177098040226
1.408467763703854 -0.6937315043418596
1.4610825078881333 -0.6836246070729411
1.487389879980273 -0.7341590934175336
1.5400046241645522 -0.7948004770310445
1.553158310210622 -0.8150142715688815
1.6452341125331107 -0.8251211688378
1.7110025427634596 -0.8251211688378
1.7767709729938088 -0.845334963375637
1.8030783450859484 -0.865548757913474
1.8425394032241578 -0.905976346989148
1.8425394032241578 -0.9362970387959034
1.9346152055466463 -0.926190141526985
1.9872299497309256 -0.926190141526985
2.039844693915205 -0.9362970387959034
2.105613124145554 -0.9868315251404959
2.1450741822837633 -1.0272591142161698
2.1450741822837633 -1.0373660114850884
2.184535240421973 -1.0373660114850884
2.2108426125141123 -1.0373660114850884
2.2239962985601824 -1.0575798060229253
2.250303670652322 -1.0676867032918438
2.2634573566983915 -1.0980073950985993
2.250303670652322 -1.1384349841742734
2.316072100882671 -1.1283280869053547
2.302918414836601 -1.1081142923675178
2.3292257869287405 -1.0980073950985993
2.3423794729748106 -1.1283280869053547
2.3292257869287405 -1.1586487787121102
2.3423794729748106 -1.1889694705188658
2.3818405311130197 -1.1384349841742734
2.36868684506695 -1.1081142923675178
2.36868684506695 -1.1586487787121102
2.3555331590208803 -1.1788625732499471
2.302918414836601 -1.2091832650567027
2.2634573566983915 -1.1889694705188658
2.250303670652322 -1.1485418814431918
2.250303670652322 -1.1283280869053547
2.250303670652322 -1.1485418814431918
2.2239962985601824 -1.1485418814431918
2.1976889264680426 -1.1586487787121102
2.158227868329833 -1.1283280869053547
2.1450741822837633 -1.1081142923675178
2.118766810191624 -1.0777936005607622
1.9872299497309256 -1.0575798060229253
1.7767709729938088 -1.047472908754007
1.5926193683488314 -1.0272591142161698
1.3558530195195748 -0.9565108333337404
1.276930903243156 -0.885762552451311
1.2637772171970862 -0.8049073742999631
1.2374698451049466 -0.7846935797621261
1.211162473012807 -0.7745866824932075
1.1585477288285277 -0.7745866824932075
1.1059329846442485 -0.7543728879553706
1.1190866706903182 -0.744265990686452
1.1059329846442485 -0.703838401610778
1.0401645544138995 -0.6735177098040226
1.01385718232176 -0.6735177098040226
0.9612424381374806 -0.6533039152661856
0.8954740079071315 -0.6330901207283487
0.8297055776767825 -0.5926625316526747
0.8033982055846429 -0.5320211480391637
0.7376297753542939 -0.5017004562324082
0.6981687172160844 -0.5219142507702452
0.6192466009396655 -0.47137976442565277
0.5797855428014561 -0.45116596988781577
0.5534781707093165 -0.4208452780810603
0.5534781707093165 -0.4006314835432233
0.5008634265250372 -0.3804176890053863
0.44824868234075804 -0.37031079173646786
0.3430191939721996 -0.3804176890053863
0.30355813583399016 -0.35009699719863085
0.3298655079261298 -0.2995625108540384
0.3561728800182694 -0.2591349217783644
0.38248025211040904 -0.2591349217783644
0.38248025211040904 -0.2591349217783644
0.29040444978792035 -0.2591349217783644
0.17202127537329207 -0.22881422997160894
0.09309915909687322 -0.18838664089593496
0.14571390328115244 -0.16817284635809798
0.18517496141936188 -0.16817284635809798
0.13256021723508266 -0.18838664089593496
0.2114823335115015 -0.19849353816485346
0.18517496141936188 -0.17827974362701648
0.23778970560364113 -0.147959051820261
0.22463601955757131 -0.15806594908917948
0.1983286474654317 -0.15806594908917948
0.17202127537329207 -0.15806594908917948
0.11940653118901283 -0.17827974362701648
0.0799454730508034 -0.15806594908917948
0.13256021723508266 -0.1378521545513425
0.15886758932722225 -0.147959051820261
0.18517496141936188 -0.11763836001350551
0.11940653118901283 -0.10753146274458703
0.13256021723508266 -0.147959051820261
0.10625284514294303 -0.1378521545513425
0.17202127537329207 -0.1378521545513425
0.13256021723508266 -0.11763836001350551
0.10625284514294303 -0.11763836001350551
0.0667917870047336 -0.1378521545513425
0.0799454730508034 -0.16817284635809798
0.10625284514294303 -0.16817284635809798
0.17202127537329207 -0.147959051820261
0.18517496141936188 -0.11763836001350551
0.11940653118901283 -0.09742456547566854
0.0799454730508034 -0.09742456547566854
0.027330728866524174 -0.1378521545513425
0.027330728866524174 -0.10753146274458703
0.04048441491259398 -0.11763836001350551
0.05363810095866379 -0.10753146274458703
0.04048441491259398 -0.09742456547566854
0.05363810095866379 -0.127745257282424
0.05363810095866379 -0.147959051820261
0.09309915909687322 -0.147959051820261
0.11940653118901283 -0.09742456547566854
0.09309915909687322 -0.07721077093783155
0.0010233567743845565 -0.06710387366891306
-0.03843770136382487 -0.09742456547566854
-0.012130329271685253 -0.127745257282424
0.0010233567743845565 -0.127745257282424
0.0010233567743845565 -0.10753146274458703
0.0667917870047336 -0.10753146274458703
0.11940653118901283 -0.10753146274458703
0.15886758932722225 -0.10753146274458703
0.15886758932722225 -0.15806594908917948
0.18517496141936188 -0.127745257282424
0.23778970560364113 -0.10753146274458703
0.27725076374185054 -0.08731766820675003
0.15886758932722225 -0.10753146274458703
0.05363810095866379 -0.09742456547566854
-0.13051350368631354 -0.10753146274458703
-0.2225893060088022 -0.09742456547566854
-0.2225893060088022 -0.07721077093783155
-0.11735981764024372 -0.03678318186215757
0.0010233567743845565 -0.05699697639999456
0.027330728866524174 -0.07721077093783155
-0.025284015317755062 -0.09742456547566854
-0.06474507345596449 -0.08731766820675003
-0.0910524455481041 -0.08731766820675003
-0.10420613159417391 -0.03678318186215757
-0.13051350368631354 -0.03678318186215757
-0.14366718973238335 -0.01656938732432059
-0.14366718973238335 -0.05699697639999456
-0.13051350368631354 -0.04689007913107607
-0.11735981764024372 -0.02667628459323908
-0.06474507345596449 -0.0064624900554020965
-0.0910524455481041 -0.01656938732432059
-0.0910524455481041 -0.03678318186215757
-0.0778987595020343 -0.07721077093783155
-0.10420613159417391 -0.05699697639999456
-0.0778987595020343 -0.0064624900554020965
-0.051591387409894676 -0.01656938732432059
-0.025284015317755062 -0.01656938732432059
-0.025284015317755062 -0.03678318186215757
-0.06474507345596449 -0.03678318186215757
-0.0910524455481041 -0.03678318186215757
-0.06474507345596449 -0.02667628459323908
-0.06474507345596449 -0.01656938732432059
-0.03843770136382487 -0.04689007913107607
-0.025284015317755062 -0.06710387366891306
-0.051591387409894676 -0.05699697639999456
-0.06474507345596449 -0.02667628459323908
0.0010233567743845565 -0.02667628459323908
0.014177042820454365 -0.01656938732432059
0.014177042820454365 -0.03678318186215757
-0.03843770136382487 -0.06710387366891306
-0.012130329271685253 -0.07721077093783155
-0.03843770136382487 -0.05699697639999456
0.014177042820454365 -0.03678318186215757
-0.025284015317755062 0.0036444072135163965
-0.012130329271685253 0.01375130448243489
-0.025284015317755062 -0.0064624900554020965
-0.03843770136382487 -0.04689007913107607
0.027330728866524174 -0.0064624900554020965
0.0667917870047336 0.02385820175135338
0.09309915909687322 0.02385820175135338
0.0799454730508034 0.02385820175135338
0.09309915909687322 -0.0064624900554020965
0.09309915909687322 -0.01656938732432059
0.14571390328115244 0.0036444072135163965
0.18517496141936188 0.0036444072135163965
0.2114823335115015 -0.01656938732432059
0.1983286474654317 0.02385820175135338
0.15886758932722225 -0.01656938732432059
0.10625284514294303 -0.06710387366891306
0.14571390328115244 -0.05699697639999456
0.09309915909687322 -0.02667628459323908
0.0799454730508034 -0.01656938732432059
0.05363810095866379 -0.01656938732432059
0.0010233567743845565 -0.03678318186215757
-0.06474507345596449 -0.06710387366891306
-0.03843770136382487 -0.06710387366891306
0.027330728866524174 -0.03678318186215757
0.0799454730508034 -0.03678318186215757
0.09309915909687322 -0.05699697639999456
0.14571390328115244 -0.07721077093783155
0.14571390328115244 -0.11763836001350551
0.15886758932722225 -0.127745257282424
0.18517496141936188 -0.1378521545513425
0.14571390328115244 -0.10753146274458703
0.0667917870047336 -0.10753146274458703
-0.012130329271685253 -0.09742456547566854
-0.10420613159417391 -0.11763836001350551
-0.19628193391666257 -0.10753146274458703
-0.16997456182452295 -0.07721077093783155
-0.0778987595020343 -0.04689007913107607
0.0667917870047336 -0.04689007913107607
0.1983286474654317 -0.08731766820675003
0.17202127537329207 -0.10753146274458703
0.014177042820454365 -0.10753146274458703
-0.18312824787059276 -0.10753146274458703
-0.28835773623915123 -0.06710387366891306
-0.235742992054872 -0.02667628459323908
-0.15682087577845316 0.01375130448243489
-0.10420613159417391 0.03396509902027187
-0.0778987595020343 -0.0064624900554020965
-0.11735981764024372 0.02385820175135338
-0.14366718973238335 0.02385820175135338
-0.14366718973238335 0.05417889355810886
-0.16997456182452295 0.04407199628919037
-0.16997456182452295 0.01375130448243489
-0.16997456182452295 0.0036444072135163965
-0.14366718973238335 -0.0064624900554020965
-0.14366718973238335 -0.0064624900554020965
-0.0778987595020343 0.0036444072135163965
-0.051591387409894676 -0.01656938732432059
-0.06474507345596449 -0.01656938732432059
-0.11735981764024372 -0.02667628459323908
-0.11735981764024372 0.01375130448243489
-0.0778987595020343 -0.01656938732432059
-0.051591387409894676 0.0036444072135163965
-0.025284015317755062 -0.02667628459323908
-0.03843770136382487 -0.04689007913107607
-0.051591387409894676 -0.01656938732432059
-0.025284015317755062 0.0036444072135163965
-0.025284015317755062 -0.0064624900554020965
0.0010233567743845565 -0.0064624900554020965
-0.012130329271685253 -0.02667628459323908
-0.06474507345596449 -0.03678318186215757
-0.15682087577845316 -0.01656938732432059
-0.19628193391666257 -0.01656938732432059
-0.19628193391666257 0.01375130448243489
-0.025284015317755062 -0.03678318186215757
0.15886758932722225 -0.05699697639999456
0.38248025211040904 -0.08731766820675003
0.6324002869857354 -0.07721077093783155
0.9086276939532013 -0.10753146274458703
1.211162473012807 -0.1378521545513425
1.408467763703854 -0.17827974362701648
1.5400046241645522 -0.20860043543377196
1.618926740440971 -0.21870733270269044
1.7767709729938088 -0.21870733270269044
2.0793057520534144 -0.22881422997160894
2.460762647389439 -0.2793487163162014
2.8027584845872537 -0.36020389446754936
3.0395248334165106 -0.5118073535013268
3.1052932636468595 -0.6533039152661856
3.000063775278301 -0.7139452988796966
2.7501437404029745 -0.764479785224289
2.3818405311130197 -0.7543728879553706
1.9346152055466463 -0.7341590934175336
1.2374698451049466 -0.6937315043418596
0.29040444978792035 -0.5926625316526747
-0.48566302693019836 -0.45116596988781577
-0.9460420385426417 -0.33999009992971235
-1.1696547013258285 -0.2692418190472829
-1.2354231315561774 -0.20860043543377196
-1.2091157594640378 -0.17827974362701648
-1.1170399571415492 -0.15806594908917948
-0.9986567827269209 -0.11763836001350551
-0.8802736083122926 -0.09742456547566854
-0.8013514920358737 -0.10753146274458703
-0.7355830618055247 -0.09742456547566854
-0.6698146315751757 -0.09742456547566854
-0.6040462013448267 -0.10753146274458703
-0.5251240850684078 -0.08731766820675003
-0.4462019687919889 -0.08731766820675003
-0.3541261664695003 -0.06710387366891306
-0.3804335385616399 -0.07721077093783155
-0.4198945966998493 -0.08731766820675003
-0.48566302693019836 -0.08731766820675003
-0.4988167129762682 -0.07721077093783155
-0.47250934088412855 -0.03678318186215757
-0.4198945966998493 0.0036444072135163965
-0.3541261664695003 0.0036444072135163965
-0.3409724804234305 -0.04689007913107607
-0.3541261664695003 -0.05699697639999456
-0.3804335385616399 -0.03678318186215757
-0.32781879437736067 -0.03678318186215757
-0.28835773623915123 0.01375130448243489
-0.20943561996273238 0.03396509902027187
-0.20943561996273238 0.02385820175135338
-0.2752040501930814 0.0036444072135163965
-0.3409724804234305 -0.01656938732432059
-0.32781879437736067 -0.01656938732432059
-0.28835773623915123 -0.0064624900554020965
-0.235742992054872 -0.01656938732432059
-0.24889667810094182 0.0036444072135163965
-0.2752040501930814 -0.01656938732432059
-0.2620503641470116 -0.01656938732432059
-0.2752040501930814 0.0036444072135163965
-0.235742992054872 0.0036444072135163965
-0.235742992054872 -0.0064624900554020965
-0.2620503641470116 -0.05699697639999456
-0.2752040501930814 -0.04689007913107607
-0.32781879437736067 -0.01656938732432059
-0.2620503641470116 -0.02667628459323908
-0.20943561996273238 0.0036444072135163965
-0.19628193391666257 -0.0064624900554020965
-0.20943561996273238 -0.02667628459323908
-0.2620503641470116 -0.04689007913107607
-0.24889667810094182 -0.03678318186215757
-0.2225893060088022 -0.02667628459323908
-0.235742992054872 -0.0064624900554020965
-0.19628193391666257 0.0036444072135163965
-0.16997456182452295 -0.03678318186215757
-0.15682087577845316 -0.04689007913107607
-0.16997456182452295 -0.04689007913107607
-0.18312824787059276 -0.02667628459323908
-0.15682087577845316 -0.0064624900554020965
-0.19628193391666257 -0.0064624900554020965
-0.15682087577845316 -0.03678318186215757
-0.18312824787059276 -0.05699697639999456
-0.16997456182452295 -0.03678318186215757
-0.10420613159417391 -0.02667628459323908
-0.06474507345596449 0.0036444072135163965
-0.06474507345596449 -0.0064624900554020965
-0.0778987595020343 -0.01656938732432059
-0.11735981764024372 -0.04689007913107607
-0.18312824787059276 -0.02667628459323908
-0.13051350368631354 -0.01656938732432059
-0.14366718973238335 0.02385820175135338
-0.10420613159417391 0.01375130448243489
0.0010233567743845565 0.02385820175135338
0.04048441491259398 -0.02667628459323908
0.11940653118901283 -0.0064624900554020965
0.15886758932722225 -0.0064624900554020965
0.1983286474654317 0.01375130448243489
0.11940653118901283 -0.01656938732432059
-0.025284015317755062 -0.03678318186215757
-0.20943561996273238 0.01375130448243489
-0.31466510833129085 0.06428579082702736
-0.3541261664695003 0.10471337990270133
-0.28835773623915123 0.10471337990270133
-0.235742992054872 0.11482027717161981
-0.16997456182452295 0.09460648263378284
-0.14366718973238335 0.08449958536486434
-0.13051350368631354 0.07439268809594585
-0.0778987595020343 0.08449958536486434
-0.051591387409894676 0.08449958536486434
-0.03843770136382487 0.06428579082702736
-0.0910524455481041 0.06428579082702736
-0.14366718973238335 0.05417889355810886
-0.18312824787059276 0.09460648263378284
-0.14366718973238335 0.1350340717094568
-0.0910524455481041 0.09460648263378284
-0.051591387409894676 0.09460648263378284
0.0010233567743845565 0.05417889355810886
-0.03843770136382487 0.04407199628919037
-0.025284015317755062 0.05417889355810886
-0.025284015317755062 0.05417889355810886
0.014177042820454365 0.05417889355810886
0.0010233567743845565 0.06428579082702736
-0.025284015317755062 0.05417889355810886
-0.012130329271685253 0.02385820175135338
-0.012130329271685253 0.01375130448243489
0.04048441491259398 0.0036444072135163965
0.10625284514294303 0.02385820175135338
0.11940653118901283 0.03396509902027187
0.10625284514294303 -0.0064624900554020965
0.0667917870047336 -0.0064624900554020965
0.05363810095866379 -0.0064624900554020965
0.09309915909687322 -0.0064624900554020965
0.10625284514294303 -0.0064624900554020965
0.13256021723508266 -0.0064624900554020965
0.0799454730508034 -0.01656938732432059
0.0799454730508034 -0.02667628459323908
0.09309915909687322 -0.02667628459323908
0.0799454730508034 -0.01656938732432059
0.11940653118901283 0.0036444072135163965
0.09309915909687322 0.0036444072135163965
0.10625284514294303 0.01375130448243489
0.0799454730508034 -0.01656938732432059
0.09309915909687322 -0.01656938732432059
0.09309915909687322 -0.0064624900554020965
0.09309915909687322 0.03396509902027187
0.05363810095866379 0.02385820175135338
0.027330728866524174 0.01375130448243489
-0.03843770136382487 -0.01656938732432059
0.0010233567743845565 -0.0064624900554020965
-0.012130329271685253 0.0036444072135163965
0.014177042820454365 -0.0064624900554020965
0.05363810095866379 0.0036444072135163965
0.027330728866524174 -0.0064624900554020965
0.0010233567743845565 -0.02667628459323908
-0.03843770136382487 -0.02667628459323908
-0.03843770136382487 -0.01656938732432059
-0.025284015317755062 0.0036444072135163965
-0.012130329271685253 -0.01656938732432059
-0.012130329271685253 -0.03678318186215757
-0.03843770136382487 -0.04689007913107607
-0.03843770136382487 -0.05699697639999456
-0.0778987595020343 -0.04689007913107607
-0.06474507345596449 -0.0064624900554020965
-0.06474507345596449 0.0036444072135163965
-0.0778987595020343 -0.0064624900554020965
-0.0778987595020343 -0.01656938732432059
-0.0910524455481041 -0.01656938732432059
-0.03843770136382487 -0.0064624900554020965
-0.051591387409894676 -0.01656938732432059
-0.025284015317755062 -0.01656938732432059
-0.025284015317755062 -0.02667628459323908
0.0010233567743845565 -0.06710387366891306
0.027330728866524174 -0.05699697639999456
0.13256021723508266 -0.03678318186215757
0.2509433916497109 -0.04689007913107607
0.3561728800182694 -0.06710387366891306
0.43509499629468823 -0.07721077093783155
0.3956339381564788 -0.09742456547566854
0.3693265660643392 -0.08731766820675003
0.3298655079261298 -0.08731766820675003
0.3430191939721996 -0.07721077093783155
0.30355813583399016 -0.08731766820675003
0.3561728800182694 -0.127745257282424
0.43509499629468823 -0.16817284635809798
0.46140236838682785 -0.17827974362701648
0.514017112571107 -0.15806594908917948
0.6324002869857354 -0.16817284635809798
0.5797855428014561 -0.17827974362701648
0.47455605443289767 -0.17827974362701648
0.30355813583399016 -0.19849353816485346
-0.025284015317755062 -0.18838664089593496
-0.6698146315751757 -0.147959051820261
-1.537957910615783 -0.04689007913107607
-2.498176991978879 0.05417889355810886
-3.3663202710194864 0.17546166078513079
-4.155541433783675 0.2967444280121527
-4.655381503534327 0.4079202979702561
-4.852686794225375 0.49888237339052255
-4.931608910501794 0.5797375515418705
-4.997377340732143 0.6100582433486259
-4.918455224455724 0.6403789351553815
-4.826379422133235 0.6403789351553815
-4.550152015165769 0.6504858324242999
-4.247617236106164 0.6605927296932185
-3.9056213989083486 0.6706996269621369
-3.589932933802673 0.7212341133067294
-3.379473957065556 0.7818754969202404
-3.1690149803284395 0.8728375723405067
-2.8927875733609736 0.9233720586850992
-2.577099108255298 0.9840134422986102
-2.314025387333902 1.004227236836447
-2.0772590385046454 1.004227236836447
-1.8931074338596678 1.004227236836447
-1.6958021431686208 0.9941203395675287
-1.4984968524775737 1.0244410313742842
-1.3011915617865266 0.9840134422986102
-1.1565010152797586 0.9637996477607732
-1.0512715269112 0.8930513668783437
-1.0118104687729907 0.8627306750715883
-0.9855030966808511 0.8324099832648328
-0.9723494106347813 0.8121961887269958
-0.8802736083122926 0.7717685996513218
-0.7618904338976643 0.7010203187688924
-0.5908925152987569 0.6100582433486259
-0.40674091065377954 0.5393099624661966
-0.19628193391666257 0.4281340925080931
-0.012130329271685253 0.35738581162566363
0.14571390328115244 0.2765306334743157
0.3298655079261298 0.22599614712972324
0.44824868234075804 0.11482027717161981
0.5797855428014561 0.02385820175135338
0.6981687172160844 -0.07721077093783155
0.8033982055846429 -0.1378521545513425
0.9086276939532013 -0.17827974362701648
0.9612424381374806 -0.20860043543377196
1.0401645544138995 -0.2591349217783644
1.0927792985981786 -0.32988320266079385
1.0927792985981786 -0.35009699719863085
1.1453940427824578 -0.37031079173646786
1.198008786966737 -0.36020389446754936
1.276930903243156 -0.35009699719863085
1.3032382753352956 -0.37031079173646786
1.3690067055656447 -0.4309521753499788
1.3821603916117144 -0.47137976442565277
1.408467763703854 -0.47137976442565277
1.4479288218420636 -0.47137976442565277
1.5136972520724126 -0.47137976442565277
1.6057730543949011 -0.4915935589634897
1.6715414846252503 -0.5219142507702452
1.7241562288095296 -0.5320211480391637
1.7767709729938088 -0.5320211480391637
1.829385717178088 -0.5421280453080822
1.9346152055466463 -0.5320211480391637
2.0135373218230654 -0.5522349425770007
2.039844693915205 -0.6027694289215931
2.0793057520534144 -0.6229832234594301
2.092459438099484 -0.6330901207283487
2.1319204962376936 -0.6330901207283487
2.1450741822837633 -0.6128763261905117
2.171381554375903 -0.6431970179972671
2.2108426125141123 -0.6735177098040226
2.237149984606252 -0.703838401610778
2.237149984606252 -0.7139452988796966
2.2766110427444617 -0.724052196148615
2.3423794729748106 -0.6836246070729411
2.39499421715909 -0.703838401610778
2.434455275297299 -0.7341590934175336
2.4739163334355085 -0.7745866824932075
2.513377391573718 -0.7948004770310445
2.605453193896207 -0.8150142715688815
2.6843753101726255 -0.7948004770310445
2.723836368310835 -0.7948004770310445
2.6975289962186952 -0.8150142715688815
2.579145821804067 -0.8150142715688815
2.447608961343369 -0.8049073742999631
2.4081479032051596 -0.8150142715688815
2.434455275297299 -0.7745866824932075
2.447608961343369 -0.8150142715688815
2.4739163334355085 -0.8150142715688815
2.447608961343369 -0.845334963375637
2.434455275297299 -0.8251211688378
2.434455275297299 -0.8352280661067185
2.39499421715909 -0.8049073742999631
2.36868684506695 -0.8049073742999631
2.3555331590208803 -0.8150142715688815
2.2897647287905314 -0.8352280661067185
2.2108426125141123 -0.8352280661067185
2.184535240421973 -0.8150142715688815
2.158227868329833 -0.7846935797621261
2.1450741822837633 -0.744265990686452
2.0793057520534144 -0.744265990686452
2.0135373218230654 -0.744265990686452
1.9346152055466463 -0.724052196148615
1.8820004613623673 -0.6937315043418596
1.829385717178088 -0.6836246070729411
1.7504636009016692 -0.6836246070729411
1.68469517067132 -0.6937315043418596
1.618926740440971 -0.6937315043418596
1.5268509381184823 -0.6533039152661856
1.4742361939342032 -0.6229832234594301
1.4347751357959937 -0.5825556343837561
1.3558530195195748 -0.5724487371148377
1.276930903243156 -0.5421280453080822
1.1848551009206674 -0.5421280453080822
1.1190866706903182 -0.5118073535013268
1.0927792985981786 -0.5017004562324082
1.0401645544138995 -0.46127286715673427
1.01385718232176 -0.4208452780810603
0.9480887520914107 -0.4208452780810603
0.8428592637228524 -0.4006314835432233
0.7902445195385731 -0.3804176890053863
0.7770908334925033 -0.36020389446754936
0.7507834614003637 -0.35009699719863085
0.7113224032621542 -0.2894556135851199
0.6718613451239448 -0.2793487163162014
0.6060929148935957 -0.3096694081229569
0.5534781707093165 -0.2591349217783644
0.5271707986171769 -0.24902802450944592
0.5008634265250372 -0.20860043543377196
0.5008634265250372 -0.18838664089593496
0.5008634265250372 -0.19849353816485346
0.46140236838682785 -0.19849353816485346
0.43509499629468823 -0.15806594908917948
0.4219413102486184 -0.1378521545513425
0.44824868234075804 -0.1378521545513425
0.43509499629468823 -0.10753146274458703
0.38248025211040904 -0.10753146274458703
0.31671182188006 -0.11763836001350551
0.3298655079261298 -0.10753146274458703
0.30355813583399016 -0.07721077093783155
0.31671182188006 -0.07721077093783155
0.3298655079261298 -0.06710387366891306
0.3430191939721996 -0.07721077093783155
0.3298655079261298 -0.09742456547566854
0.30355813583399016 -0.09742456547566854
0.27725076374185054 -0.07721077093783155
0.27725076374185054 -0.05699697639999456
0.29040444978792035 -0.07721077093783155
0.27725076374185054 -0.05699697639999456
0.29040444978792035 -0.06710387366891306
0.2509433916497109 -0.06710387366891306
0.23778970560364113 -0.04689007913107607
0.27725076374185054 -0.04689007913107607
0.2640970776957807 -0.02667628459323908
0.2509433916497109 -0.04689007913107607
0.23778970560364113 -0.05699697639999456
0.22463601955757131 -0.04689007913107607
0.2640970776957807 -0.03678318186215757
0.2509433916497109 -0.04689007913107607
0.2640970776957807 -0.03678318186215757
0.2509433916497109 -0.06710387366891306
0.2509433916497109 -0.06710387366891306
0.2640970776957807 -0.04689007913107607
0.30355813583399016 -0.03678318186215757
0.29040444978792035 -0.03678318186215757
0.2640970776957807 -0.03678318186215757
0.1983286474654317 -0.04689007913107607
0.17202127537329207 -0.07721077093783155
0.18517496141936188 -0.07721077093783155
0.22463601955757131 -0.04689007913107607
0.27725076374185054 -0.04689007913107607
0.27725076374185054 -0.04689007913107607
0.2509433916497109 -0.07721077093783155
0.2114823335115015 -0.09742456547566854
0.15886758932722225 -0.09742456547566854
0.17202127537329207 -0.04689007913107607
0.11940653118901283 -0.03678318186215757
0.0667917870047336 -0.03678318186215757
0.027330728866524174 -0.02667628459323908
0.014177042820454365 -0.06710387366891306
0.0010233567743845565 -0.02667628459323908
0.05363810095866379 -0.03678318186215757
0.10625284514294303 -0.04689007913107607
0.10625284514294303 -0.02667628459323908
0.0799454730508034 -0.03678318186215757
0.0667917870047336 -0.06710387366891306
0.0667917870047336 -0.07721077093783155
0.0667917870047336 -0.03678318186215757
0.11940653118901283 -0.02667628459323908
0.09309915909687322 -0.02667628459323908
0.10625284514294303 -0.04689007913107607
0.0667917870047336 -0.05699697639999456
0.014177042820454365 -0.04689007913107607
0.027330728866524174 -0.03678318186215757
0.027330728866524174 -0.02667628459323908
0.014177042820454365 -0.02667628459323908
0.04048441491259398 -0.03678318186215757
0.027330728866524174 -0.07721077093783155
0.04048441491259398 -0.05699697639999456
0.0667917870047336 -0.02667628459323908
0.0799454730508034 -0.0064624900554020965
0.05363810095866379 -0.02667628459323908
0.05363810095866379 -0.02667628459323908
0.04048441491259398 -0.06710387366891306
0.0010233567743845565 -0.01656938732432059
0.04048441491259398 -0.01656938732432059
0.05363810095866379 -0.01656938732432059
0.05363810095866379 -0.03678318186215757
0.04048441491259398 -0.05699697639999456
0.027330728866524174 -0.05699697639999456
0.05363810095866379 -0.04689007913107607
0.0667917870047336 -0.02667628459323908
0.09309915909687322 -0.01656938732432059
0.0667917870047336 -0.02667628459323908
0.027330728866524174 -0.02667628459323908
-0.012130329271685253 -0.04689007913107607
-0.025284015317755062 -0.02667628459323908
0.0010233567743845565 -0.0064624900554020965
0.027330728866524174 -0.03678318186215757
0.027330728866524174 -0.0064624900554020965
0.0010233567743845565 -0.02667628459323908
0.027330728866524174 -0.04689007913107607
0.014177042820454365 -0.03678318186215757
0.014177042820454365 -0.01656938732432059
-0.012130329271685253 -0.01656938732432059
0.0010233567743845565 -0.0064624900554020965
0.0010233567743845565 -0.0064624900554020965
0.014177042820454365 -0.03678318186215757
-0.012130329271685253 -0.02667628459323908
0.014177042820454365 -0.04689007913107607
0.04048441491259398 0.0036444072135163965
0.0799454730508034 -0.0064624900554020965
0.09309915909687322 -0.02667628459323908
0.09309915909687322 -0.05699697639999456
0.09309915909687322 -0.03678318186215757
0.09309915909687322 0.01375130448243489
0.10625284514294303 0.01375130448243489
0.10625284514294303 0.04407199628919037
0.13256021723508266 0.02385820175135338
0.11940653118901283 0.01375130448243489
0.15886758932722225 0.01375130448243489
0.17202127537329207 0.02385820175135338
0.2114823335115015 0.04407199628919037
0.1983286474654317 0.02385820175135338
0.2114823335115015 -0.01656938732432059
0.15886758932722225 -0.02667628459323908
0.0799454730508034 -0.02667628459323908
0.04048441491259398 -0.02667628459323908
0.04048441491259398 -0.01656938732432059
0.04048441491259398 -0.03678318186215757
0.014177042820454365 -0.04689007913107607
-0.012130329271685253 -0.05699697639999456
-0.051591387409894676 -0.06710387366891306
-0.06474507345596449 -0.04689007913107607
-0.06474507345596449 -0.04689007913107607
-0.051591387409894676 -0.05699697639999456
-0.051591387409894676 -0.05699697639999456
-0.025284015317755062 -0.08731766820675003
-0.051591387409894676 -0.07721077093783155
-0.06474507345596449 -0.07721077093783155
-0.03843770136382487 -0.05699697639999456
-0.025284015317755062 -0.05699697639999456
0.014177042820454365 -0.05699697639999456
0.04048441491259398 -0.08731766820675003
0.0667917870047336 -0.10753146274458703
0.0667917870047336 -0.08731766820675003
0.0667917870047336 -0.06710387366891306
0.027330728866524174 -0.02667628459323908
0.0010233567743845565 -0.04689007913107607
0.0010233567743845565 -0.06710387366891306
-0.051591387409894676 -0.04689007913107607
-0.051591387409894676 0.0036444072135163965
-0.051591387409894676 0.04407199628919037
-0.051591387409894676 0.01375130448243489
-0.03843770136382487 -0.02667628459323908
-0.0778987595020343 -0.0064624900554020965
-0.051591387409894676 -0.0064624900554020965
-0.025284015317755062 0.01375130448243489
0.0010233567743845565 0.0036444072135163965
-0.051591387409894676 0.01375130448243489
-0.11735981764024372 0.01375130448243489
-0.16997456182452295 -0.0064624900554020965
-0.11735981764024372 0.01375130448243489
-0.025284015317755062 0.03396509902027187
0.04048441491259398 0.03396509902027187
0.014177042820454365 0.01375130448243489
-0.03843770136382487 0.01375130448243489
-0.13051350368631354 0.01375130448243489
-0.18312824787059276 0.0036444072135163965
-0.16997456182452295 0.02385820175135338
-0.14366718973238335 0.03396509902027187
-0.11735981764024372 0.02385820175135338
-0.0910524455481041 0.02385820175135338
-0.14366718973238335 0.01375130448243489
-0.16997456182452295 0.04407199628919037
-0.19628193391666257 0.01375130448243489
-0.18312824787059276 0.03396509902027187
-0.11735981764024372 0.03396509902027187
0.0010233567743845565 0.01375130448243489
0.14571390328115244 -0.01656938732432059
0.30355813583399016 -0.04689007913107607
0.5929392288475259 -0.05699697639999456
0.8428592637228524 -0.08731766820675003
1.1453940427824578 -0.10753146274458703
1.3821603916117144 -0.1378521545513425
1.6452341125331107 -0.18838664089593496
1.9083078334545067 -0.21870733270269044
2.237149984606252 -0.2894556135851199
2.5659921357579973 -0.37031079173646786
2.855373228771533 -0.5219142507702452
3.1447543217850686 -0.6735177098040226
3.210522752015418 -0.8251211688378
3.0921395776007894 -0.8958694497202294
2.8027584845872537 -0.9464039360648219
2.302918414836601 -0.9666177306026589
1.553158310210622 -0.865548757913474
0.5666318567553863 -0.7341590934175336
-0.19628193391666257 -0.5926625316526747
-0.6435072594830361 -0.48148666169457127
-0.8671199222662228 -0.3905245862743048
-0.9197346664505021 -0.3096694081229569
-0.8802736083122926 -0.2591349217783644
-0.7750441199437341 -0.23892112724052741
-0.6566609455291059 -0.20860043543377196
-0.5514314571605474 -0.17827974362701648
-0.4988167129762682 -0.11763836001350551
-0.47250934088412855 -0.10753146274458703
-0.45935565483805874 -0.127745257282424
-0.4198945966998493 -0.1378521545513425
-0.40674091065377954 -0.1378521545513425
-0.4462019687919889 -0.11763836001350551
-0.45935565483805874 -0.10753146274458703
-0.4462019687919889 -0.03678318186215757
-0.4462019687919889 -0.03678318186215757
-0.4462019687919889 -0.06710387366891306
-0.45935565483805874 -0.07721077093783155
-0.4462019687919889 -0.04689007913107607
-0.4462019687919889 0.01375130448243489
-0.40674091065377954 0.04407199628919037
-0.3541261664695003 0.02385820175135338
-0.3409724804234305 0.03396509902027187
-0.3409724804234305 0.0036444072135163965
-0.3672798525155701 0.04407199628919037
-0.3804335385616399 0.04407199628919037
-0.3541261664695003 0.07439268809594585
-0.31466510833129085 0.07439268809594585
-0.30151142228522104 0.06428579082702736
-0.31466510833129085 0.03396509902027187
-0.31466510833129085 0.07439268809594585
-0.32781879437736067 0.07439268809594585
-0.32781879437736067 0.08449958536486434
-0.3409724804234305 0.06428579082702736
-0.28835773623915123 0.06428579082702736
-0.28835773623915123 0.05417889355810886
-0.24889667810094182 0.03396509902027187
-0.2752040501930814 0.06428579082702736
-0.2752040501930814 0.05417889355810886
-0.24889667810094182 0.07439268809594585
-0.2620503641470116 0.03396509902027187
-0.2225893060088022 0.0036444072135163965
-0.20943561996273238 -0.0064624900554020965
-0.15682087577845316 0.01375130448243489
-0.15682087577845316 0.01375130448243489
-0.16997456182452295 0.03396509902027187
-0.235742992054872 0.0036444072135163965
-0.32781879437736067 -0.0064624900554020965
-0.4462019687919889 0.03396509902027187
-0.4462019687919889 0.03396509902027187
-0.3672798525155701 0.05417889355810886
-0.2752040501930814 0.07439268809594585
-0.2752040501930814 0.05417889355810886
-0.2620503641470116 0.01375130448243489
-0.2620503641470116 0.02385820175135338
-0.28835773623915123 0.02385820175135338
-0.2620503641470116 0.05417889355810886
-0.30151142228522104 0.06428579082702736
-0.2752040501930814 0.04407199628919037
-0.28835773623915123 0.03396509902027187
-0.2752040501930814 0.04407199628919037
-0.235742992054872 0.07439268809594585
-0.16997456182452295 0.08449958536486434
-0.14366718973238335 0.06428579082702736
-0.14366718973238335 0.06428579082702736
-0.14366718973238335 0.02385820175135338
-0.15682087577845316 0.04407199628919037
-0.14366718973238335 0.06428579082702736
-0.11735981764024372 0.07439268809594585
-0.0778987595020343 0.11482027717161981
-0.012130329271685253 0.08449958536486434
0.0010233567743845565 0.06428579082702736
0.0010233567743845565 0.04407199628919037
0.0667917870047336 0.07439268809594585
0.13256021723508266 0.08449958536486434
0.1983286474654317 0.03396509902027187
0.18517496141936188 0.02385820175135338
0.0667917870047336 0.0036444072135163965
-0.19628193391666257 0.03396509902027187
-0.40674091065377954 0.10471337990270133
-0.5251240850684078 0.15524786624729378
-0.47250934088412855 0.17546166078513079
-0.39358722460770973 0.16535476351621228
-0.3672798525155701 0.11482027717161981
-0.3541261664695003 0.10471337990270133
-0.30151142228522104 0.1350340717094568
-0.2620503641470116 0.18556855805404926
-0.2225893060088022 0.1451409689783753
-0.18312824787059276 0.1451409689783753
-0.18312824787059276 0.10471337990270133
-0.20943561996273238 0.10471337990270133
-0.16997456182452295 0.1249271744405383
-0.14366718973238335 0.15524786624729378
-0.10420613159417391 0.1451409689783753
-0.06474507345596449 0.11482027717161981
-0.0778987595020343 0.10471337990270133
-0.0910524455481041 0.08449958536486434
-0.06474507345596449 0.10471337990270133
-0.03843770136382487 0.1249271744405383
0.0010233567743845565 0.1249271744405383
0.0010233567743845565 0.08449958536486434
0.0010233567743845565 0.07439268809594585
0.0010233567743845565 0.08449958536486434
0.014177042820454365 0.08449958536486434
0.0667917870047336 0.09460648263378284
0.0799454730508034 0.10471337990270133
0.0667917870047336 0.09460648263378284
0.05363810095866379 0.06428579082702736
0.09309915909687322 0.05417889355810886
0.11940653118901283 0.08449958536486434
0.11940653118901283 0.08449958536486434
0.18517496141936188 0.05417889355810886
0.1983286474654317 0.02385820175135338
0.2640970776957807 -0.0064624900554020965
0.22463601955757131 -0.0064624900554020965
0.2640970776957807 0.02385820175135338
0.2640970776957807 0.04407199628919037
0.23778970560364113 0.03396509902027187
0.14571390328115244 -0.01656938732432059
0.0667917870047336 -0.04689007913107607
-0.012130329271685253 -0.01656938732432059
-0.0778987595020343 0.0036444072135163965
-0.11735981764024372 0.03396509902027187
-0.14366718973238335 0.06428579082702736
-0.11735981764024372 0.06428579082702736
-0.03843770136382487 0.03396509902027187
0.0010233567743845565 0.01375130448243489
0.027330728866524174 0.02385820175135338
0.05363810095866379 0.02385820175135338
0.0010233567743845565 0.02385820175135338
-0.025284015317755062 -0.0064624900554020965
-0.06474507345596449 -0.01656938732432059
-0.06474507345596449 0.01375130448243489
-0.025284015317755062 0.01375130448243489
0.014177042820454365 0.05417889355810886
-0.012130329271685253 0.01375130448243489
0.027330728866524174 0.02385820175135338
0.04048441491259398 -0.0064624900554020965
0.04048441491259398 0.0036444072135163965
0.027330728866524174 0.01375130448243489
0.0667917870047336 0.03396509902027187
0.09309915909687322 0.06428579082702736
0.13256021723508266 0.04407199628919037
0.14571390328115244 0.02385820175135338
0.15886758932722225 0.0036444072135163965
0.14571390328115244 0.04407199628919037
0.13256021723508266 0.06428579082702736
0.0799454730508034 0.06428579082702736
0.0799454730508034 0.05417889355810886
0.09309915909687322 0.03396509902027187
0.11940653118901283 0.04407199628919037
0.13256021723508266 0.02385820175135338
0.13256021723508266 0.06428579082702736
0.09309915909687322 0.06428579082702736
0.014177042820454365 0.05417889355810886
-0.0778987595020343 0.01375130448243489
-0.11735981764024372 0.01375130448243489
-0.0778987595020343 0.05417889355810886
-0.012130329271685253 0.07439268809594585
0.014177042820454365 0.06428579082702736
0.027330728866524174 0.05417889355810886
-0.012130329271685253 0.03396509902027187
-0.012130329271685253 0.03396509902027187
-0.03843770136382487 0.03396509902027187
0.027330728866524174 0.05417889355810886
0.0667917870047336 0.02385820175135338
0.10625284514294303 -0.0064624900554020965
0.11940653118901283 -0.0064624900554020965
0.0799454730508034 -0.02667628459323908
0.05363810095866379 -0.01656938732432059
0.027330728866524174 -0.01656938732432059
0.0799454730508034 -0.01656938732432059
0.0667917870047336 -0.04689007913107607
0.09309915909687322 -0.06710387366891306
0.11940653118901283 -0.05699697639999456
0.15886758932722225 -0.08731766820675003
0.2114823335115015 -0.09742456547566854
0.22463601955757131 -0.1378521545513425
0.18517496141936188 -0.15806594908917948
0.10625284514294303 -0.16817284635809798
0.027330728866524174 -0.17827974362701648
0.13256021723508266 -0.17827974362701648
0.3298655079261298 -0.15806594908917948
0.514017112571107 -0.16817284635809798
0.5929392288475259 -0.18838664089593496
0.5403244846632467 -0.18838664089593496
0.3693265660643392 -0.147959051820261
0.2640970776957807 -0.07721077093783155
0.18517496141936188 -0.02667628459323908
0.05363810095866379 0.01375130448243489
-0.24889667810094182 0.11482027717161981
-0.8013514920358737 0.21588924986080474
-1.6694947710764811 0.35738581162566363
-2.616560166393507 0.529203065197278
-3.3663202710194864 0.7414479078445664
-3.945082457046558 0.8627306750715883
-4.313385666336512 1.004227236836447
-4.49753727098149 1.0850824149877951
-4.589613073303979 1.145723798601306
-4.615920445396118 1.1962582849458985
-4.589613073303979 1.2366858740215725
-4.51069095702756 1.2771134630972465
-4.471229898889351 1.267006565828328
-4.418615154705071 1.287220360366165
-4.352846724474722 1.2973272576350834
-4.1818488058758145 1.307434154904002
-3.866160340770139 1.3175410521729205
-3.524164503572324 1.3175410521729205
-3.247937096604858 1.307434154904002
-3.063785491959881 1.307434154904002
-2.9454023175452524 1.2973272576350834
-2.827019143130624 1.3377548467107574
-2.577099108255298 1.3478617439796758
-2.314025387333902 1.327647949441839
-2.090412724550715 1.2568996685594096
-1.9983369222282263 1.246792771290491
-1.8536463757214585 1.2568996685594096
-1.6958021431686208 1.267006565828328
-1.537957910615783 1.246792771290491
-1.3669599920168756 1.2164720794837356
-1.2354231315561774 1.1962582849458985
-1.1038862710954793 1.105296209525632
-1.0512715269112 1.0648686204499582
-1.0118104687729907 1.0648686204499582
-0.9723494106347813 1.0749755177188767
-0.8934272943583624 1.0648686204499582
-0.8408125501740832 0.9840134422986102
-0.8013514920358737 0.8829444696094253
-0.7750441199437341 0.7818754969202404
-0.6435072594830361 0.7414479078445664
-0.4462019687919889 0.6706996269621369
-0.19628193391666257 0.569630654272952
-0.012130329271685253 0.4382409897770116
0.18517496141936188 0.2664237362053972
0.3298655079261298 0.1249271744405383
0.46140236838682785 0.01375130448243489
0.5797855428014561 -0.09742456547566854
0.658707659077875 -0.21870733270269044
0.7639371474464335 -0.2894556135851199
0.7902445195385731 -0.3905245862743048
0.869166635814992 -0.4309521753499788
0.9480887520914107 -0.47137976442565277
1.0664719265060392 -0.5017004562324082
1.1190866706903182 -0.5118073535013268
1.1322403567363881 -0.5320211480391637
1.1190866706903182 -0.5724487371148377
1.1190866706903182 -0.6128763261905117
1.211162473012807 -0.6128763261905117
1.3163919613813655 -0.6229832234594301
1.3558530195195748 -0.6128763261905117
1.3953140776577844 -0.6634108125351041
1.421621449749924 -0.703838401610778
1.4347751357959937 -0.724052196148615
1.4610825078881333 -0.7139452988796966
1.5136972520724126 -0.703838401610778
1.553158310210622 -0.7341590934175336
1.5926193683488314 -0.7745866824932075
1.6057730543949011 -0.8049073742999631
1.6320804264870408 -0.8150142715688815
1.69784885671739 -0.8049073742999631
1.763617286947739 -0.8049073742999631
1.7899246590398785 -0.865548757913474
1.8162320311320181 -0.9160832442580664
1.8688467753162974 -0.9160832442580664
1.9083078334545067 -0.9160832442580664
1.9083078334545067 -0.9362970387959034
1.9477688915927163 -0.9464039360648219
1.974076263684856 -0.9464039360648219
1.9872299497309256 -0.9666177306026589
2.026691007869135 -0.9868315251404959
2.026691007869135 -0.9767246278715774
2.0529983799612745 -0.9767246278715774
2.092459438099484 -0.9565108333337404
2.158227868329833 -0.9767246278715774
2.171381554375903 -0.9767246278715774
2.105613124145554 -1.0272591142161698
2.0661520660073447 -1.0272591142161698
2.118766810191624 -1.0373660114850884
2.1319204962376936 -0.9969384224094143
2.1319204962376936 -0.9969384224094143
2.092459438099484 -0.9868315251404959
2.039844693915205 -1.0171522169472513
1.9477688915927163 -1.0171522169472513
1.9346152055466463 -0.9969384224094143
1.9083078334545067 -0.9767246278715774
1.9083078334545067 -0.9666177306026589
1.8556930892702277 -0.9666177306026589
1.7899246590398785 -0.9565108333337404
1.7504636009016692 -0.926190141526985
1.7241562288095296 -0.905976346989148
1.6452341125331107 -0.8554418606445555
1.5794656823027615 -0.8352280661067185
1.553158310210622 -0.8150142715688815
1.553158310210622 -0.8251211688378
1.553158310210622 -0.7846935797621261
1.553158310210622 -0.764479785224289
1.553158310210622 -0.724052196148615
1.4479288218420636 -0.703838401610778
1.2374698451049466 -0.6735177098040226
1.00070349627569 -0.6330901207283487
0.869166635814992 -0.5825556343837561
0.9349350660453409 -0.5421280453080822
0.9875498102296202 -0.5320211480391637
0.9612424381374806 -0.5522349425770007
0.7902445195385731 -0.5017004562324082
0.6455539730318052 -0.45116596988781577
0.5008634265250372 -0.4107383808121418
0.4219413102486184 -0.35009699719863085
0.4219413102486184 -0.33999009992971235
0.47455605443289767 -0.3096694081229569
0.514017112571107 -0.2692418190472829
0.4219413102486184 -0.2894556135851199
0.3298655079261298 -0.23892112724052741
0.2509433916497109 -0.21870733270269044
0.2509433916497109 -0.19849353816485346
0.31671182188006 -0.18838664089593496
0.29040444978792035 -0.17827974362701648
0.22463601955757131 -0.16817284635809798
0.2114823335115015 -0.1378521545513425
0.17202127537329207 -0.11763836001350551
0.17202127537329207 -0.08731766820675003
0.2114823335115015 -0.10753146274458703
0.2114823335115015 -0.09742456547566854
0.17202127537329207 -0.10753146274458703
0.18517496141936188 -0.08731766820675003
0.17202127537329207 -0.07721077093783155
0.2509433916497109 -0.05699697639999456
0.29040444978792035 -0.07721077093783155
0.2509433916497109 -0.05699697639999456
0.15886758932722225 -0.07721077093783155
0.0799454730508034 -0.07721077093783155
0.10625284514294303 -0.04689007913107607
0.13256021723508266 -0.01656938732432059
0.14571390328115244 -0.03678318186215757
0.0667917870047336 -0.05699697639999456
0.0667917870047336 -0.06710387366891306
0.10625284514294303 -0.08731766820675003
0.18517496141936188 -0.06710387366891306
0.2640970776957807 -0.02667628459323908
0.2509433916497109 -0.05699697639999456
0.18517496141936188 -0.05699697639999456
0.09309915909687322 -0.05699697639999456
0.10625284514294303 -0.04689007913107607
0.17202127537329207 -0.05699697639999456
0.22463601955757131 -0.04689007913107607
0.1983286474654317 -0.04689007913107607
0.17202127537329207 -0.04689007913107607
0.10625284514294303 -0.05699697639999456
0.09309915909687322 -0.04689007913107607
0.11940653118901283 -0.01656938732432059
0.17202127537329207 -0.01656938732432059
0.17202127537329207 -0.02667628459323908
0.14571390328115244 -0.04689007913107607
0.09309915909687322 -0.07721077093783155
0.014177042820454365 -0.06710387366891306
0.04048441491259398 -0.04689007913107607
0.05363810095866379 -0.01656938732432059
0.10625284514294303 -0.01656938732432059
0.13256021723508266 -0.01656938732432059
0.11940653118901283 -0.01656938732432059
0.11940653118901283 -0.04689007913107607
0.10625284514294303 -0.05699697639999456
0.09309915909687322 -0.03678318186215757
0.0799454730508034 -0.02667628459323908
0.05363810095866379 -0.03678318186215757
0.014177042820454365 -0.04689007913107607
0.05363810095866379 -0.01656938732432059
0.0799454730508034 -0.01656938732432059
0.0667917870047336 -0.02667628459323908
0.027330728866524174 -0.02667628459323908
0.04048441491259398 -0.0064624900554020965
0.027330728866524174 -0.02667628459323908
0.0010233567743845565 -0.03678318186215757
0.014177042820454365 -0.01656938732432059
0.05363810095866379 0.0036444072135163965
0.05363810095866379 -0.01656938732432059
0.05363810095866379 -0.03678318186215757
0.0667917870047336 -0.04689007913107607
0.05363810095866379 -0.02667628459323908
0.0667917870047336 -0.01656938732432059
0.13256021723508266 -0.0064624900554020965
0.1983286474654317 -0.01656938732432059
0.22463601955757131 -0.03678318186215757
0.18517496141936188 -0.04689007913107607
0.09309915909687322 -0.02667628459323908
0.10625284514294303 0.0036444072135163965
0.14571390328115244 -0.01656938732432059
0.17202127537329207 -0.02667628459323908
0.17202127537329207 -0.03678318186215757
0.18517496141936188 -0.04689007913107607
0.17202127537329207 -0.03678318186215757
0.15886758932722225 -0.01656938732432059
0.10625284514294303 -0.0064624900554020965
-0.025284015317755062 0.0036444072135163965
-0.0778987595020343 -0.0064624900554020965
-0.10420613159417391 -0.0064624900554020965
-0.0910524455481041 -0.0064624900554020965
-0.03843770136382487 0.02385820175135338
-0.025284015317755062 0.06428579082702736
-0.03843770136382487 0.05417889355810886
-0.03843770136382487 0.03396509902027187
-0.051591387409894676 0.03396509902027187
-0.051591387409894676 0.03396509902027187
0.0010233567743845565 0.04407199628919037
0.0667917870047336 0.08449958536486434
0.09309915909687322 0.06428579082702736
0.11940653118901283 0.04407199628919037
0.09309915909687322 0.03396509902027187
0.10625284514294303 0.06428579082702736
0.09309915909687322 0.06428579082702736
0.13256021723508266 0.08449958536486434
0.18517496141936188 0.05417889355810886
0.18517496141936188 0.0036444072135163965
0.18517496141936188 -0.0064624900554020965
0.15886758932722225 -0.0064624900554020965
0.15886758932722225 0.0036444072135163965
0.15886758932722225 0.02385820175135338
0.14571390328115244 0.02385820175135338
0.10625284514294303 0.0036444072135163965
0.027330728866524174 -0.0064624900554020965
0.014177042820454365 -0.0064624900554020965
0.014177042820454365 0.02385820175135338
0.04048441491259398 0.04407199628919037
0.04048441491259398 0.02385820175135338
0.027330728866524174 0.02385820175135338
0.014177042820454365 -0.0064624900554020965
-0.012130329271685253 -0.03678318186215757
0.0010233567743845565 -0.02667628459323908
-0.012130329271685253 -0.0064624900554020965
0.027330728866524174 -0.03678318186215757
0.014177042820454365 -0.03678318186215757
-0.012130329271685253 -0.05699697639999456
-0.03843770136382487 -0.03678318186215757
-0.03843770136382487 -0.02667628459323908
-0.025284015317755062 0.0036444072135163965
0.027330728866524174 -0.01656938732432059
0.0799454730508034 -0.03678318186215757
0.05363810095866379 -0.04689007913107607
0.0667917870047336 -0.04689007913107607
0.09309915909687322 -0.0064624900554020965
0.13256021723508266 0.0036444072135163965
0.14571390328115244 -0.0064624900554020965
0.10625284514294303 0.0036444072135163965
0.04048441491259398 0.0036444072135163965
-0.051591387409894676 0.01375130448243489
-0.0778987595020343 -0.0064624900554020965
-0.012130329271685253 0.01375130448243489
0.04048441491259398 0.04407199628919037
0.014177042820454365 0.04407199628919037
0.04048441491259398 0.01375130448243489
0.014177042820454365 0.02385820175135338
0.04048441491259398 0.03396509902027187
0.027330728866524174 0.06428579082702736
0.027330728866524174 0.04407199628919037
0.027330728866524174 0.04407199628919037
0.04048441491259398 0.0036444072135163965
0.05363810095866379 -0.0064624900554020965
0.15886758932722225 -0.01656938732432059
0.27725076374185054 0.0036444072135163965
0.3430191939721996 -0.0064624900554020965
0.3956339381564788 -0.03678318186215757
0.30355813583399016 -0.04689007913107607
0.0667917870047336 -0.04689007913107607
-0.13051350368631354 -0.01656938732432059
-0.235742992054872 0.06428579082702736
-0.2620503641470116 0.08449958536486434
-0.235742992054872 0.07439268809594585
-0.20943561996273238 0.06428579082702736
-0.16997456182452295 0.03396509902027187
-0.03843770136382487 0.05417889355810886
0.13256021723508266 0.06428579082702736
0.29040444978792035 0.02385820175135338
0.5403244846632467 -0.0064624900554020965
0.7770908334925033 -0.04689007913107607
1.0270108683678296 -0.07721077093783155
1.276930903243156 -0.09742456547566854
1.4610825078881333 -0.10753146274458703
1.6452341125331107 -0.127745257282424
1.895154147408437 -0.16817284635809798
2.1319204962376936 -0.20860043543377196
2.39499421715909 -0.2894556135851199
2.710682682264765 -0.33999009992971235
3.0526785194625803 -0.44105907261889726
3.2894448682918367 -0.6128763261905117
3.342059612476116 -0.6937315043418596
3.210522752015418 -0.7846935797621261
2.973756403186161 -0.845334963375637
2.6186068799422766 -0.8352280661067185
1.9346152055466463 -0.764479785224289
0.8297055776767825 -0.6634108125351041
-0.16997456182452295 -0.5219142507702452
-0.853966236220153 -0.4107383808121418
-1.1433473292336889 -0.33999009992971235
-1.1433473292336889 -0.2591349217783644
-1.1038862710954793 -0.17827974362701648
-0.9855030966808511 -0.16817284635809798
-0.9065809804044322 -0.09742456547566854
-0.7881978059898039 -0.09742456547566854
-0.7092756897133852 -0.11763836001350551
-0.6303535734369663 -0.09742456547566854
-0.5382777711144776 -0.05699697639999456
-0.45935565483805874 -0.07721077093783155
-0.4198945966998493 -0.06710387366891306
-0.4198945966998493 -0.07721077093783155
-0.47250934088412855 -0.07721077093783155
-0.511970399022338 -0.03678318186215757
-0.48566302693019836 -0.01656938732432059
-0.47250934088412855 -0.01656938732432059
-0.40674091065377954 -0.02667628459323908
-0.40674091065377954 -0.02667628459323908
-0.40674091065377954 -0.0064624900554020965
-0.3804335385616399 0.02385820175135338
-0.32781879437736067 0.06428579082702736
-0.24889667810094182 0.03396509902027187
-0.2225893060088022 0.04407199628919037
-0.2620503641470116 0.0036444072135163965
-0.24889667810094182 0.01375130448243489
-0.2620503641470116 0.03396509902027187
-0.235742992054872 0.05417889355810886
-0.16997456182452295 0.05417889355810886
-0.11735981764024372 0.03396509902027187
-0.14366718973238335 -0.01656938732432059
-0.16997456182452295 -0.02667628459323908
-0.15682087577845316 0.0036444072135163965
-0.051591387409894676 0.02385820175135338
0.05363810095866379 0.02385820175135338
0.10625284514294303 0.0036444072135163965
0.11940653118901283 -0.03678318186215757
0.027330728866524174 -0.03678318186215757
-0.0778987595020343 -0.02667628459323908
-0.24889667810094182 0.01375130448243489
-0.3804335385616399 0.02385820175135338
-0.48566302693019836 0.04407199628919037
-0.5251240850684078 0.05417889355810886
-0.45935565483805874 0.05417889355810886
-0.40674091065377954 0.04407199628919037
-0.3804335385616399 0.06428579082702736
-0.3804335385616399 0.08449958536486434
-0.3672798525155701 0.06428579082702736
-0.30151142228522104 0.03396509902027187
-0.2620503641470116 0.01375130448243489
-0.235742992054872 0.02385820175135338
-0.20943561996273238 0.03396509902027187
-0.20943561996273238 0.03396509902027187
-0.20943561996273238 0.01375130448243489
-0.20943561996273238 0.01375130448243489
-0.20943561996273238 0.0036444072135163965
-0.2225893060088022 0.0036444072135163965
-0.16997456182452295 0.04407199628919037
-0.15682087577845316 0.02385820175135338
-0.18312824787059276 0.02385820175135338
-0.16997456182452295 0.02385820175135338
-0.20943561996273238 0.02385820175135338
-0.14366718973238335 0.04407199628919037
-0.14366718973238335 0.05417889355810886
-0.13051350368631354 0.03396509902027187
-0.14366718973238335 0.03396509902027187
-0.14366718973238335 0.03396509902027187
-0.15682087577845316 0.03396509902027187
-0.13051350368631354 0.06428579082702736
-0.10420613159417391 0.09460648263378284
-0.0910524455481041 0.10471337990270133
-0.11735981764024372 0.10471337990270133
-0.16997456182452295 0.07439268809594585
-0.18312824787059276 0.08449958536486434
-0.15682087577845316 0.08449958536486434
-0.10420613159417391 0.10471337990270133
-0.0910524455481041 0.09460648263378284
-0.0910524455481041 0.10471337990270133
-0.0910524455481041 0.11482027717161981
-0.13051350368631354 0.11482027717161981
-0.11735981764024372 0.1350340717094568
-0.11735981764024372 0.18556855805404926
-0.0910524455481041 0.1451409689783753
-0.0910524455481041 0.15524786624729378
-0.10420613159417391 0.1350340717094568
-0.10420613159417391 0.1350340717094568
-0.025284015317755062 0.16535476351621228
0.0010233567743845565 0.16535476351621228
-0.012130329271685253 0.16535476351621228
0.0010233567743845565 0.11482027717161981
-0.012130329271685253 0.09460648263378284
-0.025284015317755062 0.11482027717161981
-0.012130329271685253 0.15524786624729378
0.0010233567743845565 0.16535476351621228
0.04048441491259398 0.15524786624729378
0.0667917870047336 0.1350340717094568
0.0799454730508034 0.08449958536486434
0.09309915909687322 0.09460648263378284
0.14571390328115244 0.11482027717161981
0.1983286474654317 0.1249271744405383
0.27725076374185054 0.09460648263378284
0.3561728800182694 0.06428579082702736
0.38248025211040904 0.01375130448243489
0.3298655079261298 0.02385820175135338
0.2114823335115015 0.01375130448243489
0.0799454730508034 0.08449958536486434
0.0010233567743845565 0.07439268809594585
0.0010233567743845565 0.07439268809594585
0.027330728866524174 0.07439268809594585
0.0010233567743845565 0.06428579082702736
0.0010233567743845565 0.09460648263378284
0.014177042820454365 0.09460648263378284
0.0799454730508034 0.07439268809594585
0.11940653118901283 0.06428579082702736
0.13256021723508266 0.04407199628919037
0.14571390328115244 0.03396509902027187
0.13256021723508266 0.02385820175135338
0.13256021723508266 0.06428579082702736
0.10625284514294303 0.04407199628919037
0.14571390328115244 0.03396509902027187
0.11940653118901283 0.01375130448243489
0.0799454730508034 -0.0064624900554020965
0.09309915909687322 0.02385820175135338
0.11940653118901283 0.02385820175135338
0.10625284514294303 0.02385820175135338
0.10625284514294303 0.0036444072135163965
0.09309915909687322 -0.0064624900554020965
0.09309915909687322 -0.0064624900554020965
0.09309915909687322 0.0036444072135163965
0.0799454730508034 0.03396509902027187
0.0667917870047336 0.01375130448243489
0.09309915909687322 0.01375130448243489
0.0667917870047336 -0.02667628459323908
0.014177042820454365 -0.0064624900554020965
0.0010233567743845565 0.0036444072135163965
0.0010233567743845565 0.02385820175135338
-0.012130329271685253 -0.01656938732432059
0.0010233567743845565 0.0036444072135163965
-0.051591387409894676 -0.02667628459323908
0.0010233567743845565 -0.01656938732432059
0.04048441491259398 0.01375130448243489
0.04048441491259398 0.02385820175135338
0.0667917870047336 0.0036444072135163965
0.0667917870047336 0.0036444072135163965
0.0010233567743845565 -0.01656938732432059
0.014177042820454365 -0.0064624900554020965
0.04048441491259398 0.02385820175135338
0.0667917870047336 0.05417889355810886
0.0799454730508034 0.04407199628919037
0.0667917870047336 0.03396509902027187
0.05363810095866379 0.0036444072135163965
0.0799454730508034 0.0036444072135163965
0.1983286474654317 0.0036444072135163965
0.38248025211040904 0.0036444072135163965
0.4219413102486184 -0.01656938732432059
0.44824868234075804 -0.04689007913107607
0.30355813583399016 -0.08731766820675003
0.22463601955757131 -0.05699697639999456
0.30355813583399016 -0.04689007913107607
0.46140236838682785 -0.02667628459323908
0.6060929148935957 -0.03678318186215757
0.5534781707093165 -0.05699697639999456
0.38248025211040904 -0.09742456547566854
0.29040444978792035 -0.07721077093783155
0.27725076374185054 -0.09742456547566854
0.3561728800182694 -0.08731766820675003
0.44824868234075804 -0.11763836001350551
0.5403244846632467 -0.1378521545513425
0.514017112571107 -0.16817284635809798
0.31671182188006 -0.17827974362701648
0.09309915909687322 -0.15806594908917948
-0.2752040501930814 -0.16817284635809798
-0.9460420385426417 -0.127745257282424
-1.8799537478135981 -0.04689007913107607
-2.9454023175452524 0.02385820175135338
-3.945082457046558 0.17546166078513079
-4.721149933764677 0.35738581162566363
-5.1946826314231895 0.5190961679283596
-5.299912119791748 0.5999513460797075
-5.286758433745678 0.6403789351553815
-5.2341436895613995 0.6201651406175445
-5.142067887238911 0.6504858324242999
-4.944762596547863 0.6808065242310554
-4.681688875626468 0.7313410105756478
-4.352846724474722 0.7616617023824034
-3.945082457046558 0.8020892914580773
-3.668855050079092 0.8121961887269958
-3.458396073341975 0.9132651614161807
-3.2873981547430677 1.0244410313742842
-3.0243244338216715 1.1154031067945507
-2.7217896547620657 1.1356169013323876
-2.43240856174853 1.1760444904080616
-2.1956422129192736 1.1760444904080616
-2.037797980366436 1.1962582849458985
-1.9062611199057378 1.2164720794837356
-1.7484168873529 1.2366858740215725
-1.551111596661853 1.2164720794837356
-1.3801136780629453 1.1659375931391431
-1.274884189694387 1.0850824149877951
-1.1828083873718982 1.0345479286432027
-1.0907325850494096 1.044654825912121
-0.9328883524965719 1.0244410313742842
-0.7618904338976643 0.9334789559540178
-0.6171998873908965 0.8324099832648328
-0.48566302693019836 0.7313410105756478
-0.2620503641470116 0.6403789351553815
-0.06474507345596449 0.5595237570040335
0.1983286474654317 0.48877547612160405
0.3561728800182694 0.37759960616350063
0.4877097404789675 0.2563168389364787
0.658707659077875 0.11482027717161981
0.7376297753542939 -0.0064624900554020965
0.9086276939532013 -0.04689007913107607
1.0401645544138995 -0.09742456547566854
1.1322403567363881 -0.18838664089593496
1.1848551009206674 -0.23892112724052741
1.211162473012807 -0.2793487163162014
1.211162473012807 -0.2793487163162014
1.3032382753352956 -0.2894556135851199
1.3426993334735051 -0.31977630539187535
1.3690067055656447 -0.33999009992971235
1.421621449749924 -0.3905245862743048
1.5136972520724126 -0.4309521753499788
1.553158310210622 -0.48148666169457127
1.5926193683488314 -0.47137976442565277
1.618926740440971 -0.45116596988781577
1.6583877985791804 -0.45116596988781577
1.7241562288095296 -0.48148666169457127
1.7899246590398785 -0.5219142507702452
1.8425394032241578 -0.5623418398459192
1.9214615195005766 -0.5522349425770007
1.974076263684856 -0.5522349425770007
2.0135373218230654 -0.5623418398459192
2.0529983799612745 -0.5724487371148377
2.0661520660073447 -0.6128763261905117
2.092459438099484 -0.6431970179972671
2.2108426125141123 -0.6330901207283487
2.316072100882671 -0.6330901207283487
2.4739163334355085 -0.703838401610778
2.5922995078501367 -0.744265990686452
2.6186068799422766 -0.764479785224289
2.513377391573718 -0.7543728879553706
2.3423794729748106 -0.744265990686452
2.1976889264680426 -0.703838401610778
2.2108426125141123 -0.7341590934175336
2.36868684506695 -0.7139452988796966
2.5002237055276484 -0.764479785224289
2.5528384497119276 -0.7846935797621261
2.5396847636658575 -0.7948004770310445
2.513377391573718 -0.7745866824932075
2.460762647389439 -0.7846935797621261
2.5002237055276484 -0.7948004770310445
2.5528384497119276 -0.8049073742999631
2.579145821804067 -0.8352280661067185
2.5922995078501367 -0.8251211688378
2.6186068799422766 -0.8150142715688815
2.5922995078501367 -0.8251211688378
2.5659921357579973 -0.8554418606445555
2.4870700194815782 -0.845334963375637
2.5002237055276484 -0.8251211688378
2.4739163334355085 -0.8049073742999631
2.460762647389439 -0.8150142715688815
2.4081479032051596 -0.8049073742999631
2.3423794729748106 -0.8352280661067185
2.2634573566983915 -0.8251211688378
2.2108426125141123 -0.8251211688378
2.158227868329833 -0.7846935797621261
2.0793057520534144 -0.7543728879553706
2.0135373218230654 -0.7341590934175336
1.974076263684856 -0.703838401610778
1.895154147408437 -0.703838401610778
1.8162320311320181 -0.724052196148615
1.763617286947739 -0.6735177098040226
1.7110025427634596 -0.6533039152661856
1.6452341125331107 -0.6229832234594301
1.5268509381184823 -0.5926625316526747
1.4347751357959937 -0.5825556343837561
1.3426993334735051 -0.5724487371148377
1.3032382753352956 -0.5522349425770007
1.276930903243156 -0.4915935589634897
1.2637772171970862 -0.5320211480391637
1.1453940427824578 -0.5118073535013268
1.0796256125521089 -0.5118073535013268
1.01385718232176 -0.45116596988781577
0.9612424381374806 -0.4309521753499788
0.9086276939532013 -0.4006314835432233
0.8954740079071315 -0.35009699719863085
0.8165518916307127 -0.35009699719863085
0.7639371474464335 -0.33999009992971235
0.7376297753542939 -0.32988320266079385
0.6850150311700146 -0.2995625108540384
0.6850150311700146 -0.2692418190472829
0.658707659077875 -0.2591349217783644
0.6324002869857354 -0.21870733270269044
0.5666318567553863 -0.22881422997160894
0.514017112571107 -0.19849353816485346
0.5403244846632467 -0.19849353816485346
0.5929392288475259 -0.16817284635809798
0.6455539730318052 -0.17827974362701648
0.6324002869857354 -0.17827974362701648
0.5403244846632467 -0.18838664089593496
0.46140236838682785 -0.147959051820261
0.4219413102486184 -0.11763836001350551
0.3561728800182694 -0.09742456547566854
0.29040444978792035 -0.06710387366891306
0.23778970560364113 -0.07721077093783155
0.1983286474654317 -0.09742456547566854
0.17202127537329207 -0.06710387366891306
0.15886758932722225 -0.02667628459323908
0.09309915909687322 -0.0064624900554020965
0.09309915909687322 -0.01656938732432059
0.10625284514294303 0.01375130448243489
0.10625284514294303 -0.0064624900554020965
0.13256021723508266 -0.01656938732432059
0.15886758932722225 -0.01656938732432059
0.17202127537329207 -0.0064624900554020965
0.1983286474654317 -0.01656938732432059
0.2114823335115015 -0.01656938732432059
0.23778970560364113 -0.03678318186215757
0.23778970560364113 -0.03678318186215757
0.27725076374185054 -0.02667628459323908
0.2509433916497109 0.01375130448243489
0.29040444978792035 -0.0064624900554020965
0.2640970776957807 -0.02667628459323908
0.22463601955757131 -0.03678318186215757
0.23778970560364113 -0.02667628459323908
0.22463601955757131 -0.02667628459323908
0.2509433916497109 0.01375130448243489
0.22463601955757131 0.01375130448243489
0.2114823335115015 0.01375130448243489
0.22463601955757131 -0.02667628459323908
0.1983286474654317 -0.02667628459323908
0.1983286474654317 -0.02667628459323908
0.14571390328115244 -0.0064624900554020965
0.17202127537329207 0.03396509902027187
0.14571390328115244 0.0036444072135163965
0.11940653118901283 -0.01656938732432059
0.0799454730508034 -0.01656938732432059
0.11940653118901283 -0.02667628459323908
0.14571390328115244 0.02385820175135338
0.17202127537329207 -0.0064624900554020965
0.14571390328115244 -0.0064624900554020965
0.13256021723508266 -0.02667628459323908
0.09309915909687322 -0.02667628459323908
0.10625284514294303 -0.01656938732432059
0.13256021723508266 0.01375130448243489
0.11940653118901283 -0.0064624900554020965
0.09309915909687322 0.0036444072135163965
0.0667917870047336 0.0036444072135163965
0.05363810095866379 -0.0064624900554020965
0.09309915909687322 0.01375130448243489
0.0799454730508034 0.02385820175135338
0.09309915909687322 0.03396509902027187
0.09309915909687322 0.0036444072135163965
0.0667917870047336 0.01375130448243489
0.04048441491259398 -0.0064624900554020965
0.05363810095866379 0.02385820175135338
0.0799454730508034 0.02385820175135338
0.0799454730508034 0.02385820175135338
0.04048441491259398 0.0036444072135163965
0.05363810095866379 0.0036444072135163965
0.0010233567743845565 -0.0064624900554020965
0.014177042820454365 0.02385820175135338
-0.012130329271685253 0.06428579082702736
0.0010233567743845565 0.03396509902027187
0.04048441491259398 0.0036444072135163965
0.0010233567743845565 -0.0064624900554020965
-0.051591387409894676 0.0036444072135163965
-0.051591387409894676 0.03396509902027187
0.014177042820454365 0.04407199628919037
0.05363810095866379 0.02385820175135338
0.014177042820454365 0.02385820175135338
-0.025284015317755062 0.0036444072135163965
-0.025284015317755062 -0.0064624900554020965
0.027330728866524174 0.03396509902027187
0.04048441491259398 0.04407199628919037
0.0667917870047336 0.03396509902027187
0.0667917870047336 0.01375130448243489
0.027330728866524174 0.01375130448243489
-0.051591387409894676 0.02385820175135338
-0.051591387409894676 0.02385820175135338
-0.051591387409894676 0.06428579082702736
-0.10420613159417391 0.04407199628919037
-0.14366718973238335 0.05417889355810886
-0.11735981764024372 0.02385820175135338
-0.0778987595020343 0.0036444072135163965
-0.03843770136382487 0.02385820175135338
0.027330728866524174 0.04407199628919037
0.027330728866524174 0.02385820175135338
0.04048441491259398 0.01375130448243489
-0.012130329271685253 0.0036444072135163965
-0.0778987595020343 0.0036444072135163965
-0.0910524455481041 0.02385820175135338
-0.025284015317755062 0.06428579082702736
0.04048441491259398 0.04407199628919037
0.05363810095866379 0.01375130448243489
0.027330728866524174 0.02385820175135338
0.0667917870047336 0.0036444072135163965
0.0799454730508034 0.04407199628919037
0.11940653118901283 0.04407199628919037
0.11940653118901283 0.04407199628919037
0.17202127537329207 0.02385820175135338
0.17202127537329207 0.03396509902027187
0.11940653118901283 0.04407199628919037
0.15886758932722225 0.07439268809594585
0.15886758932722225 0.08449958536486434
0.13256021723508266 0.06428579082702736
-0.012130329271685253 0.03396509902027187
-0.11735981764024372 0.02385820175135338
-0.18312824787059276 0.04407199628919037
-0.10420613159417391 0.07439268809594585
-0.051591387409894676 0.08449958536486434
0.027330728866524174 0.05417889355810886
0.04048441491259398 0.02385820175135338
0.0010233567743845565 0.01375130448243489
-0.0778987595020343 0.0036444072135163965
-0.0778987595020343 0.01375130448243489
-0.14366718973238335 0.04407199628919037
-0.16997456182452295 0.0036444072135163965
-0.15682087577845316 0.0036444072135163965
-0.16997456182452295 -0.02667628459323908
-0.10420613159417391 -0.02667628459323908
-0.11735981764024372 -0.0064624900554020965
-0.10420613159417391 -0.0064624900554020965
-0.10420613159417391 -0.0064624900554020965
-0.13051350368631354 -0.01656938732432059
-0.14366718973238335 -0.05699697639999456
-0.16997456182452295 -0.05699697639999456
-0.16997456182452295 -0.02667628459323908
-0.14366718973238335 -0.0064624900554020965
-0.10420613159417391 -0.0064624900554020965
-0.0778987595020343 -0.03678318186215757
-0.051591387409894676 -0.04689007913107607
-0.012130329271685253 -0.06710387366891306
0.0010233567743845565 -0.03678318186215757
-0.0778987595020343 -0.01656938732432059
-0.15682087577845316 0.04407199628919037
-0.15682087577845316 0.01375130448243489
-0.16997456182452295 0.02385820175135338
-0.24889667810094182 0.02385820175135338
-0.24889667810094182 0.05417889355810886
-0.235742992054872 0.07439268809594585
-0.2225893060088022 0.06428579082702736
-0.2620503641470116 0.09460648263378284
-0.2752040501930814 0.03396509902027187
-0.24889667810094182 0.01375130448243489
-0.18312824787059276 0.04407199628919037
-0.14366718973238335 0.09460648263378284
-0.14366718973238335 0.06428579082702736
-0.18312824787059276 0.06428579082702736
-0.235742992054872 0.05417889355810886
-0.2752040501930814 0.04407199628919037
-0.28835773623915123 0.07439268809594585
-0.2620503641470116 0.08449958536486434
-0.20943561996273238 0.09460648263378284
-0.16997456182452295 0.06428579082702736
-0.15682087577845316 0.06428579082702736
-0.13051350368631354 0.05417889355810886
-0.15682087577845316 0.06428579082702736
-0.16997456182452295 0.09460648263378284
-0.24889667810094182 0.09460648263378284
-0.2752040501930814 0.07439268809594585
-0.32781879437736067 0.06428579082702736
-0.3541261664695003 0.06428579082702736
-0.2225893060088022 0.06428579082702736
-0.025284015317755062 0.06428579082702736
0.23778970560364113 0.04407199628919037
0.43509499629468823 -0.02667628459323908
0.6455539730318052 -0.07721077093783155
0.9086276939532013 -0.10753146274458703
1.1322403567363881 -0.07721077093783155
1.4347751357959937 -0.08731766820675003
1.6715414846252503 -0.147959051820261
1.9214615195005766 -0.18838664089593496
2.158227868329833 -0.31977630539187535
2.39499421715909 -0.44105907261889726
2.5922995078501367 -0.5522349425770007
2.7501437404029745 -0.6634108125351041
2.6975289962186952 -0.7745866824932075
2.460762647389439 -0.865548757913474
2.092459438099484 -0.8958694497202294
1.5005435660263426 -0.865548757913474
0.6455539730318052 -0.724052196148615
-0.14366718973238335 -0.5320211480391637
-0.6303535734369663 -0.4107383808121418
-0.8408125501740832 -0.33999009992971235
-1.0249641548190604 -0.2692418190472829
-1.0907325850494096 -0.17827974362701648
-1.0249641548190604 -0.09742456547566854
-0.8802736083122926 -0.03678318186215757
-0.7750441199437341 -0.04689007913107607
-0.6961220036673154 -0.05699697639999456
-0.6829683176212455 -0.09742456547566854
-0.6698146315751757 -0.05699697639999456
-0.577738829252687 -0.03678318186215757
-0.5514314571605474 0.0036444072135163965
-0.511970399022338 0.0036444072135163965
-0.5908925152987569 0.01375130448243489
-0.6303535734369663 -0.0064624900554020965
-0.6303535734369663 0.02385820175135338
-0.5908925152987569 0.06428579082702736
-0.5514314571605474 0.09460648263378284
-0.5645851432066172 0.1249271744405383
-0.5645851432066172 0.09460648263378284
-0.5514314571605474 0.07439268809594585
-0.5514314571605474 0.10471337990270133
-0.4988167129762682 0.11482027717161981
-0.4462019687919889 0.1350340717094568
-0.4198945966998493 0.1350340717094568
-0.4330482827459191 0.1350340717094568
-0.4198945966998493 0.1350340717094568
-0.4330482827459191 0.10471337990270133
-0.40674091065377954 0.1350340717094568
-0.40674091065377954 0.1451409689783753
-0.40674091065377954 0.15524786624729378
-0.4330482827459191 0.1249271744405383
-0.4462019687919889 0.1249271744405383
-0.4330482827459191 0.11482027717161981
-0.3804335385616399 0.1350340717094568
-0.3409724804234305 0.1249271744405383
-0.3409724804234305 0.1451409689783753
-0.32781879437736067 0.11482027717161981
-0.28835773623915123 0.06428579082702736
-0.24889667810094182 0.05417889355810886
-0.2225893060088022 0.06428579082702736
-0.18312824787059276 0.09460648263378284
-0.14366718973238335 0.05417889355810886
-0.18312824787059276 0.03396509902027187
-0.2752040501930814 0.03396509902027187
-0.47250934088412855 0.05417889355810886
-0.577738829252687 0.10471337990270133
-0.5514314571605474 0.1451409689783753
-0.3804335385616399 0.1451409689783753
-0.20943561996273238 0.10471337990270133
-0.16997456182452295 0.06428579082702736
-0.20943561996273238 0.03396509902027187
-0.235742992054872 0.06428579082702736
-0.31466510833129085 0.10471337990270133
-0.3409724804234305 0.1249271744405383
-0.3409724804234305 0.11482027717161981
-0.31466510833129085 0.08449958536486434
-0.32781879437736067 0.09460648263378284
-0.3672798525155701 0.10471337990270133
-0.3409724804234305 0.16535476351621228
-0.3541261664695003 0.17546166078513079
-0.30151142228522104 0.16535476351621228
-0.31466510833129085 0.1350340717094568
-0.32781879437736067 0.1451409689783753
-0.32781879437736067 0.1451409689783753
-0.20943561996273238 0.16535476351621228
-0.11735981764024372 0.16535476351621228
-0.0910524455481041 0.15524786624729378
-0.16997456182452295 0.1350340717094568
-0.28835773623915123 0.15524786624729378
-0.3409724804234305 0.15524786624729378
-0.2752040501930814 0.19567545532296776
-0.19628193391666257 0.21588924986080474
-0.18312824787059276 0.21588924986080474
-0.19628193391666257 0.16535476351621228
-0.2225893060088022 0.16535476351621228
-0.19628193391666257 0.17546166078513079
-0.16997456182452295 0.19567545532296776
-0.11735981764024372 0.21588924986080474
-0.11735981764024372 0.19567545532296776
-0.11735981764024372 0.16535476351621228
-0.15682087577845316 0.1249271744405383
-0.15682087577845316 0.19567545532296776
-0.0778987595020343 0.19567545532296776
0.0010233567743845565 0.17546166078513079
0.0010233567743845565 0.16535476351621228
-0.06474507345596449 0.1451409689783753
-0.0910524455481041 0.15524786624729378
-0.051591387409894676 0.16535476351621228
0.0010233567743845565 0.17546166078513079
0.05363810095866379 0.1451409689783753
0.05363810095866379 0.1451409689783753
0.0667917870047336 0.1249271744405383
0.04048441491259398 0.10471337990270133
0.014177042820454365 0.1451409689783753
0.0010233567743845565 0.15524786624729378
0.014177042820454365 0.1350340717094568
0.0667917870047336 0.1451409689783753
0.04048441491259398 0.10471337990270133
0.014177042820454365 0.09460648263378284
0.0010233567743845565 0.09460648263378284
0.0010233567743845565 0.1249271744405383
0.0010233567743845565 0.1249271744405383
0.04048441491259398 0.10471337990270133
0.014177042820454365 0.08449958536486434
0.0010233567743845565 0.07439268809594585
-0.012130329271685253 0.1249271744405383
-0.025284015317755062 0.1249271744405383
-0.025284015317755062 0.09460648263378284
-0.0778987595020343 0.07439268809594585
-0.11735981764024372 0.07439268809594585
-0.14366718973238335 0.06428579082702736
-0.11735981764024372 0.10471337990270133
-0.03843770136382487 0.1249271744405383
-0.012130329271685253 0.05417889355810886
0.0010233567743845565 0.04407199628919037
-0.025284015317755062 0.04407199628919037
-0.025284015317755062 0.05417889355810886
0.027330728866524174 0.07439268809594585
0.09309915909687322 0.06428579082702736
0.13256021723508266 0.07439268809594585
0.09309915909687322 0.05417889355810886
0.04048441491259398 0.04407199628919037
-0.012130329271685253 0.01375130448243489
-0.025284015317755062 0.02385820175135338
-0.13051350368631354 0.04407199628919037
-0.3672798525155701 0.07439268809594585
-0.4988167129762682 0.11482027717161981
-0.511970399022338 0.15524786624729378
-0.40674091065377954 0.17546166078513079
-0.31466510833129085 0.17546166078513079
-0.2620503641470116 0.16535476351621228
-0.28835773623915123 0.1451409689783753
-0.2752040501930814 0.1350340717094568
-0.31466510833129085 0.15524786624729378
-0.31466510833129085 0.1451409689783753
-0.2752040501930814 0.1249271744405383
-0.2620503641470116 0.15524786624729378
-0.24889667810094182 0.16535476351621228
-0.20943561996273238 0.15524786624729378
-0.2225893060088022 0.11482027717161981
-0.20943561996273238 0.09460648263378284
-0.13051350368631354 0.09460648263378284
-0.0910524455481041 0.1249271744405383
-0.012130329271685253 0.09460648263378284
-0.025284015317755062 0.07439268809594585
-0.06474507345596449 0.05417889355810886
-0.03843770136382487 0.06428579082702736
0.027330728866524174 0.08449958536486434
0.0667917870047336 0.05417889355810886
0.10625284514294303 0.03396509902027187
0.13256021723508266 -0.02667628459323908
0.1983286474654317 -0.02667628459323908
0.22463601955757131 -0.03678318186215757
0.31671182188006 -0.01656938732432059
0.46140236838682785 0.0036444072135163965
0.724476089308224 0.0036444072135163965
0.8954740079071315 -0.03678318186215757
0.9743961241835504 -0.06710387366891306
0.8954740079071315 -0.03678318186215757
0.8165518916307127 0.01375130448243489
0.6850150311700146 0.07439268809594585
0.514017112571107 0.17546166078513079
0.0667917870047336 0.2765306334743157
-0.7487367478515945 0.36749270889458213
-1.8536463757214585 0.5595237570040335
-2.9059412594070433 0.7414479078445664
-3.668855050079092 0.9233720586850992
-4.037158259369047 1.0244410313742842
-4.221309864014024 1.0951893122567136
-4.326539352382582 1.1558306958702245
-4.352846724474722 1.1659375931391431
-4.273924608198303 1.18615138767698
-4.260770922152234 1.206365182214817
-4.247617236106164 1.1962582849458985
-4.116080375645465 1.18615138767698
-3.747777166355511 1.1558306958702245
-3.3926276431116262 1.1356169013323876
-3.10324655009809 1.1558306958702245
-2.853326515222764 1.1962582849458985
-2.6823285966238566 1.226578976752654
-2.498176991978879 1.2366858740215725
-2.2351032710574827 1.2164720794837356
-2.0641053524585753 1.1962582849458985
-1.9194148059518075 1.18615138767698
-1.7747242594450396 1.226578976752654
-1.6958021431686208 1.1962582849458985
-1.6037263408461322 1.18615138767698
-1.4853431664315038 1.145723798601306
-1.340652619924736 1.1154031067945507
-1.1959620734179681 1.0749755177188767
-1.0775788990033397 1.0244410313742842
-1.0118104687729907 0.9840134422986102
-0.9723494106347813 0.9637996477607732
-0.9065809804044322 0.8829444696094253
-0.8408125501740832 0.8324099832648328
-0.7618904338976643 0.7616617023824034
-0.6829683176212455 0.6706996269621369
-0.5382777711144776 0.6201651406175445
-0.3804335385616399 0.549416859735115
-0.19628193391666257 0.4382409897770116
-0.025284015317755062 0.2967444280121527
0.10625284514294303 0.16535476351621228
0.2509433916497109 0.08449958536486434
0.38248025211040904 -0.01656938732432059
0.5008634265250372 -0.10753146274458703
0.6060929148935957 -0.18838664089593496
0.6718613451239448 -0.2692418190472829
0.7507834614003637 -0.2995625108540384
0.8033982055846429 -0.2995625108540384
0.8560129497689222 -0.35009699719863085
0.9217813799992711 -0.4006314835432233
0.9612424381374806 -0.4208452780810603
0.9743961241835504 -0.4309521753499788
1.0270108683678296 -0.44105907261889726
1.0796256125521089 -0.44105907261889726
1.1717014148745974 -0.47137976442565277
1.211162473012807 -0.5219142507702452
1.2900845892892259 -0.5522349425770007
1.3690067055656447 -0.5724487371148377
1.4479288218420636 -0.6027694289215931
1.553158310210622 -0.6128763261905117
1.6320804264870408 -0.6229832234594301
1.68469517067132 -0.6533039152661856
1.7504636009016692 -0.6937315043418596
1.7767709729938088 -0.7341590934175336
1.7767709729938088 -0.7139452988796966
1.7241562288095296 -0.703838401610778
1.68469517067132 -0.703838401610778
1.68469517067132 -0.7139452988796966
1.68469517067132 -0.7543728879553706
1.7110025427634596 -0.764479785224289
1.7899246590398785 -0.7543728879553706
1.895154147408437 -0.7543728879553706
2.0135373218230654 -0.7846935797621261
2.0793057520534144 -0.8150142715688815
2.0661520660073447 -0.8251211688378
2.0661520660073447 -0.8352280661067185
2.092459438099484 -0.8352280661067185
2.1319204962376936 -0.865548757913474
2.2108426125141123 -0.845334963375637
2.2239962985601824 -0.8554418606445555
2.2108426125141123 -0.8756556551823925
2.1976889264680426 -0.885762552451311
2.184535240421973 -0.8756556551823925
2.171381554375903 -0.865548757913474
2.184535240421973 -0.8554418606445555
2.1319204962376936 -0.885762552451311
2.105613124145554 -0.8958694497202294
2.0661520660073447 -0.8958694497202294
2.0793057520534144 -0.885762552451311
2.0661520660073447 -0.845334963375637
2.026691007869135 -0.8352280661067185
1.9872299497309256 -0.8150142715688815
1.9477688915927163 -0.8150142715688815
1.8820004613623673 -0.8049073742999631
1.8425394032241578 -0.7745866824932075
1.8030783450859484 -0.724052196148615
1.7504636009016692 -0.7139452988796966
1.7504636009016692 -0.7139452988796966
1.6583877985791804 -0.7341590934175336
1.553158310210622 -0.703838401610778
1.4479288218420636 -0.6533039152661856
1.3690067055656447 -0.6128763261905117
1.276930903243156 -0.5522349425770007
1.1717014148745974 -0.5421280453080822
1.0796256125521089 -0.5522349425770007
1.00070349627569 -0.5118073535013268
0.9875498102296202 -0.45116596988781577
0.9480887520914107 -0.3905245862743048
0.8428592637228524 -0.3905245862743048
0.724476089308224 -0.37031079173646786
0.6718613451239448 -0.37031079173646786
0.5666318567553863 -0.37031079173646786
0.5666318567553863 -0.3096694081229569
0.5666318567553863 -0.2692418190472829
0.5666318567553863 -0.23892112724052741
0.5008634265250372 -0.24902802450944592
0.44824868234075804 -0.19849353816485346
0.43509499629468823 -0.20860043543377196
0.3956339381564788 -0.16817284635809798
0.38248025211040904 -0.1378521545513425
0.3956339381564788 -0.11763836001350551
0.3298655079261298 -0.10753146274458703
0.2640970776957807 -0.10753146274458703
0.22463601955757131 -0.11763836001350551
0.23778970560364113 -0.09742456547566854
0.22463601955757131 -0.02667628459323908
0.22463601955757131 -0.01656938732432059
0.17202127537329207 -0.01656938732432059
0.17202127537329207 -0.04689007913107607
0.17202127537329207 -0.04689007913107607
0.14571390328115244 -0.01656938732432059
0.18517496141936188 0.02385820175135338
0.17202127537329207 0.01375130448243489
0.17202127537329207 0.01375130448243489
0.18517496141936188 -0.0064624900554020965
0.13256021723508266 0.0036444072135163965
0.11940653118901283 0.0036444072135163965
0.14571390328115244 0.03396509902027187
0.15886758932722225 0.01375130448243489
0.14571390328115244 0.02385820175135338
0.14571390328115244 -0.0064624900554020965
0.13256021723508266 0.01375130448243489
0.15886758932722225 0.01375130448243489
0.17202127537329207 0.02385820175135338
0.18517496141936188 0.04407199628919037
0.18517496141936188 0.02385820175135338
0.15886758932722225 0.01375130448243489
0.0799454730508034 0.0036444072135163965
0.09309915909687322 0.0036444072135163965
0.09309915909687322 0.02385820175135338
0.09309915909687322 0.03396509902027187
0.09309915909687322 0.03396509902027187
0.09309915909687322 -0.0064624900554020965
0.0799454730508034 0.0036444072135163965
0.13256021723508266 -0.01656938732432059
0.15886758932722225 0.03396509902027187
0.18517496141936188 0.01375130448243489
0.15886758932722225 0.0036444072135163965
0.17202127537329207 -0.02667628459323908
0.15886758932722225 -0.02667628459323908
0.11940653118901283 0.0036444072135163965
0.0799454730508034 0.04407199628919037
0.05363810095866379 0.03396509902027187
0.027330728866524174 0.03396509902027187
0.014177042820454365 0.01375130448243489
-0.012130329271685253 0.0036444072135163965
0.0010233567743845565 0.01375130448243489
0.014177042820454365 0.04407199628919037
0.027330728866524174 0.03396509902027187
0.014177042820454365 0.02385820175135338
0.027330728866524174 0.01375130448243489
0.0010233567743845565 0.03396509902027187
0.0010233567743845565 0.04407199628919037
0.027330728866524174 0.05417889355810886
0.014177042820454365 0.06428579082702736
0.04048441491259398 0.04407199628919037
0.027330728866524174 0.03396509902027187
-0.025284015317755062 0.0036444072135163965
-0.051591387409894676 0.04407199628919037
-0.025284015317755062 0.04407199628919037
0.0010233567743845565 0.04407199628919037
-0.012130329271685253 0.05417889355810886
-0.025284015317755062 0.03396509902027187
-0.03843770136382487 0.0036444072135163965
-0.025284015317755062 0.03396509902027187
0.027330728866524174 0.08449958536486434
0.04048441491259398 0.06428579082702736
0.05363810095866379 0.04407199628919037
0.05363810095866379 0.04407199628919037
0.014177042820454365 0.03396509902027187
0.014177042820454365 0.06428579082702736
0.0010233567743845565 0.07439268809594585
0.014177042820454365 0.07439268809594585
0.0010233567743845565 0.07439268809594585
-0.03843770136382487 0.03396509902027187
-0.051591387409894676 0.04407199628919037
-0.012130329271685253 0.05417889355810886
0.04048441491259398 0.08449958536486434
0.014177042820454365 0.08449958536486434
0.04048441491259398 0.06428579082702736
0.014177042820454365 0.05417889355810886
0.0010233567743845565 0.05417889355810886
0.0010233567743845565 0.07439268809594585
0.027330728866524174 0.08449958536486434
0.05363810095866379 0.09460648263378284
0.10625284514294303 0.05417889355810886
0.0667917870047336 0.05417889355810886
0.0799454730508034 0.06428579082702736
0.15886758932722225 0.08449958536486434
0.30355813583399016 0.08449958536486434
0.3693265660643392 0.06428579082702736
0.3430191939721996 0.06428579082702736
0.1983286474654317 0.06428579082702736
0.05363810095866379 0.06428579082702736
0.014177042820454365 0.08449958536486434
0.0799454730508034 0.08449958536486434
0.1983286474654317 0.05417889355810886
0.2640970776957807 0.03396509902027187
0.23778970560364113 0.02385820175135338
0.14571390328115244 0.03396509902027187
0.014177042820454365 0.03396509902027187
-0.025284015317755062 0.06428579082702736
-0.012130329271685253 0.06428579082702736
0.014177042820454365 0.05417889355810886
0.04048441491259398 0.05417889355810886
0.04048441491259398 0.04407199628919037
0.027330728866524174 0.07439268809594585
0.04048441491259398 0.09460648263378284
0.05363810095866379 0.07439268809594585
0.05363810095866379 0.05417889355810886
0.0010233567743845565 0.04407199628919037
-0.0910524455481041 0.02385820175135338
-0.11735981764024372 0.06428579082702736
-0.0910524455481041 0.07439268809594585
-0.051591387409894676 0.06428579082702736
-0.051591387409894676 0.06428579082702736
-0.10420613159417391 0.05417889355810886
-0.13051350368631354 0.06428579082702736
-0.13051350368631354 0.09460648263378284
-0.13051350368631354 0.09460648263378284
-0.13051350368631354 0.09460648263378284
-0.14366718973238335 0.08449958536486434
-0.14366718973238335 0.04407199628919037
-0.13051350368631354 0.02385820175135338
-0.14366718973238335 0.06428579082702736
-0.11735981764024372 0.08449958536486434
-0.0910524455481041 0.07439268809594585
-0.0910524455481041 0.10471337990270133
-0.11735981764024372 0.05417889355810886
-0.0910524455481041 0.05417889355810886
-0.0778987595020343 0.11482027717161981
-0.06474507345596449 0.1249271744405383
-0.06474507345596449 0.08449958536486434
-0.0910524455481041 0.06428579082702736
-0.13051350368631354 0.03396509902027187
-0.11735981764024372 0.04407199628919037
-0.0910524455481041 0.05417889355810886
-0.13051350368631354 0.10471337990270133
-0.13051350368631354 0.11482027717161981
-0.15682087577845316 0.09460648263378284
-0.13051350368631354 0.05417889355810886
-0.03843770136382487 0.05417889355810886
0.14571390328115244 0.07439268809594585
0.43509499629468823 0.06428579082702736
0.724476089308224 0.01375130448243489
0.9875498102296202 -0.04689007913107607
1.1848551009206674 -0.07721077093783155
1.3953140776577844 -0.08731766820675003
1.6057730543949011 -0.10753146274458703
1.974076263684856 -0.1378521545513425
2.36868684506695 -0.22881422997160894
2.723836368310835 -0.3804176890053863
3.0263711473704404 -0.5421280453080822
3.210522752015418 -0.6937315043418596
3.2368301241075574 -0.7543728879553706
3.0921395776007894 -0.8049073742999631
2.7764511124951143 -0.865548757913474
2.118766810191624 -0.8554418606445555
0.9875498102296202 -0.7543728879553706
-0.15682087577845316 -0.5724487371148377
-0.8145051780819436 -0.4208452780810603
-0.9986567827269209 -0.2793487163162014
-0.9723494106347813 -0.24902802450944592
-0.8671199222662228 -0.18838664089593496
-0.7750441199437341 -0.15806594908917948
-0.6040462013448267 -0.127745257282424
-0.511970399022338 -0.09742456547566854
-0.4988167129762682 -0.05699697639999456
-0.48566302693019836 -0.03678318186215757
-0.48566302693019836 -0.04689007913107607
-0.48566302693019836 -0.05699697639999456
-0.5382777711144776 -0.03678318186215757
-0.5251240850684078 -0.01656938732432059
-0.5251240850684078 0.02385820175135338
-0.511970399022338 0.04407199628919037
-0.4988167129762682 0.06428579082702736
-0.47250934088412855 0.07439268809594585
-0.48566302693019836 0.10471337990270133
-0.4330482827459191 0.11482027717161981
-0.3541261664695003 0.1249271744405383
-0.32781879437736067 0.1350340717094568
-0.32781879437736067 0.11482027717161981
-0.3409724804234305 0.11482027717161981
-0.3541261664695003 0.09460648263378284
-0.3804335385616399 0.1249271744405383
-0.3672798525155701 0.1451409689783753
-0.3409724804234305 0.1451409689783753
-0.32781879437736067 0.1451409689783753
-0.3672798525155701 0.1249271744405383
-0.3672798525155701 0.1249271744405383
-0.3541261664695003 0.1350340717094568
-0.3409724804234305 0.1451409689783753
-0.31466510833129085 0.1350340717094568
-0.3409724804234305 0.1350340717094568
-0.32781879437736067 0.11482027717161981
-0.3409724804234305 0.11482027717161981
-0.32781879437736067 0.1249271744405383
-0.3409724804234305 0.1451409689783753
-0.30151142228522104 0.1350340717094568
-0.30151142228522104 0.1350340717094568
-0.30151142228522104 0.11482027717161981
-0.32781879437736067 0.10471337990270133
-0.28835773623915123 0.10471337990270133
-0.2620503641470116 0.1249271744405383
-0.235742992054872 0.1350340717094568
-0.24889667810094182 0.11482027717161981
-0.2752040501930814 0.10471337990270133
-0.3541261664695003 0.11482027717161981
-0.31466510833129085 0.1350340717094568
-0.28835773623915123 0.15524786624729378
-0.2620503641470116 0.15524786624729378
-0.2752040501930814 0.1451409689783753
-0.2752040501930814 0.1350340717094568
-0.31466510833129085 0.11482027717161981
-0.28835773623915123 0.1350340717094568
-0.2620503641470116 0.16535476351621228
-0.2225893060088022 0.19567545532296776
-0.2225893060088022 0.18556855805404926
-0.2225893060088022 0.17546166078513079
-0.235742992054872 0.18556855805404926
-0.2620503641470116 0.19567545532296776
-0.235742992054872 0.21588924986080474
-0.20943561996273238 0.18556855805404926
-0.235742992054872 0.18556855805404926
-0.24889667810094182 0.17546166078513079
-0.2225893060088022 0.19567545532296776
-0.19628193391666257 0.21588924986080474
-0.15682087577845316 0.2563168389364787
-0.11735981764024372 0.23610304439864171
-0.11735981764024372 0.24620994166756022
-0.13051350368631354 0.22599614712972324
-0.18312824787059276 0.22599614712972324
-0.18312824787059276 0.23610304439864171
-0.16997456182452295 0.2765306334743157
-0.13051350368631354 0.28663753074323417
-0.14366718973238335 0.24620994166756022
-0.15682087577845316 0.24620994166756022
-0.15682087577845316 0.22599614712972324
-0.11735981764024372 0.2765306334743157
-0.0910524455481041 0.2765306334743157
-0.025284015317755062 0.2765306334743157
0.0010233567743845565 0.2563168389364787
0.0010233567743845565 0.23610304439864171
-0.012130329271685253 0.20578235259188626
-0.012130329271685253 0.21588924986080474
0.0010233567743845565 0.24620994166756022
0.027330728866524174 0.24620994166756022
0.0667917870047336 0.22599614712972324
0.04048441491259398 0.20578235259188626
0.0010233567743845565 0.18556855805404926
0.04048441491259398 0.20578235259188626
0.0667917870047336 0.22599614712972324
0.0667917870047336 0.21588924986080474
0.04048441491259398 0.19567545532296776
0.0010233567743845565 0.15524786624729378
-0.03843770136382487 0.1350340717094568
-0.025284015317755062 0.1350340717094568
0.0010233567743845565 0.16535476351621228
0.0667917870047336 0.16535476351621228
0.13256021723508266 0.15524786624729378
0.13256021723508266 0.1249271744405383
0.10625284514294303 0.09460648263378284
0.04048441491259398 0.1249271744405383
0.0010233567743845565 0.1451409689783753
0.014177042820454365 0.15524786624729378
0.027330728866524174 0.1350340717094568
0.05363810095866379 0.11482027717161981
0.05363810095866379 0.10471337990270133
0.04048441491259398 0.1249271744405383
0.04048441491259398 0.1350340717094568
0.0010233567743845565 0.1249271744405383
0.05363810095866379 0.10471337990270133
0.04048441491259398 0.06428579082702736
0.014177042820454365 0.07439268809594585
0.014177042820454365 0.11482027717161981
0.0010233567743845565 0.11482027717161981
0.0667917870047336 0.11482027717161981
0.0667917870047336 0.11482027717161981
0.027330728866524174 0.10471337990270133
0.014177042820454365 0.07439268809594585
0.04048441491259398 0.09460648263378284
0.04048441491259398 0.1350340717094568
0.0667917870047336 0.1249271744405383
0.05363810095866379 0.1249271744405383
-0.025284015317755062 0.11482027717161981
-0.06474507345596449 0.1249271744405383
-0.051591387409894676 0.1451409689783753
-0.025284015317755062 0.1451409689783753
-0.012130329271685253 0.15524786624729378
-0.051591387409894676 0.16535476351621228
-0.0910524455481041 0.15524786624729378
-0.10420613159417391 0.1350340717094568
-0.13051350368631354 0.1451409689783753
-0.15682087577845316 0.17546166078513079
-0.11735981764024372 0.18556855805404926
-0.10420613159417391 0.16535476351621228
-0.11735981764024372 0.1350340717094568
-0.10420613159417391 0.1249271744405383
-0.03843770136382487 0.16535476351621228
0.05363810095866379 0.1451409689783753
0.1983286474654317 0.1451409689783753
0.2640970776957807 0.11482027717161981
0.2114823335115015 0.08449958536486434
0.11940653118901283 0.07439268809594585
0.09309915909687322 0.09460648263378284
0.11940653118901283 0.11482027717161981
0.1983286474654317 0.09460648263378284
0.27725076374185054 0.05417889355810886
0.29040444978792035 0.02385820175135338
0.30355813583399016 -0.01656938732432059
0.27725076374185054 -0.03678318186215757
0.23778970560364113 -0.01656938732432059
0.2509433916497109 -0.04689007913107607
0.2509433916497109 -0.04689007913107607
0.14571390328115244 -0.07721077093783155
-0.03843770136382487 -0.05699697639999456
-0.20943561996273238 -0.0064624900554020965
-0.5514314571605474 0.04407199628919037
-1.1433473292336889 0.02385820175135338
-2.0772590385046454 0.07439268809594585
-3.063785491959881 0.17546166078513079
-4.0108508872769075 0.3371720170878267
-4.734303619810746 0.5393099624661966
-5.142067887238911 0.7111272160378109
-5.260451061653539 0.8121961887269958
-5.22099000351533 0.8627306750715883
-5.1946826314231895 0.9031582641472622
-5.18152894537712 0.9334789559540178
-5.063145770962492 0.9637996477607732
-4.892147852363585 1.0143341341053658
-4.615920445396118 1.044654825912121
-4.366000410520792 1.0648686204499582
-4.142387747737605 1.0749755177188767
-3.958236143092628 1.1255100040634691
-3.7083161082173017 1.226578976752654
-3.4189350152037656 1.3377548467107574
-3.10324655009809 1.368075538517513
-2.774404398946345 1.3882893330553499
-2.5113306780249487 1.3781824357864314
-2.300871701287832 1.368075538517513
-2.1167200966428545 1.3983962303242683
-1.9325684919978774 1.4590376139377794
-1.7615705733989697 1.4186100248621054
-1.6300337129382718 1.3983962303242683
-1.472189480385434 1.3175410521729205
-1.340652619924736 1.2568996685594096
-1.261730503648317 1.206365182214817
-1.0907325850494096 1.206365182214817
-0.8802736083122926 1.1356169013323876
-0.6829683176212455 1.0547617231810396
-0.5251240850684078 0.9334789559540178
-0.4198945966998493 0.8425168805337513
-0.2620503641470116 0.7919823941891588
-0.0778987595020343 0.7313410105756478
0.0667917870047336 0.6605927296932185
0.2640970776957807 0.549416859735115
0.3956339381564788 0.45845478431484854
0.5271707986171769 0.3068513252810712
0.658707659077875 0.19567545532296776
0.8165518916307127 0.1249271744405383
0.9480887520914107 0.01375130448243489
1.0401645544138995 -0.03678318186215757
1.1190866706903182 -0.127745257282424
1.1322403567363881 -0.18838664089593496
1.2374698451049466 -0.19849353816485346
1.3163919613813655 -0.21870733270269044
1.3163919613813655 -0.24902802450944592
1.3163919613813655 -0.2591349217783644
1.2243161590588767 -0.32988320266079385
1.1453940427824578 -0.32988320266079385
1.1585477288285277 -0.3096694081229569
1.2374698451049466 -0.2894556135851199
1.3295456474274352 -0.2894556135851199
1.421621449749924 -0.32988320266079385
1.4479288218420636 -0.33999009992971235
1.487389879980273 -0.37031079173646786
1.5794656823027615 -0.3905245862743048
1.6715414846252503 -0.37031079173646786
1.69784885671739 -0.4006314835432233
1.763617286947739 -0.4208452780810603
1.7767709729938088 -0.45116596988781577
1.8162320311320181 -0.47137976442565277
1.895154147408437 -0.46127286715673427
1.9477688915927163 -0.48148666169457127
2.0135373218230654 -0.48148666169457127
2.0529983799612745 -0.5219142507702452
2.105613124145554 -0.5219142507702452
2.0793057520534144 -0.5623418398459192
2.105613124145554 -0.5825556343837561
2.158227868329833 -0.5724487371148377
2.2239962985601824 -0.5825556343837561
2.2239962985601824 -0.5623418398459192
2.2634573566983915 -0.5724487371148377
2.2634573566983915 -0.6229832234594301
2.2897647287905314 -0.6330901207283487
2.36868684506695 -0.6229832234594301
2.4081479032051596 -0.6431970179972671
2.3818405311130197 -0.6431970179972671
2.36868684506695 -0.6735177098040226
2.3292257869287405 -0.6937315043418596
2.36868684506695 -0.6735177098040226
2.4213015892512293 -0.6937315043418596
2.460762647389439 -0.703838401610778
2.5002237055276484 -0.7341590934175336
2.434455275297299 -0.744265990686452
2.4081479032051596 -0.724052196148615
2.39499421715909 -0.703838401610778
2.3818405311130197 -0.6937315043418596
2.3818405311130197 -0.7139452988796966
2.3555331590208803 -0.724052196148615
2.36868684506695 -0.724052196148615
2.316072100882671 -0.7139452988796966
2.2634573566983915 -0.7139452988796966
2.1976889264680426 -0.6836246070729411
2.1319204962376936 -0.6735177098040226
2.026691007869135 -0.6634108125351041
1.9083078334545067 -0.6735177098040226
1.7899246590398785 -0.6533039152661856
1.7373099148555993 -0.5926625316526747
1.7110025427634596 -0.5623418398459192
1.6452341125331107 -0.5825556343837561
1.5926193683488314 -0.5724487371148377
1.487389879980273 -0.5623418398459192
1.3690067055656447 -0.5320211480391637
1.3032382753352956 -0.4915935589634897
1.2637772171970862 -0.48148666169457127
1.2506235311510163 -0.46127286715673427
1.2374698451049466 -0.4107383808121418
1.198008786966737 -0.4107383808121418
1.1059329846442485 -0.4006314835432233
1.00070349627569 -0.36020389446754936
0.8954740079071315 -0.32988320266079385
0.869166635814992 -0.2995625108540384
0.8297055776767825 -0.2692418190472829
0.8297055776767825 -0.2793487163162014
0.8428592637228524 -0.2793487163162014
0.8297055776767825 -0.22881422997160894
0.8428592637228524 -0.18838664089593496
0.7902445195385731 -0.16817284635809798
0.6981687172160844 -0.16817284635809798
0.5008634265250372 -0.15806594908917948
0.3298655079261298 -0.11763836001350551
0.30355813583399016 -0.07721077093783155
0.31671182188006 -0.04689007913107607
0.3298655079261298 -0.02667628459323908
0.27725076374185054 -0.0064624900554020965
0.2640970776957807 0.02385820175135338
0.23778970560364113 0.01375130448243489
0.22463601955757131 0.02385820175135338
0.18517496141936188 0.07439268809594585
0.15886758932722225 0.08449958536486434
0.17202127537329207 0.10471337990270133
0.17202127537329207 0.10471337990270133
0.11940653118901283 0.10471337990270133
0.14571390328115244 0.11482027717161981
0.13256021723508266 0.1249271744405383
0.15886758932722225 0.1350340717094568
0.10625284514294303 0.1350340717094568
0.09309915909687322 0.11482027717161981
0.11940653118901283 0.11482027717161981
0.09309915909687322 0.15524786624729378
0.11940653118901283 0.1451409689783753
0.10625284514294303 0.18556855805404926
0.10625284514294303 0.17546166078513079
0.09309915909687322 0.1350340717094568
0.0799454730508034 0.1249271744405383
0.09309915909687322 0.1350340717094568
0.13256021723508266 0.15524786624729378
0.15886758932722225 0.1249271744405383
0.15886758932722225 0.1350340717094568
0.15886758932722225 0.11482027717161981
0.11940653118901283 0.1249271744405383
0.0799454730508034 0.15524786624729378
0.13256021723508266 0.18556855805404926
0.15886758932722225 0.1451409689783753
0.17202127537329207 0.11482027717161981
0.17202127537329207 0.10471337990270133
0.09309915909687322 0.1249271744405383
0.05363810095866379 0.11482027717161981
0.05363810095866379 0.1249271744405383
0.0799454730508034 0.1451409689783753
0.0667917870047336 0.1249271744405383
0.027330728866524174 0.1350340717094568
-0.025284015317755062 0.15524786624729378
-0.06474507345596449 0.18556855805404926
-0.06474507345596449 0.20578235259188626
-0.051591387409894676 0.18556855805404926
-0.10420613159417391 0.17546166078513079
-0.10420613159417391 0.1451409689783753
-0.10420613159417391 0.15524786624729378
-0.10420613159417391 0.18556855805404926
-0.03843770136382487 0.20578235259188626
-0.025284015317755062 0.19567545532296776
-0.051591387409894676 0.16535476351621228
-0.10420613159417391 0.1350340717094568
-0.14366718973238335 0.1451409689783753
-0.15682087577845316 0.17546166078513079
-0.11735981764024372 0.18556855805404926
-0.0910524455481041 0.20578235259188626
-0.11735981764024372 0.16535476351621228
-0.0910524455481041 0.1249271744405383
-0.13051350368631354 0.1249271744405383
-0.13051350368631354 0.15524786624729378
-0.10420613159417391 0.16535476351621228
-0.0778987595020343 0.17546166078513079
-0.03843770136382487 0.15524786624729378
-0.10420613159417391 0.1451409689783753
-0.13051350368631354 0.15524786624729378
-0.14366718973238335 0.17546166078513079
-0.15682087577845316 0.17546166078513079
-0.14366718973238335 0.18556855805404926
-0.16997456182452295 0.17546166078513079
-0.14366718973238335 0.15524786624729378
-0.14366718973238335 0.15524786624729378
-0.14366718973238335 0.17546166078513079
-0.14366718973238335 0.19567545532296776
-0.18312824787059276 0.16535476351621228
-0.13051350368631354 0.16535476351621228
-0.0910524455481041 0.15524786624729378
-0.11735981764024372 0.15524786624729378
-0.11735981764024372 0.1451409689783753
-0.11735981764024372 0.15524786624729378
-0.13051350368631354 0.18556855805404926
-0.14366718973238335 0.17546166078513079
-0.11735981764024372 0.16535476351621228
-0.14366718973238335 0.1350340717094568
-0.10420613159417391 0.1350340717094568
-0.06474507345596449 0.15524786624729378
-0.0778987595020343 0.16535476351621228
-0.10420613159417391 0.1451409689783753
-0.13051350368631354 0.11482027717161981
-0.16997456182452295 0.1350340717094568
-0.15682087577845316 0.16535476351621228
-0.10420613159417391 0.18556855805404926
-0.11735981764024372 0.17546166078513079
-0.13051350368631354 0.15524786624729378
-0.14366718973238335 0.15524786624729378
-0.18312824787059276 0.15524786624729378
-0.15682087577845316 0.1451409689783753
-0.0910524455481041 0.16535476351621228
-0.025284015317755062 0.19567545532296776
-0.025284015317755062 0.17546166078513079
-0.11735981764024372 0.1350340717094568
-0.19628193391666257 0.1350340717094568
-0.19628193391666257 0.16535476351621228
-0.18312824787059276 0.16535476351621228
-0.0910524455481041 0.1350340717094568
-0.10420613159417391 0.15524786624729378
-0.11735981764024372 0.1451409689783753
-0.15682087577845316 0.15524786624729378
-0.15682087577845316 0.1451409689783753
-0.10420613159417391 0.18556855805404926
-0.0910524455481041 0.17546166078513079
-0.0778987595020343 0.18556855805404926
-0.06474507345596449 0.15524786624729378
-0.03843770136382487 0.16535476351621228
0.04048441491259398 0.1350340717094568
0.05363810095866379 0.1451409689783753
0.10625284514294303 0.1249271744405383
0.10625284514294303 0.1350340717094568
0.09309915909687322 0.10471337990270133
0.04048441491259398 0.07439268809594585
0.04048441491259398 0.11482027717161981
0.05363810095866379 0.15524786624729378
-0.03843770136382487 0.1451409689783753
-0.10420613159417391 0.1451409689783753
-0.19628193391666257 0.15524786624729378
-0.28835773623915123 0.18556855805404926
-0.28835773623915123 0.20578235259188626
-0.235742992054872 0.22599614712972324
-0.15682087577845316 0.21588924986080474
-0.10420613159417391 0.21588924986080474
-0.0778987595020343 0.21588924986080474
-0.051591387409894676 0.20578235259188626
-0.06474507345596449 0.23610304439864171
-0.0778987595020343 0.22599614712972324
-0.03843770136382487 0.21588924986080474
0.04048441491259398 0.20578235259188626
0.09309915909687322 0.15524786624729378
0.0799454730508034 0.11482027717161981
0.04048441491259398 0.1249271744405383
0.0010233567743845565 0.15524786624729378
-0.0778987595020343 0.16535476351621228
-0.051591387409894676 0.15524786624729378
-0.0910524455481041 0.1249271744405383
-0.0778987595020343 0.1249271744405383
-0.0910524455481041 0.1451409689783753
-0.10420613159417391 0.1451409689783753
-0.012130329271685253 0.1451409689783753
-0.012130329271685253 0.1451409689783753
0.014177042820454365 0.08449958536486434
-0.03843770136382487 0.06428579082702736
-0.051591387409894676 0.10471337990270133
-0.0778987595020343 0.1249271744405383
-0.0778987595020343 0.11482027717161981
-0.03843770136382487 0.09460648263378284
-0.0910524455481041 0.05417889355810886
-0.13051350368631354 0.06428579082702736
-0.0778987595020343 0.10471337990270133
-0.012130329271685253 0.1350340717094568
0.0010233567743845565 0.09460648263378284
-0.051591387409894676 0.06428579082702736
-0.13051350368631354 0.07439268809594585
-0.13051350368631354 0.10471337990270133
-0.03843770136382487 0.1350340717094568
0.04048441491259398 0.1350340717094568
0.04048441491259398 0.1451409689783753
0.027330728866524174 0.09460648263378284
-0.025284015317755062 0.08449958536486434
-0.0778987595020343 0.07439268809594585
-0.13051350368631354 0.11482027717161981
-0.13051350368631354 0.16535476351621228
-0.11735981764024372 0.1451409689783753
-0.10420613159417391 0.1350340717094568
-0.0910524455481041 0.1249271744405383
-0.14366718973238335 0.1249271744405383
-0.2225893060088022 0.15524786624729378
-0.2225893060088022 0.16535476351621228
-0.16997456182452295 0.18556855805404926
-0.13051350368631354 0.17546166078513079
-0.051591387409894676 0.15524786624729378
-0.0778987595020343 0.1350340717094568
-0.14366718973238335 0.15524786624729378
-0.10420613159417391 0.17546166078513079
-0.11735981764024372 0.16535476351621228
-0.0910524455481041 0.1451409689783753
-0.03843770136382487 0.11482027717161981
-0.0910524455481041 0.1249271744405383
-0.0778987595020343 0.1451409689783753
-0.11735981764024372 0.16535476351621228
-0.13051350368631354 0.17546166078513079
-0.18312824787059276 0.18556855805404926
-0.18312824787059276 0.1451409689783753
-0.18312824787059276 0.1451409689783753
-0.18312824787059276 0.1451409689783753
-0.19628193391666257 0.18556855805404926
-0.235742992054872 0.17546166078513079
-0.235742992054872 0.15524786624729378
-0.14366718973238335 0.1451409689783753
-0.03843770136382487 0.1350340717094568
0.11940653118901283 0.1350340717094568
0.31671182188006 0.1249271744405383
0.514017112571107 0.10471337990270133
0.7376297753542939 0.07439268809594585
0.9086276939532013 0.0036444072135163965
1.0927792985981786 -0.01656938732432059
1.3163919613813655 -0.03678318186215757
1.6057730543949011 -0.04689007913107607
1.829385717178088 -0.05699697639999456
2.0793057520534144 -0.07721077093783155
2.316072100882671 -0.127745257282424
2.5528384497119276 -0.22881422997160894
2.8027584845872537 -0.2995625108540384
2.9869100892322313 -0.3804176890053863
3.0789858915547197 -0.5017004562324082
3.000063775278301 -0.5724487371148377
2.8422195427254633 -0.6431970179972671
2.6843753101726255 -0.6634108125351041
2.526531077619788 -0.6634108125351041
2.0793057520534144 -0.6431970179972671
1.2506235311510163 -0.5623418398459192
0.18517496141936188 -0.45116596988781577
-0.6698146315751757 -0.32988320266079385
-1.2222694455101077 -0.24902802450944592
-1.4984968524775737 -0.1378521545513425
-1.551111596661853 -0.03678318186215757
-1.4853431664315038 -0.02667628459323908
-1.406421050155085 0.01375130448243489
-1.274884189694387 0.03396509902027187
-1.1565010152797586 0.07439268809594585
-1.0381178408651304 0.07439268809594585
-0.9328883524965719 0.06428579082702736
-0.8671199222662228 0.05417889355810886
-0.7487367478515945 0.07439268809594585
-0.6829683176212455 0.08449958536486434
-0.6698146315751757 0.06428579082702736
-0.6171998873908965 0.10471337990270133
-0.577738829252687 0.1249271744405383
-0.5382777711144776 0.1249271744405383
-0.48566302693019836 0.10471337990270133
-0.48566302693019836 0.08449958536486434
-0.47250934088412855 0.08449958536486434
-0.4988167129762682 0.1249271744405383
-0.5251240850684078 0.1451409689783753
-0.5382777711144776 0.1249271744405383
-0.5251240850684078 0.1451409689783753
-0.45935565483805874 0.1249271744405383
-0.4198945966998493 0.11482027717161981
-0.2752040501930814 0.1249271744405383
-0.20943561996273238 0.1249271744405383
-0.10420613159417391 0.1350340717094568
-0.051591387409894676 0.1249271744405383
0.014177042820454365 0.09460648263378284
0.0667917870047336 0.05417889355810886
0.05363810095866379 0.07439268809594585
-0.0778987595020343 0.10471337990270133
-0.235742992054872 0.1249271744405383
-0.39358722460770973 0.15524786624729378
-0.5514314571605474 0.11482027717161981
-0.6566609455291059 0.1451409689783753
-0.6698146315751757 0.19567545532296776
-0.6171998873908965 0.21588924986080474
-0.4988167129762682 0.22599614712972324
-0.4462019687919889 0.20578235259188626
-0.4462019687919889 0.16535476351621228
-0.47250934088412855 0.17546166078513079
-0.4462019687919889 0.18556855805404926
-0.4330482827459191 0.18556855805404926
-0.39358722460770973 0.17546166078513079
-0.3804335385616399 0.16535476351621228
-0.4330482827459191 0.15524786624729378
-0.45935565483805874 0.1451409689783753
-0.4198945966998493 0.1249271744405383
-0.39358722460770973 0.16535476351621228
-0.32781879437736067 0.15524786624729378
-0.3541261664695003 0.15524786624729378
-0.3541261664695003 0.11482027717161981
-0.3804335385616399 0.11482027717161981
-0.3409724804234305 0.11482027717161981
-0.32781879437736067 0.10471337990270133
-0.2752040501930814 0.11482027717161981
-0.2752040501930814 0.10471337990270133
-0.30151142228522104 0.10471337990270133
-0.30151142228522104 0.10471337990270133
-0.30151142228522104 0.10471337990270133
-0.2752040501930814 0.11482027717161981
-0.19628193391666257 0.1451409689783753
-0.19628193391666257 0.1451409689783753
-0.19628193391666257 0.11482027717161981
-0.2225893060088022 0.08449958536486434
