-0.24889667810094182 0.04407199628919037
-0.28835773623915123 0.04407199628919037
-0.30151142228522104 0.05417889355810886
-0.28835773623915123 0.02385820175135338
-0.2225893060088022 0.0036444072135163965
-0.19628193391666257 0.04407199628919037
-0.16997456182452295 0.04407199628919037
-0.14366718973238335 0.05417889355810886
-0.10420613159417391 0.03396509902027187
-0.10420613159417391 0.02385820175135338
-0.14366718973238335 0.01375130448243489
-0.14366718973238335 0.01375130448243489
-0.13051350368631354 0.02385820175135338
-0.0910524455481041 0.05417889355810886
-0.06474507345596449 0.05417889355810886
-0.051591387409894676 0.04407199628919037
-0.0910524455481041 0.02385820175135338
-0.0778987595020343 0.04407199628919037
-0.0910524455481041 0.05417889355810886
-0.06474507345596449 0.04407199628919037
-0.10420613159417391 0.05417889355810886
-0.14366718973238335 0.03396509902027187
-0.18312824787059276 0.01375130448243489
-0.18312824787059276 0.03396509902027187
-0.16997456182452295 0.04407199628919037
-0.18312824787059276 0.05417889355810886
-0.16997456182452295 0.02385820175135338
-0.16997456182452295 0.0036444072135163965
-0.0778987595020343 -0.03678318186215757
0.027330728866524174 -0.01656938732432059
0.23778970560364113 0.02385820175135338
0.4087876242025486 0.02385820175135338
0.38248025211040904 0.0036444072135163965
0.0799454730508034 -0.0064624900554020965
-0.20943561996273238 0.01375130448243489
-0.31466510833129085 0.01375130448243489
-0.31466510833129085 0.02385820175135338
-0.32781879437736067 0.0036444072135163965
-0.3541261664695003 0.0036444072135163965
-0.3804335385616399 0.01375130448243489
-0.3409724804234305 0.01375130448243489
-0.2620503641470116 0.03396509902027187
-0.20943561996273238 0.06428579082702736
-0.13051350368631354 0.03396509902027187
-0.0778987595020343 0.05417889355810886
-0.03843770136382487 0.01375130448243489
-0.0778987595020343 0.01375130448243489
-0.14366718973238335 0.02385820175135338
-0.18312824787059276 0.06428579082702736
-0.19628193391666257 0.05417889355810886
-0.2225893060088022 0.05417889355810886
-0.20943561996273238 0.01375130448243489
-0.2225893060088022 0.0036444072135163965
-0.19628193391666257 0.01375130448243489
-0.14366718973238335 0.03396509902027187
-0.11735981764024372 0.04407199628919037
-0.11735981764024372 0.03396509902027187
-0.10420613159417391 0.0036444072135163965
-0.15682087577845316 0.02385820175135338
-0.14366718973238335 0.02385820175135338
-0.13051350368631354 0.05417889355810886
-0.10420613159417391 0.04407199628919037
-0.06474507345596449 0.02385820175135338
-0.0910524455481041 0.0036444072135163965
-0.11735981764024372 -0.0064624900554020965
-0.14366718973238335 0.03396509902027187
-0.13051350368631354 0.03396509902027187
-0.0910524455481041 0.03396509902027187
-0.06474507345596449 0.05417889355810886
-0.03843770136382487 0.03396509902027187
-0.10420613159417391 -0.01656938732432059
-0.11735981764024372 0.01375130448243489
-0.13051350368631354 0.02385820175135338
-0.0778987595020343 0.03396509902027187
0.0667917870047336 0.01375130448243489
0.2640970776957807 0.0036444072135163965
0.4877097404789675 -0.01656938732432059
0.7639371474464335 0.0036444072135163965
0.9480887520914107 0.02385820175135338
1.0796256125521089 0.01375130448243489
1.198008786966737 0.0036444072135163965
1.3953140776577844 -0.01656938732432059
1.6715414846252503 -0.0064624900554020965
1.9477688915927163 0.01375130448243489
2.171381554375903 0.05417889355810886
2.4870700194815782 0.06428579082702736
2.855373228771533 0.04407199628919037
3.3025985543379064 0.03396509902027187
3.5656722752593026 0.02385820175135338
3.618287019443582 0.04407199628919037
3.3289059264300462 0.02385820175135338
2.6317605659883463 0.05417889355810886
1.6057730543949011 0.03396509902027187
0.46140236838682785 0.02385820175135338
-0.28835773623915123 0.07439268809594585
-0.5251240850684078 0.1249271744405383
-0.6040462013448267 0.17546166078513079
-0.5908925152987569 0.16535476351621228
-0.5645851432066172 0.17546166078513079
-0.45935565483805874 0.15524786624729378
-0.3672798525155701 0.1451409689783753
-0.47250934088412855 0.1249271744405383
-0.6829683176212455 0.1350340717094568
-0.8276588641280134 0.1350340717094568
-0.8408125501740832 0.11482027717161981
-0.7224293757594549 0.09460648263378284
-0.577738829252687 0.10471337990270133
-0.48566302693019836 0.1350340717094568
-0.47250934088412855 0.11482027717161981
-0.48566302693019836 0.11482027717161981
-0.47250934088412855 0.09460648263378284
-0.511970399022338 0.05417889355810886
-0.5645851432066172 0.04407199628919037
-0.4988167129762682 0.04407199628919037
-0.511970399022338 0.05417889355810886
-0.45935565483805874 0.03396509902027187
-0.4462019687919889 0.03396509902027187
-0.4462019687919889 0.02385820175135338
-0.4330482827459191 0.0036444072135163965
-0.39358722460770973 0.02385820175135338
-0.3672798525155701 0.02385820175135338
-0.31466510833129085 0.02385820175135338
-0.30151142228522104 0.01375130448243489
-0.31466510833129085 -0.0064624900554020965
-0.3409724804234305 0.01375130448243489
-0.32781879437736067 0.02385820175135338
-0.3672798525155701 0.02385820175135338
-0.3672798525155701 0.04407199628919037
-0.3804335385616399 0.02385820175135338
-0.3672798525155701 0.02385820175135338
-0.3672798525155701 0.02385820175135338
-0.32781879437736067 0.02385820175135338
-0.31466510833129085 0.04407199628919037
-0.31466510833129085 0.04407199628919037
-0.3409724804234305 0.05417889355810886
-0.31466510833129085 0.0036444072135163965
-0.3409724804234305 0.0036444072135163965
-0.30151142228522104 0.04407199628919037
-0.20943561996273238 0.05417889355810886
-0.14366718973238335 0.05417889355810886
-0.15682087577845316 0.02385820175135338
-0.24889667810094182 0.0036444072135163965
-0.31466510833129085 0.01375130448243489
-0.3672798525155701 0.03396509902027187
-0.32781879437736067 0.05417889355810886
-0.2752040501930814 0.04407199628919037
-0.24889667810094182 0.04407199628919037
-0.24889667810094182 0.0036444072135163965
-0.28835773623915123 -0.0064624900554020965
-0.24889667810094182 0.01375130448243489
-0.19628193391666257 0.05417889355810886
-0.16997456182452295 0.04407199628919037
-0.16997456182452295 0.03396509902027187
-0.19628193391666257 0.01375130448243489
-0.19628193391666257 0.0036444072135163965
-0.15682087577845316 -0.0064624900554020965
-0.15682087577845316 0.02385820175135338
-0.11735981764024372 0.01375130448243489
-0.11735981764024372 0.0036444072135163965
-0.06474507345596449 -0.01656938732432059
-0.0910524455481041 -0.01656938732432059
-0.0778987595020343 0.0036444072135163965
-0.025284015317755062 0.03396509902027187
-0.012130329271685253 0.03396509902027187
0.014177042820454365 0.01375130448243489
0.027330728866524174 0.0036444072135163965
0.04048441491259398 -0.02667628459323908
0.0799454730508034 -0.01656938732432059
0.0667917870047336 -0.0064624900554020965
0.0799454730508034 -0.0064624900554020965
0.027330728866524174 -0.0064624900554020965
0.014177042820454365 -0.02667628459323908
0.0799454730508034 -0.02667628459323908
0.11940653118901283 -0.0064624900554020965
0.2114823335115015 -0.02667628459323908
0.2114823335115015 0.0036444072135163965
0.17202127537329207 0.0036444072135163965
0.13256021723508266 -0.0064624900554020965
0.09309915909687322 -0.02667628459323908
0.09309915909687322 -0.03678318186215757
0.0799454730508034 -0.01656938732432059
0.14571390328115244 -0.02667628459323908
0.18517496141936188 -0.01656938732432059
0.2114823335115015 -0.02667628459323908
0.22463601955757131 -0.03678318186215757
0.30355813583399016 -0.04689007913107607
0.3561728800182694 -0.02667628459323908
0.46140236838682785 -0.0064624900554020965
0.5403244846632467 -0.01656938732432059
0.514017112571107 -0.02667628459323908
0.43509499629468823 -0.02667628459323908
0.38248025211040904 -0.03678318186215757
0.3430191939721996 -0.01656938732432059
0.38248025211040904 -0.02667628459323908
0.38248025211040904 -0.02667628459323908
0.4087876242025486 -0.04689007913107607
0.3693265660643392 -0.05699697639999456
0.3430191939721996 -0.02667628459323908
0.3298655079261298 -0.03678318186215757
0.30355813583399016 -0.0064624900554020965
0.3298655079261298 -0.01656938732432059
0.30355813583399016 -0.02667628459323908
0.29040444978792035 -0.04689007913107607
0.2509433916497109 -0.0064624900554020965
0.2509433916497109 -0.02667628459323908
0.3298655079261298 -0.0064624900554020965
0.30355813583399016 -0.01656938732432059
0.2640970776957807 -0.02667628459323908
0.18517496141936188 -0.03678318186215757
0.15886758932722225 -0.01656938732432059
0.14571390328115244 0.0036444072135163965
0.17202127537329207 0.0036444072135163965
0.17202127537329207 0.0036444072135163965
0.13256021723508266 -0.01656938732432059
0.09309915909687322 -0.01656938732432059
0.11940653118901283 -0.0064624900554020965
0.09309915909687322 -0.0064624900554020965
0.09309915909687322 0.0036444072135163965
0.0799454730508034 -0.0064624900554020965
0.0667917870047336 -0.01656938732432059
0.04048441491259398 -0.01656938732432059
0.05363810095866379 0.02385820175135338
0.0799454730508034 0.01375130448243489
0.0799454730508034 0.04407199628919037
0.04048441491259398 0.03396509902027187
0.0010233567743845565 -0.0064624900554020965
-0.06474507345596449 -0.0064624900554020965
0.0010233567743845565 0.01375130448243489
0.05363810095866379 0.02385820175135338
0.05363810095866379 0.03396509902027187
0.014177042820454365 0.04407199628919037
-0.025284015317755062 0.0036444072135163965
-0.10420613159417391 0.01375130448243489
-0.0778987595020343 0.03396509902027187
-0.051591387409894676 0.03396509902027187
-0.025284015317755062 0.04407199628919037
-0.06474507345596449 0.04407199628919037
-0.06474507345596449 0.03396509902027187
-0.11735981764024372 0.02385820175135338
-0.15682087577845316 0.04407199628919037
-0.10420613159417391 0.05417889355810886
-0.06474507345596449 0.02385820175135338
-0.06474507345596449 0.04407199628919037
-0.06474507345596449 0.02385820175135338
-0.10420613159417391 0.02385820175135338
-0.18312824787059276 0.02385820175135338
-0.13051350368631354 0.04407199628919037
-0.13051350368631354 0.03396509902027187
-0.15682087577845316 0.03396509902027187
-0.18312824787059276 0.02385820175135338
-0.19628193391666257 0.0036444072135163965
-0.20943561996273238 0.03396509902027187
-0.20943561996273238 0.03396509902027187
-0.20943561996273238 0.02385820175135338
-0.19628193391666257 0.01375130448243489
-0.2225893060088022 0.02385820175135338
-0.235742992054872 0.02385820175135338
-0.2752040501930814 0.04407199628919037
-0.3409724804234305 0.04407199628919037
-0.3672798525155701 0.04407199628919037
-0.3409724804234305 0.05417889355810886
-0.2225893060088022 0.07439268809594585
-0.16997456182452295 0.06428579082702736
-0.11735981764024372 0.06428579082702736
-0.0910524455481041 0.08449958536486434
-0.0910524455481041 0.08449958536486434
-0.06474507345596449 0.08449958536486434
-0.051591387409894676 0.05417889355810886
-0.025284015317755062 0.04407199628919037
-0.025284015317755062 0.10471337990270133
-0.025284015317755062 0.10471337990270133
-0.06474507345596449 0.08449958536486434
-0.0910524455481041 0.07439268809594585
-0.15682087577845316 0.04407199628919037
-0.19628193391666257 0.04407199628919037
-0.2225893060088022 0.03396509902027187
-0.2225893060088022 0.08449958536486434
-0.24889667810094182 0.05417889355810886
-0.24889667810094182 0.08449958536486434
-0.28835773623915123 0.03396509902027187
-0.32781879437736067 0.04407199628919037
-0.30151142228522104 0.04407199628919037
-0.2225893060088022 0.06428579082702736
-0.14366718973238335 0.06428579082702736
-0.11735981764024372 0.04407199628919037
-0.10420613159417391 0.02385820175135338
-0.10420613159417391 0.02385820175135338
-0.0910524455481041 0.04407199628919037
-0.051591387409894676 0.06428579082702736
-0.025284015317755062 0.05417889355810886
0.0010233567743845565 0.05417889355810886
-0.06474507345596449 0.02385820175135338
-0.10420613159417391 0.01375130448243489
-0.10420613159417391 0.03396509902027187
-0.0778987595020343 0.05417889355810886
-0.025284015317755062 0.03396509902027187
-0.06474507345596449 0.05417889355810886
-0.13051350368631354 0.02385820175135338
-0.16997456182452295 0.01375130448243489
-0.19628193391666257 0.05417889355810886
-0.16997456182452295 0.06428579082702736
-0.16997456182452295 0.04407199628919037
-0.13051350368631354 0.03396509902027187
-0.19628193391666257 0.02385820175135338
-0.20943561996273238 0.02385820175135338
-0.235742992054872 0.03396509902027187
-0.20943561996273238 0.06428579082702736
-0.18312824787059276 0.04407199628919037
-0.18312824787059276 0.05417889355810886
-0.18312824787059276 0.02385820175135338
-0.20943561996273238 0.0036444072135163965
-0.2225893060088022 0.03396509902027187
-0.20943561996273238 0.04407199628919037
-0.16997456182452295 0.03396509902027187
-0.16997456182452295 0.06428579082702736
-0.18312824787059276 0.04407199628919037
-0.20943561996273238 0.03396509902027187
-0.19628193391666257 0.03396509902027187
-0.16997456182452295 0.08449958536486434
-0.18312824787059276 0.06428579082702736
-0.14366718973238335 0.05417889355810886
-0.18312824787059276 0.04407199628919037
-0.2225893060088022 0.01375130448243489
-0.2752040501930814 0.03396509902027187
-0.28835773623915123 0.04407199628919037
-0.235742992054872 0.05417889355810886
-0.15682087577845316 0.01375130448243489
-0.025284015317755062 0.0036444072135163965
0.15886758932722225 0.02385820175135338
0.3430191939721996 0.02385820175135338
0.6060929148935957 0.04407199628919037
0.869166635814992 0.04407199628919037
1.0664719265060392 0.01375130448243489
1.211162473012807 0.02385820175135338
1.4347751357959937 0.03396509902027187
1.7110025427634596 0.05417889355810886
2.026691007869135 0.07439268809594585
2.302918414836601 0.09460648263378284
2.658067938080486 0.09460648263378284
2.881680600863673 0.09460648263378284
3.0395248334165106 0.06428579082702736
3.0395248334165106 0.07439268809594585
2.881680600863673 0.10471337990270133
2.579145821804067 0.07439268809594585
2.0793057520534144 0.07439268809594585
1.2243161590588767 0.08449958536486434
0.2509433916497109 0.1249271744405383
-0.39358722460770973 0.15524786624729378
-0.7881978059898039 0.20578235259188626
-0.8408125501740832 0.19567545532296776
-0.8408125501740832 0.19567545532296776
-0.8145051780819436 0.18556855805404926
-0.7224293757594549 0.19567545532296776
-0.6040462013448267 0.18556855805404926
-0.4988167129762682 0.20578235259188626
-0.4198945966998493 0.15524786624729378
-0.4330482827459191 0.15524786624729378
-0.4462019687919889 0.1451409689783753
-0.511970399022338 0.11482027717161981
-0.45935565483805874 0.1350340717094568
-0.4198945966998493 0.1451409689783753
-0.45935565483805874 0.11482027717161981
-0.4988167129762682 0.10471337990270133
-0.5251240850684078 0.07439268809594585
-0.5645851432066172 0.05417889355810886
-0.6171998873908965 0.05417889355810886
-0.5251240850684078 0.07439268809594585
-0.5251240850684078 0.03396509902027187
-0.4988167129762682 0.05417889355810886
-0.4462019687919889 0.01375130448243489
-0.45935565483805874 -0.0064624900554020965
-0.40674091065377954 0.03396509902027187
-0.3804335385616399 0.02385820175135338
-0.3804335385616399 0.03396509902027187
-0.39358722460770973 0.04407199628919037
-0.3804335385616399 0.02385820175135338
-0.4330482827459191 0.01375130448243489
-0.40674091065377954 0.0036444072135163965
-0.39358722460770973 0.04407199628919037
-0.3409724804234305 0.03396509902027187
-0.3409724804234305 0.04407199628919037
-0.3409724804234305 0.02385820175135338
-0.3672798525155701 -0.0064624900554020965
-0.3672798525155701 0.0036444072135163965
-0.3409724804234305 0.03396509902027187
-0.3409724804234305 0.01375130448243489
-0.3672798525155701 0.01375130448243489
-0.3541261664695003 0.0036444072135163965
-0.3409724804234305 -0.0064624900554020965
-0.28835773623915123 0.01375130448243489
-0.2752040501930814 0.04407199628919037
-0.19628193391666257 0.03396509902027187
-0.14366718973238335 0.03396509902027187
-0.0910524455481041 -0.0064624900554020965
-0.13051350368631354 -0.02667628459323908
-0.18312824787059276 0.0036444072135163965
-0.24889667810094182 0.01375130448243489
-0.20943561996273238 0.02385820175135338
0.04048441491259398 0.02385820175135338
0.30355813583399016 0.0036444072135163965
0.29040444978792035 -0.02667628459323908
0.0667917870047336 -0.0064624900554020965
-0.2620503641470116 0.04407199628919037
-0.511970399022338 0.0036444072135163965
-0.6566609455291059 0.01375130448243489
-0.5908925152987569 0.01375130448243489
-0.39358722460770973 -0.01656938732432059
-0.19628193391666257 -0.0064624900554020965
-0.0778987595020343 0.02385820175135338
-0.0778987595020343 0.0036444072135163965
-0.16997456182452295 0.0036444072135163965
-0.2752040501930814 -0.01656938732432059
-0.3409724804234305 -0.03678318186215757
-0.31466510833129085 -0.0064624900554020965
-0.2620503641470116 0.01375130448243489
-0.18312824787059276 0.0036444072135163965
-0.14366718973238335 -0.0064624900554020965
-0.13051350368631354 -0.01656938732432059
-0.15682087577845316 -0.0064624900554020965
-0.15682087577845316 -0.01656938732432059
-0.0910524455481041 0.01375130448243489
-0.025284015317755062 0.01375130448243489
0.0010233567743845565 0.01375130448243489
0.027330728866524174 -0.02667628459323908
0.027330728866524174 -0.01656938732432059
0.04048441491259398 -0.02667628459323908
0.05363810095866379 0.01375130448243489
0.0667917870047336 0.0036444072135163965
0.0799454730508034 0.02385820175135338
0.0667917870047336 -0.0064624900554020965
0.10625284514294303 -0.0064624900554020965
0.17202127537329207 0.0036444072135163965
0.1983286474654317 0.02385820175135338
0.30355813583399016 0.01375130448243489
0.4219413102486184 0.0036444072135163965
0.5929392288475259 -0.0064624900554020965
0.6981687172160844 -0.0064624900554020965
0.6718613451239448 0.0036444072135163965
0.5666318567553863 0.01375130448243489
0.4219413102486184 0.0036444072135163965
0.27725076374185054 0.0036444072135163965
0.05363810095866379 -0.01656938732432059
-0.11735981764024372 -0.02667628459323908
-0.18312824787059276 -0.0064624900554020965
-0.16997456182452295 0.02385820175135338
-0.15682087577845316 0.01375130448243489
-0.0778987595020343 0.02385820175135338
0.0010233567743845565 0.0036444072135163965
0.027330728866524174 0.0036444072135163965
0.05363810095866379 0.0036444072135163965
0.04048441491259398 0.04407199628919037
0.09309915909687322 0.02385820175135338
0.13256021723508266 0.02385820175135338
0.11940653118901283 0.0036444072135163965
0.10625284514294303 -0.0064624900554020965
0.09309915909687322 0.01375130448243489
0.0667917870047336 0.04407199628919037
0.05363810095866379 0.04407199628919037
0.027330728866524174 0.03396509902027187
0.0010233567743845565 0.01375130448243489
0.014177042820454365 0.03396509902027187
0.0667917870047336 0.05417889355810886
0.05363810095866379 0.05417889355810886
0.04048441491259398 0.05417889355810886
0.027330728866524174 0.06428579082702736
0.0010233567743845565 0.02385820175135338
-0.051591387409894676 0.01375130448243489
-0.03843770136382487 0.03396509902027187
-0.025284015317755062 0.05417889355810886
0.0010233567743845565 0.06428579082702736
0.014177042820454365 0.04407199628919037
0.014177042820454365 0.03396509902027187
-0.012130329271685253 0.03396509902027187
-0.025284015317755062 0.05417889355810886
0.0010233567743845565 0.06428579082702736
0.04048441491259398 0.06428579082702736
0.014177042820454365 0.06428579082702736
-0.025284015317755062 0.06428579082702736
-0.03843770136382487 0.04407199628919037
-0.051591387409894676 0.06428579082702736
-0.06474507345596449 0.08449958536486434
-0.025284015317755062 0.09460648263378284
0.0010233567743845565 0.05417889355810886
-0.06474507345596449 0.04407199628919037
-0.0910524455481041 0.04407199628919037
-0.06474507345596449 0.04407199628919037
-0.025284015317755062 0.07439268809594585
0.014177042820454365 0.08449958536486434
-0.012130329271685253 0.07439268809594585
-0.06474507345596449 0.05417889355810886
-0.13051350368631354 0.05417889355810886
-0.13051350368631354 0.07439268809594585
-0.14366718973238335 0.07439268809594585
-0.0778987595020343 0.07439268809594585
-0.051591387409894676 0.06428579082702736
-0.11735981764024372 0.04407199628919037
-0.14366718973238335 0.04407199628919037
-0.10420613159417391 0.04407199628919037
-0.0778987595020343 0.06428579082702736
-0.051591387409894676 0.07439268809594585
-0.03843770136382487 0.06428579082702736
-0.03843770136382487 0.05417889355810886
-0.06474507345596449 0.06428579082702736
-0.051591387409894676 0.07439268809594585
-0.03843770136382487 0.08449958536486434
-0.025284015317755062 0.08449958536486434
0.0010233567743845565 0.08449958536486434
0.014177042820454365 0.04407199628919037
-0.012130329271685253 0.05417889355810886
0.014177042820454365 0.07439268809594585
0.0799454730508034 0.08449958536486434
0.1983286474654317 0.09460648263378284
0.30355813583399016 0.06428579082702736
0.3561728800182694 0.05417889355810886
0.29040444978792035 0.05417889355810886
0.05363810095866379 0.05417889355810886
-0.18312824787059276 0.08449958536486434
-0.32781879437736067 0.08449958536486434
-0.3804335385616399 0.09460648263378284
-0.3409724804234305 0.04407199628919037
-0.31466510833129085 0.03396509902027187
-0.3541261664695003 0.02385820175135338
-0.4198945966998493 0.06428579082702736
-0.3804335385616399 0.07439268809594585
-0.32781879437736067 0.06428579082702736
-0.32781879437736067 0.02385820175135338
-0.28835773623915123 0.01375130448243489
-0.2620503641470116 0.03396509902027187
-0.2225893060088022 0.04407199628919037
-0.15682087577845316 0.04407199628919037
-0.19628193391666257 0.03396509902027187
-0.24889667810094182 0.01375130448243489
-0.3672798525155701 0.0036444072135163965
-0.39358722460770973 0.03396509902027187
-0.3672798525155701 0.03396509902027187
-0.30151142228522104 0.02385820175135338
-0.24889667810094182 0.04407199628919037
-0.24889667810094182 0.0036444072135163965
-0.2225893060088022 0.01375130448243489
-0.24889667810094182 0.02385820175135338
-0.235742992054872 0.04407199628919037
-0.20943561996273238 0.02385820175135338
-0.14366718973238335 0.03396509902027187
-0.06474507345596449 0.01375130448243489
0.0799454730508034 0.0036444072135163965
0.1983286474654317 0.02385820175135338
0.23778970560364113 0.04407199628919037
0.0667917870047336 0.02385820175135338
-0.20943561996273238 0.02385820175135338
-0.45935565483805874 0.0036444072135163965
-0.6040462013448267 0.0036444072135163965
-0.5645851432066172 0.03396509902027187
-0.40674091065377954 0.04407199628919037
-0.18312824787059276 0.04407199628919037
-0.025284015317755062 0.04407199628919037
0.0667917870047336 0.01375130448243489
0.0010233567743845565 0.0036444072135163965
-0.16997456182452295 0.01375130448243489
-0.3804335385616399 0.01375130448243489
-0.511970399022338 0.04407199628919037
-0.5908925152987569 0.02385820175135338
-0.48566302693019836 -0.01656938732432059
-0.4330482827459191 -0.01656938732432059
-0.3672798525155701 0.01375130448243489
-0.31466510833129085 0.02385820175135338
-0.3541261664695003 0.01375130448243489
-0.3409724804234305 0.02385820175135338
-0.32781879437736067 -0.0064624900554020965
-0.2752040501930814 -0.01656938732432059
-0.06474507345596449 0.0036444072135163965
0.15886758932722225 0.01375130448243489
0.43509499629468823 -0.0064624900554020965
0.724476089308224 0.02385820175135338
0.9612424381374806 -0.01656938732432059
1.0533182404599692 -0.02667628459323908
1.0270108683678296 -0.01656938732432059
0.9612424381374806 -0.01656938732432059
1.0533182404599692 -0.0064624900554020965
1.2506235311510163 -0.0064624900554020965
1.553158310210622 -0.0064624900554020965
1.8556930892702277 0.0036444072135163965
2.237149984606252 0.02385820175135338
2.658067938080486 0.07439268809594585
3.06583220550865 0.06428579082702736
3.3025985543379064 0.06428579082702736
3.3289059264300462 0.03396509902027187
3.157908007831139 0.03396509902027187
2.8290658566793936 0.02385820175135338
2.2766110427444617 0.05417889355810886
1.3821603916117144 0.03396509902027187
0.3298655079261298 0.05417889355810886
-0.5251240850684078 0.08449958536486434
-0.9328883524965719 0.11482027717161981
-0.9591957245887115 0.1451409689783753
-0.9460420385426417 0.16535476351621228
-0.9065809804044322 0.18556855805404926
-0.9460420385426417 0.17546166078513079
-1.06442521295727 0.17546166078513079
-1.2222694455101077 0.1451409689783753
-1.2354231315561774 0.15524786624729378
-1.1433473292336889 0.16535476351621228
-0.9065809804044322 0.1451409689783753
-0.6171998873908965 0.1350340717094568
-0.3541261664695003 0.10471337990270133
-0.2620503641470116 0.09460648263378284
-0.2225893060088022 0.10471337990270133
-0.3541261664695003 0.1350340717094568
-0.6435072594830361 0.10471337990270133
-0.8013514920358737 0.09460648263378284
-0.7750441199437341 0.07439268809594585
-0.5908925152987569 0.06428579082702736
-0.4198945966998493 0.05417889355810886
-0.30151142228522104 0.08449958536486434
-0.3541261664695003 0.02385820175135338
-0.511970399022338 0.02385820175135338
-0.6566609455291059 0.0036444072135163965
-0.7750441199437341 -0.02667628459323908
-0.7224293757594549 -0.03678318186215757
-0.6961220036673154 -0.01656938732432059
-0.7355830618055247 -0.01656938732432059
-0.7092756897133852 0.0036444072135163965
-0.6171998873908965 -0.0064624900554020965
-0.4330482827459191 -0.01656938732432059
-0.235742992054872 0.0036444072135163965
-0.16997456182452295 0.03396509902027187
-0.2225893060088022 0.02385820175135338
-0.3804335385616399 0.0036444072135163965
-0.5645851432066172 -0.02667628459323908
-0.6829683176212455 -0.01656938732432059
-0.6303535734369663 -0.0064624900554020965
-0.5251240850684078 0.02385820175135338
-0.4330482827459191 0.02385820175135338
-0.4462019687919889 0.0036444072135163965
-0.4988167129762682 -0.01656938732432059
-0.6040462013448267 -0.02667628459323908
-0.6566609455291059 -0.02667628459323908
-0.6303535734369663 0.02385820175135338
-0.577738829252687 0.02385820175135338
-0.4462019687919889 0.01375130448243489
-0.3672798525155701 -0.0064624900554020965
-0.32781879437736067 -0.0064624900554020965
-0.39358722460770973 -0.01656938732432059
-0.47250934088412855 0.02385820175135338
-0.5251240850684078 0.0036444072135163965
-0.511970399022338 -0.0064624900554020965
-0.40674091065377954 -0.01656938732432059
-0.3541261664695003 -0.02667628459323908
-0.3672798525155701 -0.01656938732432059
-0.31466510833129085 0.0036444072135163965
-0.2225893060088022 -0.0064624900554020965
-0.06474507345596449 0.0036444072135163965
0.014177042820454365 -0.03678318186215757
0.014177042820454365 -0.04689007913107607
-0.06474507345596449 -0.02667628459323908
-0.18312824787059276 -0.03678318186215757
-0.24889667810094182 -0.02667628459323908
-0.31466510833129085 -0.02667628459323908
-0.2620503641470116 -0.02667628459323908
-0.18312824787059276 -0.05699697639999456
-0.025284015317755062 -0.04689007913107607
0.014177042820454365 -0.02667628459323908
-0.012130329271685253 -0.01656938732432059
-0.051591387409894676 -0.03678318186215757
0.0010233567743845565 -0.05699697639999456
0.05363810095866379 -0.06710387366891306
0.014177042820454365 -0.06710387366891306
-0.06474507345596449 -0.07721077093783155
-0.15682087577845316 -0.04689007913107607
-0.19628193391666257 -0.04689007913107607
-0.11735981764024372 -0.06710387366891306
-0.025284015317755062 -0.07721077093783155
0.014177042820454365 -0.07721077093783155
-0.012130329271685253 -0.04689007913107607
-0.03843770136382487 -0.04689007913107607
-0.03843770136382487 -0.05699697639999456
0.014177042820454365 -0.06710387366891306
0.10625284514294303 -0.06710387366891306
0.13256021723508266 -0.05699697639999456
0.14571390328115244 -0.03678318186215757
0.18517496141936188 -0.06710387366891306
0.18517496141936188 -0.06710387366891306
0.15886758932722225 -0.07721077093783155
0.18517496141936188 -0.07721077093783155
0.23778970560364113 -0.07721077093783155
0.2640970776957807 -0.05699697639999456
0.27725076374185054 -0.04689007913107607
0.2509433916497109 -0.05699697639999456
0.2640970776957807 -0.07721077093783155
0.2509433916497109 -0.08731766820675003
0.2640970776957807 -0.06710387366891306
0.3430191939721996 -0.02667628459323908
0.4087876242025486 -0.03678318186215757
0.4087876242025486 -0.02667628459323908
0.3430191939721996 -0.03678318186215757
0.2114823335115015 -0.04689007913107607
0.1983286474654317 -0.05699697639999456
0.2640970776957807 -0.03678318186215757
0.3693265660643392 -0.03678318186215757
0.27725076374185054 -0.03678318186215757
0.0799454730508034 -0.05699697639999456
-0.03843770136382487 -0.06710387366891306
-0.025284015317755062 -0.04689007913107607
0.0799454730508034 -0.01656938732432059
0.13256021723508266 0.0036444072135163965
0.10625284514294303 -0.0064624900554020965
0.05363810095866379 -0.04689007913107607
-0.03843770136382487 -0.05699697639999456
-0.051591387409894676 -0.03678318186215757
0.0010233567743845565 -0.03678318186215757
0.014177042820454365 -0.02667628459323908
0.09309915909687322 -0.0064624900554020965
0.13256021723508266 -0.02667628459323908
0.09309915909687322 -0.05699697639999456
0.0667917870047336 -0.04689007913107607
0.11940653118901283 -0.0064624900554020965
0.1983286474654317 -0.04689007913107607
0.22463601955757131 -0.03678318186215757
0.15886758932722225 -0.04689007913107607
0.17202127537329207 -0.04689007913107607
0.3298655079261298 -0.04689007913107607
0.38248025211040904 -0.02667628459323908
0.09309915909687322 -0.04689007913107607
-0.30151142228522104 -0.02667628459323908
-0.5908925152987569 -0.06710387366891306
-0.5908925152987569 -0.03678318186215757
-0.4198945966998493 -0.04689007913107607
-0.32781879437736067 -0.01656938732432059
-0.28835773623915123 -0.01656938732432059
-0.32781879437736067 -0.03678318186215757
-0.31466510833129085 -0.05699697639999456
-0.28835773623915123 -0.06710387366891306
-0.235742992054872 -0.05699697639999456
-0.16997456182452295 -0.02667628459323908
-0.16997456182452295 -0.02667628459323908
-0.18312824787059276 -0.02667628459323908
-0.19628193391666257 -0.03678318186215757
-0.19628193391666257 -0.03678318186215757
-0.13051350368631354 -0.02667628459323908
-0.14366718973238335 -0.0064624900554020965
-0.13051350368631354 -0.0064624900554020965
-0.19628193391666257 0.0036444072135163965
-0.2620503641470116 -0.04689007913107607
-0.31466510833129085 -0.04689007913107607
-0.32781879437736067 -0.06710387366891306
-0.31466510833129085 -0.01656938732432059
-0.235742992054872 -0.0064624900554020965
-0.19628193391666257 -0.01656938732432059
-0.18312824787059276 -0.04689007913107607
-0.19628193391666257 -0.03678318186215757
-0.19628193391666257 -0.02667628459323908
-0.14366718973238335 -0.02667628459323908
-0.13051350368631354 -0.0064624900554020965
-0.15682087577845316 -0.03678318186215757
-0.10420613159417391 -0.04689007913107607
-0.0778987595020343 -0.03678318186215757
0.027330728866524174 -0.02667628459323908
0.014177042820454365 -0.03678318186215757
-0.14366718973238335 -0.01656938732432059
-0.4462019687919889 -0.05699697639999456
-0.6171998873908965 -0.06710387366891306
-0.48566302693019836 -0.06710387366891306
-0.15682087577845316 -0.04689007913107607
-0.0910524455481041 -0.02667628459323908
-0.18312824787059276 -0.04689007913107607
-0.3409724804234305 -0.05699697639999456
-0.4198945966998493 -0.08731766820675003
-0.39358722460770973 -0.06710387366891306
-0.3409724804234305 -0.07721077093783155
-0.18312824787059276 -0.03678318186215757
-0.0778987595020343 -0.01656938732432059
-0.06474507345596449 -0.05699697639999456
-0.13051350368631354 -0.08731766820675003
-0.16997456182452295 -0.08731766820675003
-0.14366718973238335 -0.04689007913107607
-0.0910524455481041 -0.02667628459323908
-0.012130329271685253 -0.0064624900554020965
0.014177042820454365 -0.03678318186215757
0.027330728866524174 -0.06710387366891306
0.0010233567743845565 -0.04689007913107607
0.0667917870047336 -0.02667628459323908
0.14571390328115244 -0.03678318186215757
0.22463601955757131 -0.03678318186215757
0.14571390328115244 -0.02667628459323908
-0.11735981764024372 -0.06710387366891306
-0.2752040501930814 -0.05699697639999456
-0.24889667810094182 -0.06710387366891306
-0.18312824787059276 -0.05699697639999456
-0.15682087577845316 -0.02667628459323908
-0.15682087577845316 -0.03678318186215757
-0.13051350368631354 -0.06710387366891306
-0.11735981764024372 -0.08731766820675003
-0.0910524455481041 -0.05699697639999456
-0.0910524455481041 -0.04689007913107607
-0.025284015317755062 -0.04689007913107607
-0.025284015317755062 -0.06710387366891306
-0.025284015317755062 -0.07721077093783155
-0.03843770136382487 -0.07721077093783155
-0.025284015317755062 -0.07721077093783155
0.014177042820454365 -0.03678318186215757
0.014177042820454365 -0.06710387366891306
0.04048441491259398 -0.05699697639999456
0.04048441491259398 -0.04689007913107607
0.027330728866524174 -0.06710387366891306
-0.012130329271685253 -0.03678318186215757
-0.025284015317755062 -0.03678318186215757
-0.025284015317755062 -0.02667628459323908
-0.025284015317755062 -0.04689007913107607
-0.06474507345596449 -0.08731766820675003
-0.11735981764024372 -0.07721077093783155
-0.10420613159417391 -0.03678318186215757
-0.06474507345596449 -0.01656938732432059
-0.03843770136382487 -0.01656938732432059
-0.025284015317755062 -0.03678318186215757
-0.06474507345596449 -0.05699697639999456
-0.06474507345596449 -0.05699697639999456
-0.0910524455481041 -0.04689007913107607
-0.06474507345596449 -0.02667628459323908
-0.06474507345596449 -0.02667628459323908
-0.051591387409894676 -0.03678318186215757
-0.012130329271685253 -0.05699697639999456
-0.025284015317755062 -0.05699697639999456
-0.03843770136382487 -0.02667628459323908
0.014177042820454365 -0.04689007913107607
0.014177042820454365 -0.01656938732432059
0.014177042820454365 -0.01656938732432059
-0.012130329271685253 -0.02667628459323908
-0.051591387409894676 -0.06710387366891306
-0.051591387409894676 -0.03678318186215757
-0.051591387409894676 -0.01656938732432059
0.04048441491259398 -0.03678318186215757
0.14571390328115244 -0.03678318186215757
0.3430191939721996 -0.04689007913107607
0.44824868234075804 -0.06710387366891306
0.5929392288475259 -0.06710387366891306
0.8297055776767825 -0.03678318186215757
1.0927792985981786 -0.02667628459323908
1.3163919613813655 -0.04689007913107607
1.5136972520724126 -0.05699697639999456
1.8162320311320181 -0.06710387366891306
2.1450741822837633 -0.02667628459323908
2.5528384497119276 0.0036444072135163965
2.934295345047952 0.01375130448243489
3.197369065969348 0.01375130448243489
3.368366984568256 -0.0064624900554020965
3.2631374961996973 -0.01656938732432059
3.157908007831139 -0.02667628459323908
2.934295345047952 0.0036444072135163965
2.4739163334355085 -0.02667628459323908
1.5136972520724126 0.0036444072135163965
0.30355813583399016 0.01375130448243489
-0.5645851432066172 0.05417889355810886
-0.9460420385426417 0.07439268809594585
-0.9591957245887115 0.11482027717161981
-0.8671199222662228 0.1249271744405383
-0.7618904338976643 0.11482027717161981
-0.6829683176212455 0.07439268809594585
-0.577738829252687 0.06428579082702736
-0.4988167129762682 0.06428579082702736
-0.45935565483805874 0.06428579082702736
-0.40674091065377954 0.07439268809594585
-0.3804335385616399 0.04407199628919037
-0.3672798525155701 0.06428579082702736
-0.4198945966998493 0.02385820175135338
-0.45935565483805874 0.02385820175135338
-0.39358722460770973 0.04407199628919037
-0.32781879437736067 0.02385820175135338
-0.32781879437736067 0.02385820175135338
-0.3672798525155701 -0.03678318186215757
-0.3804335385616399 -0.03678318186215757
-0.3409724804234305 -0.02667628459323908
-0.28835773623915123 -0.01656938732432059
-0.235742992054872 -0.01656938732432059
-0.235742992054872 -0.01656938732432059
-0.235742992054872 -0.03678318186215757
-0.2752040501930814 -0.06710387366891306
-0.235742992054872 -0.04689007913107607
-0.2225893060088022 -0.02667628459323908
-0.235742992054872 -0.02667628459323908
-0.235742992054872 -0.0064624900554020965
-0.235742992054872 -0.02667628459323908
-0.2620503641470116 -0.04689007913107607
-0.235742992054872 -0.02667628459323908
-0.235742992054872 -0.0064624900554020965
-0.2225893060088022 -0.01656938732432059
-0.20943561996273238 -0.01656938732432059
-0.24889667810094182 -0.05699697639999456
-0.2225893060088022 -0.02667628459323908
-0.20943561996273238 -0.02667628459323908
-0.19628193391666257 -0.0064624900554020965
-0.20943561996273238 0.0036444072135163965
-0.2225893060088022 0.01375130448243489
-0.2620503641470116 -0.04689007913107607
-0.28835773623915123 -0.04689007913107607
-0.24889667810094182 -0.04689007913107607
-0.2225893060088022 -0.0064624900554020965
-0.18312824787059276 -0.01656938732432059
-0.16997456182452295 -0.0064624900554020965
-0.18312824787059276 -0.02667628459323908
-0.19628193391666257 -0.03678318186215757
-0.2225893060088022 -0.03678318186215757
-0.15682087577845316 -0.0064624900554020965
-0.14366718973238335 -0.0064624900554020965
-0.15682087577845316 0.01375130448243489
-0.15682087577845316 -0.04689007913107607
-0.15682087577845316 -0.01656938732432059
-0.11735981764024372 0.0036444072135163965
-0.06474507345596449 -0.0064624900554020965
-0.012130329271685253 0.0036444072135163965
0.04048441491259398 -0.01656938732432059
0.0799454730508034 -0.04689007913107607
0.17202127537329207 -0.02667628459323908
0.30355813583399016 -0.03678318186215757
0.29040444978792035 0.0036444072135163965
0.11940653118901283 -0.01656938732432059
-0.10420613159417391 -0.01656938732432059
-0.235742992054872 -0.04689007913107607
-0.2225893060088022 -0.05699697639999456
-0.10420613159417391 -0.04689007913107607
0.014177042820454365 -0.01656938732432059
0.04048441491259398 -0.04689007913107607
0.0799454730508034 -0.04689007913107607
0.05363810095866379 -0.05699697639999456
0.0010233567743845565 -0.04689007913107607
0.0667917870047336 -0.02667628459323908
0.0799454730508034 -0.02667628459323908
0.13256021723508266 -0.03678318186215757
0.17202127537329207 -0.02667628459323908
0.17202127537329207 -0.04689007913107607
0.11940653118901283 -0.04689007913107607
0.18517496141936188 -0.04689007913107607
0.22463601955757131 -0.02667628459323908
0.2640970776957807 -0.02667628459323908
0.2640970776957807 -0.01656938732432059
0.2640970776957807 -0.03678318186215757
0.23778970560364113 -0.05699697639999456
0.2640970776957807 -0.02667628459323908
0.2640970776957807 -0.01656938732432059
0.29040444978792035 -0.01656938732432059
0.30355813583399016 -0.01656938732432059
0.27725076374185054 -0.04689007913107607
0.2640970776957807 -0.06710387366891306
0.2640970776957807 -0.02667628459323908
0.29040444978792035 -0.01656938732432059
0.30355813583399016 -0.01656938732432059
0.30355813583399016 -0.03678318186215757
0.2640970776957807 -0.03678318186215757
0.22463601955757131 -0.04689007913107607
0.22463601955757131 -0.01656938732432059
0.22463601955757131 -0.0064624900554020965
0.29040444978792035 0.0036444072135163965
0.29040444978792035 0.0036444072135163965
0.2640970776957807 -0.01656938732432059
0.23778970560364113 -0.02667628459323908
0.2640970776957807 0.01375130448243489
0.31671182188006 0.02385820175135338
0.4087876242025486 0.02385820175135338
0.4877097404789675 0.01375130448243489
0.46140236838682785 -0.01656938732432059
0.3693265660643392 -0.01656938732432059
0.2114823335115015 -0.01656938732432059
0.0010233567743845565 0.01375130448243489
-0.0910524455481041 0.0036444072135163965
-0.051591387409894676 -0.0064624900554020965
0.027330728866524174 -0.03678318186215757
0.05363810095866379 -0.02667628459323908
0.04048441491259398 -0.0064624900554020965
-0.051591387409894676 0.0036444072135163965
-0.03843770136382487 -0.0064624900554020965
0.027330728866524174 0.01375130448243489
0.027330728866524174 -0.01656938732432059
0.027330728866524174 -0.04689007913107607
0.04048441491259398 -0.01656938732432059
0.04048441491259398 -0.01656938732432059
0.0799454730508034 0.0036444072135163965
0.0799454730508034 -0.0064624900554020965
0.0667917870047336 -0.01656938732432059
0.0667917870047336 -0.01656938732432059
0.04048441491259398 -0.0064624900554020965
0.04048441491259398 -0.01656938732432059
0.0667917870047336 -0.0064624900554020965
0.0667917870047336 -0.0064624900554020965
0.014177042820454365 -0.01656938732432059
0.027330728866524174 -0.03678318186215757
0.0010233567743845565 -0.01656938732432059
-0.012130329271685253 -0.0064624900554020965
0.05363810095866379 -0.0064624900554020965
0.0667917870047336 -0.01656938732432059
0.014177042820454365 -0.02667628459323908
-0.025284015317755062 -0.05699697639999456
0.0010233567743845565 -0.04689007913107607
-0.012130329271685253 -0.03678318186215757
0.0010233567743845565 -0.03678318186215757
-0.012130329271685253 -0.03678318186215757
-0.025284015317755062 -0.05699697639999456
-0.051591387409894676 -0.06710387366891306
-0.025284015317755062 -0.05699697639999456
0.0010233567743845565 -0.01656938732432059
0.0667917870047336 -0.03678318186215757
0.05363810095866379 -0.0064624900554020965
0.05363810095866379 -0.06710387366891306
0.05363810095866379 -0.05699697639999456
0.05363810095866379 -0.02667628459323908
0.10625284514294303 -0.0064624900554020965
0.17202127537329207 -0.01656938732432059
0.15886758932722225 0.0036444072135163965
0.17202127537329207 -0.03678318186215757
0.15886758932722225 -0.03678318186215757
0.18517496141936188 -0.01656938732432059
0.18517496141936188 0.0036444072135163965
0.2114823335115015 -0.01656938732432059
0.1983286474654317 -0.0064624900554020965
0.15886758932722225 -0.02667628459323908
0.14571390328115244 -0.04689007913107607
0.18517496141936188 -0.04689007913107607
0.17202127537329207 -0.02667628459323908
0.27725076374185054 -0.02667628459323908
0.3561728800182694 -0.06710387366891306
0.3956339381564788 -0.06710387366891306
0.4087876242025486 -0.05699697639999456
0.43509499629468823 -0.07721077093783155
0.44824868234075804 -0.06710387366891306
0.4877097404789675 -0.07721077093783155
0.5403244846632467 -0.09742456547566854
0.6455539730318052 -0.11763836001350551
0.658707659077875 -0.1378521545513425
0.6850150311700146 -0.15806594908917948
0.8297055776767825 -0.15806594908917948
0.9612424381374806 -0.19849353816485346
1.01385718232176 -0.22881422997160894
1.00070349627569 -0.2591349217783644
0.9349350660453409 -0.2692418190472829
0.8428592637228524 -0.2692418190472829
0.5929392288475259 -0.2894556135851199
0.09309915909687322 -0.2793487163162014
-0.7487367478515945 -0.32988320266079385
-1.8536463757214585 -0.32988320266079385
-2.9717096896373922 -0.35009699719863085
-3.82669928263193 -0.32988320266079385
-4.326539352382582 -0.2894556135851199
-4.536998329119699 -0.24902802450944592
-4.6027667593500485 -0.22881422997160894
-4.655381503534327 -0.2692418190472829
-4.707996247718607 -0.2591349217783644
-4.642227817488258 -0.23892112724052741
-4.48438358493542 -0.19849353816485346
-4.155541433783675 -0.16817284635809798
-3.7872382244937204 -0.15806594908917948
-3.4847034454341146 -0.11763836001350551
-3.3005518407891374 -0.10753146274458703
-3.1690149803284395 -0.06710387366891306
-2.9585560035913225 -0.02667628459323908
-2.708635968715996 0.0036444072135163965
-2.4850233059328093 0.0036444072135163965
-2.221949585011413 0.01375130448243489
-2.037797980366436 0.02385820175135338
-1.8668000617675282 0.03396509902027187
-1.73526320130683 0.03396509902027187
-1.6694947710764811 0.05417889355810886
-1.551111596661853 0.03396509902027187
-1.3801136780629453 0.0036444072135163965
-1.2222694455101077 0.01375130448243489
-1.1038862710954793 -0.0064624900554020965
-0.9986567827269209 0.02385820175135338
-0.8802736083122926 0.03396509902027187
-0.7750441199437341 0.02385820175135338
-0.7618904338976643 -0.01656938732432059
-0.7618904338976643 0.0036444072135163965
-0.6698146315751757 0.0036444072135163965
-0.4988167129762682 0.05417889355810886
-0.2620503641470116 0.03396509902027187
-0.012130329271685253 0.05417889355810886
0.15886758932722225 0.02385820175135338
0.2509433916497109 0.03396509902027187
0.3693265660643392 0.05417889355810886
0.5403244846632467 0.09460648263378284
0.6718613451239448 0.09460648263378284
0.8033982055846429 0.10471337990270133
0.8428592637228524 0.07439268809594585
0.869166635814992 0.07439268809594585
0.9480887520914107 0.10471337990270133
1.0270108683678296 0.11482027717161981
1.0664719265060392 0.1249271744405383
1.1585477288285277 0.10471337990270133
1.1717014148745974 0.11482027717161981
1.1717014148745974 0.09460648263378284
1.211162473012807 0.10471337990270133
1.3032382753352956 0.11482027717161981
1.408467763703854 0.10471337990270133
1.4742361939342032 0.09460648263378284
1.5136972520724126 0.08449958536486434
1.553158310210622 0.06428579082702736
1.618926740440971 0.07439268809594585
1.6715414846252503 0.08449958536486434
1.7373099148555993 0.07439268809594585
1.8030783450859484 0.09460648263378284
1.8162320311320181 0.07439268809594585
1.8556930892702277 0.07439268809594585
1.9346152055466463 0.08449958536486434
2.105613124145554 0.11482027717161981
2.3818405311130197 0.09460648263378284
2.5922995078501367 0.09460648263378284
2.5922995078501367 0.05417889355810886
2.316072100882671 0.05417889355810886
2.0135373218230654 0.05417889355810886
1.8820004613623673 0.08449958536486434
2.0003836357769953 0.10471337990270133
2.184535240421973 0.07439268809594585
2.513377391573718 0.05417889355810886
2.736990054356905 0.02385820175135338
2.6317605659883463 0.04407199628919037
2.1976889264680426 0.06428579082702736
1.7899246590398785 0.06428579082702736
1.6452341125331107 0.07439268809594585
1.7899246590398785 0.05417889355810886
1.960922577638786 0.04407199628919037
2.0793057520534144 0.06428579082702736
2.105613124145554 0.04407199628919037
2.0793057520534144 0.04407199628919037
2.026691007869135 0.05417889355810886
2.0003836357769953 0.0036444072135163965
1.960922577638786 0.0036444072135163965
1.9083078334545067 0.01375130448243489
1.8820004613623673 0.04407199628919037
1.8162320311320181 0.02385820175135338
1.7899246590398785 0.05417889355810886
1.7110025427634596 0.0036444072135163965
1.6452341125331107 0.0036444072135163965
1.5663119962566918 0.0036444072135163965
1.487389879980273 0.02385820175135338
1.4742361939342032 0.03396509902027187
1.3953140776577844 0.04407199628919037
1.3032382753352956 0.01375130448243489
1.211162473012807 -0.01656938732432059
1.1453940427824578 0.0036444072135163965
1.1190866706903182 0.02385820175135338
1.0533182404599692 0.02385820175135338
1.00070349627569 0.02385820175135338
0.9349350660453409 -0.0064624900554020965
0.8165518916307127 0.02385820175135338
0.8033982055846429 0.0036444072135163965
0.724476089308224 0.02385820175135338
0.6981687172160844 0.02385820175135338
0.6455539730318052 0.01375130448243489
0.5797855428014561 0.01375130448243489
0.5534781707093165 -0.0064624900554020965
0.514017112571107 0.01375130448243489
0.4877097404789675 0.03396509902027187
0.46140236838682785 0.04407199628919037
0.4087876242025486 0.03396509902027187
0.3430191939721996 0.0036444072135163965
0.2640970776957807 -0.01656938732432059
0.29040444978792035 0.01375130448243489
0.29040444978792035 0.02385820175135338
0.31671182188006 0.04407199628919037
0.27725076374185054 0.02385820175135338
0.2509433916497109 0.01375130448243489
0.22463601955757131 0.0036444072135163965
0.23778970560364113 0.01375130448243489
0.23778970560364113 0.02385820175135338
0.2114823335115015 0.0036444072135163965
0.2114823335115015 0.01375130448243489
0.22463601955757131 -0.01656938732432059
0.2114823335115015 -0.0064624900554020965
0.27725076374185054 0.0036444072135163965
0.29040444978792035 0.01375130448243489
0.22463601955757131 0.01375130448243489
0.09309915909687322 0.0036444072135163965
0.027330728866524174 -0.02667628459323908
0.027330728866524174 -0.02667628459323908
0.09309915909687322 -0.03678318186215757
0.13256021723508266 0.01375130448243489
0.14571390328115244 0.0036444072135163965
0.11940653118901283 0.0036444072135163965
0.11940653118901283 -0.02667628459323908
0.0799454730508034 -0.03678318186215757
0.11940653118901283 -0.03678318186215757
0.14571390328115244 -0.01656938732432059
0.11940653118901283 -0.0064624900554020965
0.15886758932722225 0.0036444072135163965
0.15886758932722225 -0.03678318186215757
0.11940653118901283 -0.03678318186215757
0.13256021723508266 -0.03678318186215757
0.11940653118901283 -0.02667628459323908
0.14571390328115244 -0.01656938732432059
0.13256021723508266 -0.02667628459323908
0.09309915909687322 -0.03678318186215757
0.0667917870047336 -0.03678318186215757
0.05363810095866379 -0.02667628459323908
0.05363810095866379 -0.0064624900554020965
0.0667917870047336 -0.0064624900554020965
0.0667917870047336 -0.02667628459323908
0.04048441491259398 -0.03678318186215757
0.014177042820454365 -0.04689007913107607
0.014177042820454365 -0.03678318186215757
0.04048441491259398 0.02385820175135338
0.0799454730508034 0.02385820175135338
0.09309915909687322 -0.0064624900554020965
0.0667917870047336 -0.02667628459323908
0.027330728866524174 -0.05699697639999456
0.04048441491259398 -0.02667628459323908
0.04048441491259398 -0.01656938732432059
0.04048441491259398 -0.02667628459323908
0.04048441491259398 -0.03678318186215757
0.027330728866524174 -0.02667628459323908
-0.025284015317755062 -0.02667628459323908
-0.06474507345596449 -0.03678318186215757
-0.0910524455481041 -0.0064624900554020965
-0.03843770136382487 -0.01656938732432059
-0.03843770136382487 -0.02667628459323908
-0.06474507345596449 -0.03678318186215757
-0.10420613159417391 -0.04689007913107607
-0.0778987595020343 -0.04689007913107607
-0.025284015317755062 -0.0064624900554020965
-0.012130329271685253 -0.0064624900554020965
0.027330728866524174 -0.0064624900554020965
-0.025284015317755062 -0.03678318186215757
0.0010233567743845565 -0.02667628459323908
0.014177042820454365 -0.01656938732432059
0.0667917870047336 0.0036444072135163965
0.14571390328115244 -0.0064624900554020965
0.14571390328115244 -0.0064624900554020965
0.0799454730508034 -0.01656938732432059
0.014177042820454365 0.0036444072135163965
-0.025284015317755062 -0.01656938732432059
0.0010233567743845565 0.0036444072135163965
-0.012130329271685253 0.01375130448243489
-0.03843770136382487 -0.0064624900554020965
-0.0778987595020343 -0.03678318186215757
-0.0910524455481041 -0.02667628459323908
-0.0778987595020343 -0.04689007913107607
-0.06474507345596449 -0.0064624900554020965
-0.13051350368631354 -0.01656938732432059
-0.10420613159417391 -0.04689007913107607
-0.10420613159417391 -0.03678318186215757
-0.13051350368631354 -0.05699697639999456
-0.11735981764024372 -0.03678318186215757
-0.15682087577845316 -0.02667628459323908
-0.14366718973238335 -0.04689007913107607
-0.14366718973238335 -0.02667628459323908
-0.13051350368631354 -0.05699697639999456
-0.14366718973238335 -0.06710387366891306
-0.13051350368631354 -0.05699697639999456
-0.06474507345596449 -0.04689007913107607
-0.03843770136382487 -0.03678318186215757
-0.10420613159417391 -0.05699697639999456
-0.13051350368631354 -0.06710387366891306
-0.14366718973238335 -0.06710387366891306
-0.14366718973238335 -0.03678318186215757
-0.18312824787059276 -0.01656938732432059
-0.2225893060088022 0.0036444072135163965
-0.20943561996273238 -0.01656938732432059
-0.24889667810094182 -0.06710387366891306
-0.24889667810094182 -0.07721077093783155
-0.2620503641470116 -0.04689007913107607
-0.235742992054872 -0.0064624900554020965
-0.24889667810094182 -0.04689007913107607
-0.235742992054872 -0.02667628459323908
-0.2225893060088022 -0.04689007913107607
-0.2225893060088022 -0.05699697639999456
-0.19628193391666257 -0.03678318186215757
-0.2225893060088022 -0.03678318186215757
-0.20943561996273238 -0.01656938732432059
-0.20943561996273238 -0.03678318186215757
-0.18312824787059276 -0.05699697639999456
-0.19628193391666257 -0.05699697639999456
-0.16997456182452295 -0.04689007913107607
-0.19628193391666257 -0.0064624900554020965
-0.19628193391666257 -0.01656938732432059
-0.18312824787059276 -0.01656938732432059
-0.2225893060088022 -0.07721077093783155
-0.30151142228522104 -0.07721077093783155
-0.3409724804234305 -0.07721077093783155
-0.3409724804234305 -0.06710387366891306
-0.2752040501930814 -0.03678318186215757
-0.13051350368631354 -0.04689007913107607
0.0799454730508034 -0.05699697639999456
0.2640970776957807 -0.05699697639999456
0.5008634265250372 -0.05699697639999456
0.7770908334925033 -0.05699697639999456
1.0664719265060392 -0.04689007913107607
1.3558530195195748 -0.03678318186215757
1.5794656823027615 -0.07721077093783155
1.8162320311320181 -0.05699697639999456
2.105613124145554 -0.02667628459323908
2.4213015892512293 -0.02667628459323908
2.644914252034416 -0.0064624900554020965
2.6317605659883463 0.0036444072135163965
2.4739163334355085 -0.03678318186215757
2.158227868329833 -0.02667628459323908
1.6715414846252503 -0.02667628459323908
0.9086276939532013 -0.0064624900554020965
0.0667917870047336 0.04407199628919037
-0.577738829252687 0.09460648263378284
-0.9197346664505021 0.08449958536486434
-1.06442521295727 0.07439268809594585
-1.06442521295727 0.10471337990270133
-0.9855030966808511 0.15524786624729378
-0.7750441199437341 0.15524786624729378
-0.6961220036673154 0.11482027717161981
-0.6566609455291059 0.05417889355810886
-0.6566609455291059 0.05417889355810886
-0.6566609455291059 0.04407199628919037
-0.6171998873908965 0.07439268809594585
-0.5908925152987569 0.08449958536486434
-0.6040462013448267 0.04407199628919037
-0.6303535734369663 0.01375130448243489
-0.6566609455291059 -0.0064624900554020965
-0.6435072594830361 -0.0064624900554020965
-0.6435072594830361 -0.02667628459323908
-0.5908925152987569 -0.03678318186215757
-0.5908925152987569 -0.03678318186215757
-0.5382777711144776 -0.07721077093783155
-0.4988167129762682 -0.05699697639999456
-0.48566302693019836 -0.05699697639999456
-0.47250934088412855 -0.03678318186215757
-0.45935565483805874 -0.03678318186215757
-0.48566302693019836 -0.02667628459323908
-0.5251240850684078 -0.07721077093783155
-0.5514314571605474 -0.04689007913107607
-0.511970399022338 -0.06710387366891306
-0.47250934088412855 -0.03678318186215757
-0.4462019687919889 -0.05699697639999456
-0.4462019687919889 -0.06710387366891306
-0.45935565483805874 -0.07721077093783155
-0.5251240850684078 -0.09742456547566854
-0.5382777711144776 -0.06710387366891306
-0.5251240850684078 -0.05699697639999456
-0.4988167129762682 -0.06710387366891306
-0.47250934088412855 -0.06710387366891306
-0.47250934088412855 -0.08731766820675003
-0.48566302693019836 -0.08731766820675003
-0.47250934088412855 -0.08731766820675003
-0.4988167129762682 -0.06710387366891306
-0.45935565483805874 -0.06710387366891306
-0.4198945966998493 -0.07721077093783155
-0.4198945966998493 -0.11763836001350551
-0.45935565483805874 -0.11763836001350551
-0.4462019687919889 -0.09742456547566854
-0.4198945966998493 -0.05699697639999456
-0.3409724804234305 -0.08731766820675003
-0.3541261664695003 -0.07721077093783155
-0.39358722460770973 -0.11763836001350551
-0.4462019687919889 -0.10753146274458703
-0.4330482827459191 -0.11763836001350551
-0.3804335385616399 -0.09742456547566854
-0.32781879437736067 -0.10753146274458703
-0.3409724804234305 -0.10753146274458703
-0.3804335385616399 -0.127745257282424
-0.45935565483805874 -0.127745257282424
-0.45935565483805874 -0.11763836001350551
-0.40674091065377954 -0.10753146274458703
-0.32781879437736067 -0.11763836001350551
-0.32781879437736067 -0.10753146274458703
-0.3804335385616399 -0.11763836001350551
-0.3804335385616399 -0.127745257282424
-0.3409724804234305 -0.10753146274458703
-0.28835773623915123 -0.08731766820675003
-0.28835773623915123 -0.09742456547566854
-0.30151142228522104 -0.07721077093783155
-0.3409724804234305 -0.09742456547566854
-0.3409724804234305 -0.10753146274458703
-0.39358722460770973 -0.10753146274458703
-0.3409724804234305 -0.05699697639999456
-0.31466510833129085 -0.04689007913107607
-0.30151142228522104 -0.04689007913107607
-0.2752040501930814 -0.07721077093783155
-0.2752040501930814 -0.07721077093783155
-0.2752040501930814 -0.07721077093783155
-0.30151142228522104 -0.03678318186215757
-0.24889667810094182 -0.05699697639999456
-0.20943561996273238 -0.04689007913107607
-0.19628193391666257 -0.06710387366891306
-0.20943561996273238 -0.05699697639999456
-0.18312824787059276 -0.02667628459323908
-0.18312824787059276 -0.02667628459323908
-0.14366718973238335 -0.01656938732432059
-0.13051350368631354 -0.01656938732432059
-0.15682087577845316 -0.02667628459323908
-0.18312824787059276 -0.03678318186215757
-0.15682087577845316 -0.02667628459323908
-0.13051350368631354 -0.01656938732432059
-0.10420613159417391 -0.0064624900554020965
-0.0910524455481041 -0.01656938732432059
-0.11735981764024372 -0.01656938732432059
-0.16997456182452295 -0.03678318186215757
-0.18312824787059276 -0.02667628459323908
-0.14366718973238335 0.0036444072135163965
-0.0778987595020343 0.02385820175135338
-0.06474507345596449 0.01375130448243489
-0.0778987595020343 -0.0064624900554020965
-0.10420613159417391 0.01375130448243489
-0.10420613159417391 0.01375130448243489
-0.11735981764024372 0.03396509902027187
-0.06474507345596449 0.04407199628919037
-0.0910524455481041 0.04407199628919037
-0.13051350368631354 0.02385820175135338
-0.18312824787059276 0.02385820175135338
-0.14366718973238335 0.03396509902027187
-0.14366718973238335 0.04407199628919037
-0.14366718973238335 0.05417889355810886
-0.15682087577845316 0.03396509902027187
-0.20943561996273238 0.01375130448243489
-0.2225893060088022 0.01375130448243489
-0.235742992054872 0.03396509902027187
-0.20943561996273238 0.04407199628919037
-0.14366718973238335 0.04407199628919037
-0.13051350368631354 0.05417889355810886
-0.11735981764024372 0.02385820175135338
-0.2225893060088022 0.0036444072135163965
-0.2620503641470116 0.02385820175135338
-0.3409724804234305 0.03396509902027187
-0.39358722460770973 0.03396509902027187
-0.32781879437736067 0.03396509902027187
-0.30151142228522104 0.01375130448243489
-0.3409724804234305 -0.0064624900554020965
-0.31466510833129085 0.02385820175135338
-0.28835773623915123 0.03396509902027187
-0.28835773623915123 0.02385820175135338
-0.2752040501930814 0.02385820175135338
-0.30151142228522104 -0.0064624900554020965
-0.3541261664695003 -0.01656938732432059
-0.3672798525155701 -0.0064624900554020965
-0.3804335385616399 0.02385820175135338
-0.3804335385616399 0.02385820175135338
-0.3804335385616399 0.0036444072135163965
-0.3541261664695003 0.0036444072135163965
-0.31466510833129085 -0.0064624900554020965
-0.19628193391666257 0.0036444072135163965
-0.012130329271685253 0.01375130448243489
0.0667917870047336 0.0036444072135163965
-0.06474507345596449 0.01375130448243489
-0.24889667810094182 -0.0064624900554020965
-0.4462019687919889 -0.0064624900554020965
-0.511970399022338 0.01375130448243489
-0.3541261664695003 0.03396509902027187
-0.28835773623915123 0.02385820175135338
-0.32781879437736067 0.0036444072135163965
-0.3672798525155701 -0.01656938732432059
-0.2620503641470116 -0.03678318186215757
-0.0778987595020343 -0.0064624900554020965
0.0667917870047336 0.03396509902027187
0.11940653118901283 0.01375130448243489
0.0799454730508034 0.0036444072135163965
0.09309915909687322 -0.01656938732432059
0.0667917870047336 -0.01656938732432059
0.04048441491259398 -0.02667628459323908
0.0667917870047336 -0.02667628459323908
0.1983286474654317 -0.01656938732432059
0.4087876242025486 -0.02667628459323908
0.5271707986171769 -0.05699697639999456
0.4877097404789675 -0.09742456547566854
0.43509499629468823 -0.11763836001350551
0.30355813583399016 -0.09742456547566854
0.23778970560364113 -0.15806594908917948
0.11940653118901283 -0.17827974362701648
-0.012130329271685253 -0.23892112724052741
-0.11735981764024372 -0.2793487163162014
-0.19628193391666257 -0.2692418190472829
-0.5645851432066172 -0.2793487163162014
-1.3932673641090152 -0.2894556135851199
-2.43240856174853 -0.32988320266079385
-3.4452423872959055 -0.36020389446754936
-4.273924608198303 -0.37031079173646786
-4.6027667593500485 -0.31977630539187535
-4.576459387257909 -0.3096694081229569
-4.431768840751141 -0.2793487163162014
-4.444922526797211 -0.2894556135851199
-4.523844643073629 -0.2692418190472829
-4.523844643073629 -0.2692418190472829
-4.300231980290443 -0.20860043543377196
-4.050311945415117 -0.19849353816485346
-3.81354559658586 -0.15806594908917948
-3.5636255617105337 -0.1378521545513425
-3.261090782650928 -0.127745257282424
-2.9585560035913225 -0.08731766820675003
-2.7217896547620657 -0.05699697639999456
-2.6954822826699263 -0.02667628459323908
-2.7217896547620657 -0.02667628459323908
-2.6691749105777864 0.0036444072135163965
-2.3271790733799715 -0.01656938732432059
-1.9851832361821566 -0.01656938732432059
-1.8404926896753886 0.0036444072135163965
-1.9194148059518075 0.04407199628919037
-1.9194148059518075 0.04407199628919037
-1.7221095152607604 0.03396509902027187
-1.4853431664315038 -0.02667628459323908
-1.4984968524775737 -0.0064624900554020965
-1.537957910615783 -0.02667628459323908
-1.472189480385434 -0.01656938732432059
-1.2485768176022474 -0.0064624900554020965
-0.9460420385426417 -0.0064624900554020965
-0.6303535734369663 0.01375130448243489
-0.5514314571605474 -0.0064624900554020965
-0.5908925152987569 -0.01656938732432059
-0.6040462013448267 0.01375130448243489
-0.511970399022338 0.01375130448243489
-0.2752040501930814 0.02385820175135338
-0.0910524455481041 -0.03678318186215757
-0.10420613159417391 -0.03678318186215757
-0.16997456182452295 -0.0064624900554020965
-0.03843770136382487 0.03396509902027187
0.29040444978792035 0.04407199628919037
0.6192466009396655 0.04407199628919037
0.8033982055846429 0.04407199628919037
0.9743961241835504 0.03396509902027187
1.0927792985981786 0.05417889355810886
1.0796256125521089 0.06428579082702736
0.8823203218610618 0.05417889355810886
0.6455539730318052 0.05417889355810886
0.6324002869857354 0.03396509902027187
0.8165518916307127 0.03396509902027187
0.9875498102296202 0.04407199628919037
0.9480887520914107 0.04407199628919037
0.9086276939532013 0.06428579082702736
0.8823203218610618 0.04407199628919037
0.9217813799992711 0.02385820175135338
1.0401645544138995 0.02385820175135338
1.1453940427824578 0.02385820175135338
1.2637772171970862 0.05417889355810886
1.3558530195195748 0.04407199628919037
1.4742361939342032 0.02385820175135338
1.5926193683488314 0.02385820175135338
1.5663119962566918 -0.01656938732432059
1.5400046241645522 0.0036444072135163965
1.5005435660263426 0.03396509902027187
1.5794656823027615 0.05417889355810886
1.8162320311320181 0.06428579082702736
1.9477688915927163 0.02385820175135338
1.895154147408437 0.01375130448243489
1.9083078334545067 0.04407199628919037
1.8688467753162974 0.03396509902027187
1.8425394032241578 0.03396509902027187
1.763617286947739 0.03396509902027187
1.7504636009016692 0.0036444072135163965
1.7899246590398785 -0.01656938732432059
1.8820004613623673 0.0036444072135163965
1.960922577638786 0.05417889355810886
2.0135373218230654 0.04407199628919037
1.9477688915927163 0.01375130448243489
1.8162320311320181 0.0036444072135163965
1.7110025427634596 0.02385820175135338
1.6715414846252503 0.01375130448243489
1.8030783450859484 0.02385820175135338
1.974076263684856 0.01375130448243489
2.0529983799612745 0.01375130448243489
2.039844693915205 -0.01656938732432059
1.9477688915927163 -0.02667628459323908
1.8556930892702277 -0.01656938732432059
1.763617286947739 0.0036444072135163965
1.7504636009016692 -0.01656938732432059
1.69784885671739 0.0036444072135163965
1.6715414846252503 -0.01656938732432059
1.6057730543949011 -0.03678318186215757
1.618926740440971 -0.01656938732432059
1.6452341125331107 0.01375130448243489
1.6320804264870408 -0.01656938732432059
1.5663119962566918 -0.01656938732432059
1.421621449749924 -0.02667628459323908
1.2900845892892259 -0.04689007913107607
1.2900845892892259 -0.03678318186215757
1.4610825078881333 0.01375130448243489
1.69784885671739 0.0036444072135163965
1.7110025427634596 -0.02667628459323908
1.4742361939342032 -0.03678318186215757
1.01385718232176 -0.07721077093783155
0.6850150311700146 -0.05699697639999456
0.5666318567553863 -0.03678318186215757
0.44824868234075804 -0.02667628459323908
0.31671182188006 -0.03678318186215757
0.1983286474654317 -0.03678318186215757
0.17202127537329207 -0.05699697639999456
0.17202127537329207 -0.03678318186215757
0.1983286474654317 -0.01656938732432059
0.1983286474654317 -0.0064624900554020965
0.22463601955757131 -0.0064624900554020965
0.3693265660643392 -0.01656938732432059
0.44824868234075804 -0.04689007913107607
0.3561728800182694 -0.01656938732432059
0.13256021723508266 -0.02667628459323908
-0.11735981764024372 -0.0064624900554020965
-0.20943561996273238 -0.01656938732432059
-0.11735981764024372 -0.03678318186215757
0.0010233567743845565 -0.0064624900554020965
0.13256021723508266 -0.01656938732432059
0.18517496141936188 -0.0064624900554020965
0.18517496141936188 -0.01656938732432059
0.14571390328115244 0.0036444072135163965
0.15886758932722225 0.0036444072135163965
0.17202127537329207 -0.0064624900554020965
0.11940653118901283 0.0036444072135163965
0.0667917870047336 0.0036444072135163965
0.027330728866524174 0.0036444072135163965
0.05363810095866379 -0.0064624900554020965
0.23778970560364113 0.0036444072135163965
0.47455605443289767 -0.01656938732432059
0.5666318567553863 -0.02667628459323908
0.3298655079261298 -0.01656938732432059
-0.15682087577845316 -0.01656938732432059
-0.6698146315751757 -0.01656938732432059
-0.8671199222662228 -0.03678318186215757
-0.7355830618055247 -0.02667628459323908
-0.4462019687919889 -0.01656938732432059
-0.235742992054872 0.0036444072135163965
-0.13051350368631354 0.0036444072135163965
-0.15682087577845316 0.0036444072135163965
-0.14366718973238335 -0.01656938732432059
-0.11735981764024372 -0.01656938732432059
-0.06474507345596449 -0.01656938732432059
-0.0910524455481041 0.0036444072135163965
-0.051591387409894676 0.03396509902027187
-0.06474507345596449 0.01375130448243489
-0.051591387409894676 -0.01656938732432059
-0.10420613159417391 -0.03678318186215757
-0.0910524455481041 0.0036444072135163965
-0.051591387409894676 0.01375130448243489
0.0010233567743845565 0.02385820175135338
0.0010233567743845565 0.01375130448243489
0.027330728866524174 0.01375130448243489
0.09309915909687322 -0.01656938732432059
0.1983286474654317 -0.01656938732432059
0.17202127537329207 0.01375130448243489
0.014177042820454365 0.01375130448243489
-0.19628193391666257 0.0036444072135163965
-0.2752040501930814 -0.03678318186215757
-0.2620503641470116 -0.01656938732432059
-0.14366718973238335 -0.0064624900554020965
-0.14366718973238335 0.01375130448243489
-0.11735981764024372 0.02385820175135338
-0.13051350368631354 0.02385820175135338
-0.14366718973238335 -0.01656938732432059
-0.16997456182452295 -0.03678318186215757
-0.19628193391666257 -0.02667628459323908
-0.14366718973238335 -0.0064624900554020965
-0.0910524455481041 0.0036444072135163965
-0.0910524455481041 0.0036444072135163965
-0.13051350368631354 0.0036444072135163965
-0.15682087577845316 0.01375130448243489
-0.13051350368631354 0.0036444072135163965
-0.10420613159417391 0.0036444072135163965
-0.10420613159417391 0.03396509902027187
-0.11735981764024372 0.03396509902027187
-0.11735981764024372 0.01375130448243489
-0.11735981764024372 0.0036444072135163965
-0.10420613159417391 0.01375130448243489
-0.0910524455481041 0.06428579082702736
-0.11735981764024372 0.05417889355810886
-0.14366718973238335 0.03396509902027187
-0.14366718973238335 0.02385820175135338
-0.19628193391666257 0.03396509902027187
-0.16997456182452295 0.02385820175135338
-0.13051350368631354 0.05417889355810886
-0.10420613159417391 0.03396509902027187
-0.10420613159417391 0.02385820175135338
-0.13051350368631354 -0.0064624900554020965
-0.16997456182452295 0.02385820175135338
-0.15682087577845316 0.03396509902027187
-0.13051350368631354 0.04407199628919037
-0.13051350368631354 0.04407199628919037
-0.15682087577845316 0.05417889355810886
-0.24889667810094182 0.03396509902027187
-0.28835773623915123 0.01375130448243489
-0.2225893060088022 0.03396509902027187
-0.16997456182452295 0.03396509902027187
-0.14366718973238335 0.06428579082702736
-0.14366718973238335 0.07439268809594585
-0.13051350368631354 0.03396509902027187
-0.11735981764024372 0.03396509902027187
-0.10420613159417391 0.04407199628919037
-0.06474507345596449 0.05417889355810886
0.014177042820454365 0.06428579082702736
0.0799454730508034 0.06428579082702736
0.10625284514294303 0.01375130448243489
0.0799454730508034 0.04407199628919037
0.014177042820454365 0.03396509902027187
-0.025284015317755062 0.06428579082702736
-0.012130329271685253 0.08449958536486434
0.0010233567743845565 0.06428579082702736
0.04048441491259398 0.05417889355810886
0.05363810095866379 0.03396509902027187
0.09309915909687322 0.04407199628919037
0.04048441491259398 0.06428579082702736
0.0667917870047336 0.06428579082702736
0.0667917870047336 0.05417889355810886
0.05363810095866379 0.06428579082702736
0.027330728866524174 0.03396509902027187
0.0010233567743845565 0.04407199628919037
-0.012130329271685253 0.06428579082702736
-0.012130329271685253 0.04407199628919037
-0.051591387409894676 0.04407199628919037
-0.06474507345596449 0.02385820175135338
-0.10420613159417391 0.01375130448243489
-0.11735981764024372 0.03396509902027187
-0.0778987595020343 0.03396509902027187
-0.10420613159417391 0.03396509902027187
-0.10420613159417391 0.01375130448243489
-0.16997456182452295 0.0036444072135163965
-0.235742992054872 -0.01656938732432059
-0.20943561996273238 -0.0064624900554020965
-0.16997456182452295 0.03396509902027187
-0.06474507345596449 0.04407199628919037
-0.025284015317755062 0.03396509902027187
-0.051591387409894676 0.0036444072135163965
-0.11735981764024372 -0.0064624900554020965
-0.14366718973238335 0.0036444072135163965
-0.15682087577845316 0.0036444072135163965
-0.0910524455481041 0.03396509902027187
0.0010233567743845565 0.03396509902027187
0.14571390328115244 0.0036444072135163965
0.14571390328115244 0.0036444072135163965
-0.025284015317755062 0.0036444072135163965
-0.24889667810094182 0.0036444072135163965
-0.3804335385616399 0.01375130448243489
-0.4198945966998493 0.01375130448243489
-0.3804335385616399 -0.0064624900554020965
-0.3409724804234305 -0.01656938732432059
-0.31466510833129085 0.0036444072135163965
-0.30151142228522104 0.03396509902027187
-0.2752040501930814 0.02385820175135338
-0.2620503641470116 0.0036444072135163965
-0.24889667810094182 0.0036444072135163965
-0.28835773623915123 0.01375130448243489
-0.2752040501930814 0.0036444072135163965
-0.24889667810094182 0.02385820175135338
-0.20943561996273238 0.03396509902027187
-0.24889667810094182 0.01375130448243489
-0.235742992054872 0.0036444072135163965
-0.2752040501930814 -0.01656938732432059
-0.28835773623915123 0.01375130448243489
-0.2752040501930814 0.04407199628919037
-0.2225893060088022 0.02385820175135338
-0.19628193391666257 0.03396509902027187
-0.19628193391666257 0.02385820175135338
-0.18312824787059276 0.0036444072135163965
-0.235742992054872 0.02385820175135338
-0.19628193391666257 0.03396509902027187
-0.20943561996273238 0.04407199628919037
-0.20943561996273238 0.04407199628919037
-0.235742992054872 0.02385820175135338
-0.2752040501930814 0.01375130448243489
-0.235742992054872 0.0036444072135163965
-0.19628193391666257 0.02385820175135338
-0.0778987595020343 0.05417889355810886
0.09309915909687322 0.05417889355810886
0.2509433916497109 0.0036444072135163965
0.4219413102486184 0.01375130448243489
0.6192466009396655 0.01375130448243489
0.8560129497689222 0.02385820175135338
1.1190866706903182 0.02385820175135338
1.3163919613813655 0.02385820175135338
1.5926193683488314 0.02385820175135338
1.8556930892702277 0.02385820175135338
2.184535240421973 0.03396509902027187
2.5002237055276484 0.05417889355810886
2.855373228771533 0.07439268809594585
3.1447543217850686 0.06428579082702736
3.2631374961996973 0.04407199628919037
3.1710616938772085 0.03396509902027187
2.973756403186161 0.01375130448243489
2.5659921357579973 0.05417889355810886
1.8556930892702277 0.06428579082702736
0.7639371474464335 0.06428579082702736
-0.19628193391666257 0.08449958536486434
-0.7355830618055247 0.11482027717161981
-0.9460420385426417 0.1249271744405383
-0.9723494106347813 0.1451409689783753
-0.9460420385426417 0.15524786624729378
-0.8802736083122926 0.15524786624729378
-0.7618904338976643 0.1350340717094568
-0.6698146315751757 0.11482027717161981
-0.6040462013448267 0.1249271744405383
-0.6040462013448267 0.11482027717161981
-0.5382777711144776 0.11482027717161981
-0.5251240850684078 0.11482027717161981
-0.511970399022338 0.05417889355810886
-0.5382777711144776 0.07439268809594585
-0.5645851432066172 0.08449958536486434
-0.577738829252687 0.09460648263378284
-0.577738829252687 0.07439268809594585
-0.6040462013448267 0.04407199628919037
-0.6040462013448267 0.03396509902027187
-0.6303535734369663 -0.01656938732432059
-0.577738829252687 0.0036444072135163965
-0.5251240850684078 0.02385820175135338
-0.39358722460770973 0.02385820175135338
-0.30151142228522104 0.03396509902027187
-0.30151142228522104 0.01375130448243489
-0.40674091065377954 0.0036444072135163965
-0.4988167129762682 -0.0064624900554020965
-0.5382777711144776 -0.0064624900554020965
-0.5251240850684078 0.01375130448243489
-0.4988167129762682 0.01375130448243489
-0.45935565483805874 0.0036444072135163965
-0.48566302693019836 0.01375130448243489
-0.45935565483805874 0.02385820175135338
-0.47250934088412855 0.04407199628919037
-0.4198945966998493 0.03396509902027187
-0.4330482827459191 0.01375130448243489
-0.45935565483805874 -0.01656938732432059
-0.48566302693019836 -0.01656938732432059
-0.4988167129762682 0.0036444072135163965
-0.48566302693019836 0.02385820175135338
-0.4462019687919889 0.01375130448243489
-0.40674091065377954 0.03396509902027187
-0.39358722460770973 0.01375130448243489
-0.40674091065377954 0.01375130448243489
-0.4198945966998493 0.0036444072135163965
-0.4198945966998493 0.02385820175135338
-0.39358722460770973 0.01375130448243489
-0.3672798525155701 0.01375130448243489
-0.40674091065377954 -0.0064624900554020965
-0.4198945966998493 -0.0064624900554020965
-0.4462019687919889 -0.03678318186215757
-0.4330482827459191 -0.0064624900554020965
-0.4330482827459191 0.01375130448243489
-0.4198945966998493 -0.0064624900554020965
-0.4198945966998493 -0.04689007913107607
-0.4198945966998493 -0.03678318186215757
-0.4330482827459191 -0.04689007913107607
-0.4198945966998493 -0.0064624900554020965
-0.3672798525155701 -0.02667628459323908
-0.3541261664695003 -0.0064624900554020965
-0.3409724804234305 -0.04689007913107607
-0.3804335385616399 -0.05699697639999456
-0.3409724804234305 -0.04689007913107607
-0.3672798525155701 -0.01656938732432059
-0.3409724804234305 -0.02667628459323908
-0.32781879437736067 -0.03678318186215757
-0.3409724804234305 -0.06710387366891306
-0.3541261664695003 -0.05699697639999456
-0.3541261664695003 -0.06710387366891306
-0.3541261664695003 -0.02667628459323908
-0.31466510833129085 -0.01656938732432059
-0.32781879437736067 -0.03678318186215757
-0.31466510833129085 -0.04689007913107607
-0.3804335385616399 -0.07721077093783155
-0.3804335385616399 -0.06710387366891306
-0.32781879437736067 -0.03678318186215757
-0.28835773623915123 -0.03678318186215757
-0.2752040501930814 -0.03678318186215757
-0.31466510833129085 -0.05699697639999456
-0.32781879437736067 -0.05699697639999456
-0.30151142228522104 -0.04689007913107607
-0.2620503641470116 -0.0064624900554020965
-0.24889667810094182 -0.01656938732432059
-0.28835773623915123 -0.04689007913107607
-0.2752040501930814 -0.06710387366891306
-0.31466510833129085 -0.04689007913107607
-0.28835773623915123 -0.05699697639999456
-0.2752040501930814 -0.0064624900554020965
-0.2225893060088022 -0.01656938732432059
-0.235742992054872 -0.01656938732432059
-0.20943561996273238 -0.04689007913107607
-0.2225893060088022 -0.06710387366891306
-0.18312824787059276 -0.02667628459323908
-0.14366718973238335 -0.01656938732432059
-0.0778987595020343 -0.01656938732432059
-0.06474507345596449 -0.01656938732432059
-0.10420613159417391 -0.02667628459323908
-0.13051350368631354 -0.05699697639999456
-0.13051350368631354 -0.01656938732432059
-0.06474507345596449 -0.02667628459323908
-0.012130329271685253 0.02385820175135338
0.0010233567743845565 -0.02667628459323908
-0.03843770136382487 -0.02667628459323908
-0.06474507345596449 -0.03678318186215757
-0.051591387409894676 -0.02667628459323908
-0.025284015317755062 0.0036444072135163965
-0.012130329271685253 -0.0064624900554020965
-0.051591387409894676 -0.0064624900554020965
-0.03843770136382487 -0.01656938732432059
-0.0778987595020343 -0.0064624900554020965
-0.06474507345596449 -0.0064624900554020965
-0.0778987595020343 0.0036444072135163965
-0.03843770136382487 0.0036444072135163965
-0.051591387409894676 0.0036444072135163965
-0.03843770136382487 -0.01656938732432059
-0.0778987595020343 -0.01656938732432059
-0.0778987595020343 0.01375130448243489
-0.0778987595020343 0.01375130448243489
-0.10420613159417391 0.04407199628919037
-0.0910524455481041 0.01375130448243489
-0.0910524455481041 -0.01656938732432059
-0.10420613159417391 -0.01656938732432059
-0.10420613159417391 0.01375130448243489
-0.13051350368631354 0.02385820175135338
-0.14366718973238335 0.03396509902027187
-0.15682087577845316 0.0036444072135163965
-0.18312824787059276 0.0036444072135163965
-0.19628193391666257 -0.01656938732432059
-0.18312824787059276 0.01375130448243489
-0.18312824787059276 0.01375130448243489
-0.15682087577845316 0.03396509902027187
-0.18312824787059276 0.03396509902027187
-0.16997456182452295 0.0036444072135163965
-0.2225893060088022 -0.0064624900554020965
-0.235742992054872 0.01375130448243489
-0.24889667810094182 0.03396509902027187
-0.2752040501930814 0.02385820175135338
-0.2752040501930814 0.02385820175135338
-0.31466510833129085 0.01375130448243489
-0.32781879437736067 0.0036444072135163965
-0.3409724804234305 0.01375130448243489
-0.30151142228522104 0.03396509902027187
-0.28835773623915123 0.02385820175135338
-0.31466510833129085 0.02385820175135338
-0.32781879437736067 0.02385820175135338
-0.3409724804234305 0.01375130448243489
-0.3672798525155701 0.01375130448243489
-0.3541261664695003 0.02385820175135338
-0.31466510833129085 0.04407199628919037
-0.28835773623915123 0.02385820175135338
-0.28835773623915123 0.03396509902027187
-0.30151142228522104 0.04407199628919037
-0.31466510833129085 0.02385820175135338
-0.2620503641470116 0.08449958536486434
-0.20943561996273238 0.05417889355810886
-0.18312824787059276 0.04407199628919037
-0.24889667810094182 0.03396509902027187
-0.2620503641470116 0.03396509902027187
-0.2225893060088022 0.05417889355810886
-0.20943561996273238 0.07439268809594585
-0.18312824787059276 0.07439268809594585
-0.18312824787059276 0.06428579082702736
-0.16997456182452295 0.05417889355810886
-0.20943561996273238 0.04407199628919037
-0.20943561996273238 0.05417889355810886
-0.24889667810094182 0.07439268809594585
-0.235742992054872 0.08449958536486434
-0.2752040501930814 0.06428579082702736
-0.28835773623915123 0.02385820175135338
-0.31466510833129085 0.01375130448243489
-0.3409724804234305 0.02385820175135338
-0.3409724804234305 0.05417889355810886
-0.28835773623915123 0.05417889355810886
-0.28835773623915123 0.03396509902027187
-0.28835773623915123 0.02385820175135338
-0.3409724804234305 0.02385820175135338
-0.32781879437736067 0.02385820175135338
-0.31466510833129085 0.03396509902027187
-0.2752040501930814 0.03396509902027187
-0.2620503641470116 0.03396509902027187
-0.2620503641470116 0.01375130448243489
-0.31466510833129085 -0.0064624900554020965
-0.30151142228522104 0.02385820175135338
-0.2620503641470116 0.04407199628919037
-0.2225893060088022 0.02385820175135338
-0.2225893060088022 0.05417889355810886
-0.2752040501930814 0.01375130448243489
-0.28835773623915123 0.0036444072135163965
-0.24889667810094182 0.01375130448243489
-0.2752040501930814 0.04407199628919037
-0.28835773623915123 0.06428579082702736
-0.32781879437736067 0.05417889355810886
-0.3541261664695003 0.03396509902027187
-0.3541261664695003 0.01375130448243489
-0.3409724804234305 0.02385820175135338
-0.3672798525155701 0.03396509902027187
-0.3409724804234305 0.04407199628919037
-0.3804335385616399 0.05417889355810886
-0.39358722460770973 0.03396509902027187
-0.3672798525155701 0.02385820175135338
-0.3804335385616399 0.06428579082702736
-0.3541261664695003 0.07439268809594585
-0.31466510833129085 0.05417889355810886
-0.3409724804234305 0.05417889355810886
-0.3541261664695003 0.02385820175135338
-0.3409724804234305 0.01375130448243489
-0.3672798525155701 0.03396509902027187
-0.31466510833129085 0.04407199628919037
-0.28835773623915123 0.06428579082702736
-0.30151142228522104 0.06428579082702736
-0.31466510833129085 0.04407199628919037
-0.3409724804234305 0.04407199628919037
-0.4330482827459191 0.04407199628919037
-0.4462019687919889 0.05417889355810886
-0.4462019687919889 0.06428579082702736
-0.4330482827459191 0.06428579082702736
-0.3541261664695003 0.01375130448243489
-0.28835773623915123 -0.0064624900554020965
-0.10420613159417391 0.01375130448243489
0.14571390328115244 0.02385820175135338
0.3956339381564788 0.04407199628919037
0.6850150311700146 0.0036444072135163965
1.00070349627569 -0.0064624900554020965
1.2637772171970862 0.0036444072135163965
1.553158310210622 0.0036444072135163965
1.8425394032241578 0.05417889355810886
2.158227868329833 0.05417889355810886
2.447608961343369 0.05417889355810886
2.723836368310835 0.04407199628919037
2.7764511124951143 0.02385820175135338
2.671221624126556 0.02385820175135338
2.460762647389439 0.04407199628919037
2.1319204962376936 0.03396509902027187
1.5268509381184823 0.02385820175135338
0.5929392288475259 0.02385820175135338
-0.2752040501930814 0.05417889355810886
-0.7881978059898039 0.1451409689783753
-1.0249641548190604 0.1350340717094568
-1.0775788990033397 0.16535476351621228
-1.0907325850494096 0.16535476351621228
-0.9986567827269209 0.1451409689783753
-0.8802736083122926 0.1350340717094568
-0.8145051780819436 0.1451409689783753
-0.7881978059898039 0.1249271744405383
-0.7618904338976643 0.15524786624729378
-0.7881978059898039 0.1350340717094568
-0.7618904338976643 0.09460648263378284
-0.7750441199437341 0.09460648263378284
-0.8276588641280134 0.10471337990270133
-0.8276588641280134 0.10471337990270133
-0.8276588641280134 0.08449958536486434
-0.8145051780819436 0.08449958536486434
-0.853966236220153 0.04407199628919037
-0.9065809804044322 0.02385820175135338
-0.9197346664505021 0.02385820175135338
-0.9065809804044322 0.05417889355810886
-0.8408125501740832 0.03396509902027187
-0.8145051780819436 0.01375130448243489
-0.7355830618055247 -0.0064624900554020965
-0.7487367478515945 -0.0064624900554020965
-0.7618904338976643 -0.0064624900554020965
-0.7487367478515945 0.02385820175135338
-0.6961220036673154 0.03396509902027187
-0.7224293757594549 0.01375130448243489
-0.7355830618055247 -0.01656938732432059
-0.8013514920358737 -0.03678318186215757
-0.8276588641280134 -0.01656938732432059
-0.7881978059898039 -0.0064624900554020965
-0.6829683176212455 0.0036444072135163965
-0.6566609455291059 -0.0064624900554020965
-0.7092756897133852 0.0036444072135163965
-0.7487367478515945 -0.03678318186215757
-0.7750441199437341 -0.01656938732432059
-0.8145051780819436 -0.0064624900554020965
-0.7750441199437341 -0.0064624900554020965
-0.8145051780819436 -0.0064624900554020965
-0.7750441199437341 -0.04689007913107607
-0.7224293757594549 -0.03678318186215757
-0.6829683176212455 -0.03678318186215757
-0.6566609455291059 -0.02667628459323908
-0.6698146315751757 -0.01656938732432059
-0.7355830618055247 -0.0064624900554020965
-0.6961220036673154 -0.02667628459323908
-0.6698146315751757 -0.03678318186215757
-0.6698146315751757 -0.03678318186215757
-0.6698146315751757 0.0036444072135163965
-0.6566609455291059 -0.01656938732432059
-0.6435072594830361 -0.0064624900554020965
-0.6171998873908965 -0.01656938732432059
-0.6171998873908965 -0.02667628459323908
-0.6566609455291059 -0.03678318186215757
-0.6303535734369663 -0.03678318186215757
-0.6040462013448267 -0.01656938732432059
-0.5645851432066172 -0.01656938732432059
-0.577738829252687 -0.03678318186215757
-0.5382777711144776 -0.05699697639999456
-0.5251240850684078 -0.02667628459323908
-0.48566302693019836 -0.0064624900554020965
-0.48566302693019836 -0.01656938732432059
-0.4988167129762682 -0.01656938732432059
-0.4988167129762682 -0.03678318186215757
-0.48566302693019836 -0.05699697639999456
-0.4330482827459191 -0.03678318186215757
-0.3409724804234305 -0.01656938732432059
-0.2752040501930814 -0.0064624900554020965
-0.30151142228522104 0.02385820175135338
-0.32781879437736067 -0.01656938732432059
-0.3541261664695003 -0.02667628459323908
-0.3672798525155701 -0.0064624900554020965
-0.3541261664695003 -0.02667628459323908
-0.3409724804234305 -0.0064624900554020965
-0.31466510833129085 0.0036444072135163965
-0.30151142228522104 -0.03678318186215757
-0.31466510833129085 -0.04689007913107607
-0.31466510833129085 -0.03678318186215757
-0.32781879437736067 0.01375130448243489
-0.2620503641470116 0.01375130448243489
-0.2752040501930814 0.01375130448243489
-0.28835773623915123 -0.0064624900554020965
-0.2752040501930814 -0.01656938732432059
-0.235742992054872 0.01375130448243489
-0.2225893060088022 0.0036444072135163965
-0.16997456182452295 0.02385820175135338
-0.19628193391666257 0.0036444072135163965
-0.18312824787059276 -0.0064624900554020965
-0.235742992054872 -0.01656938732432059
-0.30151142228522104 -0.01656938732432059
-0.28835773623915123 0.03396509902027187
-0.24889667810094182 0.02385820175135338
-0.2225893060088022 0.02385820175135338
-0.235742992054872 0.02385820175135338
-0.2752040501930814 0.0036444072135163965
-0.31466510833129085 0.01375130448243489
-0.3409724804234305 0.04407199628919037
-0.32781879437736067 0.03396509902027187
-0.3672798525155701 0.04407199628919037
-0.40674091065377954 0.04407199628919037
-0.4462019687919889 0.02385820175135338
-0.4462019687919889 0.02385820175135338
-0.45935565483805874 0.05417889355810886
-0.48566302693019836 0.07439268809594585
-0.48566302693019836 0.04407199628919037
-0.47250934088412855 0.01375130448243489
-0.47250934088412855 0.03396509902027187
-0.45935565483805874 0.02385820175135338
-0.47250934088412855 0.07439268809594585
-0.48566302693019836 0.07439268809594585
-0.5251240850684078 0.06428579082702736
-0.5514314571605474 0.02385820175135338
-0.5908925152987569 0.02385820175135338
-0.577738829252687 0.04407199628919037
-0.5514314571605474 0.07439268809594585
-0.4988167129762682 0.06428579082702736
-0.511970399022338 0.05417889355810886
-0.5514314571605474 0.04407199628919037
-0.5908925152987569 0.01375130448243489
-0.6435072594830361 0.03396509902027187
-0.6566609455291059 0.04407199628919037
-0.6566609455291059 0.05417889355810886
-0.6698146315751757 0.05417889355810886
-0.6566609455291059 0.03396509902027187
-0.6698146315751757 0.03396509902027187
-0.6566609455291059 0.06428579082702736
-0.6435072594830361 0.08449958536486434
-0.6435072594830361 0.08449958536486434
-0.6171998873908965 0.07439268809594585
-0.6040462013448267 0.07439268809594585
-0.6829683176212455 0.03396509902027187
-0.6698146315751757 0.05417889355810886
-0.7224293757594549 0.04407199628919037
-0.7092756897133852 0.06428579082702736
-0.7092756897133852 0.07439268809594585
-0.7224293757594549 0.03396509902027187
-0.7618904338976643 0.03396509902027187
-0.7750441199437341 0.02385820175135338
-0.7618904338976643 0.06428579082702736
-0.7224293757594549 0.06428579082702736
-0.7092756897133852 0.06428579082702736
-0.7092756897133852 0.04407199628919037
-0.7487367478515945 0.03396509902027187
-0.7750441199437341 0.02385820175135338
-0.7618904338976643 0.04407199628919037
-0.7750441199437341 0.06428579082702736
-0.7881978059898039 0.05417889355810886
-0.7881978059898039 0.02385820175135338
-0.8408125501740832 0.01375130448243489
-0.8671199222662228 0.04407199628919037
-0.7750441199437341 0.03396509902027187
-0.7618904338976643 0.05417889355810886
-0.7750441199437341 0.05417889355810886
-0.7618904338976643 0.04407199628919037
-0.8013514920358737 0.01375130448243489
-0.8013514920358737 0.03396509902027187
-0.8013514920358737 0.05417889355810886
-0.7618904338976643 0.06428579082702736
-0.7618904338976643 0.06428579082702736
-0.7618904338976643 0.02385820175135338
-0.8013514920358737 0.02385820175135338
-0.8013514920358737 0.02385820175135338
-0.7750441199437341 0.04407199628919037
-0.7355830618055247 0.07439268809594585
-0.7092756897133852 0.04407199628919037
-0.6961220036673154 0.03396509902027187
-0.7092756897133852 0.02385820175135338
-0.6698146315751757 0.04407199628919037
-0.6435072594830361 0.05417889355810886
-0.6303535734369663 0.06428579082702736
-0.6829683176212455 0.03396509902027187
-0.7224293757594549 0.03396509902027187
-0.7355830618055247 0.02385820175135338
-0.6961220036673154 0.02385820175135338
-0.7092756897133852 0.02385820175135338
-0.6829683176212455 0.06428579082702736
-0.6961220036673154 0.04407199628919037
-0.7355830618055247 0.02385820175135338
-0.7487367478515945 0.02385820175135338
-0.7355830618055247 0.02385820175135338
-0.7092756897133852 0.02385820175135338
-0.6961220036673154 0.02385820175135338
-0.6829683176212455 0.02385820175135338
-0.7092756897133852 -0.0064624900554020965
-0.7487367478515945 -0.0064624900554020965
-0.7618904338976643 0.0036444072135163965
-0.6829683176212455 0.0036444072135163965
-0.6303535734369663 0.02385820175135338
-0.6303535734369663 0.02385820175135338
-0.6040462013448267 -0.01656938732432059
-0.6303535734369663 -0.02667628459323908
-0.6040462013448267 -0.0064624900554020965
-0.6171998873908965 0.02385820175135338
-0.6040462013448267 0.03396509902027187
-0.6040462013448267 0.03396509902027187
-0.6566609455291059 -0.0064624900554020965
-0.6829683176212455 -0.0064624900554020965
-0.6961220036673154 0.01375130448243489
-0.6829683176212455 0.02385820175135338
-0.6961220036673154 0.05417889355810886
-0.6961220036673154 0.05417889355810886
-0.7355830618055247 0.03396509902027187
-0.7618904338976643 0.0036444072135163965
-0.7881978059898039 0.01375130448243489
-0.7487367478515945 0.04407199628919037
-0.6829683176212455 0.04407199628919037
-0.6566609455291059 0.04407199628919037
-0.6698146315751757 0.04407199628919037
-0.6698146315751757 0.0036444072135163965
-0.6698146315751757 0.01375130448243489
-0.6435072594830361 0.05417889355810886
-0.6171998873908965 0.05417889355810886
-0.6566609455291059 0.04407199628919037
-0.6698146315751757 0.03396509902027187
-0.6829683176212455 0.0036444072135163965
-0.7092756897133852 0.02385820175135338
-0.6435072594830361 0.04407199628919037
-0.6040462013448267 0.05417889355810886
-0.577738829252687 0.05417889355810886
-0.5645851432066172 0.03396509902027187
-0.6171998873908965 0.02385820175135338
-0.6698146315751757 0.01375130448243489
-0.6961220036673154 0.04407199628919037
-0.6829683176212455 0.04407199628919037
-0.5908925152987569 0.03396509902027187
-0.4330482827459191 0.0036444072135163965
-0.2752040501930814 -0.01656938732432059
-0.10420613159417391 -0.0064624900554020965
0.0667917870047336 0.02385820175135338
0.31671182188006 0.04407199628919037
0.5271707986171769 0.03396509902027187
0.7639371474464335 -0.0064624900554020965
0.9743961241835504 -0.01656938732432059
1.2243161590588767 -0.0064624900554020965
1.487389879980273 0.02385820175135338
1.8030783450859484 0.03396509902027187
2.026691007869135 0.05417889355810886
2.2108426125141123 0.05417889355810886
2.3292257869287405 0.02385820175135338
2.316072100882671 0.03396509902027187
2.1319204962376936 0.03396509902027187
1.8162320311320181 0.06428579082702736
1.276930903243156 0.04407199628919037
0.43509499629468823 0.06428579082702736
-0.4330482827459191 0.05417889355810886
-0.9591957245887115 0.1451409689783753
-1.261730503648317 0.15524786624729378
-1.4458821082932944 0.17546166078513079
-1.551111596661853 0.18556855805404926
-1.5116505385236434 0.18556855805404926
-1.3538063059708056 0.16535476351621228
-1.1828083873718982 0.16535476351621228
-1.1038862710954793 0.17546166078513079
-1.0381178408651304 0.1451409689783753
-1.0249641548190604 0.1350340717094568
-0.9591957245887115 0.10471337990270133
-0.9197346664505021 0.11482027717161981
-0.8934272943583624 0.10471337990270133
-0.8802736083122926 0.10471337990270133
-0.853966236220153 0.09460648263378284
-0.8671199222662228 0.07439268809594585
-0.853966236220153 0.05417889355810886
-0.8408125501740832 0.01375130448243489
-0.8145051780819436 0.03396509902027187
-0.8671199222662228 0.03396509902027187
-0.7750441199437341 0.02385820175135338
-0.7750441199437341 0.02385820175135338
-0.7750441199437341 -0.0064624900554020965
-0.7618904338976643 -0.02667628459323908
-0.7224293757594549 -0.0064624900554020965
-0.7092756897133852 0.0036444072135163965
-0.6698146315751757 0.0036444072135163965
-0.7092756897133852 -0.02667628459323908
-0.6961220036673154 -0.0064624900554020965
-0.7224293757594549 -0.02667628459323908
-0.6961220036673154 -0.0064624900554020965
-0.6961220036673154 0.0036444072135163965
-0.6829683176212455 -0.0064624900554020965
-0.6829683176212455 0.0036444072135163965
-0.6961220036673154 -0.03678318186215757
-0.7092756897133852 -0.01656938732432059
-0.6961220036673154 0.0036444072135163965
-0.6303535734369663 0.01375130448243489
-0.6040462013448267 -0.0064624900554020965
-0.6040462013448267 -0.0064624900554020965
-0.6171998873908965 -0.01656938732432059
-0.6829683176212455 -0.03678318186215757
-0.6829683176212455 -0.0064624900554020965
-0.6566609455291059 -0.02667628459323908
-0.5645851432066172 -0.0064624900554020965
-0.5514314571605474 0.01375130448243489
-0.5514314571605474 -0.0064624900554020965
-0.5382777711144776 -0.01656938732432059
-0.5908925152987569 -0.0064624900554020965
-0.5908925152987569 -0.0064624900554020965
-0.511970399022338 -0.0064624900554020965
-0.45935565483805874 -0.0064624900554020965
-0.45935565483805874 -0.01656938732432059
-0.48566302693019836 -0.04689007913107607
-0.47250934088412855 -0.04689007913107607
-0.4462019687919889 0.0036444072135163965
-0.4198945966998493 -0.0064624900554020965
-0.4198945966998493 0.0036444072135163965
-0.4330482827459191 -0.03678318186215757
-0.4198945966998493 -0.05699697639999456
-0.40674091065377954 -0.04689007913107607
-0.3541261664695003 -0.02667628459323908
-0.28835773623915123 -0.0064624900554020965
-0.2752040501930814 0.0036444072135163965
-0.24889667810094182 -0.04689007913107607
-0.28835773623915123 -0.06710387366891306
-0.28835773623915123 -0.04689007913107607
-0.28835773623915123 -0.01656938732432059
-0.2225893060088022 -0.02667628459323908
-0.235742992054872 -0.01656938732432059
-0.20943561996273238 -0.05699697639999456
-0.2225893060088022 -0.04689007913107607
-0.235742992054872 -0.03678318186215757
-0.19628193391666257 -0.02667628459323908
-0.15682087577845316 -0.02667628459323908
-0.10420613159417391 -0.02667628459323908
-0.11735981764024372 -0.02667628459323908
-0.13051350368631354 -0.03678318186215757
-0.16997456182452295 -0.01656938732432059
-0.14366718973238335 -0.01656938732432059
-0.0778987595020343 0.02385820175135338
-0.051591387409894676 0.02385820175135338
-0.0778987595020343 -0.0064624900554020965
-0.0778987595020343 -0.02667628459323908
-0.06474507345596449 0.0036444072135163965
-0.012130329271685253 0.01375130448243489
0.0010233567743845565 0.04407199628919037
0.0010233567743845565 0.03396509902027187
-0.03843770136382487 -0.0064624900554020965
-0.051591387409894676 -0.02667628459323908
-0.0778987595020343 0.0036444072135163965
-0.06474507345596449 0.03396509902027187
-0.03843770136382487 0.03396509902027187
-0.06474507345596449 0.03396509902027187
-0.10420613159417391 0.02385820175135338
-0.14366718973238335 0.0036444072135163965
-0.13051350368631354 0.02385820175135338
-0.11735981764024372 0.04407199628919037
-0.13051350368631354 0.05417889355810886
-0.0910524455481041 0.04407199628919037
-0.13051350368631354 0.03396509902027187
-0.18312824787059276 0.0036444072135163965
-0.16997456182452295 0.03396509902027187
-0.18312824787059276 0.05417889355810886
-0.15682087577845316 0.04407199628919037
-0.15682087577845316 0.07439268809594585
-0.18312824787059276 0.01375130448243489
-0.15682087577845316 0.02385820175135338
-0.19628193391666257 0.03396509902027187
-0.19628193391666257 0.04407199628919037
-0.2225893060088022 0.04407199628919037
-0.235742992054872 0.06428579082702736
-0.24889667810094182 0.04407199628919037
-0.20943561996273238 0.0036444072135163965
-0.235742992054872 0.02385820175135338
-0.2620503641470116 0.04407199628919037
-0.2225893060088022 0.06428579082702736
-0.20943561996273238 0.07439268809594585
-0.24889667810094182 0.02385820175135338
-0.28835773623915123 0.03396509902027187
-0.31466510833129085 0.04407199628919037
-0.2620503641470116 0.05417889355810886
-0.235742992054872 0.04407199628919037
-0.235742992054872 0.06428579082702736
-0.2225893060088022 0.04407199628919037
-0.28835773623915123 0.03396509902027187
-0.24889667810094182 0.05417889355810886
-0.28835773623915123 0.07439268809594585
-0.235742992054872 0.07439268809594585
-0.2752040501930814 0.06428579082702736
-0.28835773623915123 0.06428579082702736
-0.30151142228522104 0.03396509902027187
-0.28835773623915123 0.04407199628919037
-0.28835773623915123 0.08449958536486434
-0.2752040501930814 0.07439268809594585
-0.2620503641470116 0.08449958536486434
-0.2620503641470116 0.08449958536486434
-0.28835773623915123 0.04407199628919037
-0.28835773623915123 0.05417889355810886
-0.30151142228522104 0.05417889355810886
-0.2620503641470116 0.08449958536486434
-0.2620503641470116 0.07439268809594585
-0.2620503641470116 0.07439268809594585
-0.20943561996273238 0.06428579082702736
-0.19628193391666257 0.06428579082702736
-0.15682087577845316 0.09460648263378284
-0.10420613159417391 0.08449958536486434
-0.16997456182452295 0.09460648263378284
-0.20943561996273238 0.06428579082702736
-0.24889667810094182 0.04407199628919037
-0.2620503641470116 0.06428579082702736
-0.19628193391666257 0.07439268809594585
-0.11735981764024372 0.10471337990270133
-0.0778987595020343 0.09460648263378284
-0.012130329271685253 0.07439268809594585
-0.025284015317755062 0.07439268809594585
-0.03843770136382487 0.05417889355810886
-0.11735981764024372 0.07439268809594585
-0.14366718973238335 0.07439268809594585
-0.14366718973238335 0.09460648263378284
-0.0910524455481041 0.08449958536486434
-0.10420613159417391 0.05417889355810886
-0.06474507345596449 0.04407199628919037
-0.025284015317755062 0.06428579082702736
-0.0910524455481041 0.06428579082702736
-0.2620503641470116 0.03396509902027187
-0.3804335385616399 0.02385820175135338
-0.3804335385616399 0.01375130448243489
-0.31466510833129085 0.02385820175135338
-0.2225893060088022 0.04407199628919037
-0.16997456182452295 0.04407199628919037
-0.2225893060088022 0.04407199628919037
-0.2225893060088022 0.01375130448243489
-0.235742992054872 -0.0064624900554020965
-0.20943561996273238 0.0036444072135163965
-0.19628193391666257 0.03396509902027187
-0.14366718973238335 0.03396509902027187
-0.11735981764024372 0.04407199628919037
-0.0910524455481041 0.03396509902027187
-0.10420613159417391 0.03396509902027187
-0.10420613159417391 0.05417889355810886
-0.0910524455481041 0.05417889355810886
-0.11735981764024372 0.06428579082702736
-0.11735981764024372 0.05417889355810886
-0.14366718973238335 0.05417889355810886
-0.15682087577845316 0.02385820175135338
-0.15682087577845316 0.05417889355810886
-0.11735981764024372 0.05417889355810886
-0.0778987595020343 0.08449958536486434
-0.13051350368631354 0.08449958536486434
-0.14366718973238335 0.07439268809594585
-0.18312824787059276 0.05417889355810886
-0.15682087577845316 0.05417889355810886
-0.0910524455481041 0.07439268809594585
-0.0778987595020343 0.07439268809594585
-0.0778987595020343 0.06428579082702736
-0.0778987595020343 0.06428579082702736
-0.11735981764024372 0.05417889355810886
-0.06474507345596449 0.04407199628919037
-0.025284015317755062 0.07439268809594585
0.04048441491259398 0.06428579082702736
-0.0778987595020343 0.07439268809594585
0.027330728866524174 0.05417889355810886
0.014177042820454365 0.04407199628919037
-0.051591387409894676 0.04407199628919037
-0.025284015317755062 0.05417889355810886
0.014177042820454365 0.07439268809594585
0.0010233567743845565 0.08449958536486434
-0.051591387409894676 0.02385820175135338
-0.03843770136382487 0.01375130448243489
0.0010233567743845565 0.02385820175135338
0.09309915909687322 0.06428579082702736
0.1983286474654317 0.03396509902027187
0.30355813583399016 0.02385820175135338
0.43509499629468823 0.0036444072135163965
0.5797855428014561 -0.0064624900554020965
0.8033982055846429 0.01375130448243489
1.0401645544138995 0.02385820175135338
1.2243161590588767 0.02385820175135338
1.3953140776577844 0.01375130448243489
1.6452341125331107 0.01375130448243489
1.960922577638786 -0.0064624900554020965
2.316072100882671 0.02385820175135338
2.671221624126556 0.05417889355810886
2.973756403186161 0.06428579082702736
3.184215379923278 0.06428579082702736
3.2894448682918367 0.04407199628919037
3.2631374961996973 0.02385820175135338
3.0921395776007894 0.03396509902027187
2.8027584845872537 0.05417889355810886
2.1976889264680426 0.03396509902027187
1.1848551009206674 0.03396509902027187
0.17202127537329207 0.04407199628919037
-0.45935565483805874 0.10471337990270133
-0.7487367478515945 0.1249271744405383
-0.8408125501740832 0.17546166078513079
-0.8408125501740832 0.17546166078513079
-0.8145051780819436 0.17546166078513079
-0.7487367478515945 0.15524786624729378
-0.6566609455291059 0.1350340717094568
-0.5251240850684078 0.1249271744405383
-0.4330482827459191 0.1451409689783753
-0.3672798525155701 0.1350340717094568
-0.32781879437736067 0.11482027717161981
-0.28835773623915123 0.11482027717161981
-0.2752040501930814 0.07439268809594585
-0.30151142228522104 0.09460648263378284
-0.30151142228522104 0.1249271744405383
-0.28835773623915123 0.09460648263378284
-0.3541261664695003 0.10471337990270133
-0.3541261664695003 0.07439268809594585
-0.32781879437736067 0.02385820175135338
-0.31466510833129085 0.03396509902027187
-0.28835773623915123 0.06428579082702736
-0.20943561996273238 0.06428579082702736
-0.20943561996273238 0.05417889355810886
-0.16997456182452295 0.03396509902027187
-0.18312824787059276 -0.0064624900554020965
-0.16997456182452295 0.02385820175135338
-0.15682087577845316 0.02385820175135338
-0.11735981764024372 0.02385820175135338
-0.0910524455481041 0.03396509902027187
-0.0778987595020343 0.0036444072135163965
-0.13051350368631354 -0.0064624900554020965
-0.13051350368631354 0.01375130448243489
-0.13051350368631354 0.06428579082702736
-0.03843770136382487 0.04407199628919037
-0.0778987595020343 0.03396509902027187
-0.0910524455481041 0.0036444072135163965
-0.10420613159417391 -0.0064624900554020965
-0.13051350368631354 0.02385820175135338
-0.0910524455481041 0.02385820175135338
-0.0778987595020343 0.04407199628919037
-0.0778987595020343 0.02385820175135338
-0.051591387409894676 0.01375130448243489
-0.03843770136382487 -0.02667628459323908
-0.03843770136382487 0.0036444072135163965
-0.025284015317755062 0.02385820175135338
-0.012130329271685253 0.01375130448243489
0.0010233567743845565 0.03396509902027187
0.027330728866524174 0.0036444072135163965
0.027330728866524174 -0.01656938732432059
-0.012130329271685253 -0.0064624900554020965
0.014177042820454365 0.02385820175135338
0.04048441491259398 0.01375130448243489
0.0010233567743845565 0.0036444072135163965
0.04048441491259398 0.0036444072135163965
0.027330728866524174 -0.0064624900554020965
0.04048441491259398 -0.0064624900554020965
0.0667917870047336 0.0036444072135163965
0.0799454730508034 0.02385820175135338
0.10625284514294303 0.02385820175135338
0.13256021723508266 -0.0064624900554020965
0.14571390328115244 -0.02667628459323908
0.13256021723508266 -0.01656938732432059
0.18517496141936188 0.0036444072135163965
0.2509433916497109 0.01375130448243489
0.23778970560364113 -0.0064624900554020965
0.22463601955757131 -0.01656938732432059
0.2509433916497109 -0.01656938732432059
0.23778970560364113 -0.03678318186215757
0.29040444978792035 -0.01656938732432059
0.3298655079261298 0.0036444072135163965
0.3298655079261298 -0.0064624900554020965
0.31671182188006 -0.04689007913107607
0.30355813583399016 -0.03678318186215757
0.31671182188006 -0.04689007913107607
0.3693265660643392 0.01375130448243489
0.4219413102486184 0.0036444072135163965
0.4219413102486184 -0.0064624900554020965
0.3956339381564788 0.01375130448243489
0.38248025211040904 -0.03678318186215757
0.4219413102486184 -0.03678318186215757
0.4219413102486184 -0.0064624900554020965
0.46140236838682785 -0.0064624900554020965
0.46140236838682785 -0.0064624900554020965
0.46140236838682785 -0.01656938732432059
0.47455605443289767 -0.03678318186215757
0.4877097404789675 -0.0064624900554020965
0.514017112571107 -0.0064624900554020965
0.5403244846632467 0.02385820175135338
0.5534781707093165 0.03396509902027187
0.5403244846632467 0.0036444072135163965
0.5271707986171769 -0.02667628459323908
0.5534781707093165 0.0036444072135163965
0.5403244846632467 0.03396509902027187
0.5797855428014561 0.03396509902027187
0.5534781707093165 0.04407199628919037
0.5271707986171769 0.0036444072135163965
0.5008634265250372 0.0036444072135163965
0.47455605443289767 0.02385820175135338
0.46140236838682785 0.03396509902027187
0.46140236838682785 0.05417889355810886
0.47455605443289767 0.04407199628919037
0.46140236838682785 0.02385820175135338
0.43509499629468823 0.02385820175135338
0.4087876242025486 0.04407199628919037
0.43509499629468823 0.05417889355810886
0.43509499629468823 0.07439268809594585
0.4087876242025486 0.05417889355810886
0.3956339381564788 0.01375130448243489
0.3430191939721996 0.0036444072135163965
0.3561728800182694 0.02385820175135338
0.3693265660643392 0.04407199628919037
0.38248025211040904 0.07439268809594585
0.31671182188006 0.05417889355810886
0.31671182188006 0.04407199628919037
0.29040444978792035 0.01375130448243489
0.30355813583399016 0.02385820175135338
0.31671182188006 0.06428579082702736
0.3430191939721996 0.06428579082702736
0.3430191939721996 0.06428579082702736
0.3298655079261298 0.04407199628919037
0.29040444978792035 0.05417889355810886
0.23778970560364113 0.04407199628919037
0.22463601955757131 0.06428579082702736
0.2640970776957807 0.04407199628919037
0.2640970776957807 0.05417889355810886
0.2509433916497109 0.05417889355810886
0.2114823335115015 0.02385820175135338
0.2114823335115015 0.03396509902027187
0.23778970560364113 0.06428579082702736
0.27725076374185054 0.06428579082702736
0.2509433916497109 0.05417889355810886
0.23778970560364113 0.02385820175135338
0.15886758932722225 0.01375130448243489
0.15886758932722225 0.03396509902027187
0.18517496141936188 0.05417889355810886
0.1983286474654317 0.07439268809594585
0.1983286474654317 0.06428579082702736
0.18517496141936188 0.03396509902027187
0.17202127537329207 0.01375130448243489
0.13256021723508266 0.04407199628919037
0.13256021723508266 0.02385820175135338
0.13256021723508266 0.04407199628919037
0.11940653118901283 0.03396509902027187
0.14571390328115244 0.04407199628919037
0.14571390328115244 0.02385820175135338
0.11940653118901283 0.03396509902027187
0.11940653118901283 0.04407199628919037
0.15886758932722225 0.06428579082702736
0.15886758932722225 0.05417889355810886
0.17202127537329207 0.03396509902027187
0.14571390328115244 0.03396509902027187
0.15886758932722225 0.02385820175135338
0.17202127537329207 0.06428579082702736
0.2114823335115015 0.07439268809594585
0.22463601955757131 0.08449958536486434
0.23778970560364113 0.06428579082702736
0.22463601955757131 0.05417889355810886
0.2114823335115015 0.07439268809594585
0.18517496141936188 0.08449958536486434
0.18517496141936188 0.10471337990270133
0.17202127537329207 0.08449958536486434
0.11940653118901283 0.06428579082702736
0.13256021723508266 0.04407199628919037
0.09309915909687322 0.04407199628919037
0.10625284514294303 0.03396509902027187
0.13256021723508266 0.07439268809594585
0.10625284514294303 0.04407199628919037
0.0667917870047336 0.02385820175135338
0.027330728866524174 0.0036444072135163965
0.09309915909687322 0.0036444072135163965
0.0799454730508034 0.0036444072135163965
0.10625284514294303 0.02385820175135338
0.11940653118901283 0.01375130448243489
0.13256021723508266 0.0036444072135163965
0.11940653118901283 -0.0064624900554020965
0.14571390328115244 0.0036444072135163965
0.13256021723508266 0.02385820175135338
0.1983286474654317 0.01375130448243489
0.2114823335115015 0.01375130448243489
0.2509433916497109 -0.0064624900554020965
0.2640970776957807 -0.02667628459323908
0.23778970560364113 0.0036444072135163965
0.23778970560364113 0.04407199628919037
0.2509433916497109 0.03396509902027187
0.23778970560364113 0.03396509902027187
0.1983286474654317 0.0036444072135163965
0.14571390328115244 0.01375130448243489
0.14571390328115244 0.01375130448243489
0.14571390328115244 0.03396509902027187
0.15886758932722225 0.04407199628919037
0.14571390328115244 0.03396509902027187
0.13256021723508266 0.01375130448243489
0.13256021723508266 0.0036444072135163965
0.13256021723508266 0.03396509902027187
0.17202127537329207 0.02385820175135338
0.18517496141936188 0.02385820175135338
0.15886758932722225 0.03396509902027187
0.15886758932722225 0.0036444072135163965
0.14571390328115244 -0.02667628459323908
0.15886758932722225 -0.0064624900554020965
0.18517496141936188 0.02385820175135338
0.18517496141936188 0.03396509902027187
0.15886758932722225 0.03396509902027187
0.15886758932722225 0.01375130448243489
0.17202127537329207 0.0036444072135163965
0.15886758932722225 0.02385820175135338
0.22463601955757131 0.04407199628919037
0.23778970560364113 0.05417889355810886
0.1983286474654317 0.03396509902027187
0.15886758932722225 0.01375130448243489
0.17202127537329207 0.02385820175135338
0.14571390328115244 0.03396509902027187
0.15886758932722225 0.03396509902027187
0.14571390328115244 0.04407199628919037
0.17202127537329207 0.01375130448243489
0.2640970776957807 -0.0064624900554020965
0.38248025211040904 -0.03678318186215757
0.5534781707093165 0.0036444072135163965
0.7639371474464335 0.0036444072135163965
0.9612424381374806 0.01375130448243489
1.211162473012807 0.0036444072135163965
1.4347751357959937 -0.0064624900554020965
1.6583877985791804 -0.03678318186215757
1.8688467753162974 -0.02667628459323908
2.1976889264680426 0.01375130448243489
2.526531077619788 0.02385820175135338
2.8290658566793936 0.04407199628919037
3.1052932636468595 0.02385820175135338
3.2894448682918367 0.05417889355810886
3.4472891008446744 0.05417889355810886
3.4341354147986047 0.04407199628919037
3.3025985543379064 0.03396509902027187
2.947449031094022 0.01375130448243489
2.250303670652322 -0.01656938732432059
1.276930903243156 -0.01656938732432059
0.3693265660643392 0.05417889355810886
-0.14366718973238335 0.09460648263378284
-0.39358722460770973 0.1249271744405383
-0.5645851432066172 0.1249271744405383
-0.6040462013448267 0.11482027717161981
-0.5382777711144776 0.11482027717161981
-0.4330482827459191 0.1350340717094568
-0.30151142228522104 0.17546166078513079
-0.11735981764024372 0.1451409689783753
-0.06474507345596449 0.1451409689783753
-0.025284015317755062 0.10471337990270133
-0.03843770136382487 0.07439268809594585
-0.012130329271685253 0.10471337990270133
-0.025284015317755062 0.09460648263378284
-0.012130329271685253 0.11482027717161981
-0.03843770136382487 0.10471337990270133
-0.0778987595020343 0.08449958536486434
-0.13051350368631354 0.03396509902027187
-0.15682087577845316 0.05417889355810886
-0.13051350368631354 0.06428579082702736
-0.0910524455481041 0.05417889355810886
-0.0778987595020343 0.03396509902027187
-0.06474507345596449 0.03396509902027187
-0.025284015317755062 0.0036444072135163965
0.05363810095866379 -0.0064624900554020965
0.11940653118901283 0.02385820175135338
0.15886758932722225 0.01375130448243489
0.17202127537329207 0.01375130448243489
0.13256021723508266 -0.0064624900554020965
0.0799454730508034 -0.01656938732432059
0.05363810095866379 0.01375130448243489
0.09309915909687322 0.04407199628919037
0.18517496141936188 0.05417889355810886
0.2509433916497109 0.03396509902027187
0.27725076374185054 0.01375130448243489
0.1983286474654317 0.0036444072135163965
0.0799454730508034 0.01375130448243489
-0.025284015317755062 0.04407199628919037
-0.051591387409894676 0.03396509902027187
-0.06474507345596449 0.01375130448243489
-0.025284015317755062 0.02385820175135338
-0.012130329271685253 -0.0064624900554020965
-0.03843770136382487 0.02385820175135338
-0.13051350368631354 0.04407199628919037
-0.19628193391666257 0.03396509902027187
-0.2225893060088022 0.02385820175135338
-0.16997456182452295 0.02385820175135338
-0.0910524455481041 0.01375130448243489
-0.012130329271685253 0.02385820175135338
0.027330728866524174 0.04407199628919037
0.027330728866524174 0.04407199628919037
0.05363810095866379 0.01375130448243489
0.0667917870047336 -0.0064624900554020965
0.0667917870047336 -0.02667628459323908
0.04048441491259398 0.01375130448243489
0.05363810095866379 0.02385820175135338
0.11940653118901283 0.03396509902027187
0.15886758932722225 0.01375130448243489
0.1983286474654317 -0.0064624900554020965
0.22463601955757131 -0.0064624900554020965
0.2509433916497109 0.0036444072135163965
0.30355813583399016 0.02385820175135338
0.30355813583399016 0.02385820175135338
0.2640970776957807 0.01375130448243489
0.22463601955757131 0.0036444072135163965
0.1983286474654317 -0.0064624900554020965
0.22463601955757131 0.01375130448243489
0.27725076374185054 0.03396509902027187
0.3693265660643392 0.01375130448243489
0.4219413102486184 0.03396509902027187
0.44824868234075804 0.02385820175135338
0.47455605443289767 0.02385820175135338
0.47455605443289767 0.0036444072135163965
0.4877097404789675 0.04407199628919037
0.5534781707093165 0.01375130448243489
0.6455539730318052 0.03396509902027187
0.6981687172160844 0.02385820175135338
0.6324002869857354 0.02385820175135338
0.5008634265250372 0.03396509902027187
0.38248025211040904 0.04407199628919037
0.27725076374185054 0.04407199628919037
0.2114823335115015 0.07439268809594585
0.17202127537329207 0.04407199628919037
0.2114823335115015 0.03396509902027187
0.22463601955757131 0.02385820175135338
0.2509433916497109 0.06428579082702736
0.27725076374185054 0.07439268809594585
0.31671182188006 0.07439268809594585
0.3430191939721996 0.04407199628919037
0.3298655079261298 0.03396509902027187
0.3693265660643392 0.05417889355810886
0.44824868234075804 0.09460648263378284
0.5534781707093165 0.10471337990270133
0.6192466009396655 0.09460648263378284
0.5797855428014561 0.06428579082702736
0.5403244846632467 0.06428579082702736
0.5797855428014561 0.07439268809594585
0.6060929148935957 0.09460648263378284
0.6324002869857354 0.10471337990270133
0.5929392288475259 0.09460648263378284
0.5666318567553863 0.08449958536486434
0.5403244846632467 0.04407199628919037
0.5271707986171769 0.09460648263378284
0.5271707986171769 0.10471337990270133
0.5271707986171769 0.08449958536486434
0.4877097404789675 0.08449958536486434
0.47455605443289767 0.06428579082702736
0.47455605443289767 0.06428579082702736
0.4877097404789675 0.05417889355810886
0.5271707986171769 0.10471337990270133
0.514017112571107 0.09460648263378284
0.5008634265250372 0.09460648263378284
0.4877097404789675 0.06428579082702736
0.4219413102486184 0.05417889355810886
0.4219413102486184 0.07439268809594585
0.43509499629468823 0.09460648263378284
0.44824868234075804 0.09460648263378284
0.38248025211040904 0.09460648263378284
0.3956339381564788 0.07439268809594585
0.3298655079261298 0.06428579082702736
0.3430191939721996 0.07439268809594585
0.3956339381564788 0.07439268809594585
0.38248025211040904 0.10471337990270133
0.3693265660643392 0.08449958536486434
0.3561728800182694 0.05417889355810886
0.31671182188006 0.06428579082702736
0.31671182188006 0.07439268809594585
0.30355813583399016 0.05417889355810886
0.3430191939721996 0.08449958536486434
0.3430191939721996 0.08449958536486434
0.3298655079261298 0.06428579082702736
0.31671182188006 0.03396509902027187
0.30355813583399016 0.02385820175135338
0.3298655079261298 0.05417889355810886
0.30355813583399016 0.05417889355810886
0.3298655079261298 0.06428579082702736
0.2640970776957807 0.06428579082702736
0.23778970560364113 0.05417889355810886
0.22463601955757131 0.05417889355810886
0.30355813583399016 0.07439268809594585
0.3561728800182694 0.07439268809594585
0.3298655079261298 0.06428579082702736
0.31671182188006 0.04407199628919037
0.31671182188006 0.04407199628919037
0.3430191939721996 0.05417889355810886
0.4087876242025486 0.07439268809594585
0.4877097404789675 0.07439268809594585
0.514017112571107 0.08449958536486434
0.514017112571107 0.06428579082702736
0.47455605443289767 0.05417889355810886
0.4087876242025486 0.05417889355810886
0.3298655079261298 0.06428579082702736
0.2640970776957807 0.09460648263378284
0.2509433916497109 0.06428579082702736
0.2114823335115015 0.04407199628919037
0.17202127537329207 0.04407199628919037
0.18517496141936188 0.04407199628919037
0.1983286474654317 0.07439268809594585
0.1983286474654317 0.08449958536486434
0.17202127537329207 0.10471337990270133
0.15886758932722225 0.07439268809594585
0.15886758932722225 0.06428579082702736
0.18517496141936188 0.05417889355810886
0.2114823335115015 0.06428579082702736
0.22463601955757131 0.09460648263378284
0.17202127537329207 0.1249271744405383
0.17202127537329207 0.06428579082702736
0.15886758932722225 0.05417889355810886
0.11940653118901283 0.06428579082702736
0.13256021723508266 0.07439268809594585
0.10625284514294303 0.06428579082702736
0.05363810095866379 0.05417889355810886
0.0799454730508034 0.02385820175135338
0.0667917870047336 0.02385820175135338
0.05363810095866379 0.04407199628919037
0.0799454730508034 0.06428579082702736
0.11940653118901283 0.05417889355810886
0.0667917870047336 0.05417889355810886
0.027330728866524174 0.04407199628919037
-0.025284015317755062 0.03396509902027187
-0.03843770136382487 0.03396509902027187
-0.03843770136382487 0.04407199628919037
0.027330728866524174 0.06428579082702736
0.0010233567743845565 0.06428579082702736
0.0010233567743845565 0.05417889355810886
0.04048441491259398 0.05417889355810886
0.014177042820454365 0.06428579082702736
0.04048441491259398 0.08449958536486434
0.0799454730508034 0.06428579082702736
0.0799454730508034 0.06428579082702736
0.05363810095866379 0.05417889355810886
0.05363810095866379 0.02385820175135338
0.05363810095866379 0.04407199628919037
0.0799454730508034 0.07439268809594585
0.11940653118901283 0.06428579082702736
0.10625284514294303 0.06428579082702736
0.10625284514294303 0.06428579082702736
0.0799454730508034 0.05417889355810886
0.0667917870047336 0.04407199628919037
0.10625284514294303 0.06428579082702736
0.09309915909687322 0.06428579082702736
0.13256021723508266 0.07439268809594585
0.10625284514294303 0.05417889355810886
0.04048441491259398 0.03396509902027187
0.014177042820454365 0.05417889355810886
-0.051591387409894676 0.08449958536486434
0.014177042820454365 0.06428579082702736
0.09309915909687322 0.05417889355810886
0.2640970776957807 0.03396509902027187
0.4877097404789675 0.03396509902027187
0.7113224032621542 0.05417889355810886
0.9349350660453409 0.09460648263378284
1.1848551009206674 0.06428579082702736
1.4610825078881333 0.06428579082702736
1.6715414846252503 0.06428579082702736
1.9214615195005766 0.03396509902027187
2.2108426125141123 0.07439268809594585
2.5396847636658575 0.11482027717161981
2.921141659001882 0.11482027717161981
3.0921395776007894 0.1350340717094568
3.0395248334165106 0.09460648263378284
2.710682682264765 0.08449958536486434
2.3292257869287405 0.1249271744405383
1.7767709729938088 0.1249271744405383
1.0927792985981786 0.15524786624729378
0.3561728800182694 0.17546166078513079
-0.18312824787059276 0.20578235259188626
-0.4988167129762682 0.20578235259188626
-0.6435072594830361 0.2563168389364787
-0.6040462013448267 0.2765306334743157
-0.45935565483805874 0.2765306334743157
-0.31466510833129085 0.28663753074323417
-0.2620503641470116 0.2563168389364787
-0.2752040501930814 0.19567545532296776
