2.158227868329833 -0.6533039152661856
1.7110025427634596 -0.703838401610778
0.9086276939532013 -0.6735177098040226
0.0667917870047336 -0.5825556343837561
-0.5251240850684078 -0.3804176890053863
-0.8145051780819436 -0.23892112724052741
-0.9065809804044322 -0.09742456547566854
-0.8408125501740832 -0.02667628459323908
-0.7355830618055247 0.01375130448243489
-0.6040462013448267 0.02385820175135338
-0.5908925152987569 0.03396509902027187
-0.577738829252687 0.08449958536486434
-0.5251240850684078 0.1350340717094568
-0.4330482827459191 0.15524786624729378
-0.4330482827459191 0.16535476351621228
-0.4988167129762682 0.15524786624729378
-0.6040462013448267 0.16535476351621228
-0.5908925152987569 0.16535476351621228
-0.5514314571605474 0.15524786624729378
-0.511970399022338 0.15524786624729378
-0.48566302693019836 0.17546166078513079
-0.511970399022338 0.1249271744405383
-0.48566302693019836 0.15524786624729378
-0.4462019687919889 0.16535476351621228
-0.40674091065377954 0.20578235259188626
-0.30151142228522104 0.19567545532296776
-0.28835773623915123 0.17546166078513079
-0.30151142228522104 0.18556855805404926
-0.2752040501930814 0.18556855805404926
-0.28835773623915123 0.20578235259188626
-0.28835773623915123 0.23610304439864171
-0.24889667810094182 0.22599614712972324
-0.235742992054872 0.2563168389364787
-0.20943561996273238 0.20578235259188626
-0.19628193391666257 0.15524786624729378
-0.0910524455481041 0.16535476351621228
-0.0910524455481041 0.16535476351621228
-0.15682087577845316 0.1350340717094568
-0.3541261664695003 0.18556855805404926
-0.48566302693019836 0.19567545532296776
-0.5382777711144776 0.23610304439864171
-0.4462019687919889 0.24620994166756022
-0.4198945966998493 0.3068513252810712
-0.3541261664695003 0.2664237362053972
-0.3541261664695003 0.24620994166756022
-0.3409724804234305 0.23610304439864171
-0.3541261664695003 0.18556855805404926
-0.3541261664695003 0.18556855805404926
-0.3409724804234305 0.20578235259188626
-0.30151142228522104 0.23610304439864171
-0.2752040501930814 0.2563168389364787
-0.24889667810094182 0.24620994166756022
-0.2620503641470116 0.20578235259188626
-0.2752040501930814 0.19567545532296776
-0.2752040501930814 0.18556855805404926
-0.2620503641470116 0.20578235259188626
-0.2620503641470116 0.22599614712972324
-0.24889667810094182 0.19567545532296776
-0.2752040501930814 0.17546166078513079
-0.28835773623915123 0.18556855805404926
-0.2620503641470116 0.21588924986080474
-0.20943561996273238 0.21588924986080474
-0.16997456182452295 0.20578235259188626
-0.19628193391666257 0.22599614712972324
-0.24889667810094182 0.22599614712972324
-0.24889667810094182 0.2563168389364787
-0.24889667810094182 0.2563168389364787
-0.20943561996273238 0.23610304439864171
-0.2225893060088022 0.23610304439864171
-0.19628193391666257 0.23610304439864171
-0.16997456182452295 0.22599614712972324
-0.15682087577845316 0.23610304439864171
-0.14366718973238335 0.22599614712972324
-0.14366718973238335 0.22599614712972324
-0.15682087577845316 0.22599614712972324
-0.11735981764024372 0.22599614712972324
-0.10420613159417391 0.20578235259188626
-0.0910524455481041 0.21588924986080474
-0.13051350368631354 0.24620994166756022
-0.14366718973238335 0.2765306334743157
-0.15682087577845316 0.2967444280121527
-0.0910524455481041 0.2664237362053972
-0.0910524455481041 0.2563168389364787
-0.11735981764024372 0.2563168389364787
-0.16997456182452295 0.24620994166756022
-0.16997456182452295 0.2664237362053972
-0.0910524455481041 0.2765306334743157
-0.051591387409894676 0.24620994166756022
-0.03843770136382487 0.23610304439864171
-0.025284015317755062 0.2563168389364787
0.0010233567743845565 0.2967444280121527
0.027330728866524174 0.2967444280121527
0.0010233567743845565 0.2664237362053972
0.014177042820454365 0.2765306334743157
0.027330728866524174 0.2563168389364787
0.0799454730508034 0.2563168389364787
0.11940653118901283 0.2664237362053972
0.17202127537329207 0.2664237362053972
0.14571390328115244 0.2765306334743157
0.05363810095866379 0.2563168389364787
0.0010233567743845565 0.22599614712972324
0.04048441491259398 0.21588924986080474
0.0799454730508034 0.23610304439864171
0.0667917870047336 0.24620994166756022
0.0667917870047336 0.22599614712972324
0.05363810095866379 0.18556855805404926
0.05363810095866379 0.18556855805404926
0.0667917870047336 0.20578235259188626
0.04048441491259398 0.20578235259188626
0.0667917870047336 0.21588924986080474
0.027330728866524174 0.18556855805404926
-0.012130329271685253 0.20578235259188626
-0.03843770136382487 0.19567545532296776
-0.012130329271685253 0.19567545532296776
-0.012130329271685253 0.19567545532296776
0.027330728866524174 0.20578235259188626
-0.025284015317755062 0.20578235259188626
-0.06474507345596449 0.18556855805404926
-0.10420613159417391 0.17546166078513079
-0.10420613159417391 0.17546166078513079
-0.06474507345596449 0.18556855805404926
-0.051591387409894676 0.17546166078513079
-0.051591387409894676 0.16535476351621228
-0.0778987595020343 0.18556855805404926
-0.10420613159417391 0.15524786624729378
-0.15682087577845316 0.15524786624729378
-0.16997456182452295 0.16535476351621228
-0.16997456182452295 0.17546166078513079
-0.14366718973238335 0.16535476351621228
-0.13051350368631354 0.17546166078513079
-0.16997456182452295 0.18556855805404926
-0.18312824787059276 0.21588924986080474
-0.19628193391666257 0.24620994166756022
-0.19628193391666257 0.21588924986080474
-0.16997456182452295 0.19567545532296776
-0.16997456182452295 0.17546166078513079
-0.14366718973238335 0.17546166078513079
-0.14366718973238335 0.18556855805404926
-0.16997456182452295 0.17546166078513079
-0.19628193391666257 0.15524786624729378
-0.235742992054872 0.18556855805404926
-0.2225893060088022 0.18556855805404926
-0.24889667810094182 0.17546166078513079
-0.24889667810094182 0.19567545532296776
-0.19628193391666257 0.19567545532296776
-0.15682087577845316 0.18556855805404926
-0.18312824787059276 0.21588924986080474
-0.20943561996273238 0.20578235259188626
-0.24889667810094182 0.19567545532296776
-0.235742992054872 0.19567545532296776
-0.2620503641470116 0.17546166078513079
-0.19628193391666257 0.17546166078513079
-0.13051350368631354 0.1451409689783753
-0.0778987595020343 0.1350340717094568
-0.0778987595020343 0.15524786624729378
-0.012130329271685253 0.1350340717094568
0.027330728866524174 0.15524786624729378
0.09309915909687322 0.1451409689783753
0.13256021723508266 0.1249271744405383
0.18517496141936188 0.07439268809594585
0.1983286474654317 0.0036444072135163965
0.17202127537329207 0.02385820175135338
0.0667917870047336 0.0036444072135163965
-0.012130329271685253 0.01375130448243489
0.027330728866524174 -0.0064624900554020965
0.0667917870047336 -0.06710387366891306
0.0010233567743845565 -0.127745257282424
-0.235742992054872 -0.1378521545513425
-0.5908925152987569 -0.147959051820261
-1.1038862710954793 -0.11763836001350551
-1.8799537478135981 -0.08731766820675003
-2.7612507129002752 -0.02667628459323908
-3.616240305894813 0.08449958536486434
-4.300231980290443 0.28663753074323417
-4.852686794225375 0.47866857885268554
-5.15522157328498 0.6201651406175445
-5.247297375607469 0.7515548051134848
-5.247297375607469 0.8020892914580773
-5.20783631746926 0.8425168805337513
-5.063145770962492 0.9132651614161807
-4.905301538409654 0.9941203395675287
-4.655381503534327 1.0648686204499582
-4.458076212843281 1.044654825912121
-4.116080375645465 1.0345479286432027
-3.8398529686779996 1.0345479286432027
-3.458396073341975 1.0951893122567136
-2.984863375683462 1.1760444904080616
-2.5376380501170885 1.1962582849458985
-2.379793817564251 1.206365182214817
-2.3534864454721114 1.206365182214817
-2.4455622477945997 1.1962582849458985
-2.45871593384067 1.267006565828328
-2.366640131518181 1.2771134630972465
-2.169334840827134 1.3377548467107574
-2.037797980366436 1.3478617439796758
-1.8668000617675282 1.3579686412485945
-1.7089558292146907 1.307434154904002
-1.5642652827079226 1.246792771290491
-1.3932673641090152 1.2164720794837356
-1.2091157594640378 1.1760444904080616
-1.1038862710954793 1.1558306958702245
-0.9855030966808511 1.0850824149877951
-0.9065809804044322 0.9840134422986102
-0.7618904338976643 0.9132651614161807
-0.5514314571605474 0.8627306750715883
-0.28835773623915123 0.8526237778026697
-0.13051350368631354 0.7414479078445664
0.014177042820454365 0.6302720378864629
0.13256021723508266 0.48877547612160405
0.2640970776957807 0.36749270889458213
0.44824868234075804 0.2664237362053972
0.6192466009396655 0.1350340717094568
0.6981687172160844 0.04407199628919037
0.7376297753542939 -0.0064624900554020965
0.7113224032621542 -0.02667628459323908
0.8033982055846429 -0.03678318186215757
0.8954740079071315 -0.05699697639999456
0.9743961241835504 -0.127745257282424
1.1322403567363881 -0.16817284635809798
1.2243161590588767 -0.19849353816485346
1.2637772171970862 -0.23892112724052741
1.2900845892892259 -0.22881422997160894
1.2243161590588767 -0.24902802450944592
1.1059329846442485 -0.24902802450944592
1.0796256125521089 -0.24902802450944592
1.1322403567363881 -0.24902802450944592
1.2900845892892259 -0.2894556135851199
1.3953140776577844 -0.2995625108540384
1.408467763703854 -0.31977630539187535
1.2374698451049466 -0.2995625108540384
0.9217813799992711 -0.2793487163162014
0.7507834614003637 -0.24902802450944592
0.8033982055846429 -0.22881422997160894
0.9612424381374806 -0.16817284635809798
1.1717014148745974 -0.15806594908917948
1.3690067055656447 -0.20860043543377196
1.421621449749924 -0.2894556135851199
1.421621449749924 -0.36020389446754936
1.3821603916117144 -0.3804176890053863
1.421621449749924 -0.37031079173646786
1.5136972520724126 -0.35009699719863085
1.5400046241645522 -0.37031079173646786
1.5663119962566918 -0.36020389446754936
1.6057730543949011 -0.37031079173646786
1.5926193683488314 -0.4006314835432233
1.6320804264870408 -0.4107383808121418
1.68469517067132 -0.4208452780810603
1.7373099148555993 -0.4208452780810603
1.7241562288095296 -0.45116596988781577
1.7373099148555993 -0.46127286715673427
1.7241562288095296 -0.4915935589634897
1.763617286947739 -0.5118073535013268
1.8030783450859484 -0.4915935589634897
1.8820004613623673 -0.5219142507702452
1.8820004613623673 -0.5219142507702452
1.8688467753162974 -0.5421280453080822
1.8556930892702277 -0.5017004562324082
1.8425394032241578 -0.46127286715673427
1.829385717178088 -0.4309521753499788
1.8688467753162974 -0.46127286715673427
1.895154147408437 -0.5118073535013268
1.9214615195005766 -0.5219142507702452
1.8688467753162974 -0.5219142507702452
1.8425394032241578 -0.45116596988781577
1.8688467753162974 -0.47137976442565277
1.8688467753162974 -0.46127286715673427
1.8162320311320181 -0.48148666169457127
1.7504636009016692 -0.4915935589634897
1.68469517067132 -0.48148666169457127
1.69784885671739 -0.4309521753499788
1.6583877985791804 -0.4208452780810603
1.618926740440971 -0.44105907261889726
1.5794656823027615 -0.4208452780810603
1.5005435660263426 -0.46127286715673427
1.421621449749924 -0.4006314835432233
1.3821603916117144 -0.37031079173646786
1.3558530195195748 -0.35009699719863085
1.2900845892892259 -0.4107383808121418
1.276930903243156 -0.44105907261889726
1.198008786966737 -0.4309521753499788
1.1322403567363881 -0.48148666169457127
1.0401645544138995 -0.45116596988781577
0.9349350660453409 -0.3804176890053863
0.9217813799992711 -0.35009699719863085
0.8560129497689222 -0.33999009992971235
0.8297055776767825 -0.36020389446754936
0.7902445195385731 -0.32988320266079385
0.7507834614003637 -0.32988320266079385
0.7113224032621542 -0.2894556135851199
0.6981687172160844 -0.2591349217783644
0.6981687172160844 -0.2591349217783644
0.5403244846632467 -0.21870733270269044
0.3430191939721996 -0.21870733270269044
0.15886758932722225 -0.15806594908917948
0.10625284514294303 -0.11763836001350551
0.14571390328115244 -0.07721077093783155
0.15886758932722225 -0.05699697639999456
0.1983286474654317 -0.09742456547566854
0.15886758932722225 -0.09742456547566854
0.14571390328115244 -0.06710387366891306
0.14571390328115244 -0.03678318186215757
0.17202127537329207 -0.02667628459323908
0.13256021723508266 0.01375130448243489
0.13256021723508266 -0.02667628459323908
0.09309915909687322 -0.0064624900554020965
0.0667917870047336 0.0036444072135163965
0.18517496141936188 0.0036444072135163965
0.3430191939721996 0.07439268809594585
0.5666318567553863 0.0036444072135163965
0.5929392288475259 -0.01656938732432059
0.4219413102486184 -0.02667628459323908
0.18517496141936188 -0.05699697639999456
-0.025284015317755062 0.0036444072135163965
-0.19628193391666257 0.05417889355810886
-0.3541261664695003 0.1350340717094568
-0.39358722460770973 0.1350340717094568
-0.4198945966998493 0.1350340717094568
-0.3672798525155701 0.1249271744405383
-0.2752040501930814 0.1249271744405383
-0.19628193391666257 0.11482027717161981
-0.16997456182452295 0.07439268809594585
-0.15682087577845316 0.04407199628919037
-0.16997456182452295 0.03396509902027187
-0.16997456182452295 0.07439268809594585
-0.13051350368631354 0.07439268809594585
-0.0910524455481041 0.07439268809594585
-0.0910524455481041 0.05417889355810886
-0.13051350368631354 0.05417889355810886
-0.19628193391666257 0.02385820175135338
-0.19628193391666257 0.05417889355810886
-0.19628193391666257 0.05417889355810886
-0.15682087577845316 0.05417889355810886
-0.13051350368631354 0.04407199628919037
-0.11735981764024372 0.03396509902027187
-0.13051350368631354 0.03396509902027187
-0.15682087577845316 0.06428579082702736
-0.11735981764024372 0.07439268809594585
-0.051591387409894676 0.09460648263378284
-0.0778987595020343 0.07439268809594585
-0.10420613159417391 0.06428579082702736
-0.19628193391666257 0.02385820175135338
-0.20943561996273238 0.04407199628919037
-0.2225893060088022 0.05417889355810886
-0.16997456182452295 0.08449958536486434
-0.19628193391666257 0.06428579082702736
-0.20943561996273238 0.07439268809594585
-0.2225893060088022 0.05417889355810886
-0.18312824787059276 0.07439268809594585
-0.19628193391666257 0.11482027717161981
-0.18312824787059276 0.1249271744405383
-0.20943561996273238 0.10471337990270133
-0.2225893060088022 0.1249271744405383
-0.235742992054872 0.11482027717161981
-0.19628193391666257 0.10471337990270133
-0.15682087577845316 0.08449958536486434
-0.13051350368631354 0.06428579082702736
-0.13051350368631354 0.04407199628919037
-0.19628193391666257 0.02385820175135338
-0.2752040501930814 0.0036444072135163965
-0.30151142228522104 0.05417889355810886
-0.30151142228522104 0.06428579082702736
-0.2620503641470116 0.08449958536486434
-0.2620503641470116 0.06428579082702736
-0.28835773623915123 0.03396509902027187
-0.31466510833129085 0.03396509902027187
-0.31466510833129085 0.04407199628919037
-0.2620503641470116 0.09460648263378284
-0.19628193391666257 0.08449958536486434
-0.2225893060088022 0.06428579082702736
-0.2225893060088022 0.04407199628919037
-0.235742992054872 0.05417889355810886
-0.2620503641470116 0.05417889355810886
-0.30151142228522104 0.06428579082702736
-0.2752040501930814 0.06428579082702736
-0.31466510833129085 0.06428579082702736
-0.30151142228522104 0.05417889355810886
-0.3409724804234305 0.03396509902027187
-0.3541261664695003 0.05417889355810886
-0.3409724804234305 0.09460648263378284
-0.31466510833129085 0.10471337990270133
-0.2752040501930814 0.10471337990270133
-0.2620503641470116 0.06428579082702736
-0.2620503641470116 0.04407199628919037
-0.24889667810094182 0.06428579082702736
-0.18312824787059276 0.09460648263378284
-0.15682087577845316 0.1451409689783753
-0.14366718973238335 0.1350340717094568
-0.16997456182452295 0.10471337990270133
-0.2225893060088022 0.07439268809594585
-0.24889667810094182 0.04407199628919037
-0.3409724804234305 0.05417889355810886
-0.31466510833129085 0.07439268809594585
-0.235742992054872 0.06428579082702736
-0.16997456182452295 0.0036444072135163965
-0.2225893060088022 -0.0064624900554020965
-0.235742992054872 0.01375130448243489
-0.235742992054872 0.04407199628919037
-0.235742992054872 0.06428579082702736
-0.20943561996273238 0.07439268809594585
-0.20943561996273238 0.05417889355810886
-0.24889667810094182 0.02385820175135338
-0.24889667810094182 0.02385820175135338
-0.19628193391666257 0.04407199628919037
-0.18312824787059276 0.04407199628919037
-0.20943561996273238 0.04407199628919037
-0.2225893060088022 0.03396509902027187
-0.24889667810094182 0.03396509902027187
-0.24889667810094182 0.04407199628919037
-0.2225893060088022 0.04407199628919037
-0.20943561996273238 0.02385820175135338
-0.24889667810094182 0.01375130448243489
-0.2752040501930814 0.02385820175135338
-0.30151142228522104 0.03396509902027187
-0.30151142228522104 0.07439268809594585
-0.2752040501930814 0.09460648263378284
-0.2225893060088022 0.09460648263378284
-0.16997456182452295 0.08449958536486434
-0.15682087577845316 0.06428579082702736
-0.18312824787059276 0.04407199628919037
-0.16997456182452295 0.06428579082702736
-0.14366718973238335 0.07439268809594585
-0.10420613159417391 0.05417889355810886
-0.16997456182452295 0.02385820175135338
-0.18312824787059276 0.0036444072135163965
-0.19628193391666257 0.02385820175135338
-0.14366718973238335 0.04407199628919037
-0.11735981764024372 0.1249271744405383
-0.051591387409894676 0.1350340717094568
-0.012130329271685253 0.1451409689783753
0.04048441491259398 0.07439268809594585
0.04048441491259398 0.02385820175135338
0.027330728866524174 0.03396509902027187
0.027330728866524174 0.04407199628919037
0.04048441491259398 0.03396509902027187
0.027330728866524174 0.0036444072135163965
0.027330728866524174 -0.04689007913107607
0.014177042820454365 -0.05699697639999456
-0.051591387409894676 -0.04689007913107607
-0.10420613159417391 -0.03678318186215757
-0.11735981764024372 0.0036444072135163965
-0.03843770136382487 0.0036444072135163965
-0.025284015317755062 -0.02667628459323908
0.0010233567743845565 -0.04689007913107607
0.014177042820454365 -0.04689007913107607
0.014177042820454365 0.0036444072135163965
-0.012130329271685253 0.0036444072135163965
0.0010233567743845565 0.01375130448243489
0.04048441491259398 0.0036444072135163965
-0.03843770136382487 -0.03678318186215757
-0.11735981764024372 -0.03678318186215757
-0.16997456182452295 -0.01656938732432059
-0.14366718973238335 -0.0064624900554020965
-0.11735981764024372 -0.0064624900554020965
-0.0910524455481041 -0.05699697639999456
-0.15682087577845316 -0.05699697639999456
-0.15682087577845316 -0.03678318186215757
-0.0778987595020343 -0.0064624900554020965
0.05363810095866379 -0.02667628459323908
0.04048441491259398 -0.05699697639999456
-0.10420613159417391 -0.09742456547566854
-0.30151142228522104 -0.07721077093783155
-0.3409724804234305 -0.0064624900554020965
-0.3409724804234305 0.01375130448243489
-0.2620503641470116 0.02385820175135338
-0.24889667810094182 0.02385820175135338
-0.235742992054872 0.0036444072135163965
-0.15682087577845316 -0.0064624900554020965
-0.10420613159417391 0.0036444072135163965
-0.051591387409894676 -0.0064624900554020965
-0.0778987595020343 -0.02667628459323908
-0.0910524455481041 -0.03678318186215757
-0.14366718973238335 -0.05699697639999456
-0.20943561996273238 -0.01656938732432059
-0.15682087577845316 -0.01656938732432059
-0.10420613159417391 0.0036444072135163965
0.0010233567743845565 -0.01656938732432059
-0.025284015317755062 -0.05699697639999456
-0.13051350368631354 -0.06710387366891306
-0.235742992054872 -0.04689007913107607
-0.24889667810094182 -0.01656938732432059
-0.16997456182452295 0.01375130448243489
-0.0910524455481041 0.0036444072135163965
-0.0910524455481041 -0.02667628459323908
-0.0910524455481041 -0.05699697639999456
-0.14366718973238335 -0.08731766820675003
-0.14366718973238335 -0.07721077093783155
-0.11735981764024372 -0.03678318186215757
-0.012130329271685253 -0.03678318186215757
0.2114823335115015 -0.03678318186215757
0.47455605443289767 -0.05699697639999456
0.7376297753542939 -0.09742456547566854
0.9480887520914107 -0.09742456547566854
1.0927792985981786 -0.07721077093783155
1.3163919613813655 -0.10753146274458703
1.4742361939342032 -0.127745257282424
1.7241562288095296 -0.21870733270269044
1.9214615195005766 -0.22881422997160894
2.118766810191624 -0.2793487163162014
2.2897647287905314 -0.2995625108540384
2.460762647389439 -0.35009699719863085
2.658067938080486 -0.47137976442565277
2.7764511124951143 -0.5623418398459192
2.789604798541184 -0.6330901207283487
2.710682682264765 -0.6735177098040226
2.513377391573718 -0.6937315043418596
2.1450741822837633 -0.7543728879553706
1.4479288218420636 -0.7846935797621261
0.43509499629468823 -0.724052196148615
-0.40674091065377954 -0.5825556343837561
-0.8671199222662228 -0.46127286715673427
-1.0381178408651304 -0.35009699719863085
-1.1433473292336889 -0.2995625108540384
-1.2091157594640378 -0.2692418190472829
-1.2485768176022474 -0.22881422997160894
-1.1565010152797586 -0.17827974362701648
-1.0512715269112 -0.147959051820261
-0.9591957245887115 -0.09742456547566854
-0.8276588641280134 -0.09742456547566854
-0.8013514920358737 -0.10753146274458703
-0.7881978059898039 -0.11763836001350551
-0.7224293757594549 -0.10753146274458703
-0.6961220036673154 -0.10753146274458703
-0.6303535734369663 -0.07721077093783155
-0.5908925152987569 -0.09742456547566854
-0.5908925152987569 -0.127745257282424
-0.6435072594830361 -0.11763836001350551
-0.7750441199437341 -0.127745257282424
-0.7750441199437341 -0.05699697639999456
-0.7618904338976643 -0.02667628459323908
-0.6435072594830361 -0.0064624900554020965
-0.5645851432066172 -0.0064624900554020965
-0.5382777711144776 -0.04689007913107607
-0.577738829252687 -0.03678318186215757
-0.5908925152987569 -0.0064624900554020965
-0.5382777711144776 0.04407199628919037
-0.48566302693019836 0.03396509902027187
-0.4330482827459191 0.0036444072135163965
-0.45935565483805874 0.02385820175135338
-0.48566302693019836 -0.0064624900554020965
-0.47250934088412855 -0.0064624900554020965
-0.4198945966998493 -0.02667628459323908
-0.40674091065377954 -0.01656938732432059
-0.4198945966998493 -0.03678318186215757
-0.39358722460770973 -0.04689007913107607
-0.4462019687919889 -0.03678318186215757
-0.4988167129762682 -0.0064624900554020965
-0.511970399022338 0.01375130448243489
-0.4462019687919889 0.02385820175135338
-0.4198945966998493 0.01375130448243489
-0.3672798525155701 -0.02667628459323908
-0.4198945966998493 -0.08731766820675003
-0.4988167129762682 -0.07721077093783155
-0.5645851432066172 -0.05699697639999456
-0.5514314571605474 -0.02667628459323908
-0.47250934088412855 -0.04689007913107607
-0.4198945966998493 -0.06710387366891306
-0.45935565483805874 -0.06710387366891306
-0.4462019687919889 -0.0064624900554020965
-0.39358722460770973 0.02385820175135338
-0.3541261664695003 0.01375130448243489
-0.3541261664695003 0.01375130448243489
-0.31466510833129085 -0.02667628459323908
-0.3672798525155701 -0.02667628459323908
-0.3804335385616399 -0.03678318186215757
-0.4330482827459191 -0.02667628459323908
-0.39358722460770973 -0.01656938732432059
-0.3672798525155701 -0.01656938732432059
-0.31466510833129085 -0.02667628459323908
-0.3409724804234305 -0.06710387366891306
-0.3541261664695003 -0.02667628459323908
-0.32781879437736067 0.01375130448243489
-0.2620503641470116 0.0036444072135163965
-0.24889667810094182 0.0036444072135163965
-0.24889667810094182 -0.02667628459323908
-0.24889667810094182 -0.0064624900554020965
-0.2225893060088022 -0.0064624900554020965
-0.20943561996273238 0.0036444072135163965
-0.15682087577845316 0.0036444072135163965
-0.14366718973238335 0.01375130448243489
-0.16997456182452295 0.0036444072135163965
-0.20943561996273238 0.0036444072135163965
-0.20943561996273238 0.03396509902027187
-0.16997456182452295 0.05417889355810886
-0.11735981764024372 0.02385820175135338
-0.14366718973238335 0.0036444072135163965
-0.235742992054872 0.0036444072135163965
-0.19628193391666257 0.0036444072135163965
-0.14366718973238335 0.05417889355810886
-0.13051350368631354 0.06428579082702736
-0.20943561996273238 0.08449958536486434
-0.20943561996273238 0.07439268809594585
-0.19628193391666257 0.06428579082702736
-0.18312824787059276 0.02385820175135338
-0.18312824787059276 0.04407199628919037
-0.15682087577845316 0.04407199628919037
-0.13051350368631354 0.07439268809594585
-0.10420613159417391 0.06428579082702736
-0.10420613159417391 0.03396509902027187
-0.13051350368631354 0.01375130448243489
-0.13051350368631354 0.01375130448243489
-0.06474507345596449 0.04407199628919037
-0.03843770136382487 0.07439268809594585
-0.06474507345596449 0.05417889355810886
-0.11735981764024372 0.03396509902027187
-0.19628193391666257 0.03396509902027187
-0.14366718973238335 0.05417889355810886
-0.012130329271685253 0.07439268809594585
0.04048441491259398 0.06428579082702736
0.04048441491259398 0.09460648263378284
0.027330728866524174 0.06428579082702736
-0.025284015317755062 0.05417889355810886
-0.025284015317755062 0.06428579082702736
0.014177042820454365 0.06428579082702736
0.0799454730508034 0.04407199628919037
0.09309915909687322 0.04407199628919037
0.10625284514294303 -0.01656938732432059
0.11940653118901283 -0.04689007913107607
0.10625284514294303 -0.06710387366891306
0.0799454730508034 -0.02667628459323908
0.0667917870047336 -0.0064624900554020965
0.04048441491259398 0.01375130448243489
0.027330728866524174 -0.02667628459323908
-0.012130329271685253 -0.01656938732432059
0.014177042820454365 -0.01656938732432059
0.0799454730508034 -0.02667628459323908
0.11940653118901283 -0.01656938732432059
0.10625284514294303 -0.01656938732432059
0.0667917870047336 -0.02667628459323908
0.0799454730508034 -0.01656938732432059
0.0799454730508034 -0.03678318186215757
0.09309915909687322 -0.01656938732432059
0.11940653118901283 0.01375130448243489
0.0667917870047336 -0.02667628459323908
0.027330728866524174 -0.03678318186215757
0.027330728866524174 -0.03678318186215757
0.04048441491259398 -0.02667628459323908
0.05363810095866379 -0.01656938732432059
0.05363810095866379 -0.0064624900554020965
0.014177042820454365 -0.03678318186215757
0.027330728866524174 -0.05699697639999456
0.027330728866524174 -0.04689007913107607
0.04048441491259398 -0.04689007913107607
0.014177042820454365 -0.01656938732432059
0.014177042820454365 -0.01656938732432059
0.014177042820454365 -0.01656938732432059
0.014177042820454365 -0.01656938732432059
0.0010233567743845565 -0.05699697639999456
0.014177042820454365 -0.04689007913107607
-0.051591387409894676 -0.03678318186215757
-0.06474507345596449 -0.01656938732432059
-0.051591387409894676 -0.01656938732432059
-0.0778987595020343 -0.03678318186215757
-0.13051350368631354 -0.05699697639999456
-0.18312824787059276 -0.04689007913107607
-0.13051350368631354 -0.02667628459323908
-0.10420613159417391 -0.02667628459323908
-0.0778987595020343 -0.04689007913107607
-0.11735981764024372 -0.02667628459323908
-0.13051350368631354 -0.07721077093783155
-0.15682087577845316 -0.01656938732432059
-0.15682087577845316 0.01375130448243489
-0.14366718973238335 0.0036444072135163965
-0.13051350368631354 0.0036444072135163965
-0.10420613159417391 -0.0064624900554020965
-0.03843770136382487 -0.0064624900554020965
0.04048441491259398 0.0036444072135163965
0.11940653118901283 0.0036444072135163965
0.1983286474654317 -0.0064624900554020965
0.27725076374185054 -0.01656938732432059
0.3298655079261298 -0.06710387366891306
0.3693265660643392 -0.09742456547566854
0.47455605443289767 -0.127745257282424
0.46140236838682785 -0.147959051820261
0.4087876242025486 -0.15806594908917948
0.3693265660643392 -0.1378521545513425
0.3298655079261298 -0.18838664089593496
0.3298655079261298 -0.22881422997160894
0.3693265660643392 -0.24902802450944592
0.31671182188006 -0.3096694081229569
0.027330728866524174 -0.37031079173646786
-0.4988167129762682 -0.3905245862743048
-1.3538063059708056 -0.4309521753499788
-2.366640131518181 -0.4208452780810603
-3.326859212881277 -0.2894556135851199
-4.1818488058758145 -0.147959051820261
-4.852686794225375 -0.0064624900554020965
-5.286758433745678 0.15524786624729378
-5.484063724436726 0.2664237362053972
-5.418295294206376 0.35738581162566363
-5.352526863976028 0.4483478870459301
-5.286758433745678 0.508989270659441
-5.1946826314231895 0.589844448810789
-5.063145770962492 0.6403789351553815
-4.878994166317515 0.6706996269621369
-4.642227817488258 0.6909134214999739
-4.431768840751141 0.7616617023824034
-4.1818488058758145 0.8425168805337513
-3.866160340770139 0.9233720586850992
-3.471549759388045 1.0547617231810396
-2.9980170617295316 1.1255100040634691
-2.6560212245317167 1.1760444904080616
-2.379793817564251 1.1760444904080616
-2.248256957103553 1.226578976752654
-2.1430274687349944 1.2568996685594096
-1.958875864090017 1.267006565828328
-1.7484168873529 1.2366858740215725
-1.537957910615783 1.18615138767698
-1.3669599920168756 1.1558306958702245
-1.2222694455101077 1.1255100040634691
-1.0512715269112 1.105296209525632
-0.9065809804044322 1.0951893122567136
-0.7487367478515945 1.044654825912121
-0.6171998873908965 0.9536927504918548
-0.40674091065377954 0.8627306750715883
-0.19628193391666257 0.7414479078445664
-0.012130329271685253 0.6403789351553815
0.13256021723508266 0.589844448810789
0.1983286474654317 0.49888237339052255
0.30355813583399016 0.35738581162566363
0.5403244846632467 0.22599614712972324
0.8297055776767825 0.10471337990270133
1.0927792985981786 0.02385820175135338
1.1717014148745974 -0.05699697639999456
1.1059329846442485 -0.1378521545513425
1.0533182404599692 -0.16817284635809798
1.0664719265060392 -0.17827974362701648
1.211162473012807 -0.20860043543377196
1.3426993334735051 -0.20860043543377196
1.3690067055656447 -0.2591349217783644
1.3295456474274352 -0.2894556135851199
1.2637772171970862 -0.2894556135851199
1.2637772171970862 -0.24902802450944592
1.3558530195195748 -0.20860043543377196
1.487389879980273 -0.18838664089593496
1.4742361939342032 -0.17827974362701648
1.3821603916117144 -0.20860043543377196
1.3163919613813655 -0.2591349217783644
1.3690067055656447 -0.31977630539187535
1.5005435660263426 -0.3804176890053863
1.6583877985791804 -0.4309521753499788
1.7241562288095296 -0.45116596988781577
1.829385717178088 -0.4915935589634897
1.8556930892702277 -0.5118073535013268
1.8030783450859484 -0.46127286715673427
1.7110025427634596 -0.45116596988781577
1.7373099148555993 -0.46127286715673427
1.7241562288095296 -0.44105907261889726
1.763617286947739 -0.45116596988781577
1.8030783450859484 -0.48148666169457127
1.8425394032241578 -0.47137976442565277
1.9083078334545067 -0.44105907261889726
1.9872299497309256 -0.44105907261889726
2.026691007869135 -0.46127286715673427
2.0529983799612745 -0.5118073535013268
2.0661520660073447 -0.5219142507702452
2.105613124145554 -0.4915935589634897
2.118766810191624 -0.46127286715673427
2.2108426125141123 -0.47137976442565277
2.250303670652322 -0.5219142507702452
2.237149984606252 -0.5724487371148377
2.237149984606252 -0.5724487371148377
2.2897647287905314 -0.5623418398459192
2.3555331590208803 -0.5421280453080822
2.460762647389439 -0.5421280453080822
2.5396847636658575 -0.5522349425770007
2.5396847636658575 -0.6027694289215931
2.39499421715909 -0.6431970179972671
2.3292257869287405 -0.6330901207283487
2.3423794729748106 -0.5825556343837561
2.4213015892512293 -0.5623418398459192
2.460762647389439 -0.5926625316526747
2.434455275297299 -0.6330901207283487
2.39499421715909 -0.6533039152661856
2.4081479032051596 -0.6330901207283487
2.434455275297299 -0.6027694289215931
2.434455275297299 -0.6229832234594301
2.39499421715909 -0.6128763261905117
2.36868684506695 -0.6431970179972671
2.3555331590208803 -0.6533039152661856
2.3555331590208803 -0.6533039152661856
2.3818405311130197 -0.6431970179972671
2.4081479032051596 -0.6330901207283487
2.3555331590208803 -0.6229832234594301
2.250303670652322 -0.6533039152661856
2.171381554375903 -0.6431970179972671
2.171381554375903 -0.6330901207283487
2.171381554375903 -0.6128763261905117
2.1450741822837633 -0.5926625316526747
2.0793057520534144 -0.5825556343837561
2.0135373218230654 -0.6229832234594301
1.9346152055466463 -0.6128763261905117
1.895154147408437 -0.5926625316526747
1.8162320311320181 -0.5825556343837561
1.7767709729938088 -0.5421280453080822
1.7504636009016692 -0.5421280453080822
1.7110025427634596 -0.5320211480391637
1.6057730543949011 -0.5320211480391637
1.5268509381184823 -0.4915935589634897
1.4742361939342032 -0.47137976442565277
1.4347751357959937 -0.44105907261889726
1.408467763703854 -0.45116596988781577
1.3558530195195748 -0.48148666169457127
1.2506235311510163 -0.44105907261889726
1.1848551009206674 -0.4006314835432233
1.1322403567363881 -0.37031079173646786
1.0533182404599692 -0.36020389446754936
0.9875498102296202 -0.32988320266079385
0.9349350660453409 -0.2995625108540384
0.9086276939532013 -0.2894556135851199
0.9217813799992711 -0.2793487163162014
0.869166635814992 -0.2591349217783644
0.8033982055846429 -0.22881422997160894
0.7770908334925033 -0.22881422997160894
0.7902445195385731 -0.2692418190472829
0.6981687172160844 -0.2692418190472829
0.6324002869857354 -0.22881422997160894
0.5797855428014561 -0.19849353816485346
0.5271707986171769 -0.147959051820261
0.514017112571107 -0.1378521545513425
0.47455605443289767 -0.10753146274458703
0.44824868234075804 -0.11763836001350551
0.47455605443289767 -0.07721077093783155
0.514017112571107 -0.06710387366891306
0.5271707986171769 -0.06710387366891306
0.5403244846632467 -0.04689007913107607
0.514017112571107 -0.08731766820675003
0.47455605443289767 -0.09742456547566854
0.44824868234075804 -0.04689007913107607
0.4219413102486184 -0.01656938732432059
0.43509499629468823 -0.02667628459323908
0.43509499629468823 -0.01656938732432059
0.3956339381564788 -0.0064624900554020965
0.38248025211040904 -0.02667628459323908
0.38248025211040904 0.01375130448243489
0.47455605443289767 0.0036444072135163965
0.5271707986171769 0.0036444072135163965
0.514017112571107 -0.02667628459323908
0.3693265660643392 -0.03678318186215757
0.17202127537329207 -0.05699697639999456
0.027330728866524174 -0.01656938732432059
-0.051591387409894676 0.03396509902027187
-0.11735981764024372 0.06428579082702736
-0.19628193391666257 0.07439268809594585
-0.19628193391666257 0.08449958536486434
-0.10420613159417391 0.07439268809594585
-0.025284015317755062 0.03396509902027187
0.027330728866524174 0.05417889355810886
0.0667917870047336 0.05417889355810886
0.09309915909687322 0.06428579082702736
0.09309915909687322 0.04407199628919037
0.0799454730508034 0.0036444072135163965
0.0799454730508034 0.03396509902027187
0.0799454730508034 0.03396509902027187
0.10625284514294303 0.04407199628919037
0.11940653118901283 0.04407199628919037
0.10625284514294303 0.01375130448243489
0.10625284514294303 0.01375130448243489
0.0667917870047336 0.02385820175135338
0.09309915909687322 0.04407199628919037
0.10625284514294303 0.01375130448243489
0.09309915909687322 0.03396509902027187
0.0799454730508034 0.0036444072135163965
0.04048441491259398 -0.0064624900554020965
0.04048441491259398 0.02385820175135338
0.027330728866524174 0.03396509902027187
0.014177042820454365 0.04407199628919037
-0.012130329271685253 0.03396509902027187
-0.012130329271685253 0.03396509902027187
-0.025284015317755062 0.05417889355810886
0.014177042820454365 0.03396509902027187
0.0010233567743845565 0.06428579082702736
0.014177042820454365 0.05417889355810886
0.027330728866524174 0.07439268809594585
0.0667917870047336 0.05417889355810886
0.05363810095866379 0.03396509902027187
0.027330728866524174 0.05417889355810886
0.014177042820454365 0.06428579082702736
-0.012130329271685253 0.05417889355810886
-0.012130329271685253 0.04407199628919037
-0.025284015317755062 0.03396509902027187
-0.03843770136382487 0.02385820175135338
-0.012130329271685253 0.03396509902027187
-0.03843770136382487 0.05417889355810886
-0.012130329271685253 0.05417889355810886
-0.012130329271685253 0.03396509902027187
-0.025284015317755062 0.01375130448243489
-0.051591387409894676 0.01375130448243489
-0.051591387409894676 0.03396509902027187
0.0010233567743845565 0.04407199628919037
0.04048441491259398 0.04407199628919037
0.04048441491259398 0.04407199628919037
0.027330728866524174 0.02385820175135338
0.0010233567743845565 0.04407199628919037
-0.03843770136382487 0.07439268809594585
-0.012130329271685253 0.08449958536486434
0.0010233567743845565 0.06428579082702736
-0.012130329271685253 0.05417889355810886
-0.051591387409894676 0.03396509902027187
-0.0778987595020343 0.02385820175135338
-0.0910524455481041 0.05417889355810886
-0.06474507345596449 0.06428579082702736
0.014177042820454365 0.07439268809594585
0.027330728866524174 0.04407199628919037
0.027330728866524174 0.03396509902027187
-0.012130329271685253 0.01375130448243489
-0.03843770136382487 0.04407199628919037
-0.10420613159417391 0.06428579082702736
-0.0910524455481041 0.08449958536486434
-0.012130329271685253 0.08449958536486434
0.05363810095866379 0.01375130448243489
0.10625284514294303 0.02385820175135338
0.17202127537329207 0.01375130448243489
0.2640970776957807 0.0036444072135163965
0.31671182188006 -0.0064624900554020965
0.2640970776957807 -0.0064624900554020965
0.17202127537329207 0.0036444072135163965
0.014177042820454365 -0.0064624900554020965
-0.06474507345596449 0.03396509902027187
-0.15682087577845316 0.04407199628919037
-0.235742992054872 0.06428579082702736
-0.24889667810094182 0.09460648263378284
-0.24889667810094182 0.06428579082702736
-0.2620503641470116 0.06428579082702736
-0.24889667810094182 0.07439268809594585
-0.2225893060088022 0.11482027717161981
-0.15682087577845316 0.1249271744405383
-0.11735981764024372 0.1249271744405383
-0.0910524455481041 0.09460648263378284
-0.11735981764024372 0.06428579082702736
-0.13051350368631354 0.07439268809594585
-0.0910524455481041 0.07439268809594585
-0.0778987595020343 0.09460648263378284
-0.03843770136382487 0.08449958536486434
-0.051591387409894676 0.06428579082702736
-0.10420613159417391 0.06428579082702736
-0.11735981764024372 0.07439268809594585
-0.11735981764024372 0.09460648263378284
-0.10420613159417391 0.10471337990270133
-0.03843770136382487 0.09460648263378284
-0.012130329271685253 0.07439268809594585
-0.051591387409894676 0.07439268809594585
-0.012130329271685253 0.07439268809594585
0.04048441491259398 0.08449958536486434
0.027330728866524174 0.06428579082702736
-0.012130329271685253 0.06428579082702736
0.0010233567743845565 0.06428579082702736
-0.025284015317755062 0.06428579082702736
0.0010233567743845565 0.08449958536486434
0.014177042820454365 0.05417889355810886
0.04048441491259398 0.06428579082702736
0.014177042820454365 0.05417889355810886
0.027330728866524174 0.05417889355810886
-0.025284015317755062 0.06428579082702736
-0.025284015317755062 0.07439268809594585
-0.012130329271685253 0.10471337990270133
0.027330728866524174 0.10471337990270133
0.11940653118901283 0.08449958536486434
0.10625284514294303 0.05417889355810886
0.0799454730508034 0.04407199628919037
0.0667917870047336 0.08449958536486434
0.05363810095866379 0.1350340717094568
0.09309915909687322 0.15524786624729378
0.09309915909687322 0.1451409689783753
0.0799454730508034 0.09460648263378284
0.0667917870047336 0.04407199628919037
0.0667917870047336 0.06428579082702736
0.0799454730508034 0.09460648263378284
0.11940653118901283 0.07439268809594585
0.0799454730508034 0.09460648263378284
0.0667917870047336 0.07439268809594585
0.027330728866524174 0.06428579082702736
-0.025284015317755062 0.05417889355810886
-0.03843770136382487 0.08449958536486434
-0.03843770136382487 0.07439268809594585
-0.012130329271685253 0.04407199628919037
-0.06474507345596449 0.02385820175135338
-0.10420613159417391 0.01375130448243489
-0.06474507345596449 0.01375130448243489
-0.051591387409894676 0.03396509902027187
0.0010233567743845565 0.02385820175135338
-0.012130329271685253 0.02385820175135338
-0.051591387409894676 -0.01656938732432059
-0.11735981764024372 0.0036444072135163965
-0.10420613159417391 0.01375130448243489
-0.025284015317755062 0.0036444072135163965
0.027330728866524174 0.0036444072135163965
0.0010233567743845565 0.01375130448243489
-0.051591387409894676 0.0036444072135163965
-0.10420613159417391 -0.01656938732432059
-0.06474507345596449 0.0036444072135163965
-0.012130329271685253 0.04407199628919037
0.04048441491259398 0.06428579082702736
0.0667917870047336 0.06428579082702736
0.05363810095866379 0.04407199628919037
-0.012130329271685253 0.04407199628919037
-0.03843770136382487 0.05417889355810886
-0.051591387409894676 0.08449958536486434
-0.051591387409894676 0.04407199628919037
-0.051591387409894676 0.04407199628919037
-0.03843770136382487 0.04407199628919037
-0.06474507345596449 0.08449958536486434
-0.051591387409894676 0.1249271744405383
-0.03843770136382487 0.1350340717094568
-0.03843770136382487 0.11482027717161981
-0.012130329271685253 0.07439268809594585
-0.03843770136382487 0.06428579082702736
-0.0910524455481041 0.06428579082702736
-0.06474507345596449 0.09460648263378284
-0.025284015317755062 0.11482027717161981
0.014177042820454365 0.10471337990270133
0.04048441491259398 0.11482027717161981
0.027330728866524174 0.09460648263378284
0.027330728866524174 0.07439268809594585
0.027330728866524174 0.07439268809594585
-0.051591387409894676 0.06428579082702736
-0.11735981764024372 0.08449958536486434
-0.15682087577845316 0.07439268809594585
-0.14366718973238335 0.06428579082702736
-0.0778987595020343 0.06428579082702736
0.09309915909687322 0.08449958536486434
0.31671182188006 0.08449958536486434
0.5797855428014561 0.07439268809594585
0.869166635814992 0.04407199628919037
1.0664719265060392 -0.01656938732432059
1.2637772171970862 -0.07721077093783155
1.408467763703854 -0.05699697639999456
1.6583877985791804 -0.06710387366891306
1.9346152055466463 -0.08731766820675003
2.237149984606252 -0.16817284635809798
2.5528384497119276 -0.24902802450944592
2.8290658566793936 -0.3905245862743048
2.8948342869097425 -0.5421280453080822
2.723836368310835 -0.6533039152661856
2.4739163334355085 -0.7139452988796966
2.184535240421973 -0.764479785224289
1.6583877985791804 -0.8150142715688815
0.8297055776767825 -0.764479785224289
-0.06474507345596449 -0.5623418398459192
-0.7092756897133852 -0.37031079173646786
-0.9591957245887115 -0.20860043543377196
-0.9986567827269209 -0.127745257282424
-0.9855030966808511 -0.10753146274458703
-0.9591957245887115 -0.02667628459323908
-0.8276588641280134 -0.03678318186215757
-0.7487367478515945 0.0036444072135163965
-0.6829683176212455 0.04407199628919037
-0.6435072594830361 0.03396509902027187
-0.5382777711144776 -0.0064624900554020965
-0.4988167129762682 0.0036444072135163965
-0.4462019687919889 0.02385820175135338
-0.47250934088412855 0.06428579082702736
-0.4462019687919889 0.04407199628919037
-0.4462019687919889 0.04407199628919037
-0.47250934088412855 0.06428579082702736
-0.4462019687919889 0.06428579082702736
-0.45935565483805874 0.05417889355810886
-0.45935565483805874 0.06428579082702736
-0.40674091065377954 0.08449958536486434
-0.32781879437736067 0.1350340717094568
-0.30151142228522104 0.16535476351621228
-0.30151142228522104 0.19567545532296776
-0.28835773623915123 0.18556855805404926
-0.2620503641470116 0.15524786624729378
-0.2225893060088022 0.07439268809594585
-0.16997456182452295 0.02385820175135338
-0.2225893060088022 0.03396509902027187
-0.2752040501930814 0.04407199628919037
-0.32781879437736067 0.08449958536486434
-0.32781879437736067 0.09460648263378284
-0.2752040501930814 0.04407199628919037
-0.24889667810094182 0.0036444072135163965
-0.235742992054872 -0.0064624900554020965
-0.2620503641470116 0.01375130448243489
-0.24889667810094182 0.04407199628919037
-0.24889667810094182 0.10471337990270133
-0.235742992054872 0.11482027717161981
-0.235742992054872 0.1249271744405383
-0.2225893060088022 0.05417889355810886
-0.19628193391666257 0.02385820175135338
-0.14366718973238335 0.01375130448243489
-0.10420613159417391 0.03396509902027187
-0.13051350368631354 0.05417889355810886
-0.19628193391666257 0.09460648263378284
-0.2752040501930814 0.08449958536486434
-0.2752040501930814 0.04407199628919037
-0.20943561996273238 0.04407199628919037
-0.16997456182452295 0.06428579082702736
-0.14366718973238335 0.08449958536486434
-0.14366718973238335 0.08449958536486434
-0.15682087577845316 0.05417889355810886
-0.19628193391666257 0.03396509902027187
-0.20943561996273238 0.02385820175135338
-0.18312824787059276 0.07439268809594585
-0.0778987595020343 0.06428579082702736
0.0010233567743845565 0.06428579082702736
0.014177042820454365 0.03396509902027187
-0.051591387409894676 0.04407199628919037
-0.06474507345596449 0.07439268809594585
-0.051591387409894676 0.10471337990270133
0.04048441491259398 0.1451409689783753
0.05363810095866379 0.1451409689783753
0.027330728866524174 0.09460648263378284
-0.012130329271685253 0.01375130448243489
-0.03843770136382487 -0.01656938732432059
-0.025284015317755062 0.0036444072135163965
0.027330728866524174 0.07439268809594585
0.04048441491259398 0.10471337990270133
0.04048441491259398 0.07439268809594585
-0.025284015317755062 0.06428579082702736
-0.025284015317755062 0.07439268809594585
-0.012130329271685253 0.10471337990270133
-0.012130329271685253 0.1249271744405383
0.05363810095866379 0.11482027717161981
0.04048441491259398 0.10471337990270133
0.014177042820454365 0.07439268809594585
0.0010233567743845565 0.09460648263378284
-0.012130329271685253 0.1249271744405383
0.027330728866524174 0.10471337990270133
-0.012130329271685253 0.09460648263378284
-0.025284015317755062 0.07439268809594585
-0.051591387409894676 0.06428579082702736
-0.012130329271685253 0.07439268809594585
0.027330728866524174 0.1249271744405383
0.04048441491259398 0.1350340717094568
0.027330728866524174 0.1350340717094568
0.014177042820454365 0.09460648263378284
0.014177042820454365 0.09460648263378284
0.0010233567743845565 0.10471337990270133
0.0010233567743845565 0.10471337990270133
0.0667917870047336 0.11482027717161981
0.10625284514294303 0.1350340717094568
0.0667917870047336 0.16535476351621228
0.0010233567743845565 0.18556855805404926
0.0010233567743845565 0.21588924986080474
0.05363810095866379 0.2664237362053972
0.11940653118901283 0.20578235259188626
0.15886758932722225 0.1451409689783753
0.13256021723508266 0.03396509902027187
0.15886758932722225 -0.01656938732432059
0.17202127537329207 0.02385820175135338
0.18517496141936188 0.08449958536486434
0.1983286474654317 0.08449958536486434
0.1983286474654317 0.04407199628919037
0.18517496141936188 -0.02667628459323908
0.18517496141936188 -0.03678318186215757
0.18517496141936188 -0.03678318186215757
0.2114823335115015 -0.01656938732432059
0.2509433916497109 0.01375130448243489
0.29040444978792035 0.01375130448243489
0.27725076374185054 0.01375130448243489
0.2509433916497109 -0.0064624900554020965
0.22463601955757131 0.02385820175135338
0.23778970560364113 0.04407199628919037
0.2509433916497109 0.04407199628919037
0.2509433916497109 0.04407199628919037
0.22463601955757131 0.0036444072135163965
0.18517496141936188 0.01375130448243489
0.14571390328115244 0.03396509902027187
0.11940653118901283 0.03396509902027187
0.13256021723508266 0.04407199628919037
0.14571390328115244 0.04407199628919037
0.15886758932722225 0.03396509902027187
0.14571390328115244 0.02385820175135338
0.10625284514294303 0.01375130448243489
0.0799454730508034 0.04407199628919037
0.09309915909687322 0.05417889355810886
0.09309915909687322 0.04407199628919037
0.05363810095866379 0.03396509902027187
0.04048441491259398 0.05417889355810886
0.05363810095866379 0.07439268809594585
0.0799454730508034 0.08449958536486434
0.0667917870047336 0.08449958536486434
0.05363810095866379 0.08449958536486434
0.0010233567743845565 0.01375130448243489
-0.03843770136382487 -0.02667628459323908
-0.03843770136382487 -0.04689007913107607
0.0010233567743845565 -0.01656938732432059
0.027330728866524174 0.0036444072135163965
0.014177042820454365 0.01375130448243489
0.0010233567743845565 -0.0064624900554020965
-0.025284015317755062 -0.0064624900554020965
-0.051591387409894676 0.06428579082702736
0.0010233567743845565 0.06428579082702736
0.04048441491259398 0.06428579082702736
0.0010233567743845565 0.05417889355810886
0.014177042820454365 0.02385820175135338
-0.012130329271685253 0.02385820175135338
0.027330728866524174 0.03396509902027187
0.0667917870047336 0.03396509902027187
0.10625284514294303 0.06428579082702736
0.15886758932722225 0.04407199628919037
0.14571390328115244 0.04407199628919037
0.15886758932722225 0.02385820175135338
0.17202127537329207 0.02385820175135338
0.1983286474654317 0.05417889355810886
0.2509433916497109 0.05417889355810886
0.2640970776957807 0.04407199628919037
0.2640970776957807 0.0036444072135163965
0.30355813583399016 -0.02667628459323908
0.3298655079261298 -0.04689007913107607
0.38248025211040904 -0.05699697639999456
0.4219413102486184 -0.04689007913107607
0.38248025211040904 -0.07721077093783155
0.38248025211040904 -0.09742456547566854
0.3693265660643392 -0.11763836001350551
0.4877097404789675 -0.127745257282424
0.5929392288475259 -0.127745257282424
0.6850150311700146 -0.127745257282424
0.7376297753542939 -0.127745257282424
0.8165518916307127 -0.11763836001350551
0.8954740079071315 -0.15806594908917948
0.9875498102296202 -0.16817284635809798
1.0533182404599692 -0.10753146274458703
1.0796256125521089 -0.09742456547566854
1.0796256125521089 -0.10753146274458703
0.9480887520914107 -0.1378521545513425
0.7113224032621542 -0.15806594908917948
0.3693265660643392 -0.09742456547566854
-0.20943561996273238 0.02385820175135338
-1.06442521295727 0.15524786624729378
-2.037797980366436 0.3169582225499897
-2.8796338873149034 0.4483478870459301
-3.4847034454341146 0.5999513460797075
-3.81354559658586 0.7616617023824034
-4.037158259369047 0.8425168805337513
-4.102926689599395 0.9334789559540178
-4.142387747737605 1.004227236836447
-4.1818488058758145 0.9941203395675287
-4.1818488058758145 1.004227236836447
-4.142387747737605 1.0345479286432027
-4.102926689599395 1.0648686204499582
-3.9845435151847677 1.0648686204499582
-3.7740845384476507 1.044654825912121
-3.4847034454341146 1.044654825912121
-3.2347834105587885 0.9941203395675287
-3.011170747775602 1.0143341341053658
-2.853326515222764 1.0244410313742842
-2.6560212245317167 1.0143341341053658
-2.5113306780249487 1.0345479286432027
-2.3534864454721114 1.004227236836447
-2.1298737826889242 0.9941203395675287
-1.945722178043947 1.004227236836447
-1.7747242594450396 1.004227236836447
-1.616880026892202 1.004227236836447
-1.4458821082932944 1.004227236836447
-1.327498933878666 0.9435858532229362
-1.2485768176022474 0.9132651614161807
-1.0907325850494096 0.9334789559540178
-0.9723494106347813 0.9334789559540178
-0.7881978059898039 0.9132651614161807
-0.6566609455291059 0.8728375723405067
-0.6171998873908965 0.8121961887269958
-0.6171998873908965 0.7919823941891588
-0.6171998873908965 0.7515548051134848
-0.6040462013448267 0.7616617023824034
-0.4988167129762682 0.7313410105756478
-0.4198945966998493 0.6808065242310554
-0.3409724804234305 0.6201651406175445
-0.24889667810094182 0.508989270659441
-0.0910524455481041 0.47866857885268554
0.10625284514294303 0.4483478870459301
0.27725076374185054 0.3472789143567451
0.38248025211040904 0.28663753074323417
0.47455605443289767 0.16535476351621228
0.5534781707093165 0.04407199628919037
0.6192466009396655 -0.09742456547566854
0.6850150311700146 -0.23892112724052741
0.7376297753542939 -0.2995625108540384
0.7639371474464335 -0.31977630539187535
0.7770908334925033 -0.31977630539187535
0.7902445195385731 -0.36020389446754936
0.869166635814992 -0.33999009992971235
0.8954740079071315 -0.33999009992971235
0.9743961241835504 -0.37031079173646786
0.9875498102296202 -0.36020389446754936
0.9743961241835504 -0.3804176890053863
0.9875498102296202 -0.4309521753499788
1.0270108683678296 -0.4107383808121418
1.1190866706903182 -0.4208452780810603
1.198008786966737 -0.4309521753499788
1.198008786966737 -0.44105907261889726
1.1848551009206674 -0.46127286715673427
1.2243161590588767 -0.4915935589634897
1.2506235311510163 -0.5017004562324082
1.3032382753352956 -0.5017004562324082
1.408467763703854 -0.5017004562324082
1.408467763703854 -0.5320211480391637
1.408467763703854 -0.5320211480391637
1.4347751357959937 -0.5421280453080822
1.5268509381184823 -0.5421280453080822
1.6452341125331107 -0.5320211480391637
1.68469517067132 -0.5522349425770007
1.7110025427634596 -0.5623418398459192
1.69784885671739 -0.6128763261905117
1.6452341125331107 -0.6431970179972671
1.763617286947739 -0.6431970179972671
1.829385717178088 -0.6229832234594301
1.9346152055466463 -0.6431970179972671
1.9872299497309256 -0.6330901207283487
2.0003836357769953 -0.6634108125351041
1.9477688915927163 -0.7139452988796966
1.9872299497309256 -0.6937315043418596
2.039844693915205 -0.6431970179972671
2.0793057520534144 -0.6634108125351041
2.105613124145554 -0.703838401610778
2.0661520660073447 -0.7139452988796966
2.0661520660073447 -0.724052196148615
2.092459438099484 -0.7341590934175336
2.158227868329833 -0.7139452988796966
2.2239962985601824 -0.724052196148615
2.2108426125141123 -0.7341590934175336
2.2239962985601824 -0.7543728879553706
2.184535240421973 -0.7543728879553706
2.1976889264680426 -0.724052196148615
2.1976889264680426 -0.703838401610778
2.1976889264680426 -0.703838401610778
2.171381554375903 -0.6937315043418596
2.118766810191624 -0.744265990686452
2.092459438099484 -0.7341590934175336
2.0529983799612745 -0.703838401610778
2.039844693915205 -0.6735177098040226
2.0529983799612745 -0.6533039152661856
2.026691007869135 -0.6735177098040226
1.9477688915927163 -0.6735177098040226
1.8688467753162974 -0.6937315043418596
1.7767709729938088 -0.6634108125351041
1.7241562288095296 -0.6229832234594301
1.69784885671739 -0.5926625316526747
1.6452341125331107 -0.5724487371148377
1.553158310210622 -0.6128763261905117
1.4479288218420636 -0.6027694289215931
1.3426993334735051 -0.5522349425770007
1.3163919613813655 -0.5017004562324082
1.2374698451049466 -0.4915935589634897
1.2506235311510163 -0.5219142507702452
1.2374698451049466 -0.5118073535013268
1.276930903243156 -0.5017004562324082
1.3032382753352956 -0.47137976442565277
1.3295456474274352 -0.4309521753499788
1.2243161590588767 -0.4309521753499788
1.0533182404599692 -0.3905245862743048
0.869166635814992 -0.3905245862743048
0.6850150311700146 -0.33999009992971235
0.6455539730318052 -0.2995625108540384
0.6718613451239448 -0.22881422997160894
0.6192466009396655 -0.20860043543377196
0.5797855428014561 -0.20860043543377196
0.5403244846632467 -0.21870733270269044
0.4877097404789675 -0.19849353816485346
0.46140236838682785 -0.17827974362701648
0.4219413102486184 -0.10753146274458703
0.38248025211040904 -0.11763836001350551
0.3298655079261298 -0.09742456547566854
0.2640970776957807 -0.10753146274458703
0.29040444978792035 -0.09742456547566854
0.27725076374185054 -0.08731766820675003
0.23778970560364113 -0.05699697639999456
0.2114823335115015 -0.03678318186215757
0.27725076374185054 -0.03678318186215757
0.29040444978792035 -0.04689007913107607
0.27725076374185054 -0.03678318186215757
0.2640970776957807 0.0036444072135163965
0.27725076374185054 0.01375130448243489
0.3298655079261298 0.03396509902027187
0.3561728800182694 0.01375130448243489
0.3561728800182694 -0.0064624900554020965
0.3430191939721996 -0.0064624900554020965
0.31671182188006 0.0036444072135163965
0.2640970776957807 0.02385820175135338
0.23778970560364113 0.04407199628919037
0.22463601955757131 0.04407199628919037
0.1983286474654317 0.02385820175135338
0.15886758932722225 0.02385820175135338
0.18517496141936188 0.03396509902027187
0.1983286474654317 0.02385820175135338
0.18517496141936188 0.03396509902027187
0.18517496141936188 0.0036444072135163965
0.15886758932722225 -0.0064624900554020965
0.10625284514294303 -0.0064624900554020965
0.11940653118901283 0.0036444072135163965
0.2114823335115015 -0.0064624900554020965
0.2509433916497109 0.02385820175135338
0.30355813583399016 0.03396509902027187
0.2640970776957807 -0.01656938732432059
0.17202127537329207 -0.02667628459323908
0.17202127537329207 -0.01656938732432059
0.15886758932722225 -0.0064624900554020965
0.17202127537329207 -0.0064624900554020965
0.2114823335115015 0.0036444072135163965
0.2509433916497109 0.01375130448243489
0.2509433916497109 -0.0064624900554020965
0.27725076374185054 0.0036444072135163965
0.2509433916497109 -0.0064624900554020965
0.2509433916497109 0.0036444072135163965
0.29040444978792035 -0.01656938732432059
0.29040444978792035 -0.02667628459323908
0.23778970560364113 -0.03678318186215757
0.18517496141936188 -0.0064624900554020965
0.14571390328115244 0.03396509902027187
0.14571390328115244 0.01375130448243489
0.14571390328115244 0.04407199628919037
0.15886758932722225 0.0036444072135163965
0.15886758932722225 -0.01656938732432059
0.22463601955757131 -0.01656938732432059
0.27725076374185054 -0.02667628459323908
0.30355813583399016 0.0036444072135163965
0.2640970776957807 -0.0064624900554020965
0.1983286474654317 -0.01656938732432059
0.10625284514294303 -0.01656938732432059
0.09309915909687322 0.02385820175135338
0.09309915909687322 0.03396509902027187
0.10625284514294303 0.06428579082702736
0.11940653118901283 0.05417889355810886
0.11940653118901283 0.03396509902027187
0.09309915909687322 0.02385820175135338
0.0799454730508034 0.03396509902027187
0.0799454730508034 0.05417889355810886
0.09309915909687322 0.05417889355810886
0.13256021723508266 0.06428579082702736
0.18517496141936188 0.02385820175135338
0.22463601955757131 0.01375130448243489
0.2509433916497109 0.02385820175135338
0.23778970560364113 0.05417889355810886
0.1983286474654317 0.03396509902027187
0.14571390328115244 0.01375130448243489
0.09309915909687322 0.01375130448243489
0.014177042820454365 0.01375130448243489
-0.012130329271685253 0.04407199628919037
0.0010233567743845565 0.05417889355810886
-0.012130329271685253 0.04407199628919037
-0.025284015317755062 0.03396509902027187
-0.012130329271685253 0.02385820175135338
-0.012130329271685253 0.03396509902027187
0.027330728866524174 0.03396509902027187
0.0799454730508034 0.03396509902027187
0.09309915909687322 0.05417889355810886
0.09309915909687322 0.05417889355810886
0.0667917870047336 0.04407199628919037
0.0667917870047336 0.05417889355810886
0.09309915909687322 0.05417889355810886
0.11940653118901283 0.07439268809594585
0.10625284514294303 0.05417889355810886
0.04048441491259398 0.03396509902027187
0.04048441491259398 -0.0064624900554020965
0.014177042820454365 -0.0064624900554020965
0.11940653118901283 0.01375130448243489
0.15886758932722225 0.05417889355810886
0.1983286474654317 0.04407199628919037
0.2114823335115015 0.03396509902027187
0.18517496141936188 0.01375130448243489
0.14571390328115244 0.0036444072135163965
0.10625284514294303 -0.0064624900554020965
0.0667917870047336 -0.0064624900554020965
0.0799454730508034 0.01375130448243489
0.0799454730508034 0.01375130448243489
0.0667917870047336 -0.0064624900554020965
0.05363810095866379 -0.0064624900554020965
0.09309915909687322 0.01375130448243489
0.18517496141936188 0.04407199628919037
0.2640970776957807 0.05417889355810886
0.31671182188006 0.04407199628919037
0.38248025211040904 0.01375130448243489
0.514017112571107 -0.0064624900554020965
0.6455539730318052 -0.02667628459323908
0.7902445195385731 -0.01656938732432059
0.8033982055846429 -0.0064624900554020965
0.6324002869857354 -0.04689007913107607
0.4219413102486184 -0.04689007913107607
0.2509433916497109 -0.01656938732432059
0.23778970560364113 -0.02667628459323908
0.18517496141936188 0.01375130448243489
0.09309915909687322 0.02385820175135338
0.0010233567743845565 0.08449958536486434
-0.0910524455481041 0.09460648263378284
-0.14366718973238335 0.09460648263378284
-0.16997456182452295 0.11482027717161981
-0.10420613159417391 0.15524786624729378
0.0010233567743845565 0.1451409689783753
0.04048441491259398 0.10471337990270133
0.15886758932722225 0.07439268809594585
0.23778970560364113 0.04407199628919037
0.3561728800182694 0.02385820175135338
0.44824868234075804 0.03396509902027187
0.47455605443289767 0.01375130448243489
0.3693265660643392 -0.01656938732432059
0.18517496141936188 -0.05699697639999456
-0.06474507345596449 -0.04689007913107607
-0.14366718973238335 -0.02667628459323908
-0.11735981764024372 0.0036444072135163965
0.0667917870047336 0.03396509902027187
0.2509433916497109 0.04407199628919037
0.47455605443289767 0.01375130448243489
0.6850150311700146 -0.03678318186215757
0.8560129497689222 -0.09742456547566854
0.9743961241835504 -0.147959051820261
1.0270108683678296 -0.19849353816485346
0.869166635814992 -0.22881422997160894
0.6060929148935957 -0.2894556135851199
0.29040444978792035 -0.2894556135851199
0.17202127537329207 -0.19849353816485346
0.31671182188006 -0.11763836001350551
0.5008634265250372 -0.10753146274458703
0.5403244846632467 -0.147959051820261
0.27725076374185054 -0.15806594908917948
-0.24889667810094182 -0.147959051820261
-0.7487367478515945 -0.08731766820675003
-1.0381178408651304 0.02385820175135338
-1.06442521295727 0.1249271744405383
-0.9723494106347813 0.19567545532296776
-0.7224293757594549 0.21588924986080474
-0.48566302693019836 0.21588924986080474
-0.2620503641470116 0.22599614712972324
-0.06474507345596449 0.2563168389364787
0.11940653118901283 0.21588924986080474
0.0799454730508034 0.1350340717094568
-0.051591387409894676 0.08449958536486434
-0.16997456182452295 0.07439268809594585
-0.2225893060088022 0.04407199628919037
-0.16997456182452295 0.09460648263378284
-0.025284015317755062 0.11482027717161981
0.10625284514294303 0.10471337990270133
0.31671182188006 0.06428579082702736
0.30355813583399016 0.0036444072135163965
0.09309915909687322 0.01375130448243489
-0.18312824787059276 0.01375130448243489
-0.3541261664695003 0.01375130448243489
-0.4198945966998493 0.04407199628919037
-0.2225893060088022 0.08449958536486434
0.11940653118901283 0.11482027717161981
0.5271707986171769 0.1451409689783753
0.7902445195385731 0.08449958536486434
0.8033982055846429 0.02385820175135338
0.3956339381564788 -0.03678318186215757
-0.2225893060088022 -0.06710387366891306
-0.6303535734369663 -0.01656938732432059
-0.6829683176212455 0.08449958536486434
-0.3409724804234305 0.17546166078513079
0.014177042820454365 0.20578235259188626
0.31671182188006 0.17546166078513079
0.6192466009396655 0.1350340717094568
0.9349350660453409 0.08449958536486434
1.2374698451049466 0.03396509902027187
1.5005435660263426 0.0036444072135163965
1.7504636009016692 -0.03678318186215757
1.974076263684856 -0.07721077093783155
2.2634573566983915 -0.1378521545513425
2.5528384497119276 -0.22881422997160894
2.855373228771533 -0.2995625108540384
3.1052932636468595 -0.4006314835432233
3.2236764380614877 -0.5320211480391637
3.1710616938772085 -0.6533039152661856
2.947449031094022 -0.7139452988796966
2.671221624126556 -0.764479785224289
2.2239962985601824 -0.7948004770310445
1.487389879980273 -0.7846935797621261
0.6455539730318052 -0.703838401610778
-0.025284015317755062 -0.5421280453080822
-0.511970399022338 -0.44105907261889726
-0.9197346664505021 -0.3905245862743048
-1.1170399571415492 -0.3096694081229569
-1.1433473292336889 -0.24902802450944592
-0.9986567827269209 -0.18838664089593496
-0.8276588641280134 -0.1378521545513425
-0.7355830618055247 -0.15806594908917948
-0.7224293757594549 -0.09742456547566854
-0.7092756897133852 -0.03678318186215757
-0.7092756897133852 -0.01656938732432059
-0.5908925152987569 0.0036444072135163965
-0.40674091065377954 0.01375130448243489
-0.20943561996273238 -0.02667628459323908
-0.16997456182452295 -0.06710387366891306
-0.32781879437736067 -0.08731766820675003
-0.6698146315751757 -0.05699697639999456
-0.9855030966808511 -0.01656938732432059
-1.1038862710954793 0.01375130448243489
-1.0381178408651304 0.10471337990270133
-0.853966236220153 0.1350340717094568
-0.7355830618055247 0.1350340717094568
-0.6040462013448267 0.15524786624729378
-0.45935565483805874 0.11482027717161981
-0.40674091065377954 0.06428579082702736
-0.3672798525155701 0.04407199628919037
-0.3409724804234305 0.01375130448243489
-0.2225893060088022 0.04407199628919037
-0.19628193391666257 0.06428579082702736
-0.2620503641470116 0.05417889355810886
-0.47250934088412855 0.05417889355810886
-0.6829683176212455 0.05417889355810886
-0.853966236220153 0.09460648263378284
-0.8671199222662228 0.1249271744405383
-0.7224293757594549 0.1451409689783753
-0.577738829252687 0.18556855805404926
-0.511970399022338 0.16535476351621228
-0.47250934088412855 0.15524786624729378
-0.4462019687919889 0.17546166078513079
-0.39358722460770973 0.19567545532296776
-0.3541261664695003 0.21588924986080474
-0.31466510833129085 0.22599614712972324
-0.28835773623915123 0.20578235259188626
-0.2752040501930814 0.18556855805404926
-0.3409724804234305 0.20578235259188626
-0.3541261664695003 0.2563168389364787
-0.32781879437736067 0.3068513252810712
-0.235742992054872 0.3068513252810712
-0.10420613159417391 0.2765306334743157
-0.051591387409894676 0.21588924986080474
-0.012130329271685253 0.17546166078513079
0.0010233567743845565 0.1451409689783753
0.0010233567743845565 0.1451409689783753
-0.025284015317755062 0.1451409689783753
-0.13051350368631354 0.16535476351621228
-0.20943561996273238 0.1451409689783753
-0.2752040501930814 0.18556855805404926
-0.28835773623915123 0.22599614712972324
-0.15682087577845316 0.2563168389364787
-0.025284015317755062 0.24620994166756022
0.04048441491259398 0.18556855805404926
-0.03843770136382487 0.1350340717094568
-0.2225893060088022 0.07439268809594585
-0.3804335385616399 0.08449958536486434
-0.4462019687919889 0.11482027717161981
-0.4462019687919889 0.1451409689783753
-0.3804335385616399 0.1451409689783753
-0.3672798525155701 0.11482027717161981
-0.4330482827459191 0.06428579082702736
-0.48566302693019836 0.06428579082702736
-0.47250934088412855 0.10471337990270133
-0.39358722460770973 0.15524786624729378
-0.30151142228522104 0.15524786624729378
-0.2225893060088022 0.10471337990270133
-0.19628193391666257 0.04407199628919037
-0.19628193391666257 0.0036444072135163965
-0.2620503641470116 0.02385820175135338
-0.32781879437736067 0.02385820175135338
-0.32781879437736067 0.02385820175135338
-0.30151142228522104 0.02385820175135338
-0.2225893060088022 0.0036444072135163965
-0.0910524455481041 0.0036444072135163965
-0.051591387409894676 0.01375130448243489
-0.025284015317755062 0.01375130448243489
0.05363810095866379 0.02385820175135338
0.2114823335115015 0.02385820175135338
0.44824868234075804 -0.0064624900554020965
0.7639371474464335 -0.03678318186215757
0.8823203218610618 -0.04689007913107607
0.658707659077875 -0.08731766820675003
0.0799454730508034 -0.10753146274458703
-0.5251240850684078 -0.06710387366891306
-0.7487367478515945 -0.01656938732432059
-0.6171998873908965 0.03396509902027187
-0.4462019687919889 0.08449958536486434
-0.39358722460770973 0.11482027717161981
-0.4330482827459191 0.1249271744405383
-0.4462019687919889 0.1451409689783753
-0.3804335385616399 0.16535476351621228
-0.2620503641470116 0.18556855805404926
-0.13051350368631354 0.18556855805404926
-0.03843770136382487 0.17546166078513079
0.0010233567743845565 0.17546166078513079
0.10625284514294303 0.1350340717094568
0.13256021723508266 0.11482027717161981
0.2114823335115015 0.11482027717161981
0.2114823335115015 0.11482027717161981
0.1983286474654317 0.1249271744405383
0.14571390328115244 0.09460648263378284
0.13256021723508266 0.08449958536486434
0.14571390328115244 0.07439268809594585
0.14571390328115244 0.10471337990270133
0.2114823335115015 0.10471337990270133
0.29040444978792035 0.08449958536486434
0.31671182188006 0.05417889355810886
0.2640970776957807 0.01375130448243489
0.27725076374185054 -0.0064624900554020965
0.31671182188006 0.01375130448243489
0.46140236838682785 0.04407199628919037
0.6455539730318052 0.03396509902027187
0.7770908334925033 0.0036444072135163965
0.6324002869857354 -0.01656938732432059
0.29040444978792035 -0.02667628459323908
-0.0778987595020343 -0.0064624900554020965
-0.2752040501930814 0.08449958536486434
-0.14366718973238335 0.1249271744405383
0.14571390328115244 0.15524786624729378
0.2509433916497109 0.10471337990270133
0.22463601955757131 0.04407199628919037
0.2114823335115015 0.05417889355810886
0.23778970560364113 0.10471337990270133
0.29040444978792035 0.11482027717161981
0.13256021723508266 0.10471337990270133
-0.012130329271685253 0.09460648263378284
0.0010233567743845565 0.10471337990270133
0.10625284514294303 0.1249271744405383
0.2114823335115015 0.1350340717094568
0.2509433916497109 0.11482027717161981
0.23778970560364113 0.09460648263378284
0.27725076374185054 0.06428579082702736
0.3430191939721996 0.02385820175135338
0.3430191939721996 -0.01656938732432059
0.0799454730508034 -0.02667628459323908
-0.2752040501930814 -0.05699697639999456
-0.47250934088412855 -0.02667628459323908
-0.511970399022338 -0.01656938732432059
-0.3672798525155701 0.01375130448243489
-0.20943561996273238 0.07439268809594585
-0.13051350368631354 0.05417889355810886
-0.13051350368631354 0.04407199628919037
-0.0778987595020343 0.05417889355810886
-0.06474507345596449 0.06428579082702736
-0.025284015317755062 0.05417889355810886
-0.03843770136382487 0.05417889355810886
-0.051591387409894676 0.06428579082702736
-0.012130329271685253 0.07439268809594585
0.0010233567743845565 0.08449958536486434
-0.03843770136382487 0.07439268809594585
-0.025284015317755062 0.07439268809594585
0.04048441491259398 0.08449958536486434
0.14571390328115244 0.10471337990270133
0.2640970776957807 0.10471337990270133
0.31671182188006 0.04407199628919037
0.3561728800182694 0.02385820175135338
0.4087876242025486 -0.0064624900554020965
0.4877097404789675 -0.04689007913107607
0.5666318567553863 -0.08731766820675003
0.5666318567553863 -0.127745257282424
0.47455605443289767 -0.18838664089593496
0.4087876242025486 -0.22881422997160894
0.44824868234075804 -0.24902802450944592
0.5271707986171769 -0.2793487163162014
0.47455605443289767 -0.31977630539187535
0.1983286474654317 -0.35009699719863085
-0.24889667810094182 -0.3804176890053863
-0.8408125501740832 -0.4208452780810603
-1.7615705733989697 -0.3905245862743048
-2.787558084992415 -0.2995625108540384
-3.866160340770139 -0.147959051820261
-4.694842561672537 0.05417889355810886
-5.102606829100702 0.23610304439864171
-5.22099000351533 0.3169582225499897
-5.286758433745678 0.38770650343241914
-5.365680550022097 0.508989270659441
-5.286758433745678 0.589844448810789
-4.957916282593933 0.6201651406175445
-4.6027667593500485 0.6201651406175445
-4.405461468659001 0.569630654272952
-4.471229898889351 0.6100582433486259
-4.523844643073629 0.7212341133067294
-4.247617236106164 0.8930513668783437
-3.589932933802673 1.004227236836447
-2.6954822826699263 1.0244410313742842
-1.9851832361821566 0.9941203395675287
-1.6694947710764811 0.9536927504918548
-1.5248042245697133 0.9233720586850992
-1.6431873989843415 0.9132651614161807
-1.73526320130683 0.9233720586850992
-1.7747242594450396 1.0143341341053658
-1.8010316315371793 1.0749755177188767
-1.7615705733989697 1.105296209525632
-1.537957910615783 1.1255100040634691
-1.2485768176022474 1.1154031067945507
-0.9986567827269209 1.105296209525632
-0.853966236220153 1.004227236836447
-0.7750441199437341 0.9334789559540178
-0.5645851432066172 0.8425168805337513
-0.2225893060088022 0.7616617023824034
0.09309915909687322 0.6706996269621369
0.31671182188006 0.569630654272952
0.47455605443289767 0.4382409897770116
0.6060929148935957 0.28663753074323417
0.7376297753542939 0.15524786624729378
0.9217813799992711 0.09460648263378284
1.2506235311510163 0.04407199628919037
1.5663119962566918 -0.03678318186215757
1.618926740440971 -0.127745257282424
1.408467763703854 -0.23892112724052741
1.0927792985981786 -0.2692418190472829
0.8823203218610618 -0.22881422997160894
0.8428592637228524 -0.19849353816485346
0.9086276939532013 -0.19849353816485346
0.9612424381374806 -0.24902802450944592
1.00070349627569 -0.2591349217783644
1.1059329846442485 -0.2591349217783644
1.2637772171970862 -0.22881422997160894
1.3821603916117144 -0.2692418190472829
1.4347751357959937 -0.31977630539187535
1.4742361939342032 -0.35009699719863085
1.487389879980273 -0.4006314835432233
1.5136972520724126 -0.4208452780810603
1.5136972520724126 -0.4309521753499788
1.5005435660263426 -0.44105907261889726
1.553158310210622 -0.46127286715673427
1.5400046241645522 -0.44105907261889726
1.553158310210622 -0.46127286715673427
1.6320804264870408 -0.48148666169457127
1.829385717178088 -0.5320211480391637
1.974076263684856 -0.5926625316526747
1.9872299497309256 -0.5926625316526747
1.9477688915927163 -0.6027694289215931
1.8820004613623673 -0.6128763261905117
1.8425394032241578 -0.6027694289215931
1.8556930892702277 -0.6128763261905117
1.9477688915927163 -0.5825556343837561
2.0003836357769953 -0.6027694289215931
2.0529983799612745 -0.5926625316526747
2.1976889264680426 -0.5926625316526747
2.3555331590208803 -0.6128763261905117
2.4739163334355085 -0.6128763261905117
2.4870700194815782 -0.5825556343837561
2.4739163334355085 -0.6027694289215931
2.5002237055276484 -0.6229832234594301
2.5002237055276484 -0.6634108125351041
2.4870700194815782 -0.6533039152661856
2.4739163334355085 -0.6431970179972671
2.4870700194815782 -0.6027694289215931
2.5002237055276484 -0.6027694289215931
2.5396847636658575 -0.6128763261905117
2.605453193896207 -0.6533039152661856
2.736990054356905 -0.6836246070729411
2.855373228771533 -0.703838401610778
2.789604798541184 -0.703838401610778
2.5002237055276484 -0.724052196148615
2.0003836357769953 -0.7139452988796966
1.5794656823027615 -0.703838401610778
1.5400046241645522 -0.6431970179972671
1.7373099148555993 -0.5522349425770007
2.026691007869135 -0.5421280453080822
2.118766810191624 -0.5421280453080822
2.0793057520534144 -0.6128763261905117
1.9214615195005766 -0.6330901207283487
1.829385717178088 -0.6229832234594301
1.7899246590398785 -0.6027694289215931
1.7373099148555993 -0.5724487371148377
1.7504636009016692 -0.5623418398459192
1.7110025427634596 -0.5522349425770007
1.6452341125331107 -0.5926625316526747
1.5926193683488314 -0.6128763261905117
1.5794656823027615 -0.5724487371148377
1.487389879980273 -0.5522349425770007
1.408467763703854 -0.4915935589634897
1.3558530195195748 -0.46127286715673427
1.2506235311510163 -0.46127286715673427
1.1190866706903182 -0.48148666169457127
1.01385718232176 -0.4107383808121418
0.9612424381374806 -0.37031079173646786
0.9875498102296202 -0.32988320266079385
0.9875498102296202 -0.2692418190472829
0.9875498102296202 -0.2793487163162014
0.9612424381374806 -0.2591349217783644
0.9743961241835504 -0.23892112724052741
1.0664719265060392 -0.18838664089593496
1.0664719265060392 -0.18838664089593496
0.9743961241835504 -0.19849353816485346
0.8297055776767825 -0.20860043543377196
0.7113224032621542 -0.16817284635809798
0.6718613451239448 -0.15806594908917948
0.5534781707093165 -0.10753146274458703
0.5008634265250372 -0.09742456547566854
0.44824868234075804 -0.08731766820675003
0.514017112571107 -0.127745257282424
0.724476089308224 -0.127745257282424
1.1190866706903182 -0.1378521545513425
1.2374698451049466 -0.20860043543377196
0.8954740079071315 -0.24902802450944592
0.09309915909687322 -0.2591349217783644
-0.7224293757594549 -0.20860043543377196
-1.0512715269112 -0.03678318186215757
-0.6961220036673154 0.10471337990270133
-0.2225893060088022 0.19567545532296776
0.04048441491259398 0.21588924986080474
0.0667917870047336 0.18556855805404926
0.014177042820454365 0.1350340717094568
-0.012130329271685253 0.09460648263378284
0.0667917870047336 0.08449958536486434
0.13256021723508266 0.07439268809594585
0.15886758932722225 0.07439268809594585
0.14571390328115244 0.06428579082702736
0.13256021723508266 0.06428579082702736
0.09309915909687322 0.06428579082702736
0.14571390328115244 0.04407199628919037
0.13256021723508266 0.09460648263378284
0.10625284514294303 0.09460648263378284
0.0667917870047336 0.04407199628919037
0.04048441491259398 0.02385820175135338
0.0010233567743845565 0.02385820175135338
0.04048441491259398 0.04407199628919037
0.014177042820454365 0.06428579082702736
0.027330728866524174 0.04407199628919037
-0.012130329271685253 0.02385820175135338
-0.012130329271685253 0.04407199628919037
0.05363810095866379 0.03396509902027187
0.18517496141936188 0.04407199628919037
0.31671182188006 0.04407199628919037
0.3561728800182694 0.02385820175135338
0.10625284514294303 -0.01656938732432059
-0.24889667810094182 -0.02667628459323908
-0.4988167129762682 -0.02667628459323908
-0.47250934088412855 0.04407199628919037
-0.28835773623915123 0.10471337990270133
-0.13051350368631354 0.10471337990270133
-0.0910524455481041 0.06428579082702736
-0.15682087577845316 -0.01656938732432059
-0.19628193391666257 -0.02667628459323908
-0.18312824787059276 -0.02667628459323908
-0.19628193391666257 -0.01656938732432059
-0.18312824787059276 -0.03678318186215757
-0.20943561996273238 -0.05699697639999456
-0.16997456182452295 -0.05699697639999456
-0.0910524455481041 -0.06710387366891306
0.10625284514294303 -0.06710387366891306
0.3298655079261298 -0.09742456547566854
0.27725076374185054 -0.127745257282424
-0.051591387409894676 -0.127745257282424
-0.4330482827459191 -0.09742456547566854
-0.6303535734369663 -0.0064624900554020965
-0.5514314571605474 0.09460648263378284
-0.31466510833129085 0.15524786624729378
-0.14366718973238335 0.1451409689783753
-0.11735981764024372 0.10471337990270133
-0.14366718973238335 0.01375130448243489
-0.13051350368631354 -0.01656938732432059
-0.012130329271685253 -0.02667628459323908
0.10625284514294303 -0.01656938732432059
0.27725076374185054 -0.03678318186215757
0.47455605443289767 -0.04689007913107607
0.6192466009396655 -0.09742456547566854
0.5403244846632467 -0.17827974362701648
0.17202127537329207 -0.17827974362701648
-0.3804335385616399 -0.147959051820261
-0.8013514920358737 -0.05699697639999456
-0.8671199222662228 -0.01656938732432059
-0.6566609455291059 0.0036444072135163965
-0.40674091065377954 0.0036444072135163965
-0.3409724804234305 0.02385820175135338
-0.31466510833129085 0.04407199628919037
-0.235742992054872 0.04407199628919037
-0.16997456182452295 0.03396509902027187
-0.19628193391666257 0.0036444072135163965
-0.28835773623915123 -0.03678318186215757
-0.28835773623915123 -0.05699697639999456
-0.28835773623915123 -0.03678318186215757
-0.235742992054872 -0.01656938732432059
-0.2225893060088022 0.02385820175135338
-0.2620503641470116 0.02385820175135338
-0.31466510833129085 -0.03678318186215757
-0.30151142228522104 -0.02667628459323908
-0.31466510833129085 -0.0064624900554020965
-0.28835773623915123 0.02385820175135338
-0.19628193391666257 0.01375130448243489
-0.20943561996273238 0.0036444072135163965
-0.2752040501930814 0.0036444072135163965
-0.30151142228522104 0.02385820175135338
-0.30151142228522104 0.06428579082702736
-0.235742992054872 0.10471337990270133
-0.11735981764024372 0.15524786624729378
-0.13051350368631354 0.15524786624729378
-0.19628193391666257 0.15524786624729378
-0.235742992054872 0.1451409689783753
-0.30151142228522104 0.15524786624729378
-0.28835773623915123 0.15524786624729378
-0.2752040501930814 0.2765306334743157
-0.2620503641470116 0.46856168158376704
-0.24889667810094182 0.7515548051134848
-0.20943561996273238 0.9536927504918548
-0.18312824787059276 0.9031582641472622
-0.15682087577845316 0.529203065197278
-0.13051350368631354 0.02385820175135338
-0.11735981764024372 -0.4006314835432233
-0.0910524455481041 -0.5118073535013268
0.09309915909687322 -0.36020389446754936
0.5008634265250372 -0.147959051820261
1.01385718232176 -0.04689007913107607
1.1453940427824578 -0.07721077093783155
0.6981687172160844 -0.147959051820261
-0.0910524455481041 -0.16817284635809798
-0.7750441199437341 -0.04689007913107607
-0.9986567827269209 0.1249271744405383
-0.7618904338976643 0.24620994166756022
-0.48566302693019836 0.3068513252810712
-0.31466510833129085 0.2967444280121527
-0.32781879437736067 0.2664237362053972
-0.30151142228522104 0.28663753074323417
-0.28835773623915123 0.2664237362053972
-0.30151142228522104 0.20578235259188626
-0.3409724804234305 0.15524786624729378
-0.3804335385616399 0.16535476351621228
-0.3672798525155701 0.20578235259188626
-0.31466510833129085 0.20578235259188626
-0.28835773623915123 0.1451409689783753
-0.20943561996273238 0.05417889355810886
-0.18312824787059276 -0.01656938732432059
-0.18312824787059276 0.0036444072135163965
-0.2225893060088022 0.05417889355810886
-0.24889667810094182 0.08449958536486434
-0.19628193391666257 0.1350340717094568
-0.19628193391666257 0.20578235259188626
-0.24889667810094182 0.35738581162566363
-0.2752040501930814 0.48877547612160405
-0.30151142228522104 0.5797375515418705
-0.2752040501930814 0.47866857885268554
-0.20943561996273238 0.20578235259188626
-0.13051350368631354 -0.07721077093783155
-0.0778987595020343 -0.21870733270269044
-0.03843770136382487 -0.23892112724052741
0.09309915909687322 -0.17827974362701648
0.2509433916497109 -0.10753146274458703
0.27725076374185054 0.02385820175135338
0.2509433916497109 0.15524786624729378
0.31671182188006 0.21588924986080474
0.44824868234075804 0.21588924986080474
0.3956339381564788 0.1249271744405383
0.014177042820454365 -0.0064624900554020965
-0.4330482827459191 -0.11763836001350551
-0.511970399022338 -0.11763836001350551
-0.31466510833129085 -0.02667628459323908
-0.14366718973238335 -0.01656938732432059
-0.235742992054872 -0.03678318186215757
-0.4198945966998493 -0.04689007913107607
-0.48566302693019836 0.0036444072135163965
-0.48566302693019836 0.05417889355810886
-0.4330482827459191 0.08449958536486434
-0.47250934088412855 0.05417889355810886
-0.4462019687919889 0.08449958536486434
-0.32781879437736067 0.16535476351621228
-0.2752040501930814 0.2563168389364787
-0.24889667810094182 0.28663753074323417
-0.2225893060088022 0.22599614712972324
-0.2225893060088022 0.10471337990270133
-0.20943561996273238 0.06428579082702736
-0.2225893060088022 0.08449958536486434
-0.2225893060088022 0.03396509902027187
-0.24889667810094182 -0.10753146274458703
-0.2620503641470116 -0.2692418190472829
-0.16997456182452295 -0.31977630539187535
-0.025284015317755062 -0.23892112724052741
0.2114823335115015 -0.17827974362701648
0.5008634265250372 -0.1378521545513425
0.8165518916307127 -0.127745257282424
1.0401645544138995 -0.147959051820261
1.1453940427824578 -0.20860043543377196
1.276930903243156 -0.20860043543377196
1.5005435660263426 -0.16817284635809798
1.7899246590398785 -0.17827974362701648
2.105613124145554 -0.2591349217783644
2.36868684506695 -0.33999009992971235
2.513377391573718 -0.46127286715673427
2.36868684506695 -0.5522349425770007
2.184535240421973 -0.5219142507702452
1.895154147408437 -0.46127286715673427
1.4742361939342032 -0.4208452780810603
0.6981687172160844 -0.3096694081229569
-0.11735981764024372 -0.1378521545513425
-0.6698146315751757 -0.0064624900554020965
-0.9591957245887115 0.10471337990270133
-1.0775788990033397 0.23610304439864171
-1.06442521295727 0.3270651198189082
-0.9197346664505021 0.2563168389364787
-0.8408125501740832 0.02385820175135338
-0.8276588641280134 -0.23892112724052741
-0.7487367478515945 -0.48148666169457127
-0.6566609455291059 -0.6128763261905117
-0.5645851432066172 -0.5825556343837561
-0.5514314571605474 -0.3905245862743048
-0.5514314571605474 -0.23892112724052741
-0.5645851432066172 -0.20860043543377196
-0.6698146315751757 -0.1378521545513425
-0.6829683176212455 0.0036444072135163965
-0.6698146315751757 0.08449958536486434
-0.6698146315751757 0.04407199628919037
-0.6829683176212455 0.0036444072135163965
-0.7355830618055247 0.02385820175135338
-0.7355830618055247 0.17546166078513079
-0.6698146315751757 0.3371720170878267
-0.5645851432066172 0.4281340925080931
-0.511970399022338 0.37759960616350063
-0.4988167129762682 0.19567545532296776
-0.511970399022338 0.05417889355810886
-0.5251240850684078 0.11482027717161981
-0.48566302693019836 0.1350340717094568
-0.4198945966998493 0.05417889355810886
-0.4462019687919889 0.0036444072135163965
-0.5251240850684078 0.1451409689783753
-0.6171998873908965 0.4079202979702561
-0.5251240850684078 0.7515548051134848
-0.3541261664695003 1.044654825912121
-0.20943561996273238 0.9536927504918548
-0.19628193391666257 0.3270651198189082
-0.31466510833129085 -0.33999009992971235
-0.4198945966998493 -0.5623418398459192
-0.4988167129762682 -0.4309521753499788
-0.47250934088412855 -0.21870733270269044
-0.3541261664695003 -0.07721077093783155
-0.28835773623915123 0.1249271744405383
-0.2752040501930814 0.2967444280121527
-0.3409724804234305 0.49888237339052255
-0.30151142228522104 0.589844448810789
-0.2620503641470116 0.39781340070133764
-0.20943561996273238 0.05417889355810886
-0.18312824787059276 -0.2793487163162014
-0.2225893060088022 -0.3804176890053863
-0.2620503641470116 -0.2894556135851199
-0.24889667810094182 -0.1378521545513425
-0.2620503641470116 -0.05699697639999456
-0.2620503641470116 0.09460648263378284
-0.2752040501930814 0.4079202979702561
-0.19628193391666257 0.48877547612160405
-0.15682087577845316 0.28663753074323417
-0.11735981764024372 -0.05699697639999456
-0.0910524455481041 -0.23892112724052741
-0.025284015317755062 -0.31977630539187535
0.04048441491259398 -0.3096694081229569
0.15886758932722225 -0.2692418190472829
0.2640970776957807 -0.20860043543377196
0.3956339381564788 -0.09742456547566854
0.5008634265250372 -0.04689007913107607
0.5534781707093165 -0.04689007913107607
0.3693265660643392 -0.03678318186215757
0.04048441491259398 -0.02667628459323908
-0.31466510833129085 0.05417889355810886
-0.511970399022338 0.17546166078513079
-0.4462019687919889 0.2563168389364787
-0.2620503641470116 0.21588924986080474
-0.13051350368631354 0.20578235259188626
-0.10420613159417391 0.15524786624729378
-0.0910524455481041 0.06428579082702736
-0.03843770136382487 0.0036444072135163965
0.05363810095866379 0.06428579082702736
0.0799454730508034 0.15524786624729378
0.04048441491259398 0.18556855805404926
0.04048441491259398 0.15524786624729378
0.0010233567743845565 0.11482027717161981
0.05363810095866379 0.15524786624729378
0.09309915909687322 0.2664237362053972
0.13256021723508266 0.3270651198189082
0.11940653118901283 0.2967444280121527
0.04048441491259398 0.3068513252810712
-0.025284015317755062 0.35738581162566363
-0.0778987595020343 0.3169582225499897
-0.11735981764024372 0.2563168389364787
-0.051591387409894676 0.2563168389364787
-0.025284015317755062 0.3472789143567451
0.04048441491259398 0.37759960616350063
0.09309915909687322 0.24620994166756022
0.0799454730508034 0.08449958536486434
0.0667917870047336 0.0036444072135163965
0.0667917870047336 -0.08731766820675003
0.05363810095866379 -0.1378521545513425
0.0799454730508034 -0.08731766820675003
0.0799454730508034 -0.02667628459323908
0.0799454730508034 -0.03678318186215757
0.10625284514294303 -0.09742456547566854
0.1983286474654317 -0.06710387366891306
0.27725076374185054 -0.02667628459323908
0.31671182188006 -0.02667628459323908
0.29040444978792035 -0.01656938732432059
0.29040444978792035 0.04407199628919037
0.29040444978792035 0.15524786624729378
0.3298655079261298 0.24620994166756022
0.3561728800182694 0.3068513252810712
0.38248025211040904 0.2664237362053972
0.3298655079261298 0.21588924986080474
0.30355813583399016 0.19567545532296776
0.3298655079261298 0.19567545532296776
0.38248025211040904 0.06428579082702736
0.3693265660643392 -0.03678318186215757
0.31671182188006 -0.08731766820675003
0.31671182188006 0.07439268809594585
0.3956339381564788 0.2664237362053972
0.46140236838682785 0.3371720170878267
0.3956339381564788 0.3169582225499897
0.3561728800182694 0.2563168389364787
0.3956339381564788 0.18556855805404926
0.4219413102486184 0.07439268809594585
0.4087876242025486 0.0036444072135163965
0.2509433916497109 0.05417889355810886
0.0667917870047336 0.23610304439864171
-0.03843770136382487 0.4180271952391746
0.04048441491259398 0.38770650343241914
0.14571390328115244 0.24620994166756022
0.17202127537329207 0.11482027717161981
0.1983286474654317 0.05417889355810886
0.22463601955757131 0.09460648263378284
0.2114823335115015 0.28663753074323417
0.1983286474654317 0.36749270889458213
0.11940653118901283 0.2563168389364787
0.0799454730508034 0.15524786624729378
0.05363810095866379 0.24620994166756022
0.0799454730508034 0.3472789143567451
0.09309915909687322 0.22599614712972324
0.10625284514294303 -0.01656938732432059
0.05363810095866379 -0.15806594908917948
0.05363810095866379 -0.08731766820675003
0.09309915909687322 0.03396509902027187
0.14571390328115244 0.11482027717161981
0.14571390328115244 0.20578235259188626
0.14571390328115244 0.22599614712972324
0.10625284514294303 0.1249271744405383
0.10625284514294303 0.06428579082702736
0.11940653118901283 0.03396509902027187
0.15886758932722225 0.10471337990270133
0.2509433916497109 0.1350340717094568
0.3693265660643392 0.11482027717161981
0.4877097404789675 0.11482027717161981
0.5797855428014561 0.19567545532296776
0.5403244846632467 0.3068513252810712
0.4219413102486184 0.4079202979702561
0.3693265660643392 0.4483478870459301
0.3693265660643392 0.37759960616350063
0.3956339381564788 0.1451409689783753
0.3956339381564788 -0.07721077093783155
0.3956339381564788 -0.15806594908917948
0.29040444978792035 -0.02667628459323908
0.13256021723508266 0.2563168389364787
0.0799454730508034 0.5393099624661966
0.10625284514294303 0.8020892914580773
0.27725076374185054 0.8627306750715883
0.4219413102486184 0.4079202979702561
0.5271707986171769 -0.31977630539187535
0.5797855428014561 -0.7543728879553706
0.6060929148935957 -0.6836246070729411
0.6324002869857354 -0.4006314835432233
0.7376297753542939 -0.20860043543377196
0.9217813799992711 -0.09742456547566854
1.1059329846442485 0.01375130448243489
1.1848551009206674 0.16535476351621228
1.1585477288285277 0.28663753074323417
1.0270108683678296 0.24620994166756022
0.9612424381374806 0.04407199628919037
0.9875498102296202 -0.19849353816485346
0.9217813799992711 -0.4208452780810603
0.6850150311700146 -0.46127286715673427
0.17202127537329207 -0.3905245862743048
-0.7487367478515945 -0.11763836001350551
-1.8668000617675282 0.20578235259188626
-2.9454023175452524 0.48877547612160405
-3.7609308524015805 0.6302720378864629
-4.287078294244373 0.7212341133067294
-4.629074131442188 0.8425168805337513
-4.8132257360871655 0.9536927504918548
-4.865840480271444 1.1154031067945507
-4.747457305856816 1.2568996685594096
-4.536998329119699 1.3983962303242683
-4.379154096566862 1.4388238193999423
-4.260770922152234 1.307434154904002
-4.195002491921884 1.1659375931391431
-3.958236143092628 1.1558306958702245
-3.4847034454341146 1.206365182214817
-2.919094945453113 1.1356169013323876
-2.6034064803474375 1.0345479286432027
-2.616560166393507 0.9637996477607732
-2.9059412594070433 0.9739065450296917
-3.10324655009809 1.0244410313742842
-2.9980170617295316 1.1255100040634691
-2.5113306780249487 1.267006565828328
-2.090412724550715 1.3579686412485945
-1.8668000617675282 1.327647949441839
-1.7615705733989697 1.18615138767698
-1.6563410850304114 1.1154031067945507
-1.4853431664315038 1.0850824149877951
-1.274884189694387 1.0648686204499582
-1.06442521295727 1.0951893122567136
-0.8802736083122926 0.9941203395675287
-0.7487367478515945 0.8829444696094253
-0.7355830618055247 0.7818754969202404
-0.6961220036673154 0.7818754969202404
-0.6566609455291059 0.8324099832648328
-0.47250934088412855 0.8425168805337513
-0.3672798525155701 0.7717685996513218
-0.24889667810094182 0.6706996269621369
-0.10420613159417391 0.6201651406175445
0.09309915909687322 0.549416859735115
0.31671182188006 0.48877547612160405
0.46140236838682785 0.3270651198189082
0.6192466009396655 0.21588924986080474
0.6850150311700146 0.11482027717161981
0.7507834614003637 0.04407199628919037
0.8165518916307127 0.0036444072135163965
0.9480887520914107 -0.04689007913107607
1.1190866706903182 -0.10753146274458703
1.2243161590588767 -0.20860043543377196
1.276930903243156 -0.2894556135851199
1.2637772171970862 -0.32988320266079385
1.1717014148745974 -0.35009699719863085
0.9743961241835504 -0.36020389446754936
0.7376297753542939 -0.35009699719863085
0.6324002869857354 -0.31977630539187535
0.6981687172160844 -0.2591349217783644
0.8165518916307127 -0.147959051820261
1.00070349627569 -0.09742456547566854
1.1848551009206674 -0.01656938732432059
1.2506235311510163 0.10471337990270133
1.276930903243156 0.2563168389364787
1.3163919613813655 0.1249271744405383
1.4479288218420636 -0.3096694081229569
1.553158310210622 -0.7543728879553706
1.618926740440971 -0.8049073742999631
1.6320804264870408 -0.6128763261905117
1.618926740440971 -0.47137976442565277
1.5926193683488314 -0.4309521753499788
1.6057730543949011 -0.4309521753499788
1.7110025427634596 -0.3804176890053863
1.7899246590398785 -0.4107383808121418
1.8425394032241578 -0.5118073535013268
1.829385717178088 -0.5623418398459192
1.8162320311320181 -0.5320211480391637
1.829385717178088 -0.5724487371148377
1.8820004613623673 -0.703838401610778
1.9872299497309256 -0.7948004770310445
2.039844693915205 -0.7846935797621261
2.0529983799612745 -0.7745866824932075
2.0793057520534144 -0.7745866824932075
2.105613124145554 -0.724052196148615
2.171381554375903 -0.6836246070729411
2.1976889264680426 -0.6735177098040226
2.2239962985601824 -0.6634108125351041
2.2108426125141123 -0.6533039152661856
2.2108426125141123 -0.6634108125351041
2.237149984606252 -0.703838401610778
2.250303670652322 -0.6431970179972671
2.316072100882671 -0.5825556343837561
2.3555331590208803 -0.5724487371148377
2.36868684506695 -0.6735177098040226
2.3423794729748106 -0.8150142715688815
2.3292257869287405 -0.865548757913474
2.36868684506695 -0.8251211688378
2.4081479032051596 -0.7341590934175336
2.36868684506695 -0.6533039152661856
2.3423794729748106 -0.6431970179972671
2.302918414836601 -0.5926625316526747
2.2766110427444617 -0.5320211480391637
2.2897647287905314 -0.5320211480391637
2.3423794729748106 -0.6128763261905117
2.3818405311130197 -0.6533039152661856
2.4081479032051596 -0.6533039152661856
2.3818405311130197 -0.6735177098040226
2.237149984606252 -0.7543728879553706
2.0135373218230654 -0.764479785224289
1.895154147408437 -0.744265990686452
1.7899246590398785 -0.6937315043418596
1.7767709729938088 -0.5926625316526747
1.7899246590398785 -0.46127286715673427
1.7899246590398785 -0.36020389446754936
1.69784885671739 -0.3804176890053863
1.69784885671739 -0.5118073535013268
1.6452341125331107 -0.6634108125351041
1.6057730543949011 -0.7745866824932075
1.5400046241645522 -0.744265990686452
1.5400046241645522 -0.6229832234594301
1.553158310210622 -0.46127286715673427
1.5005435660263426 -0.33999009992971235
1.408467763703854 -0.2692418190472829
1.276930903243156 -0.2995625108540384
1.2243161590588767 -0.4309521753499788
1.1453940427824578 -0.46127286715673427
1.1322403567363881 -0.4309521753499788
1.1453940427824578 -0.32988320266079385
1.1059329846442485 -0.2692418190472829
1.0533182404599692 -0.24902802450944592
0.9743961241835504 -0.24902802450944592
0.8954740079071315 -0.20860043543377196
0.8823203218610618 -0.15806594908917948
0.869166635814992 -0.1378521545513425
0.8297055776767825 -0.10753146274458703
0.8165518916307127 -0.07721077093783155
0.8297055776767825 -0.04689007913107607
0.8165518916307127 -0.0064624900554020965
0.6981687172160844 0.01375130448243489
0.514017112571107 -0.07721077093783155
0.3693265660643392 -0.08731766820675003
0.3561728800182694 -0.06710387366891306
0.4219413102486184 -0.03678318186215757
0.47455605443289767 0.0036444072135163965
0.43509499629468823 0.07439268809594585
0.3956339381564788 0.11482027717161981
0.43509499629468823 0.1451409689783753
0.44824868234075804 0.08449958536486434
0.3956339381564788 0.1249271744405383
0.38248025211040904 0.23610304439864171
0.38248025211040904 0.3472789143567451
0.47455605443289767 0.37759960616350063
0.6324002869857354 0.37759960616350063
0.7770908334925033 0.23610304439864171
0.8033982055846429 0.09460648263378284
0.7376297753542939 -0.0064624900554020965
0.6060929148935957 -0.08731766820675003
0.4877097404789675 -0.08731766820675003
0.3430191939721996 -0.01656938732432059
0.27725076374185054 0.04407199628919037
0.2640970776957807 0.04407199628919037
0.3693265660643392 0.03396509902027187
0.38248025211040904 0.06428579082702736
0.3561728800182694 0.07439268809594585
0.14571390328115244 0.03396509902027187
-0.16997456182452295 -0.03678318186215757
-0.31466510833129085 0.01375130448243489
-0.24889667810094182 0.16535476351621228
-0.03843770136382487 0.2765306334743157
0.09309915909687322 0.28663753074323417
0.11940653118901283 0.2765306334743157
0.13256021723508266 0.21588924986080474
0.11940653118901283 0.15524786624729378
0.17202127537329207 0.16535476351621228
0.18517496141936188 0.16535476351621228
0.1983286474654317 0.1350340717094568
0.1983286474654317 0.17546166078513079
0.1983286474654317 0.24620994166756022
0.1983286474654317 0.2664237362053972
0.17202127537329207 0.20578235259188626
0.15886758932722225 0.10471337990270133
0.14571390328115244 0.07439268809594585
0.15886758932722225 0.1249271744405383
0.15886758932722225 0.19567545532296776
0.11940653118901283 0.2563168389364787
0.10625284514294303 0.3068513252810712
0.13256021723508266 0.3472789143567451
0.18517496141936188 0.35738581162566363
0.18517496141936188 0.2664237362053972
0.15886758932722225 0.10471337990270133
0.13256021723508266 -0.0064624900554020965
0.2114823335115015 0.08449958536486434
0.23778970560364113 0.2563168389364787
0.22463601955757131 0.2967444280121527
0.18517496141936188 0.2664237362053972
0.17202127537329207 0.23610304439864171
0.17202127537329207 0.22599614712972324
0.17202127537329207 0.16535476351621228
0.17202127537329207 0.06428579082702736
0.18517496141936188 0.06428579082702736
0.2114823335115015 0.1249271744405383
0.18517496141936188 0.16535476351621228
0.15886758932722225 0.1249271744405383
0.2114823335115015 0.09460648263378284
0.22463601955757131 0.1249271744405383
0.23778970560364113 0.19567545532296776
0.29040444978792035 0.23610304439864171
0.3693265660643392 0.20578235259188626
0.43509499629468823 0.18556855805404926
0.4219413102486184 0.18556855805404926
0.3430191939721996 0.19567545532296776
0.4219413102486184 0.20578235259188626
0.5666318567553863 0.15524786624729378
0.6060929148935957 0.07439268809594585
0.44824868234075804 0.05417889355810886
0.15886758932722225 0.09460648263378284
-0.06474507345596449 0.1451409689783753
-0.20943561996273238 0.24620994166756022
-0.2752040501930814 0.2967444280121527
-0.2752040501930814 0.2765306334743157
-0.18312824787059276 0.23610304439864171
-0.0910524455481041 0.22599614712972324
-0.012130329271685253 0.2664237362053972
0.027330728866524174 0.2967444280121527
0.0667917870047336 0.2967444280121527
0.04048441491259398 0.2765306334743157
0.04048441491259398 0.3472789143567451
0.0667917870047336 0.4483478870459301
0.0667917870047336 0.4483478870459301
0.10625284514294303 0.2664237362053972
0.11940653118901283 0.04407199628919037
0.14571390328115244 0.03396509902027187
0.13256021723508266 0.08449958536486434
0.11940653118901283 0.1451409689783753
0.13256021723508266 0.21588924986080474
0.14571390328115244 0.2967444280121527
0.09309915909687322 0.3270651198189082
0.10625284514294303 0.3068513252810712
0.10625284514294303 0.3169582225499897
0.10625284514294303 0.3169582225499897
0.11940653118901283 0.2664237362053972
0.18517496141936188 0.1350340717094568
0.2114823335115015 0.03396509902027187
0.2509433916497109 0.0036444072135163965
0.23778970560364113 0.07439268809594585
0.31671182188006 0.18556855805404926
0.3956339381564788 0.21588924986080474
0.5271707986171769 0.16535476351621228
0.5666318567553863 0.10471337990270133
0.4877097404789675 0.09460648263378284
0.4219413102486184 0.1249271744405383
0.3956339381564788 0.10471337990270133
0.3430191939721996 0.1350340717094568
0.31671182188006 0.15524786624729378
0.38248025211040904 0.17546166078513079
0.6060929148935957 0.1249271744405383
0.724476089308224 0.07439268809594585
0.5929392288475259 0.07439268809594585
0.17202127537329207 0.16535476351621228
-0.235742992054872 0.3169582225499897
-0.3804335385616399 0.36749270889458213
-0.235742992054872 0.3068513252810712
-0.0778987595020343 0.18556855805404926
0.027330728866524174 0.16535476351621228
0.05363810095866379 0.20578235259188626
0.0010233567743845565 0.23610304439864171
0.0010233567743845565 0.21588924986080474
0.027330728866524174 0.19567545532296776
0.10625284514294303 0.18556855805404926
0.14571390328115244 0.24620994166756022
0.13256021723508266 0.3270651198189082
0.17202127537329207 0.3270651198189082
0.18517496141936188 0.2765306334743157
0.18517496141936188 0.16535476351621228
0.18517496141936188 0.09460648263378284
0.18517496141936188 0.10471337990270133
0.17202127537329207 0.15524786624729378
0.11940653118901283 0.23610304439864171
0.04048441491259398 0.2563168389364787
0.027330728866524174 0.24620994166756022
0.014177042820454365 0.24620994166756022
0.05363810095866379 0.2664237362053972
0.05363810095866379 0.3068513252810712
0.0799454730508034 0.2967444280121527
0.13256021723508266 0.2765306334743157
0.11940653118901283 0.22599614712972324
0.0799454730508034 0.19567545532296776
0.0799454730508034 0.20578235259188626
0.11940653118901283 0.22599614712972324
0.14571390328115244 0.20578235259188626
0.1983286474654317 0.16535476351621228
0.2114823335115015 0.18556855805404926
0.2114823335115015 0.16535476351621228
0.23778970560364113 0.20578235259188626
0.29040444978792035 0.20578235259188626
0.4219413102486184 0.20578235259188626
0.6718613451239448 0.18556855805404926
0.9743961241835504 0.10471337990270133
0.9743961241835504 0.04407199628919037
0.5403244846632467 0.01375130448243489
-0.0778987595020343 0.07439268809594585
-0.4330482827459191 0.1451409689783753
-0.2752040501930814 0.16535476351621228
0.17202127537329207 0.17546166078513079
0.6718613451239448 0.17546166078513079
1.0401645544138995 0.1451409689783753
1.2506235311510163 0.07439268809594585
1.421621449749924 0.0036444072135163965
1.6452341125331107 -0.01656938732432059
1.9346152055466463 -0.09742456547566854
2.2897647287905314 -0.127745257282424
2.644914252034416 -0.16817284635809798
2.934295345047952 -0.2793487163162014
3.1184469496929292 -0.44105907261889726
3.1184469496929292 -0.5421280453080822
2.934295345047952 -0.6735177098040226
2.5922995078501367 -0.7341590934175336
1.9477688915927163 -0.744265990686452
1.1059329846442485 -0.6330901207283487
0.30355813583399016 -0.45116596988781577
-0.2225893060088022 -0.2793487163162014
-0.4198945966998493 -0.22881422997160894
-0.5382777711144776 -0.20860043543377196
-0.5514314571605474 -0.17827974362701648
-0.48566302693019836 -0.08731766820675003
-0.39358722460770973 -0.01656938732432059
-0.3541261664695003 0.04407199628919037
-0.3409724804234305 -0.0064624900554020965
-0.30151142228522104 -0.03678318186215757
-0.24889667810094182 -0.0064624900554020965
-0.19628193391666257 0.05417889355810886
-0.2225893060088022 0.11482027717161981
-0.28835773623915123 0.10471337990270133
-0.31466510833129085 0.07439268809594585
-0.30151142228522104 0.06428579082702736
-0.2620503641470116 0.05417889355810886
-0.11735981764024372 0.08449958536486434
0.11940653118901283 0.11482027717161981
0.31671182188006 0.10471337990270133
0.3561728800182694 0.0036444072135163965
0.0667917870047336 -0.02667628459323908
-0.19628193391666257 -0.02667628459323908
-0.18312824787059276 0.08449958536486434
-0.03843770136382487 0.15524786624729378
-0.025284015317755062 0.1451409689783753
-0.18312824787059276 0.09460648263378284
-0.28835773623915123 0.08449958536486434
-0.14366718973238335 0.07439268809594585
0.1983286474654317 0.1350340717094568
0.3561728800182694 0.1350340717094568
0.10625284514294303 0.1350340717094568
-0.32781879437736067 0.15524786624729378
-0.5908925152987569 0.23610304439864171
-0.5908925152987569 0.3270651198189082
-0.39358722460770973 0.36749270889458213
-0.19628193391666257 0.3371720170878267
-0.10420613159417391 0.22599614712972324
-0.10420613159417391 0.21588924986080474
-0.0778987595020343 0.23610304439864171
0.0010233567743845565 0.2765306334743157
0.0799454730508034 0.2967444280121527
0.09309915909687322 0.22599614712972324
0.05363810095866379 0.19567545532296776
0.0010233567743845565 0.15524786624729378
-0.051591387409894676 0.15524786624729378
-0.0778987595020343 0.16535476351621228
-0.11735981764024372 0.17546166078513079
-0.012130329271685253 0.18556855805404926
0.027330728866524174 0.21588924986080474
0.05363810095866379 0.22599614712972324
0.0010233567743845565 0.2765306334743157
0.0010233567743845565 0.3371720170878267
0.0667917870047336 0.3169582225499897
0.13256021723508266 0.16535476351621228
0.0799454730508034 0.02385820175135338
0.04048441491259398 -0.01656938732432059
0.027330728866524174 0.05417889355810886
0.0667917870047336 0.10471337990270133
0.0667917870047336 0.17546166078513079
0.09309915909687322 0.16535476351621228
0.10625284514294303 0.11482027717161981
0.027330728866524174 0.08449958536486434
-0.03843770136382487 0.09460648263378284
-0.025284015317755062 0.1249271744405383
0.0010233567743845565 0.1350340717094568
0.04048441491259398 0.11482027717161981
0.05363810095866379 0.11482027717161981
0.05363810095866379 0.11482027717161981
0.0010233567743845565 0.1451409689783753
0.0667917870047336 0.16535476351621228
0.0799454730508034 0.18556855805404926
0.0799454730508034 0.18556855805404926
0.0667917870047336 0.19567545532296776
0.04048441491259398 0.19567545532296776
0.04048441491259398 0.15524786624729378
0.10625284514294303 0.17546166078513079
0.13256021723508266 0.22599614712972324
0.10625284514294303 0.2563168389364787
0.0799454730508034 0.28663753074323417
0.0799454730508034 0.2765306334743157
0.10625284514294303 0.28663753074323417
0.17202127537329207 0.23610304439864171
0.17202127537329207 0.2765306334743157
0.22463601955757131 0.2765306334743157
0.1983286474654317 0.2563168389364787
0.17202127537329207 0.2664237362053972
0.13256021723508266 0.2765306334743157
0.14571390328115244 0.28663753074323417
0.14571390328115244 0.3371720170878267
0.18517496141936188 0.3169582225499897
0.17202127537329207 0.2664237362053972
0.27725076374185054 0.22599614712972324
0.47455605443289767 0.20578235259188626
0.6455539730318052 0.23610304439864171
0.6060929148935957 0.38770650343241914
0.3430191939721996 0.45845478431484854
0.04048441491259398 0.37759960616350063
-0.0778987595020343 0.24620994166756022
-0.025284015317755062 0.18556855805404926
0.17202127537329207 0.18556855805404926
0.31671182188006 0.22599614712972324
0.43509499629468823 0.21588924986080474
0.47455605443289767 0.16535476351621228
0.5666318567553863 0.1249271744405383
0.5666318567553863 0.09460648263378284
0.5797855428014561 0.05417889355810886
0.5008634265250372 0.05417889355810886
0.44824868234075804 0.07439268809594585
0.3430191939721996 0.09460648263378284
0.2509433916497109 0.09460648263378284
0.17202127537329207 0.09460648263378284
0.17202127537329207 0.1451409689783753
0.2509433916497109 0.18556855805404926
0.31671182188006 0.19567545532296776
0.3561728800182694 0.16535476351621228
0.3298655079261298 0.1350340717094568
0.3430191939721996 0.1451409689783753
0.3693265660643392 0.16535476351621228
0.3561728800182694 0.1451409689783753
0.3561728800182694 0.1451409689783753
0.3430191939721996 0.16535476351621228
0.3693265660643392 0.1350340717094568
0.3956339381564788 0.1350340717094568
0.3693265660643392 0.15524786624729378
0.3561728800182694 0.15524786624729378
0.3298655079261298 0.16535476351621228
0.30355813583399016 0.1451409689783753
0.3298655079261298 0.1350340717094568
0.31671182188006 0.1350340717094568
0.4219413102486184 0.10471337990270133
0.5403244846632467 0.11482027717161981
0.6850150311700146 0.10471337990270133
0.7376297753542939 0.07439268809594585
0.724476089308224 0.06428579082702736
0.6192466009396655 0.08449958536486434
0.47455605443289767 0.07439268809594585
0.4219413102486184 0.04407199628919037
0.47455605443289767 0.04407199628919037
0.38248025211040904 0.01375130448243489
0.14571390328115244 0.02385820175135338
-0.0910524455481041 0.09460648263378284
-0.0778987595020343 0.16535476351621228
0.14571390328115244 0.23610304439864171
0.4087876242025486 0.2664237362053972
0.43509499629468823 0.2563168389364787
0.27725076374185054 0.22599614712972324
0.05363810095866379 0.20578235259188626
-0.06474507345596449 0.2563168389364787
-0.15682087577845316 0.3371720170878267
-0.16997456182452295 0.3371720170878267
-0.14366718973238335 0.35738581162566363
-0.11735981764024372 0.37759960616350063
-0.10420613159417391 0.39781340070133764
-0.025284015317755062 0.4180271952391746
0.09309915909687322 0.4180271952391746
0.23778970560364113 0.38770650343241914
0.3561728800182694 0.36749270889458213
0.4087876242025486 0.3270651198189082
0.4087876242025486 0.2765306334743157
0.44824868234075804 0.2664237362053972
0.5008634265250372 0.23610304439864171
0.5666318567553863 0.23610304439864171
0.5534781707093165 0.24620994166756022
0.5271707986171769 0.20578235259188626
0.4219413102486184 0.17546166078513079
0.4219413102486184 0.18556855805404926
0.5271707986171769 0.16535476351621228
0.6981687172160844 0.11482027717161981
0.6455539730318052 0.08449958536486434
0.38248025211040904 0.02385820175135338
-0.03843770136382487 -0.03678318186215757
-0.5514314571605474 -0.06710387366891306
-1.327498933878666 -0.05699697639999456
-2.2087958989653433 -0.02667628459323908
-3.1427076082362997 0.05417889355810886
-3.9187750849544183 0.17546166078513079
-4.642227817488258 0.3169582225499897
-5.076299457008561 0.47866857885268554
-5.20783631746926 0.6201651406175445
-5.128914201192841 0.7111272160378109
-5.063145770962492 0.7919823941891588
-5.049992084916422 0.8324099832648328
-4.997377340732143 0.8728375723405067
-4.865840480271444 0.9334789559540178
-4.721149933764677 0.9840134422986102
-4.51069095702756 1.004227236836447
-4.1818488058758145 1.0345479286432027
-3.866160340770139 1.044654825912121
-3.5636255617105337 1.0648686204499582
-3.221629724512719 1.1356169013323876
-2.8796338873149034 1.2164720794837356
-2.616560166393507 1.226578976752654
-2.379793817564251 1.2366858740215725
-2.221949585011413 1.287220360366165
-2.0509516664125056 1.307434154904002
-1.8668000617675282 1.327647949441839
-1.5905726548000623 1.3478617439796758
-1.261730503648317 1.327647949441839
-0.9460420385426417 1.267006565828328
-0.7092756897133852 1.1962582849458985
-0.577738829252687 1.1659375931391431
-0.5382777711144776 1.145723798601306
-0.5908925152987569 1.1154031067945507
-0.6961220036673154 1.0951893122567136
-0.7750441199437341 1.0749755177188767
-0.6961220036673154 1.004227236836447
-0.511970399022338 0.9334789559540178
-0.24889667810094182 0.9132651614161807
0.0667917870047336 0.8627306750715883
0.30355813583399016 0.7414479078445664
0.47455605443289767 0.6100582433486259
0.5797855428014561 0.4382409897770116
0.6850150311700146 0.3169582225499897
0.8428592637228524 0.21588924986080474
0.9612424381374806 0.17546166078513079
1.0664719265060392 0.1350340717094568
1.1190866706903182 0.08449958536486434
1.211162473012807 0.04407199628919037
1.211162473012807 -0.03678318186215757
1.2506235311510163 -0.11763836001350551
1.2900845892892259 -0.147959051820261
1.3690067055656447 -0.15806594908917948
1.408467763703854 -0.21870733270269044
1.4347751357959937 -0.21870733270269044
1.421621449749924 -0.23892112724052741
1.4742361939342032 -0.2692418190472829
1.5400046241645522 -0.2995625108540384
1.6583877985791804 -0.32988320266079385
1.7110025427634596 -0.36020389446754936
1.7373099148555993 -0.4006314835432233
1.7373099148555993 -0.4208452780810603
1.7767709729938088 -0.4208452780810603
1.829385717178088 -0.3804176890053863
1.8820004613623673 -0.36020389446754936
1.974076263684856 -0.37031079173646786
1.974076263684856 -0.4006314835432233
1.960922577638786 -0.4208452780810603
2.026691007869135 -0.4006314835432233
2.0529983799612745 -0.37031079173646786
2.092459438099484 -0.3804176890053863
2.1450741822837633 -0.3804176890053863
2.2108426125141123 -0.4107383808121418
2.2634573566983915 -0.47137976442565277
2.302918414836601 -0.5320211480391637
2.302918414836601 -0.5926625316526747
2.316072100882671 -0.5926625316526747
2.2766110427444617 -0.6229832234594301
2.2766110427444617 -0.6330901207283487
2.2897647287905314 -0.6229832234594301
2.3818405311130197 -0.5522349425770007
2.460762647389439 -0.5320211480391637
2.526531077619788 -0.5522349425770007
2.5396847636658575 -0.5623418398459192
2.447608961343369 -0.5926625316526747
2.36868684506695 -0.5825556343837561
2.36868684506695 -0.5724487371148377
2.4870700194815782 -0.5421280453080822
2.6317605659883463 -0.5421280453080822
2.671221624126556 -0.5623418398459192
2.5922995078501367 -0.5825556343837561
2.4739163334355085 -0.5926625316526747
2.36868684506695 -0.5623418398459192
2.2766110427444617 -0.5118073535013268
2.2766110427444617 -0.5219142507702452
2.3555331590208803 -0.5522349425770007
2.39499421715909 -0.6128763261905117
2.3292257869287405 -0.6128763261905117
2.3555331590208803 -0.5825556343837561
2.302918414836601 -0.5320211480391637
2.36868684506695 -0.5320211480391637
2.3555331590208803 -0.5623418398459192
2.316072100882671 -0.5926625316526747
2.184535240421973 -0.6027694289215931
2.105613124145554 -0.5623418398459192
2.0661520660073447 -0.5219142507702452
2.039844693915205 -0.5219142507702452
1.960922577638786 -0.5219142507702452
1.8688467753162974 -0.5118073535013268
1.8030783450859484 -0.4915935589634897
1.763617286947739 -0.4208452780810603
1.69784885671739 -0.3905245862743048
1.68469517067132 -0.4208452780810603
1.6320804264870408 -0.4208452780810603
1.5400046241645522 -0.4208452780810603
1.487389879980273 -0.4107383808121418
1.4610825078881333 -0.3804176890053863
1.408467763703854 -0.33999009992971235
1.3558530195195748 -0.2995625108540384
1.2900845892892259 -0.2793487163162014
1.211162473012807 -0.2591349217783644
1.1059329846442485 -0.22881422997160894
1.01385718232176 -0.19849353816485346
0.9480887520914107 -0.20860043543377196
0.9349350660453409 -0.23892112724052741
0.9612424381374806 -0.2995625108540384
0.9217813799992711 -0.2692418190472829
0.869166635814992 -0.18838664089593496
0.8954740079071315 -0.147959051820261
0.869166635814992 -0.09742456547566854
0.9086276939532013 -0.09742456547566854
0.9875498102296202 -0.07721077093783155
1.198008786966737 -0.08731766820675003
1.5136972520724126 -0.06710387366891306
1.6320804264870408 -0.1378521545513425
1.2637772171970862 -0.15806594908917948
0.5929392288475259 -0.09742456547566854
-0.03843770136382487 -0.0064624900554020965
-0.3409724804234305 0.07439268809594585
-0.19628193391666257 0.15524786624729378
0.17202127537329207 0.21588924986080474
0.38248025211040904 0.23610304439864171
0.43509499629468823 0.21588924986080474
0.3298655079261298 0.21588924986080474
0.23778970560364113 0.18556855805404926
0.18517496141936188 0.17546166078513079
0.17202127537329207 0.21588924986080474
0.2509433916497109 0.22599614712972324
0.29040444978792035 0.20578235259188626
0.3430191939721996 0.17546166078513079
0.3430191939721996 0.1451409689783753
0.2640970776957807 0.1451409689783753
0.23778970560364113 0.1451409689783753
0.2640970776957807 0.1249271744405383
0.27725076374185054 0.07439268809594585
0.30355813583399016 0.01375130448243489
0.30355813583399016 -0.02667628459323908
0.30355813583399016 -0.02667628459323908
0.3561728800182694 -0.03678318186215757
0.3298655079261298 0.01375130448243489
0.3298655079261298 -0.0064624900554020965
0.3298655079261298 -0.0064624900554020965
0.30355813583399016 -0.04689007913107607
0.27725076374185054 -0.04689007913107607
0.30355813583399016 -0.01656938732432059
0.29040444978792035 -0.0064624900554020965
0.27725076374185054 0.03396509902027187
0.3430191939721996 0.05417889355810886
0.3561728800182694 0.06428579082702736
0.30355813583399016 0.05417889355810886
0.30355813583399016 0.1249271744405383
0.30355813583399016 0.18556855805404926
0.30355813583399016 0.19567545532296776
0.29040444978792035 0.16535476351621228
0.2640970776957807 0.09460648263378284
0.2509433916497109 0.0036444072135163965
0.22463601955757131 -0.01656938732432059
0.18517496141936188 0.03396509902027187
0.18517496141936188 0.06428579082702736
0.1983286474654317 0.09460648263378284
0.18517496141936188 0.08449958536486434
0.15886758932722225 0.05417889355810886
0.13256021723508266 0.05417889355810886
0.0667917870047336 0.10471337990270133
0.05363810095866379 0.1451409689783753
0.10625284514294303 0.1451409689783753
0.13256021723508266 0.10471337990270133
0.10625284514294303 0.08449958536486434
0.05363810095866379 0.1451409689783753
0.09309915909687322 0.19567545532296776
0.14571390328115244 0.19567545532296776
0.15886758932722225 0.17546166078513079
0.18517496141936188 0.1249271744405383
0.1983286474654317 0.10471337990270133
0.23778970560364113 0.10471337990270133
0.2640970776957807 0.1350340717094568
0.23778970560364113 0.1451409689783753
0.1983286474654317 0.1350340717094568
0.15886758932722225 0.11482027717161981
0.18517496141936188 0.1249271744405383
0.2640970776957807 0.1249271744405383
0.23778970560364113 0.19567545532296776
0.18517496141936188 0.15524786624729378
0.17202127537329207 0.1451409689783753
0.14571390328115244 0.11482027717161981
0.13256021723508266 0.09460648263378284
0.14571390328115244 0.1249271744405383
0.10625284514294303 0.17546166078513079
0.10625284514294303 0.16535476351621228
0.04048441491259398 0.17546166078513079
0.0010233567743845565 0.1451409689783753
-0.025284015317755062 0.15524786624729378
0.04048441491259398 0.18556855805404926
0.0667917870047336 0.19567545532296776
0.05363810095866379 0.17546166078513079
0.09309915909687322 0.18556855805404926
0.13256021723508266 0.19567545532296776
0.17202127537329207 0.17546166078513079
0.1983286474654317 0.18556855805404926
0.14571390328115244 0.19567545532296776
0.09309915909687322 0.18556855805404926
0.05363810095866379 0.19567545532296776
0.027330728866524174 0.19567545532296776
0.05363810095866379 0.15524786624729378
0.13256021723508266 0.19567545532296776
0.29040444978792035 0.21588924986080474
0.46140236838682785 0.19567545532296776
0.6060929148935957 0.16535476351621228
0.658707659077875 0.10471337990270133
0.5403244846632467 0.06428579082702736
0.3430191939721996 0.09460648263378284
0.0667917870047336 0.1350340717094568
-0.11735981764024372 0.15524786624729378
-0.13051350368631354 0.21588924986080474
-0.06474507345596449 0.23610304439864171
-0.012130329271685253 0.21588924986080474
-0.025284015317755062 0.21588924986080474
-0.06474507345596449 0.22599614712972324
-0.03843770136382487 0.2563168389364787
0.05363810095866379 0.2765306334743157
0.14571390328115244 0.21588924986080474
0.1983286474654317 0.19567545532296776
0.13256021723508266 0.18556855805404926
0.13256021723508266 0.18556855805404926
0.1983286474654317 0.15524786624729378
0.22463601955757131 0.15524786624729378
0.27725076374185054 0.1249271744405383
0.30355813583399016 0.1249271744405383
0.27725076374185054 0.11482027717161981
0.2640970776957807 0.1350340717094568
0.3298655079261298 0.1249271744405383
0.31671182188006 0.09460648263378284
0.23778970560364113 0.10471337990270133
0.13256021723508266 0.11482027717161981
0.0667917870047336 0.1350340717094568
0.04048441491259398 0.1350340717094568
0.05363810095866379 0.1451409689783753
0.13256021723508266 0.1249271744405383
0.14571390328115244 0.09460648263378284
0.15886758932722225 0.10471337990270133
0.18517496141936188 0.10471337990270133
0.1983286474654317 0.1350340717094568
0.1983286474654317 0.1249271744405383
0.15886758932722225 0.11482027717161981
0.11940653118901283 0.07439268809594585
0.10625284514294303 0.06428579082702736
0.13256021723508266 0.06428579082702736
0.14571390328115244 0.04407199628919037
0.17202127537329207 0.03396509902027187
0.22463601955757131 0.05417889355810886
0.2114823335115015 0.06428579082702736
0.18517496141936188 0.08449958536486434
0.13256021723508266 0.10471337990270133
0.09309915909687322 0.06428579082702736
0.05363810095866379 0.01375130448243489
0.014177042820454365 0.01375130448243489
0.014177042820454365 0.04407199628919037
0.04048441491259398 0.08449958536486434
0.0667917870047336 0.1249271744405383
0.0799454730508034 0.1451409689783753
0.0799454730508034 0.1350340717094568
0.0799454730508034 0.11482027717161981
0.0667917870047336 0.07439268809594585
0.05363810095866379 0.06428579082702736
0.0799454730508034 0.08449958536486434
0.10625284514294303 0.10471337990270133
0.10625284514294303 0.10471337990270133
0.09309915909687322 0.11482027717161981
0.10625284514294303 0.08449958536486434
