-0.491161429583781 -0.4707686919995056
-0.4695090132721667 -0.43252250302415984
-0.4262041806489381 -0.43252250302415984
-0.4262041806489381 -0.3751532195611412
-0.43703038880474526 -0.413399408536487
-0.4478565969605524 -0.45164559751183275
-0.4478565969605524 -0.5090148809748514
-0.45868280511635956 -0.5090148809748514
-0.4695090132721667 -0.5090148809748514
-0.45868280511635956 -0.4707686919995056
-0.4478565969605524 -0.48989178648717846
-0.43703038880474526 -0.45164559751183275
-0.41537797249313096 -0.39427631404881414
-0.4045517643373238 -0.33690703058579546
-0.39372555618151667 -0.3177839360981226
-0.39372555618151667 -0.3751532195611412
-0.39372555618151667 -0.33690703058579546
-0.3828993480257095 -0.39427631404881414
-0.3828993480257095 -0.413399408536487
-0.39372555618151667 -0.4707686919995056
-0.4045517643373238 -0.5090148809748514
-0.4262041806489381 -0.43252250302415984
-0.4262041806489381 -0.43252250302415984
-0.4045517643373238 -0.3560301250734684
-0.39372555618151667 -0.33690703058579546
-0.3828993480257095 -0.29866084161044976
-0.37207313986990237 -0.29866084161044976
-0.37207313986990237 -0.3560301250734684
-0.3828993480257095 -0.3751532195611412
-0.35042072355828807 -0.413399408536487
-0.3612469317140952 -0.413399408536487
-0.37207313986990237 -0.413399408536487
-0.3612469317140952 -0.413399408536487
-0.3612469317140952 -0.3751532195611412
-0.35042072355828807 -0.3751532195611412
-0.3828993480257095 -0.3751532195611412
-0.37207313986990237 -0.3177839360981226
-0.3612469317140952 -0.33690703058579546
-0.3287683072466738 -0.33690703058579546
-0.29628968277925233 -0.3177839360981226
-0.29628968277925233 -0.3560301250734684
-0.3071158909350595 -0.3177839360981226
-0.3395945154024809 -0.39427631404881414
-0.3612469317140952 -0.413399408536487
-0.3828993480257095 -0.4707686919995056
-0.37207313986990237 -0.43252250302415984
-0.37207313986990237 -0.39427631404881414
-0.35042072355828807 -0.39427631404881414
-0.3179420990908666 -0.413399408536487
-0.29628968277925233 -0.33690703058579546
-0.2854634746234452 -0.3560301250734684
-0.25298485015602373 -0.39427631404881414
-0.2854634746234452 -0.43252250302415984
-0.3179420990908666 -0.45164559751183275
-0.3179420990908666 -0.43252250302415984
-0.3287683072466738 -0.43252250302415984
-0.3395945154024809 -0.413399408536487
-0.3395945154024809 -0.3751532195611412
-0.3612469317140952 -0.39427631404881414
-0.3612469317140952 -0.3560301250734684
-0.3179420990908666 -0.33690703058579546
-0.3395945154024809 -0.3177839360981226
-0.3071158909350595 -0.27953774712277685
-0.3071158909350595 -0.33690703058579546
-0.29628968277925233 -0.3751532195611412
-0.3071158909350595 -0.3560301250734684
-0.3287683072466738 -0.39427631404881414
-0.29628968277925233 -0.413399408536487
-0.3179420990908666 -0.3751532195611412
-0.35042072355828807 -0.4707686919995056
-0.35042072355828807 -0.39427631404881414
-0.35042072355828807 -0.3177839360981226
-0.3179420990908666 -0.33690703058579546
-0.29628968277925233 -0.29866084161044976
-0.27463726646763803 -0.3177839360981226
-0.2638110583118309 -0.29866084161044976
-0.2854634746234452 -0.3751532195611412
-0.2854634746234452 -0.413399408536487
-0.2854634746234452 -0.43252250302415984
-0.3179420990908666 -0.4707686919995056
-0.29628968277925233 -0.43252250302415984
-0.3179420990908666 -0.413399408536487
-0.29628968277925233 -0.43252250302415984
-0.2854634746234452 -0.413399408536487
-0.2854634746234452 -0.39427631404881414
-0.27463726646763803 -0.3177839360981226
-0.25298485015602373 -0.33690703058579546
-0.27463726646763803 -0.3560301250734684
-0.2638110583118309 -0.43252250302415984
-0.25298485015602373 -0.4707686919995056
-0.2638110583118309 -0.45164559751183275
-0.3071158909350595 -0.43252250302415984
-0.29628968277925233 -0.43252250302415984
-0.29628968277925233 -0.43252250302415984
-0.3071158909350595 -0.413399408536487
-0.3071158909350595 -0.3751532195611412
-0.3071158909350595 -0.3751532195611412
-0.2638110583118309 -0.3751532195611412
-0.25298485015602373 -0.3751532195611412
-0.20968001753279517 -0.3751532195611412
-0.25298485015602373 -0.413399408536487
-0.24215864200021658 -0.4707686919995056
-0.25298485015602373 -0.45164559751183275
-0.2854634746234452 -0.5281379754625242
-0.29628968277925233 -0.5090148809748514
-0.3287683072466738 -0.48989178648717846
-0.3071158909350595 -0.5090148809748514
-0.3071158909350595 -0.4707686919995056
-0.27463726646763803 -0.4707686919995056
-0.2638110583118309 -0.4707686919995056
-0.25298485015602373 -0.45164559751183275
-0.25298485015602373 -0.43252250302415984
-0.24215864200021658 -0.5281379754625242
-0.2205062256886023 -0.5090148809748514
-0.19885380937698802 -0.56638416443787
-0.18802760122118087 -0.56638416443787
-0.23133243384440944 -0.5855072589255428
-0.2205062256886023 -0.5281379754625242
-0.20968001753279517 -0.5855072589255428
-0.20968001753279517 -0.48989178648717846
-0.19885380937698802 -0.5281379754625242
-0.16637518490956657 -0.48989178648717846
-0.16637518490956657 -0.4707686919995056
-0.16637518490956657 -0.45164559751183275
-0.16637518490956657 -0.43252250302415984
-0.15554897675375942 -0.45164559751183275
-0.15554897675375942 -0.45164559751183275
-0.12307035228633798 -0.5090148809748514
-0.12307035228633798 -0.5281379754625242
-0.11224414413053083 -0.5090148809748514
-0.11224414413053083 -0.5281379754625242
-0.10141793597472368 -0.48989178648717846
-0.05811310335149509 -0.39427631404881414
-0.06893931150730223 -0.45164559751183275
-0.025634478884073643 -0.413399408536487
-0.014808270728266496 -0.43252250302415984
-0.03646068703988079 -0.39427631404881414
-0.05811310335149509 -0.413399408536487
-0.07976551966310938 -0.43252250302415984
-0.12307035228633798 -0.4707686919995056
-0.15554897675375942 -0.4707686919995056
-0.18802760122118087 -0.45164559751183275
-0.20968001753279517 -0.413399408536487
-0.18802760122118087 -0.3751532195611412
-0.17720139306537372 -0.3560301250734684
-0.14472276859795227 -0.29866084161044976
-0.07976551966310938 -0.24129155814743114
-0.03646068703988079 -0.20304536917208538
-0.014808270728266496 -0.22216846365975826
-0.003982062572459349 -0.18392227468441252
-0.03646068703988079 -0.22216846365975826
-0.025634478884073643 -0.29866084161044976
-0.05811310335149509 -0.29866084161044976
-0.07976551966310938 -0.29866084161044976
-0.13389656044214512 -0.3560301250734684
-0.18802760122118087 -0.413399408536487
-0.20968001753279517 -0.3751532195611412
-0.2638110583118309 -0.43252250302415984
-0.27463726646763803 -0.45164559751183275
-0.27463726646763803 -0.413399408536487
-0.3071158909350595 -0.5090148809748514
-0.27463726646763803 -0.48989178648717846
-0.3071158909350595 -0.5090148809748514
-0.3179420990908666 -0.5281379754625242
-0.35042072355828807 -0.6046303534132157
-0.35042072355828807 -0.6237534479008886
-0.35042072355828807 -0.6811227313639072
-0.3612469317140952 -0.6619996368762343
-0.3612469317140952 -0.70024582585158
-0.35042072355828807 -0.7576151093145986
-0.3071158909350595 -0.8341074872652902
-0.3071158909350595 -0.8914767707283088
-0.3179420990908666 -0.8723536762406359
-0.29628968277925233 -0.6619996368762343
-0.16637518490956657 -0.3751532195611412
-0.05811310335149509 0.04555485916766196
0.07180139451819069 0.485386032384138
0.15841105976464787 0.8487248276499226
0.2991517657901408 1.0399557725266513
0.3749352228807908 1.0017095835513055
0.42906626365982653 0.638370788285521
0.38576143103659793 -0.1265529912213939
0.24502072501110506 -1.1018308100927103
0.14758485160884072 -2.057985534476354
0.03932277005076924 -2.689047652569559
0.10428001898561212 -2.63167836910654
0.30997797394594795 -2.0006162510133354
0.6455904267759695 -0.9679691486790003
1.1002911693198696 0.2176627095567178
1.5441657037079628 1.3459252843294174
2.0529974870308987 2.282956914225388
2.5401768540422203 3.0670037882199757
3.038182429209349 3.621573528362489
3.536188004376478 4.004035418115946
3.980062538764571 4.137897079529656
4.272370158971364 4.099650890554311
4.391458448685243 3.8510506622145635
4.413110864996857 3.43034258348576
4.2507177426597496 2.9713883157816112
3.990888746920378 2.4933109535897895
3.611971461467128 2.0726028748609866
3.1356183026116136 1.5754024181814918
2.583481686665449 1.1355712449650157
2.0421712788750916 0.7722324496992311
1.5549919118637698 0.5427553158471566
1.1002911693198696 0.332401276482755
0.6780690512433909 0.10292414263068057
0.3424565984133694 -0.18392227468441252
-0.05811310335149509 -0.5090148809748514
-0.3395945154024809 -0.7193689203392529
-0.5994235111418524 -0.9870922431666731
-0.7401642171673454 -1.178323188043402
-0.8267738824138026 -1.159200093555729
-0.8917311313486455 -1.1018308100927103
-0.9242097558160669 -1.0062153376543461
-0.9025573395044526 -0.8532305817529631
-0.859252506881224 -0.70024582585158
-0.7942952579463811 -0.6811227313639072
-0.7185118008557311 -0.5472610699501971
-0.6643807600766953 -0.45164559751183275
-0.6210759274534667 -0.45164559751183275
-0.6319021356092739 -0.413399408536487
-0.6210759274534667 -0.3177839360981226
-0.642728343765081 -0.33690703058579546
-0.6535545519208882 -0.29866084161044976
-0.6643807600766953 -0.3560301250734684
-0.6535545519208882 -0.27953774712277685
-0.6210759274534667 -0.27953774712277685
-0.5994235111418524 -0.24129155814743114
-0.5994235111418524 -0.260414652635104
-0.5777710948302381 -0.24129155814743114
-0.6210759274534667 -0.24129155814743114
-0.5777710948302381 -0.22216846365975826
-0.5994235111418524 -0.260414652635104
-0.6102497192976596 -0.27953774712277685
-0.6210759274534667 -0.260414652635104
-0.6210759274534667 -0.29866084161044976
-0.6210759274534667 -0.27953774712277685
-0.6319021356092739 -0.29866084161044976
-0.6535545519208882 -0.260414652635104
-0.6860331763883096 -0.20304536917208538
-0.6643807600766953 -0.20304536917208538
-0.6535545519208882 -0.14567608570906676
-0.6210759274534667 -0.14567608570906676
-0.6535545519208882 -0.22216846365975826
-0.642728343765081 -0.20304536917208538
-0.6535545519208882 -0.27953774712277685
-0.6643807600766953 -0.3560301250734684
-0.6643807600766953 -0.3751532195611412
-0.6535545519208882 -0.39427631404881414
-0.642728343765081 -0.3751532195611412
-0.642728343765081 -0.3560301250734684
-0.642728343765081 -0.3560301250734684
-0.6643807600766953 -0.27953774712277685
-0.6535545519208882 -0.29866084161044976
-0.6643807600766953 -0.3177839360981226
-0.6752069682325025 -0.413399408536487
-0.6860331763883096 -0.413399408536487
-0.6860331763883096 -0.4707686919995056
-0.7076855926999239 -0.5855072589255428
-0.7509904253231525 -0.6046303534132157
-0.7401642171673454 -0.6428765423885614
-0.7293380090115382 -0.6237534479008886
-0.7509904253231525 -0.5472610699501971
-0.7293380090115382 -0.5090148809748514
-0.7185118008557311 -0.5281379754625242
-0.7509904253231525 -0.5090148809748514
-0.7618166334789597 -0.6046303534132157
-0.7509904253231525 -0.6428765423885614
-0.7618166334789597 -0.7193689203392529
-0.7509904253231525 -0.7576151093145986
-0.783469049790574 -0.8341074872652902
-0.7726428416347668 -0.8914767707283088
-0.7509904253231525 -0.8914767707283088
-0.7618166334789597 -0.8914767707283088
-0.7509904253231525 -0.8532305817529631
-0.7618166334789597 -0.8914767707283088
-0.7726428416347668 -0.8532305817529631
-0.7401642171673454 -0.8914767707283088
-0.6968593845441168 -0.9297229597036545
-0.6860331763883096 -1.025338432142019
-0.7293380090115382 -1.025338432142019
-0.7076855926999239 -1.1018308100927103
-0.7509904253231525 -1.1400769990680562
-0.7618166334789597 -1.2165693770187476
-0.7618166334789597 -1.1974462825310748
-0.7401642171673454 -1.178323188043402
-0.7293380090115382 -1.1400769990680562
-0.7076855926999239 -1.1209539045803834
-0.7076855926999239 -1.0444615266296917
-0.6535545519208882 -1.0444615266296917
-0.6319021356092739 -1.0444615266296917
-0.6319021356092739 -1.1018308100927103
-0.6643807600766953 -1.159200093555729
-0.6643807600766953 -1.1974462825310748
-0.642728343765081 -1.2165693770187476
-0.6102497192976596 -1.178323188043402
-0.5561186785186238 -1.178323188043402
-0.5344662622070095 -1.178323188043402
-0.5019876377395881 -1.1018308100927103
-0.4695090132721667 -1.0635846211173647
-0.43703038880474526 -1.0062153376543461
-0.41537797249313096 -0.9297229597036545
-0.3828993480257095 -0.9105998652159817
-0.35042072355828807 -0.8723536762406359
-0.3179420990908666 -0.8723536762406359
-0.3071158909350595 -0.8723536762406359
-0.2854634746234452 -0.8723536762406359
-0.2638110583118309 -0.8341074872652902
-0.24215864200021658 -0.8341074872652902
-0.20968001753279517 -0.7767382038022715
-0.19885380937698802 -0.7384920148269258
-0.17720139306537372 -0.6811227313639072
-0.11224414413053083 -0.6237534479008886
-0.11224414413053083 -0.5281379754625242
-0.10141793597472368 -0.5090148809748514
-0.09059172781891653 -0.5090148809748514
-0.05811310335149509 -0.5090148809748514
-0.07976551966310938 -0.56638416443787
-0.06893931150730223 -0.6237534479008886
-0.05811310335149509 -0.6428765423885614
-0.06893931150730223 -0.6046303534132157
-0.07976551966310938 -0.5855072589255428
-0.05811310335149509 -0.5281379754625242
-0.05811310335149509 -0.4707686919995056
-0.05811310335149509 -0.43252250302415984
-0.03646068703988079 -0.45164559751183275
-0.04728689519568794 -0.48989178648717846
-0.05811310335149509 -0.48989178648717846
-0.07976551966310938 -0.5090148809748514
-0.10141793597472368 -0.5090148809748514
-0.15554897675375942 -0.5472610699501971
-0.14472276859795227 -0.5472610699501971
-0.20968001753279517 -0.5855072589255428
-0.20968001753279517 -0.5855072589255428
-0.23133243384440944 -0.6619996368762343
-0.2638110583118309 -0.56638416443787
-0.27463726646763803 -0.5281379754625242
-0.2638110583118309 -0.5281379754625242
-0.2638110583118309 -0.5855072589255428
-0.29628968277925233 -0.6811227313639072
-0.3395945154024809 -0.6619996368762343
-0.3612469317140952 -0.7193689203392529
-0.41537797249313096 -0.7384920148269258
-0.43703038880474526 -0.7767382038022715
-0.48033522142797386 -0.8149843927776173
-0.491161429583781 -0.7576151093145986
-0.491161429583781 -0.7384920148269258
-0.48033522142797386 -0.7193689203392529
-0.48033522142797386 -0.7193689203392529
-0.5128138458953952 -0.7384920148269258
-0.5019876377395881 -0.7576151093145986
-0.5019876377395881 -0.7958612982899445
-0.48033522142797386 -0.7958612982899445
-0.48033522142797386 -0.8723536762406359
-0.5019876377395881 -0.8532305817529631
-0.5019876377395881 -0.8149843927776173
-0.5128138458953952 -0.8723536762406359
-0.5561186785186238 -0.7767382038022715
-0.5344662622070095 -0.7576151093145986
-0.5236400540512024 -0.70024582585158
-0.5019876377395881 -0.6811227313639072
-0.4695090132721667 -0.6811227313639072
-0.4262041806489381 -0.6811227313639072
-0.4262041806489381 -0.7193689203392529
-0.4478565969605524 -0.7384920148269258
-0.4695090132721667 -0.7767382038022715
-0.491161429583781 -0.7767382038022715
-0.5128138458953952 -0.7193689203392529
-0.5236400540512024 -0.70024582585158
-0.5019876377395881 -0.6811227313639072
-0.5019876377395881 -0.6046303534132157
-0.45868280511635956 -0.6046303534132157
-0.4262041806489381 -0.48989178648717846
-0.37207313986990237 -0.48989178648717846
-0.3612469317140952 -0.5281379754625242
-0.3612469317140952 -0.43252250302415984
-0.3612469317140952 -0.45164559751183275
-0.3828993480257095 -0.5090148809748514
-0.3828993480257095 -0.5090148809748514
-0.3828993480257095 -0.5472610699501971
-0.3828993480257095 -0.48989178648717846
-0.37207313986990237 -0.4707686919995056
-0.3612469317140952 -0.45164559751183275
-0.3071158909350595 -0.3751532195611412
-0.29628968277925233 -0.3751532195611412
-0.2638110583118309 -0.33690703058579546
-0.2854634746234452 -0.33690703058579546
-0.2638110583118309 -0.3751532195611412
-0.29628968277925233 -0.39427631404881414
-0.3071158909350595 -0.45164559751183275
-0.3395945154024809 -0.4707686919995056
-0.3287683072466738 -0.5090148809748514
-0.35042072355828807 -0.45164559751183275
-0.3287683072466738 -0.45164559751183275
-0.3179420990908666 -0.45164559751183275
-0.2854634746234452 -0.39427631404881414
-0.29628968277925233 -0.33690703058579546
-0.2638110583118309 -0.29866084161044976
-0.23133243384440944 -0.29866084161044976
-0.24215864200021658 -0.3177839360981226
-0.24215864200021658 -0.3177839360981226
-0.2638110583118309 -0.33690703058579546
-0.2638110583118309 -0.39427631404881414
-0.2638110583118309 -0.43252250302415984
-0.25298485015602373 -0.39427631404881414
-0.25298485015602373 -0.3177839360981226
-0.27463726646763803 -0.3560301250734684
-0.2638110583118309 -0.29866084161044976
-0.24215864200021658 -0.24129155814743114
-0.23133243384440944 -0.20304536917208538
-0.23133243384440944 -0.27953774712277685
-0.20968001753279517 -0.3177839360981226
-0.23133243384440944 -0.33690703058579546
-0.23133243384440944 -0.413399408536487
-0.24215864200021658 -0.413399408536487
-0.25298485015602373 -0.45164559751183275
-0.24215864200021658 -0.3560301250734684
-0.25298485015602373 -0.3560301250734684
-0.2205062256886023 -0.260414652635104
-0.23133243384440944 -0.27953774712277685
-0.20968001753279517 -0.24129155814743114
-0.19885380937698802 -0.24129155814743114
-0.18802760122118087 -0.22216846365975826
-0.18802760122118087 -0.260414652635104
-0.19885380937698802 -0.29866084161044976
-0.18802760122118087 -0.33690703058579546
-0.20968001753279517 -0.3560301250734684
-0.20968001753279517 -0.413399408536487
-0.23133243384440944 -0.39427631404881414
-0.2205062256886023 -0.3751532195611412
-0.20968001753279517 -0.3177839360981226
-0.19885380937698802 -0.27953774712277685
-0.17720139306537372 -0.16479918019673964
-0.19885380937698802 -0.16479918019673964
-0.17720139306537372 -0.20304536917208538
-0.16637518490956657 -0.24129155814743114
-0.16637518490956657 -0.22216846365975826
-0.16637518490956657 -0.24129155814743114
-0.16637518490956657 -0.27953774712277685
-0.17720139306537372 -0.3177839360981226
-0.19885380937698802 -0.3751532195611412
-0.17720139306537372 -0.29866084161044976
-0.18802760122118087 -0.27953774712277685
-0.16637518490956657 -0.260414652635104
-0.15554897675375942 -0.20304536917208538
-0.11224414413053083 -0.14567608570906676
-0.11224414413053083 -0.05006061327070241
-0.13389656044214512 -0.05006061327070241
-0.12307035228633798 -0.08830680224604816
-0.12307035228633798 -0.16479918019673964
-0.12307035228633798 -0.260414652635104
-0.14472276859795227 -0.27953774712277685
-0.17720139306537372 -0.260414652635104
-0.16637518490956657 -0.20304536917208538
-0.16637518490956657 -0.1265529912213939
-0.15554897675375942 -0.10742989673372103
-0.12307035228633798 -0.08830680224604816
-0.13389656044214512 -0.06918370775837528
-0.13389656044214512 -0.06918370775837528
-0.12307035228633798 -0.10742989673372103
-0.10141793597472368 -0.16479918019673964
-0.12307035228633798 -0.20304536917208538
-0.07976551966310938 -0.22216846365975826
-0.12307035228633798 -0.24129155814743114
-0.12307035228633798 -0.24129155814743114
-0.11224414413053083 -0.20304536917208538
-0.10141793597472368 -0.16479918019673964
-0.05811310335149509 -0.1265529912213939
-0.04728689519568794 -0.10742989673372103
-0.025634478884073643 -0.08830680224604816
-0.03646068703988079 -0.1265529912213939
-0.03646068703988079 -0.10742989673372103
-0.014808270728266496 -0.06918370775837528
-0.014808270728266496 -0.08830680224604816
-0.014808270728266496 -0.1265529912213939
-0.003982062572459349 -0.10742989673372103
0.006844145583347798 -0.06918370775837528
0.006844145583347798 -0.08830680224604816
0.03932277005076924 -0.06918370775837528
0.10428001898561212 -0.06918370775837528
0.09345381082980497 -0.06918370775837528
0.10428001898561212 -0.030937518783029534
0.12593243529722642 -0.030937518783029534
0.12593243529722642 -0.06918370775837528
0.08262760267399782 -0.030937518783029534
0.05014897820657639 -0.05006061327070241
0.006844145583347798 -0.05006061327070241
-0.003982062572459349 -0.011814424295356661
-0.03646068703988079 -0.030937518783029534
-0.03646068703988079 0.0073086701923162104
-0.014808270728266496 0.0073086701923162104
0.03932277005076924 0.0838010481430077
0.060975186362383534 0.12204723711835344
0.12593243529722642 0.25590889853206356
0.14758485160884072 0.17941652058137206
0.13675864345303357 0.23678580404439067
0.14758485160884072 0.16029342609369918
0.09345381082980497 0.14117033160602632
0.03932277005076924 0.12204723711835344
-0.003982062572459349 0.10292414263068057
-0.04728689519568794 0.026431764679989082
-0.06893931150730223 -0.05006061327070241
-0.12307035228633798 -0.05006061327070241
-0.13389656044214512 -0.05006061327070241
-0.15554897675375942 -0.05006061327070241
-0.13389656044214512 0.0073086701923162104
-0.11224414413053083 0.026431764679989082
-0.09059172781891653 0.026431764679989082
-0.10141793597472368 -0.011814424295356661
-0.12307035228633798 -0.08830680224604816
-0.12307035228633798 -0.14567608570906676
-0.15554897675375942 -0.20304536917208538
-0.15554897675375942 -0.3177839360981226
-0.17720139306537372 -0.3751532195611412
-0.2205062256886023 -0.45164559751183275
-0.17720139306537372 -0.5090148809748514
-0.14472276859795227 -0.3751532195611412
-0.05811310335149509 -0.030937518783029534
0.08262760267399782 0.5236322213594837
0.2558469331669122 1.059078867014324
0.4398924718156337 1.5754024181814918
0.5481545533737052 1.9196181189596035
0.6455904267759695 2.0917259693486594
0.7213738838666195 1.9769874024226222
0.7538525083340409 1.5945255126691646
0.7322000920224266 0.8869710166252683
0.5698069696853195 -0.16479918019673964
0.3965876391924051 -1.1974462825310748
0.2341945168552979 -2.0962317234517
0.18006347607626216 -2.4213243297421387
0.26667314132271935 -2.210970290377737
0.5481545533737052 -1.5416619833091865
0.905419422515341 -0.48989178648717846
1.3492939569034341 0.485386032384138
1.7498636586682985 1.3650483788170902
2.16125956858897 2.2064645362746966
2.572655478509642 2.8184035598802284
2.9948775965861203 3.315604016559723
3.4495783391300208 3.7171890008008535
3.8934528735181138 3.927543040165255
4.272370158971364 3.946666134652928
4.467241905775893 3.678942811825508
4.4780681139317 3.2008654496336857
4.315674991594593 2.76103427641721
4.023367371387799 2.2255876307623694
3.5686666288438995 1.7475102685705477
2.973225180274506 1.250309811891053
2.3236526909260773 0.8487248276499226
1.7173850342008772 0.5045091268718109
1.1869008345663268 0.2941550875074093
0.688895259399198 0.19853961506904494
0.26667314132271935 0.04555485916766196
-0.06893931150730223 -0.16479918019673964
-0.3179420990908666 -0.3751532195611412
-0.5128138458953952 -0.56638416443787
-0.5885973029860453 -0.6237534479008886
-0.642728343765081 -0.6428765423885614
-0.642728343765081 -0.5472610699501971
-0.6210759274534667 -0.45164559751183275
-0.5777710948302381 -0.3177839360981226
-0.5019876377395881 -0.18392227468441252
-0.48033522142797386 -0.06918370775837528
-0.4478565969605524 0.0073086701923162104
-0.43703038880474526 0.0838010481430077
-0.39372555618151667 0.14117033160602632
-0.3612469317140952 0.19853961506904494
-0.3395945154024809 0.17941652058137206
-0.3287683072466738 0.16029342609369918
-0.3612469317140952 0.19853961506904494
-0.4045517643373238 0.17941652058137206
-0.4045517643373238 0.14117033160602632
-0.39372555618151667 0.2176627095567178
-0.41537797249313096 0.23678580404439067
-0.41537797249313096 0.2176627095567178
-0.4262041806489381 0.23678580404439067
-0.43703038880474526 0.25590889853206356
-0.41537797249313096 0.2750319930197364
-0.39372555618151667 0.2941550875074093
-0.35042072355828807 0.2941550875074093
-0.3828993480257095 0.2941550875074093
-0.4045517643373238 0.25590889853206356
-0.3828993480257095 0.2176627095567178
-0.4045517643373238 0.2176627095567178
-0.41537797249313096 0.2176627095567178
-0.41537797249313096 0.2750319930197364
-0.4045517643373238 0.25590889853206356
-0.41537797249313096 0.23678580404439067
-0.4045517643373238 0.2750319930197364
-0.41537797249313096 0.25590889853206356
-0.39372555618151667 0.23678580404439067
-0.3828993480257095 0.23678580404439067
-0.3828993480257095 0.16029342609369918
-0.39372555618151667 0.17941652058137206
-0.4045517643373238 0.17941652058137206
-0.43703038880474526 0.10292414263068057
-0.4695090132721667 0.026431764679989082
-0.491161429583781 -0.011814424295356661
-0.4695090132721667 0.0073086701923162104
-0.4478565969605524 0.026431764679989082
-0.43703038880474526 0.026431764679989082
-0.4262041806489381 0.06467795365533482
-0.39372555618151667 0.0838010481430077
-0.39372555618151667 0.04555485916766196
-0.4045517643373238 0.026431764679989082
-0.43703038880474526 0.026431764679989082
-0.491161429583781 -0.011814424295356661
-0.48033522142797386 -0.08830680224604816
-0.5019876377395881 -0.1265529912213939
-0.5128138458953952 -0.22216846365975826
-0.5128138458953952 -0.20304536917208538
-0.5128138458953952 -0.18392227468441252
-0.5019876377395881 -0.20304536917208538
-0.5128138458953952 -0.18392227468441252
-0.4695090132721667 -0.20304536917208538
-0.48033522142797386 -0.24129155814743114
-0.5019876377395881 -0.27953774712277685
-0.491161429583781 -0.39427631404881414
-0.491161429583781 -0.43252250302415984
-0.5236400540512024 -0.5090148809748514
-0.566944886674431 -0.5855072589255428
-0.5561186785186238 -0.6428765423885614
-0.5885973029860453 -0.6811227313639072
-0.5777710948302381 -0.70024582585158
-0.5777710948302381 -0.6619996368762343
-0.5344662622070095 -0.6811227313639072
-0.5128138458953952 -0.7193689203392529
-0.5236400540512024 -0.7576151093145986
-0.5128138458953952 -0.8532305817529631
-0.5236400540512024 -0.8532305817529631
-0.5236400540512024 -0.9105998652159817
-0.5344662622070095 -1.025338432142019
-0.5452924703628167 -1.025338432142019
-0.5344662622070095 -1.025338432142019
-0.5452924703628167 -1.025338432142019
-0.5344662622070095 -1.0444615266296917
-0.5019876377395881 -0.9679691486790003
-0.45868280511635956 -0.9870922431666731
-0.4045517643373238 -0.9679691486790003
-0.37207313986990237 -0.9297229597036545
-0.35042072355828807 -0.9488460541913274
-0.3395945154024809 -1.0062153376543461
-0.3612469317140952 -1.025338432142019
-0.3612469317140952 -1.0635846211173647
-0.37207313986990237 -0.9679691486790003
-0.37207313986990237 -1.025338432142019
-0.35042072355828807 -0.9870922431666731
-0.27463726646763803 -0.9297229597036545
-0.24215864200021658 -0.8532305817529631
-0.19885380937698802 -0.8149843927776173
-0.16637518490956657 -0.7767382038022715
-0.14472276859795227 -0.8149843927776173
-0.11224414413053083 -0.8341074872652902
-0.10141793597472368 -0.8532305817529631
-0.10141793597472368 -0.8723536762406359
-0.11224414413053083 -0.8532305817529631
-0.07976551966310938 -0.7958612982899445
-0.04728689519568794 -0.7193689203392529
-0.03646068703988079 -0.6428765423885614
-0.003982062572459349 -0.6046303534132157
0.028496561894962094 -0.5090148809748514
0.05014897820657639 -0.43252250302415984
0.07180139451819069 -0.43252250302415984
0.11510622714141927 -0.413399408536487
0.12593243529722642 -0.43252250302415984
0.13675864345303357 -0.43252250302415984
0.11510622714141927 -0.45164559751183275
0.11510622714141927 -0.45164559751183275
0.12593243529722642 -0.4707686919995056
0.12593243529722642 -0.4707686919995056
0.12593243529722642 -0.45164559751183275
0.16923726792045501 -0.39427631404881414
0.15841105976464787 -0.39427631404881414
0.11510622714141927 -0.3560301250734684
0.11510622714141927 -0.3177839360981226
0.13675864345303357 -0.27953774712277685
0.11510622714141927 -0.3177839360981226
0.14758485160884072 -0.33690703058579546
0.10428001898561212 -0.29866084161044976
0.09345381082980497 -0.29866084161044976
0.05014897820657639 -0.33690703058579546
0.060975186362383534 -0.27953774712277685
0.028496561894962094 -0.24129155814743114
0.006844145583347798 -0.24129155814743114
0.017670353739154945 -0.18392227468441252
0.028496561894962094 -0.22216846365975826
0.006844145583347798 -0.24129155814743114
-0.003982062572459349 -0.18392227468441252
-0.025634478884073643 -0.24129155814743114
-0.05811310335149509 -0.24129155814743114
-0.09059172781891653 -0.22216846365975826
-0.13389656044214512 -0.24129155814743114
-0.15554897675375942 -0.29866084161044976
-0.18802760122118087 -0.29866084161044976
-0.23133243384440944 -0.27953774712277685
-0.19885380937698802 -0.29866084161044976
-0.20968001753279517 -0.24129155814743114
-0.2205062256886023 -0.260414652635104
-0.18802760122118087 -0.29866084161044976
-0.19885380937698802 -0.27953774712277685
-0.20968001753279517 -0.29866084161044976
-0.2205062256886023 -0.33690703058579546
-0.2638110583118309 -0.39427631404881414
-0.3395945154024809 -0.39427631404881414
-0.3071158909350595 -0.413399408536487
-0.3071158909350595 -0.413399408536487
-0.3179420990908666 -0.3751532195611412
-0.3287683072466738 -0.39427631404881414
-0.29628968277925233 -0.33690703058579546
-0.2854634746234452 -0.3560301250734684
-0.27463726646763803 -0.3560301250734684
-0.2638110583118309 -0.33690703058579546
-0.27463726646763803 -0.3560301250734684
-0.25298485015602373 -0.39427631404881414
-0.24215864200021658 -0.413399408536487
-0.2638110583118309 -0.45164559751183275
-0.25298485015602373 -0.4707686919995056
-0.25298485015602373 -0.45164559751183275
-0.25298485015602373 -0.39427631404881414
-0.25298485015602373 -0.3751532195611412
-0.23133243384440944 -0.33690703058579546
-0.23133243384440944 -0.3751532195611412
-0.23133243384440944 -0.3751532195611412
-0.2205062256886023 -0.3751532195611412
-0.24215864200021658 -0.413399408536487
-0.23133243384440944 -0.43252250302415984
-0.25298485015602373 -0.45164559751183275
-0.2638110583118309 -0.45164559751183275
-0.23133243384440944 -0.45164559751183275
-0.2205062256886023 -0.4707686919995056
-0.20968001753279517 -0.45164559751183275
-0.18802760122118087 -0.45164559751183275
-0.16637518490956657 -0.413399408536487
-0.17720139306537372 -0.3560301250734684
-0.16637518490956657 -0.3177839360981226
-0.14472276859795227 -0.29866084161044976
-0.16637518490956657 -0.3177839360981226
-0.15554897675375942 -0.27953774712277685
-0.17720139306537372 -0.33690703058579546
-0.15554897675375942 -0.39427631404881414
-0.17720139306537372 -0.39427631404881414
-0.17720139306537372 -0.43252250302415984
-0.18802760122118087 -0.413399408536487
-0.17720139306537372 -0.413399408536487
-0.17720139306537372 -0.413399408536487
-0.14472276859795227 -0.39427631404881414
-0.10141793597472368 -0.3751532195611412
-0.06893931150730223 -0.3560301250734684
-0.05811310335149509 -0.33690703058579546
-0.06893931150730223 -0.3560301250734684
-0.12307035228633798 -0.3560301250734684
-0.15554897675375942 -0.43252250302415984
-0.16637518490956657 -0.4707686919995056
-0.16637518490956657 -0.45164559751183275
-0.19885380937698802 -0.45164559751183275
-0.15554897675375942 -0.413399408536487
-0.11224414413053083 -0.39427631404881414
-0.12307035228633798 -0.33690703058579546
-0.09059172781891653 -0.33690703058579546
-0.07976551966310938 -0.29866084161044976
-0.11224414413053083 -0.3177839360981226
-0.12307035228633798 -0.33690703058579546
-0.12307035228633798 -0.3560301250734684
-0.13389656044214512 -0.39427631404881414
-0.14472276859795227 -0.3751532195611412
-0.15554897675375942 -0.413399408536487
-0.15554897675375942 -0.39427631404881414
-0.17720139306537372 -0.39427631404881414
-0.12307035228633798 -0.33690703058579546
-0.13389656044214512 -0.29866084161044976
-0.13389656044214512 -0.27953774712277685
-0.07976551966310938 -0.29866084161044976
-0.07976551966310938 -0.29866084161044976
-0.07976551966310938 -0.3560301250734684
-0.09059172781891653 -0.43252250302415984
-0.11224414413053083 -0.45164559751183275
-0.15554897675375942 -0.4707686919995056
-0.15554897675375942 -0.43252250302415984
-0.13389656044214512 -0.43252250302415984
-0.12307035228633798 -0.43252250302415984
-0.10141793597472368 -0.39427631404881414
-0.07976551966310938 -0.3751532195611412
-0.04728689519568794 -0.3560301250734684
-0.04728689519568794 -0.3751532195611412
-0.04728689519568794 -0.39427631404881414
-0.06893931150730223 -0.39427631404881414
-0.06893931150730223 -0.43252250302415984
-0.09059172781891653 -0.45164559751183275
-0.10141793597472368 -0.48989178648717846
-0.09059172781891653 -0.5090148809748514
-0.12307035228633798 -0.5090148809748514
-0.11224414413053083 -0.5090148809748514
-0.12307035228633798 -0.413399408536487
-0.10141793597472368 -0.39427631404881414
-0.10141793597472368 -0.413399408536487
-0.09059172781891653 -0.3751532195611412
-0.10141793597472368 -0.413399408536487
-0.07976551966310938 -0.4707686919995056
-0.09059172781891653 -0.413399408536487
-0.06893931150730223 -0.48989178648717846
-0.09059172781891653 -0.48989178648717846
-0.10141793597472368 -0.4707686919995056
-0.12307035228633798 -0.4707686919995056
-0.10141793597472368 -0.48989178648717846
-0.10141793597472368 -0.5090148809748514
-0.09059172781891653 -0.48989178648717846
-0.10141793597472368 -0.43252250302415984
-0.09059172781891653 -0.3751532195611412
-0.07976551966310938 -0.413399408536487
-0.09059172781891653 -0.4707686919995056
-0.06893931150730223 -0.43252250302415984
-0.09059172781891653 -0.48989178648717846
-0.07976551966310938 -0.6046303534132157
-0.03646068703988079 -0.6046303534132157
-0.06893931150730223 -0.5281379754625242
-0.05811310335149509 -0.5472610699501971
-0.06893931150730223 -0.5090148809748514
-0.05811310335149509 -0.45164559751183275
-0.025634478884073643 -0.43252250302415984
0.017670353739154945 -0.43252250302415984
0.006844145583347798 -0.43252250302415984
0.006844145583347798 -0.4707686919995056
-0.014808270728266496 -0.5090148809748514
-0.014808270728266496 -0.5281379754625242
-0.014808270728266496 -0.5472610699501971
-0.003982062572459349 -0.5472610699501971
0.028496561894962094 -0.5281379754625242
0.03932277005076924 -0.4707686919995056
0.03932277005076924 -0.413399408536487
0.05014897820657639 -0.45164559751183275
0.07180139451819069 -0.33690703058579546
0.11510622714141927 -0.43252250302415984
0.11510622714141927 -0.45164559751183275
0.11510622714141927 -0.56638416443787
0.12593243529722642 -0.5855072589255428
0.08262760267399782 -0.6237534479008886
0.060975186362383534 -0.6619996368762343
0.05014897820657639 -0.6237534479008886
0.03932277005076924 -0.56638416443787
0.028496561894962094 -0.48989178648717846
0.028496561894962094 -0.413399408536487
0.028496561894962094 -0.3560301250734684
0.060975186362383534 -0.3177839360981226
0.07180139451819069 -0.29866084161044976
0.09345381082980497 -0.27953774712277685
0.09345381082980497 -0.260414652635104
0.10428001898561212 -0.27953774712277685
0.10428001898561212 -0.3177839360981226
0.07180139451819069 -0.3751532195611412
0.07180139451819069 -0.3560301250734684
0.05014897820657639 -0.33690703058579546
0.017670353739154945 -0.33690703058579546
0.006844145583347798 -0.33690703058579546
-0.04728689519568794 -0.39427631404881414
-0.10141793597472368 -0.3751532195611412
-0.11224414413053083 -0.45164559751183275
-0.14472276859795227 -0.48989178648717846
-0.15554897675375942 -0.5472610699501971
-0.16637518490956657 -0.6237534479008886
-0.19885380937698802 -0.7193689203392529
-0.18802760122118087 -0.6811227313639072
-0.19885380937698802 -0.6811227313639072
-0.17720139306537372 -0.6619996368762343
-0.16637518490956657 -0.6428765423885614
-0.16637518490956657 -0.6428765423885614
-0.17720139306537372 -0.7384920148269258
-0.16637518490956657 -0.8341074872652902
-0.16637518490956657 -0.9297229597036545
-0.17720139306537372 -0.9679691486790003
-0.15554897675375942 -0.8723536762406359
-0.11224414413053083 -0.6237534479008886
-0.014808270728266496 -0.16479918019673964
0.14758485160884072 0.2941550875074093
0.26667314132271935 0.7339862607238854
0.3965876391924051 1.0208326780389785
0.4723710962830551 1.1355712449650157
0.5589807615295124 1.0017095835513055
0.5914593859969338 0.5236322213594837
0.5156759289062838 -0.413399408536487
0.40741384734821223 -1.4842926998461679
0.2558469331669122 -2.4022012352544655
0.18006347607626216 -2.803786219495596
0.26667314132271935 -2.612555274618867
0.5048497207504766 -1.8093853061366068
0.905419422515341 -0.6619996368762343
1.3492939569034341 0.5427553158471566
1.8906043646937916 1.7283871740828747
2.366957523549306 2.6462957094911728
2.875789306872242 3.3729733000227418
3.3846210901951777 3.8510506622145635
3.828495624583271 4.061404701578965
4.207412910036521 4.080527796066638
4.445589489464278 3.889296851189909
4.543025362866542 3.5259580559241246
4.434763281308471 3.1052499771953217
4.2398915345039425 2.6654188039788456
3.904279081673921 2.187341441787024
3.460404547285828 1.6518947961321833
2.9299203476512776 1.2311867174033801
2.377783731705113 0.8296017331622497
1.8797781565379843 0.5427553158471566
1.4034249976824698 0.25590889853206356
0.9595504632943768 0.06467795365533482
0.5589807615295124 -0.16479918019673964
0.16923726792045501 -0.45164559751183275
-0.17720139306537372 -0.7576151093145986
-0.4695090132721667 -1.025338432142019
-0.6643807600766953 -1.1974462825310748
-0.7726428416347668 -1.2356924715064206
-0.8051214661021883 -1.1974462825310748
-0.8159476742579954 -1.1018308100927103
-0.783469049790574 -0.9679691486790003
-0.7293380090115382 -0.7576151093145986
-0.642728343765081 -0.6428765423885614
-0.5561186785186238 -0.48989178648717846
-0.5019876377395881 -0.3560301250734684
-0.48033522142797386 -0.3560301250734684
-0.48033522142797386 -0.33690703058579546
-0.4695090132721667 -0.3751532195611412
-0.5019876377395881 -0.39427631404881414
-0.5128138458953952 -0.45164559751183275
-0.5019876377395881 -0.4707686919995056
-0.5344662622070095 -0.45164559751183275
-0.5344662622070095 -0.3751532195611412
-0.5236400540512024 -0.3751532195611412
-0.5019876377395881 -0.27953774712277685
-0.5019876377395881 -0.27953774712277685
-0.5019876377395881 -0.3177839360981226
-0.491161429583781 -0.3177839360981226
-0.491161429583781 -0.413399408536487
-0.5128138458953952 -0.43252250302415984
-0.5344662622070095 -0.43252250302415984
-0.5344662622070095 -0.5090148809748514
-0.566944886674431 -0.5090148809748514
-0.566944886674431 -0.48989178648717846
-0.5344662622070095 -0.43252250302415984
-0.5236400540512024 -0.413399408536487
-0.5128138458953952 -0.3751532195611412
-0.491161429583781 -0.3560301250734684
-0.491161429583781 -0.33690703058579546
-0.5128138458953952 -0.413399408536487
-0.5344662622070095 -0.4707686919995056
-0.5236400540512024 -0.5090148809748514
-0.5561186785186238 -0.5281379754625242
-0.566944886674431 -0.5855072589255428
-0.5777710948302381 -0.56638416443787
-0.5885973029860453 -0.5855072589255428
-0.5994235111418524 -0.56638416443787
-0.5885973029860453 -0.5281379754625242
-0.5994235111418524 -0.48989178648717846
-0.6102497192976596 -0.4707686919995056
-0.566944886674431 -0.5472610699501971
-0.5885973029860453 -0.5855072589255428
-0.5994235111418524 -0.6046303534132157
-0.6210759274534667 -0.6428765423885614
-0.6319021356092739 -0.7193689203392529
-0.642728343765081 -0.7767382038022715
-0.642728343765081 -0.7767382038022715
-0.6210759274534667 -0.7767382038022715
-0.6210759274534667 -0.8532305817529631
-0.6319021356092739 -0.8341074872652902
-0.6102497192976596 -0.8341074872652902
-0.6210759274534667 -0.8341074872652902
-0.6210759274534667 -0.9105998652159817
-0.6210759274534667 -0.9679691486790003
-0.6535545519208882 -0.9870922431666731
-0.6968593845441168 -1.0635846211173647
-0.7185118008557311 -1.1018308100927103
-0.7401642171673454 -1.178323188043402
-0.7293380090115382 -1.2165693770187476
-0.7509904253231525 -1.2165693770187476
-0.7401642171673454 -1.2165693770187476
-0.7618166334789597 -1.2356924715064206
-0.7401642171673454 -1.2356924715064206
-0.7076855926999239 -1.312184849457112
-0.6860331763883096 -1.3695541329201306
-0.6860331763883096 -1.4269234163831492
-0.6643807600766953 -1.446046510870822
-0.6860331763883096 -1.5416619833091865
-0.6752069682325025 -1.4842926998461679
-0.6860331763883096 -1.599031266772205
-0.6968593845441168 -1.637277455747551
-0.7293380090115382 -1.637277455747551
-0.7293380090115382 -1.6564005502352237
-0.6968593845441168 -1.6755236447228965
-0.6643807600766953 -1.6564005502352237
-0.642728343765081 -1.6181543612598779
-0.5885973029860453 -1.5799081722845323
-0.5777710948302381 -1.6564005502352237
-0.5994235111418524 -1.6755236447228965
-0.5885973029860453 -1.6755236447228965
-0.5777710948302381 -1.6946467392105695
-0.5344662622070095 -1.7520160226735881
-0.5344662622070095 -1.7328929281859151
-0.491161429583781 -1.6564005502352237
-0.4695090132721667 -1.599031266772205
-0.4262041806489381 -1.5607850777968593
-0.4045517643373238 -1.5034157943338406
-0.3828993480257095 -1.465169605358495
-0.3287683072466738 -1.446046510870822
-0.29628968277925233 -1.465169605358495
-0.27463726646763803 -1.5034157943338406
-0.2638110583118309 -1.446046510870822
-0.2638110583118309 -1.5034157943338406
-0.25298485015602373 -1.465169605358495
-0.25298485015602373 -1.465169605358495
-0.2205062256886023 -1.4269234163831492
-0.20968001753279517 -1.3695541329201306
-0.17720139306537372 -1.2548155659940934
-0.12307035228633798 -1.1974462825310748
-0.09059172781891653 -1.1974462825310748
-0.04728689519568794 -1.178323188043402
-0.05811310335149509 -1.2165693770187476
-0.04728689519568794 -1.2356924715064206
-0.06893931150730223 -1.2165693770187476
-0.06893931150730223 -1.312184849457112
-0.09059172781891653 -1.2930617549694392
-0.11224414413053083 -1.3504310384324578
-0.13389656044214512 -1.2930617549694392
-0.11224414413053083 -1.2930617549694392
-0.09059172781891653 -1.2165693770187476
-0.10141793597472368 -1.1974462825310748
-0.10141793597472368 -1.1974462825310748
-0.07976551966310938 -1.178323188043402
-0.10141793597472368 -1.178323188043402
-0.16637518490956657 -1.2356924715064206
-0.16637518490956657 -1.2548155659940934
-0.20968001753279517 -1.2739386604817662
-0.23133243384440944 -1.2930617549694392
-0.25298485015602373 -1.3695541329201306
-0.27463726646763803 -1.3313079439447848
-0.29628968277925233 -1.2548155659940934
-0.29628968277925233 -1.2356924715064206
-0.2854634746234452 -1.2356924715064206
-0.3071158909350595 -1.2356924715064206
-0.3071158909350595 -1.2356924715064206
-0.3179420990908666 -1.312184849457112
-0.3612469317140952 -1.312184849457112
-0.4045517643373238 -1.4078003218954764
-0.4262041806489381 -1.4078003218954764
-0.4478565969605524 -1.4842926998461679
-0.4695090132721667 -1.465169605358495
-0.5128138458953952 -1.4269234163831492
-0.5019876377395881 -1.4269234163831492
-0.5236400540512024 -1.3886772274078034
-0.5128138458953952 -1.3695541329201306
-0.5019876377395881 -1.4078003218954764
-0.48033522142797386 -1.4269234163831492
-0.4695090132721667 -1.465169605358495
-0.48033522142797386 -1.5034157943338406
-0.5128138458953952 -1.5607850777968593
-0.5561186785186238 -1.599031266772205
-0.566944886674431 -1.637277455747551
-0.6210759274534667 -1.6564005502352237
-0.566944886674431 -1.637277455747551
-0.566944886674431 -1.5799081722845323
-0.5885973029860453 -1.5416619833091865
-0.5777710948302381 -1.5225388888215137
-0.5561186785186238 -1.5225388888215137
-0.5236400540512024 -1.5034157943338406
-0.5344662622070095 -1.5034157943338406
-0.5452924703628167 -1.5607850777968593
-0.5561186785186238 -1.5799081722845323
-0.5561186785186238 -1.5607850777968593
-0.5452924703628167 -1.599031266772205
-0.5561186785186238 -1.5799081722845323
-0.5777710948302381 -1.5799081722845323
-0.5344662622070095 -1.446046510870822
-0.5019876377395881 -1.465169605358495
-0.48033522142797386 -1.4078003218954764
-0.491161429583781 -1.3886772274078034
-0.45868280511635956 -1.3695541329201306
-0.45868280511635956 -1.3695541329201306
-0.4262041806489381 -1.3695541329201306
-0.4262041806489381 -1.446046510870822
-0.4478565969605524 -1.4269234163831492
-0.4695090132721667 -1.4842926998461679
-0.48033522142797386 -1.465169605358495
-0.491161429583781 -1.465169605358495
-0.5128138458953952 -1.4269234163831492
-0.5128138458953952 -1.3504310384324578
-0.5019876377395881 -1.3313079439447848
-0.4262041806489381 -1.2930617549694392
-0.4045517643373238 -1.2356924715064206
-0.3828993480257095 -1.3313079439447848
-0.39372555618151667 -1.3695541329201306
-0.41537797249313096 -1.3886772274078034
-0.43703038880474526 -1.3886772274078034
-0.4262041806489381 -1.4269234163831492
-0.43703038880474526 -1.3886772274078034
-0.39372555618151667 -1.3695541329201306
-0.39372555618151667 -1.312184849457112
-0.37207313986990237 -1.2930617549694392
-0.3612469317140952 -1.2548155659940934
-0.3395945154024809 -1.2930617549694392
-0.3395945154024809 -1.1974462825310748
-0.3612469317140952 -1.2739386604817662
-0.3828993480257095 -1.2165693770187476
-0.41537797249313096 -1.2548155659940934
-0.41537797249313096 -1.2739386604817662
-0.4045517643373238 -1.312184849457112
-0.3828993480257095 -1.312184849457112
-0.37207313986990237 -1.3313079439447848
-0.3612469317140952 -1.2356924715064206
-0.35042072355828807 -1.2356924715064206
-0.3395945154024809 -1.178323188043402
-0.3395945154024809 -1.1974462825310748
-0.3395945154024809 -1.159200093555729
-0.3071158909350595 -1.2548155659940934
-0.3179420990908666 -1.2165693770187476
-0.35042072355828807 -1.178323188043402
-0.35042072355828807 -1.2548155659940934
-0.3828993480257095 -1.312184849457112
-0.3287683072466738 -1.2548155659940934
-0.3828993480257095 -1.2930617549694392
-0.37207313986990237 -1.2165693770187476
-0.37207313986990237 -1.1974462825310748
-0.3395945154024809 -1.1974462825310748
-0.3395945154024809 -1.2165693770187476
-0.3179420990908666 -1.2930617549694392
-0.3071158909350595 -1.2356924715064206
-0.2854634746234452 -1.2356924715064206
-0.3179420990908666 -1.2165693770187476
-0.3287683072466738 -1.2356924715064206
-0.35042072355828807 -1.2356924715064206
-0.35042072355828807 -1.2356924715064206
-0.3612469317140952 -1.2548155659940934
-0.3179420990908666 -1.2165693770187476
-0.3071158909350595 -1.1974462825310748
-0.29628968277925233 -1.178323188043402
-0.27463726646763803 -1.1974462825310748
-0.2638110583118309 -1.1974462825310748
-0.27463726646763803 -1.2165693770187476
-0.29628968277925233 -1.2356924715064206
-0.29628968277925233 -1.2739386604817662
-0.3071158909350595 -1.2356924715064206
-0.3287683072466738 -1.2165693770187476
-0.3612469317140952 -1.2165693770187476
-0.35042072355828807 -1.2165693770187476
-0.3071158909350595 -1.1974462825310748
-0.27463726646763803 -1.1974462825310748
-0.2638110583118309 -1.1400769990680562
-0.24215864200021658 -1.178323188043402
-0.24215864200021658 -1.1974462825310748
-0.23133243384440944 -1.159200093555729
-0.2638110583118309 -1.1400769990680562
-0.27463726646763803 -1.1400769990680562
-0.2638110583118309 -1.1209539045803834
-0.29628968277925233 -1.1400769990680562
-0.27463726646763803 -1.2356924715064206
-0.3071158909350595 -1.1974462825310748
-0.29628968277925233 -1.2165693770187476
-0.2638110583118309 -1.159200093555729
-0.25298485015602373 -1.1400769990680562
-0.25298485015602373 -1.1209539045803834
-0.20968001753279517 -1.1209539045803834
-0.23133243384440944 -1.1974462825310748
-0.2205062256886023 -1.1400769990680562
-0.18802760122118087 -1.2165693770187476
-0.23133243384440944 -1.2165693770187476
-0.20968001753279517 -1.2356924715064206
-0.19885380937698802 -1.2356924715064206
-0.20968001753279517 -1.2165693770187476
-0.25298485015602373 -1.2356924715064206
-0.20968001753279517 -1.178323188043402
-0.2205062256886023 -1.178323188043402
-0.20968001753279517 -1.1018308100927103
-0.17720139306537372 -1.0444615266296917
-0.12307035228633798 -1.0062153376543461
-0.10141793597472368 -1.025338432142019
-0.10141793597472368 -1.1018308100927103
-0.05811310335149509 -1.1209539045803834
-0.09059172781891653 -1.1400769990680562
-0.07976551966310938 -1.1974462825310748
-0.09059172781891653 -1.2165693770187476
-0.05811310335149509 -1.178323188043402
-0.05811310335149509 -1.1400769990680562
-0.025634478884073643 -1.1209539045803834
-0.03646068703988079 -1.0635846211173647
-0.03646068703988079 -1.1018308100927103
-0.09059172781891653 -1.0827077156050375
-0.10141793597472368 -1.0827077156050375
-0.11224414413053083 -1.159200093555729
-0.13389656044214512 -1.1209539045803834
-0.16637518490956657 -1.1209539045803834
-0.14472276859795227 -1.1018308100927103
-0.14472276859795227 -1.025338432142019
-0.13389656044214512 -0.9488460541913274
-0.11224414413053083 -0.9297229597036545
-0.07976551966310938 -0.8532305817529631
-0.025634478884073643 -0.8341074872652902
-0.025634478884073643 -0.8341074872652902
-0.025634478884073643 -0.8149843927776173
-0.07976551966310938 -0.9297229597036545
-0.10141793597472368 -0.9870922431666731
-0.17720139306537372 -1.0635846211173647
-0.23133243384440944 -1.1400769990680562
-0.25298485015602373 -1.1974462825310748
-0.2854634746234452 -1.2165693770187476
-0.3071158909350595 -1.2165693770187476
-0.3071158909350595 -1.159200093555729
-0.3179420990908666 -1.1209539045803834
-0.3071158909350595 -1.0635846211173647
-0.27463726646763803 -1.1209539045803834
-0.27463726646763803 -1.1400769990680562
-0.3071158909350595 -1.2548155659940934
-0.3179420990908666 -1.3504310384324578
-0.3179420990908666 -1.4078003218954764
-0.3395945154024809 -1.465169605358495
-0.4045517643373238 -1.5607850777968593
-0.39372555618151667 -1.5416619833091865
-0.35042072355828807 -1.465169605358495
-0.2854634746234452 -1.1209539045803834
-0.14472276859795227 -0.56638416443787
0.028496561894962094 0.0838010481430077
0.20171589238787646 0.6192476937978482
0.33163039025756225 1.0208326780389785
0.5048497207504766 1.1738174339403615
0.5589807615295124 1.0208326780389785
0.5806331778411267 0.485386032384138
0.4831973044388623 -0.5090148809748514
0.3208041821017551 -1.7137698336982423
0.13675864345303357 -2.822909313983269
0.017670353739154945 -3.415725243101128
0.08262760267399782 -3.205371203736726
0.33163039025756225 -2.5169398021805027
0.7538525083340409 -1.4269234163831492
1.2302056671895554 -0.20304536917208538
1.7390374505124915 0.8678479221375954
2.247869233835427 1.843125741008912
2.7242223926909417 2.4933109535897895
3.189749343390649 2.914019032318593
3.6552762940903567 3.16261926065834
4.012541163231992 3.181742355146013
4.207412910036521 2.9905114102692845
4.272370158971364 2.569803331540481
4.207412910036521 2.1682183472993506
4.001714955076185 1.7092640795952019
3.6985811267135853 1.1929405284280343
3.233054176013878 0.6957400717485396
2.7133961845351346 0.2176627095567178
2.1071285278099343 -0.18392227468441252
1.5008608710847342 -0.5090148809748514
0.9270718388269553 -0.7767382038022715
0.4182400555040194 -1.0635846211173647
-0.04728689519568794 -1.312184849457112
-0.4262041806489381 -1.5416619833091865
-0.7185118008557311 -1.7137698336982423
-0.8484262987254169 -1.8285084006242796
-0.8917311313486455 -1.7328929281859151
-0.8809049231928383 -1.5607850777968593
-0.8484262987254169 -1.4269234163831492
-0.8051214661021883 -1.2739386604817662
-0.7401642171673454 -1.1974462825310748
-0.7293380090115382 -1.1209539045803834
-0.6860331763883096 -1.1018308100927103
-0.6860331763883096 -1.1400769990680562
-0.6752069682325025 -1.0062153376543461
-0.6643807600766953 -0.9679691486790003
-0.6535545519208882 -0.9105998652159817
-0.642728343765081 -0.8341074872652902
-0.6210759274534667 -0.7958612982899445
-0.6210759274534667 -0.7958612982899445
-0.5994235111418524 -0.7576151093145986
-0.6102497192976596 -0.7958612982899445
-0.6535545519208882 -0.8341074872652902
-0.6210759274534667 -0.8341074872652902
-0.6535545519208882 -0.8723536762406359
-0.6643807600766953 -0.8532305817529631
-0.6535545519208882 -0.8723536762406359
-0.6643807600766953 -0.9105998652159817
-0.6752069682325025 -0.8149843927776173
-0.6643807600766953 -0.8532305817529631
-0.6643807600766953 -0.8149843927776173
-0.6319021356092739 -0.8149843927776173
-0.6102497192976596 -0.7767382038022715
-0.6210759274534667 -0.7767382038022715
-0.6210759274534667 -0.7576151093145986
-0.6535545519208882 -0.7958612982899445
-0.642728343765081 -0.8532305817529631
-0.6643807600766953 -0.8914767707283088
-0.6752069682325025 -0.8723536762406359
-0.6968593845441168 -0.8914767707283088
-0.6860331763883096 -0.8723536762406359
-0.7076855926999239 -0.9105998652159817
-0.6968593845441168 -0.8723536762406359
-0.6968593845441168 -0.8532305817529631
-0.6752069682325025 -0.8149843927776173
-0.6860331763883096 -0.9105998652159817
-0.6752069682325025 -0.9679691486790003
-0.6968593845441168 -1.0827077156050375
-0.7185118008557311 -1.1018308100927103
-0.7185118008557311 -1.159200093555729
-0.7185118008557311 -1.178323188043402
-0.7401642171673454 -1.159200093555729
-0.7509904253231525 -1.159200093555729
-0.7509904253231525 -1.1209539045803834
-0.7293380090115382 -1.1400769990680562
-0.7293380090115382 -1.159200093555729
-0.7401642171673454 -1.178323188043402
-0.7401642171673454 -1.2356924715064206
-0.7185118008557311 -1.312184849457112
-0.7618166334789597 -1.3695541329201306
-0.7509904253231525 -1.4269234163831492
-0.7726428416347668 -1.5225388888215137
-0.7726428416347668 -1.5607850777968593
-0.783469049790574 -1.637277455747551
-0.8051214661021883 -1.637277455747551
-0.7726428416347668 -1.599031266772205
-0.7618166334789597 -1.637277455747551
-0.7509904253231525 -1.6564005502352237
-0.7293380090115382 -1.6181543612598779
-0.7401642171673454 -1.7520160226735881
-0.7293380090115382 -1.771139117161261
-0.7618166334789597 -1.8667545895996254
-0.7726428416347668 -1.9432469675503168
-0.783469049790574 -2.0006162510133354
-0.7726428416347668 -2.019739345501008
-0.7942952579463811 -2.038862439988681
-0.7942952579463811 -2.038862439988681
-0.783469049790574 -2.019739345501008
-0.783469049790574 -2.077108628964027
-0.7401642171673454 -2.077108628964027
-0.6968593845441168 -2.038862439988681
-0.6752069682325025 -2.1153548179393726
-0.6860331763883096 -2.1344779124270454
-0.6860331763883096 -2.210970290377737
-0.6752069682325025 -2.23009338486541
-0.6860331763883096 -2.2874626683284283
-0.6752069682325025 -2.2683395738407555
-0.6643807600766953 -2.23009338486541
-0.6210759274534667 -2.2683395738407555
-0.5777710948302381 -2.172724101402391
-0.566944886674431 -2.1536010069147182
-0.5344662622070095 -2.1153548179393726
-0.491161429583781 -2.1153548179393726
-0.45868280511635956 -2.057985534476354
-0.43703038880474526 -2.0962317234517
-0.4262041806489381 -2.038862439988681
-0.41537797249313096 -2.019739345501008
-0.37207313986990237 -2.0006162510133354
-0.3287683072466738 -1.9432469675503168
-0.3395945154024809 -1.924123873062644
-0.3071158909350595 -1.924123873062644
-0.2854634746234452 -1.924123873062644
-0.25298485015602373 -1.8285084006242796
-0.2205062256886023 -1.8093853061366068
-0.19885380937698802 -1.7520160226735881
-0.18802760122118087 -1.7137698336982423
-0.16637518490956657 -1.6755236447228965
-0.12307035228633798 -1.6946467392105695
-0.10141793597472368 -1.6564005502352237
-0.09059172781891653 -1.7137698336982423
-0.10141793597472368 -1.6946467392105695
-0.10141793597472368 -1.637277455747551
-0.09059172781891653 -1.5799081722845323
-0.10141793597472368 -1.5225388888215137
-0.09059172781891653 -1.4842926998461679
-0.07976551966310938 -1.446046510870822
-0.07976551966310938 -1.446046510870822
-0.07976551966310938 -1.4078003218954764
-0.11224414413053083 -1.4269234163831492
-0.13389656044214512 -1.446046510870822
-0.15554897675375942 -1.465169605358495
-0.17720139306537372 -1.465169605358495
-0.20968001753279517 -1.4842926998461679
-0.20968001753279517 -1.4269234163831492
-0.23133243384440944 -1.4269234163831492
-0.23133243384440944 -1.3886772274078034
-0.23133243384440944 -1.4269234163831492
-0.27463726646763803 -1.3886772274078034
-0.2854634746234452 -1.3695541329201306
-0.27463726646763803 -1.3504310384324578
-0.3071158909350595 -1.3313079439447848
-0.3395945154024809 -1.4078003218954764
-0.35042072355828807 -1.446046510870822
-0.37207313986990237 -1.4842926998461679
-0.37207313986990237 -1.5034157943338406
-0.39372555618151667 -1.4842926998461679
-0.41537797249313096 -1.465169605358495
-0.4478565969605524 -1.4269234163831492
-0.41537797249313096 -1.3886772274078034
-0.4262041806489381 -1.3886772274078034
-0.41537797249313096 -1.3695541329201306
-0.4262041806489381 -1.3695541329201306
-0.4478565969605524 -1.446046510870822
-0.4695090132721667 -1.465169605358495
-0.5019876377395881 -1.5034157943338406
-0.5128138458953952 -1.5607850777968593
-0.5236400540512024 -1.5225388888215137
-0.5344662622070095 -1.5416619833091865
-0.5344662622070095 -1.5799081722845323
-0.5128138458953952 -1.5607850777968593
-0.5128138458953952 -1.5225388888215137
-0.5236400540512024 -1.4842926998461679
-0.5019876377395881 -1.446046510870822
-0.491161429583781 -1.4842926998461679
-0.5128138458953952 -1.5034157943338406
-0.5344662622070095 -1.4842926998461679
-0.5452924703628167 -1.5416619833091865
-0.5236400540512024 -1.5799081722845323
-0.5236400540512024 -1.5607850777968593
-0.5452924703628167 -1.5799081722845323
-0.5344662622070095 -1.5225388888215137
-0.5344662622070095 -1.5225388888215137
-0.5128138458953952 -1.465169605358495
-0.491161429583781 -1.465169605358495
-0.491161429583781 -1.4269234163831492
-0.45868280511635956 -1.3695541329201306
-0.491161429583781 -1.4078003218954764
-0.491161429583781 -1.4269234163831492
-0.4695090132721667 -1.4842926998461679
-0.4695090132721667 -1.5034157943338406
-0.48033522142797386 -1.5034157943338406
-0.491161429583781 -1.5607850777968593
-0.491161429583781 -1.5607850777968593
-0.491161429583781 -1.5225388888215137
-0.48033522142797386 -1.4842926998461679
-0.491161429583781 -1.5416619833091865
-0.4478565969605524 -1.4269234163831492
-0.4478565969605524 -1.4269234163831492
-0.45868280511635956 -1.446046510870822
-0.43703038880474526 -1.4842926998461679
-0.45868280511635956 -1.4842926998461679
-0.4478565969605524 -1.5607850777968593
-0.45868280511635956 -1.5416619833091865
-0.4478565969605524 -1.5225388888215137
-0.4478565969605524 -1.5225388888215137
-0.43703038880474526 -1.465169605358495
-0.43703038880474526 -1.4269234163831492
-0.39372555618151667 -1.3695541329201306
-0.37207313986990237 -1.3886772274078034
-0.37207313986990237 -1.4078003218954764
-0.35042072355828807 -1.446046510870822
-0.3395945154024809 -1.4269234163831492
-0.3612469317140952 -1.465169605358495
-0.39372555618151667 -1.5607850777968593
-0.4045517643373238 -1.5799081722845323
-0.41537797249313096 -1.5416619833091865
-0.43703038880474526 -1.4842926998461679
-0.41537797249313096 -1.4269234163831492
-0.4045517643373238 -1.3695541329201306
-0.4045517643373238 -1.3313079439447848
-0.3828993480257095 -1.3313079439447848
-0.37207313986990237 -1.4078003218954764
-0.37207313986990237 -1.465169605358495
-0.37207313986990237 -1.5034157943338406
-0.3828993480257095 -1.5034157943338406
-0.39372555618151667 -1.5416619833091865
-0.43703038880474526 -1.5225388888215137
-0.4478565969605524 -1.5034157943338406
-0.43703038880474526 -1.4842926998461679
-0.43703038880474526 -1.4269234163831492
-0.39372555618151667 -1.4269234163831492
-0.4045517643373238 -1.3313079439447848
-0.37207313986990237 -1.3313079439447848
-0.37207313986990237 -1.3504310384324578
-0.3828993480257095 -1.3695541329201306
-0.3828993480257095 -1.4269234163831492
-0.41537797249313096 -1.465169605358495
-0.39372555618151667 -1.5034157943338406
-0.4045517643373238 -1.5416619833091865
-0.39372555618151667 -1.465169605358495
-0.41537797249313096 -1.4078003218954764
-0.41537797249313096 -1.3695541329201306
-0.4045517643373238 -1.3886772274078034
-0.4045517643373238 -1.3313079439447848
-0.3612469317140952 -1.3504310384324578
-0.3395945154024809 -1.4078003218954764
-0.3612469317140952 -1.446046510870822
-0.3612469317140952 -1.5034157943338406
-0.37207313986990237 -1.5416619833091865
-0.37207313986990237 -1.5799081722845323
-0.39372555618151667 -1.5799081722845323
-0.3828993480257095 -1.5607850777968593
-0.3828993480257095 -1.5034157943338406
-0.4045517643373238 -1.446046510870822
-0.39372555618151667 -1.446046510870822
-0.3828993480257095 -1.4078003218954764
-0.3612469317140952 -1.4078003218954764
-0.37207313986990237 -1.4078003218954764
-0.3612469317140952 -1.4842926998461679
-0.3612469317140952 -1.446046510870822
-0.37207313986990237 -1.5225388888215137
-0.3828993480257095 -1.5799081722845323
-0.4045517643373238 -1.5416619833091865
-0.41537797249313096 -1.5225388888215137
-0.39372555618151667 -1.5225388888215137
-0.3828993480257095 -1.446046510870822
-0.3828993480257095 -1.4269234163831492
-0.37207313986990237 -1.3695541329201306
-0.3612469317140952 -1.3313079439447848
-0.4045517643373238 -1.4078003218954764
-0.3612469317140952 -1.4269234163831492
-0.37207313986990237 -1.465169605358495
-0.3828993480257095 -1.5225388888215137
-0.3828993480257095 -1.5416619833091865
-0.39372555618151667 -1.5225388888215137
-0.39372555618151667 -1.5225388888215137
-0.41537797249313096 -1.465169605358495
-0.39372555618151667 -1.4269234163831492
-0.37207313986990237 -1.3886772274078034
-0.39372555618151667 -1.3695541329201306
-0.37207313986990237 -1.3695541329201306
-0.37207313986990237 -1.4078003218954764
-0.3395945154024809 -1.465169605358495
-0.3612469317140952 -1.5225388888215137
-0.35042072355828807 -1.5416619833091865
-0.35042072355828807 -1.5799081722845323
-0.35042072355828807 -1.5799081722845323
-0.3612469317140952 -1.5225388888215137
-0.3287683072466738 -1.5225388888215137
-0.3179420990908666 -1.4842926998461679
-0.29628968277925233 -1.465169605358495
-0.2854634746234452 -1.4269234163831492
-0.2854634746234452 -1.4842926998461679
-0.2854634746234452 -1.446046510870822
-0.2638110583118309 -1.4269234163831492
-0.3179420990908666 -1.4842926998461679
-0.3071158909350595 -1.4842926998461679
-0.29628968277925233 -1.4842926998461679
-0.29628968277925233 -1.4842926998461679
-0.27463726646763803 -1.5034157943338406
-0.27463726646763803 -1.465169605358495
-0.2205062256886023 -1.4078003218954764
-0.20968001753279517 -1.4269234163831492
-0.18802760122118087 -1.3504310384324578
-0.16637518490956657 -1.4078003218954764
-0.16637518490956657 -1.3695541329201306
-0.18802760122118087 -1.4269234163831492
-0.24215864200021658 -1.465169605358495
-0.27463726646763803 -1.465169605358495
-0.3071158909350595 -1.465169605358495
-0.3179420990908666 -1.4078003218954764
-0.3287683072466738 -1.4269234163831492
-0.3071158909350595 -1.3695541329201306
-0.3287683072466738 -1.3313079439447848
-0.3179420990908666 -1.2930617549694392
-0.2854634746234452 -1.2548155659940934
-0.2638110583118309 -1.178323188043402
-0.2205062256886023 -1.178323188043402
-0.18802760122118087 -1.159200093555729
-0.17720139306537372 -1.2165693770187476
-0.20968001753279517 -1.2930617549694392
-0.23133243384440944 -1.312184849457112
-0.24215864200021658 -1.3886772274078034
-0.2854634746234452 -1.3695541329201306
-0.3179420990908666 -1.4078003218954764
-0.35042072355828807 -1.446046510870822
-0.4045517643373238 -1.465169605358495
-0.4262041806489381 -1.4842926998461679
-0.4478565969605524 -1.5416619833091865
-0.45868280511635956 -1.5416619833091865
-0.48033522142797386 -1.5607850777968593
-0.491161429583781 -1.5799081722845323
-0.48033522142797386 -1.637277455747551
-0.48033522142797386 -1.7328929281859151
-0.48033522142797386 -1.7137698336982423
-0.48033522142797386 -1.7328929281859151
-0.491161429583781 -1.8093853061366068
-0.5128138458953952 -1.8285084006242796
-0.5344662622070095 -1.8858776840872982
-0.491161429583781 -1.8858776840872982
-0.43703038880474526 -1.6946467392105695
-0.3828993480257095 -1.3695541329201306
-0.2638110583118309 -0.8341074872652902
-0.09059172781891653 -0.29866084161044976
0.060975186362383534 0.0838010481430077
0.16923726792045501 0.31327818199508217
0.2558469331669122 0.2176627095567178
0.2991517657901408 -0.3751532195611412
0.20171589238787646 -1.3695541329201306
0.08262760267399782 -2.478693613205157
-0.07976551966310938 -3.4348483375888006
-0.13389656044214512 -3.7599409438792395
-0.06893931150730223 -3.453971432076474
0.20171589238787646 -2.536062896668176
0.602285594152741 -1.446046510870822
1.0786387530082553 -0.20304536917208538
1.5441657037079628 0.8869710166252683
2.0421712788750916 1.7475102685705477
2.518524437730606 2.435941670126771
3.027356221053542 2.837526654367901
3.4820569635974423 3.1052499771953217
3.8934528735181138 3.1243730716829945
4.207412910036521 3.0096345047569573
4.358979824217821 2.837526654367901
4.369806032373628 2.5124340480774623
4.2507177426597496 2.110849063836332
3.980062538764571 1.7092640795952019
3.5903190451555136 1.2694329063787257
3.092313469988385 0.8104786386745768
2.572655478509642 0.2176627095567178
2.00969265440767 -0.18392227468441252
1.47920845477312 -0.5090148809748514
0.9378980469827625 -0.8723536762406359
0.4723710962830551 -1.1400769990680562
0.060975186362383534 -1.4078003218954764
-0.35042072355828807 -1.6564005502352237
-0.6102497192976596 -1.8285084006242796
-0.8159476742579954 -2.038862439988681
-0.9566883802834883 -2.0962317234517
-1.0432980455299454 -2.057985534476354
-1.0649504618415597 -2.0006162510133354
-1.0541242536857527 -1.9432469675503168
-1.0541242536857527 -1.905000778574971
-0.9999932129067169 -1.7902622116489337
-0.9999932129067169 -1.7137698336982423
-0.935035963971874 -1.599031266772205
-0.9025573395044526 -1.446046510870822
-0.8700787150370312 -1.3504310384324578
-0.859252506881224 -1.2356924715064206
-0.8267738824138026 -1.178323188043402
-0.8267738824138026 -1.2356924715064206
-0.8159476742579954 -1.312184849457112
-0.8376000905696097 -1.2548155659940934
-0.8376000905696097 -1.2548155659940934
-0.8484262987254169 -1.312184849457112
-0.8809049231928383 -1.2739386604817662
-0.8809049231928383 -1.2739386604817662
-0.859252506881224 -1.2356924715064206
-0.8376000905696097 -1.2356924715064206
-0.8484262987254169 -1.1974462825310748
-0.8809049231928383 -1.159200093555729
-0.859252506881224 -1.178323188043402
-0.8484262987254169 -1.1974462825310748
-0.859252506881224 -1.2548155659940934
-0.8700787150370312 -1.2165693770187476
-0.8809049231928383 -1.2930617549694392
-0.8917311313486455 -1.3313079439447848
-0.9025573395044526 -1.2930617549694392
-0.9025573395044526 -1.312184849457112
-0.9025573395044526 -1.2739386604817662
-0.8809049231928383 -1.2548155659940934
-0.8700787150370312 -1.1974462825310748
-0.8917311313486455 -1.178323188043402
-0.8917311313486455 -1.1974462825310748
-0.8809049231928383 -1.2356924715064206
-0.8917311313486455 -1.2739386604817662
-0.9025573395044526 -1.3504310384324578
-0.9133835476602598 -1.3695541329201306
-0.9242097558160669 -1.4269234163831492
-0.9675145884392955 -1.3886772274078034
-0.9783407965951026 -1.3695541329201306
-0.935035963971874 -1.3313079439447848
-0.9458621721276812 -1.312184849457112
-0.9242097558160669 -1.312184849457112
-0.9566883802834883 -1.3313079439447848
-0.9133835476602598 -1.3695541329201306
-0.9675145884392955 -1.446046510870822
-0.9458621721276812 -1.465169605358495
-0.9891670047509098 -1.465169605358495
-0.9999932129067169 -1.5416619833091865
-0.9999932129067169 -1.5607850777968593
-1.010819421062524 -1.6181543612598779
-1.010819421062524 -1.6181543612598779
-1.010819421062524 -1.599031266772205
-0.9999932129067169 -1.599031266772205
-1.010819421062524 -1.6181543612598779
-0.9999932129067169 -1.599031266772205
-1.010819421062524 -1.7328929281859151
-0.9999932129067169 -1.7137698336982423
-0.9999932129067169 -1.8093853061366068
-1.0324718373741384 -1.8667545895996254
-1.0216456292183311 -1.924123873062644
-1.0324718373741384 -1.9432469675503168
-1.0432980455299454 -1.8858776840872982
-1.0216456292183311 -1.924123873062644
-1.0432980455299454 -1.9432469675503168
-1.0216456292183311 -1.9623700620379896
-1.0324718373741384 -1.9432469675503168
-1.0324718373741384 -2.038862439988681
-1.0216456292183311 -2.1153548179393726
-1.0324718373741384 -2.1536010069147182
-1.0216456292183311 -2.2492164793530827
-0.9999932129067169 -2.2874626683284283
-0.9999932129067169 -2.3065857628161015
-1.0216456292183311 -2.3257088573037743
-0.9999932129067169 -2.3065857628161015
-1.010819421062524 -2.2683395738407555
-0.9999932129067169 -2.1918471958900643
-0.9675145884392955 -2.23009338486541
-0.9458621721276812 -2.2683395738407555
-0.9133835476602598 -2.23009338486541
-0.9025573395044526 -2.23009338486541
-0.8809049231928383 -2.2683395738407555
-0.8917311313486455 -2.2874626683284283
-0.8917311313486455 -2.2874626683284283
-0.8917311313486455 -2.3065857628161015
-0.8917311313486455 -2.2492164793530827
-0.8809049231928383 -2.210970290377737
-0.8267738824138026 -2.1918471958900643
-0.7942952579463811 -2.172724101402391
-0.7618166334789597 -2.210970290377737
-0.7401642171673454 -2.172724101402391
-0.7293380090115382 -2.1536010069147182
-0.7185118008557311 -2.172724101402391
-0.6643807600766953 -2.1153548179393726
-0.6319021356092739 -2.1153548179393726
-0.6210759274534667 -2.0962317234517
-0.5885973029860453 -2.057985534476354
-0.5777710948302381 -2.038862439988681
-0.566944886674431 -2.019739345501008
-0.5344662622070095 -1.9623700620379896
-0.5236400540512024 -1.9623700620379896
-0.491161429583781 -1.8858776840872982
-0.45868280511635956 -1.771139117161261
-0.41537797249313096 -1.7520160226735881
-0.39372555618151667 -1.6946467392105695
-0.3612469317140952 -1.6755236447228965
-0.37207313986990237 -1.6946467392105695
-0.37207313986990237 -1.7520160226735881
-0.35042072355828807 -1.7328929281859151
-0.3612469317140952 -1.7328929281859151
-0.4045517643373238 -1.7328929281859151
-0.37207313986990237 -1.7328929281859151
-0.37207313986990237 -1.6564005502352237
-0.3612469317140952 -1.6181543612598779
-0.3612469317140952 -1.5607850777968593
-0.37207313986990237 -1.5607850777968593
-0.3828993480257095 -1.5225388888215137
-0.39372555618151667 -1.5607850777968593
-0.4262041806489381 -1.5799081722845323
-0.491161429583781 -1.6564005502352237
-0.491161429583781 -1.7137698336982423
-0.5452924703628167 -1.7520160226735881
-0.566944886674431 -1.7328929281859151
-0.5777710948302381 -1.7328929281859151
-0.5885973029860453 -1.6946467392105695
-0.642728343765081 -1.599031266772205
-0.6319021356092739 -1.599031266772205
-0.642728343765081 -1.6181543612598779
-0.6535545519208882 -1.6564005502352237
-0.6860331763883096 -1.7137698336982423
-0.6968593845441168 -1.771139117161261
-0.7509904253231525 -1.8093853061366068
-0.7618166334789597 -1.8476314951119523
-0.783469049790574 -1.8476314951119523
-0.7942952579463811 -1.8476314951119523
-0.7942952579463811 -1.7902622116489337
-0.7726428416347668 -1.7902622116489337
-0.7942952579463811 -1.7902622116489337
-0.7942952579463811 -1.7137698336982423
-0.8159476742579954 -1.771139117161261
-0.8267738824138026 -1.771139117161261
-0.859252506881224 -1.8285084006242796
-0.8700787150370312 -1.8858776840872982
-0.8484262987254169 -1.8858776840872982
-0.8809049231928383 -1.9623700620379896
-0.8917311313486455 -1.9432469675503168
-0.8809049231928383 -1.9432469675503168
-0.8700787150370312 -1.9432469675503168
-0.8809049231928383 -1.905000778574971
-0.8700787150370312 -1.8285084006242796
-0.8159476742579954 -1.8093853061366068
-0.7942952579463811 -1.8093853061366068
-0.7726428416347668 -1.8476314951119523
-0.783469049790574 -1.8285084006242796
-0.7618166334789597 -1.8476314951119523
-0.7942952579463811 -1.8476314951119523
-0.8159476742579954 -1.8667545895996254
-0.8159476742579954 -1.8285084006242796
-0.8159476742579954 -1.8285084006242796
-0.7942952579463811 -1.7902622116489337
-0.7942952579463811 -1.7328929281859151
-0.7618166334789597 -1.6946467392105695
-0.7509904253231525 -1.6946467392105695
-0.7293380090115382 -1.6564005502352237
-0.7293380090115382 -1.6755236447228965
-0.7401642171673454 -1.7137698336982423
-0.7401642171673454 -1.7137698336982423
-0.7509904253231525 -1.7328929281859151
-0.7509904253231525 -1.771139117161261
-0.7401642171673454 -1.7520160226735881
-0.7401642171673454 -1.7520160226735881
-0.7293380090115382 -1.7328929281859151
-0.7185118008557311 -1.6564005502352237
-0.6968593845441168 -1.637277455747551
-0.6752069682325025 -1.6181543612598779
-0.6643807600766953 -1.637277455747551
-0.642728343765081 -1.637277455747551
-0.6643807600766953 -1.637277455747551
-0.6752069682325025 -1.6564005502352237
-0.6968593845441168 -1.7520160226735881
-0.6752069682325025 -1.6755236447228965
-0.6860331763883096 -1.7328929281859151
-0.6860331763883096 -1.6755236447228965
-0.6860331763883096 -1.6946467392105695
-0.6535545519208882 -1.599031266772205
-0.6319021356092739 -1.599031266772205
-0.6102497192976596 -1.5034157943338406
-0.6319021356092739 -1.5034157943338406
-0.5994235111418524 -1.5225388888215137
-0.5885973029860453 -1.599031266772205
-0.6210759274534667 -1.6181543612598779
-0.642728343765081 -1.6181543612598779
-0.6860331763883096 -1.6181543612598779
-0.6860331763883096 -1.6564005502352237
-0.6860331763883096 -1.5799081722845323
-0.6752069682325025 -1.5799081722845323
-0.6535545519208882 -1.6181543612598779
-0.642728343765081 -1.5416619833091865
-0.6210759274534667 -1.4842926998461679
-0.6210759274534667 -1.4842926998461679
-0.5885973029860453 -1.5225388888215137
-0.6535545519208882 -1.5034157943338406
-0.6319021356092739 -1.5225388888215137
-0.6752069682325025 -1.5799081722845323
-0.6643807600766953 -1.5799081722845323
-0.6643807600766953 -1.5799081722845323
-0.6643807600766953 -1.637277455747551
-0.6968593845441168 -1.5799081722845323
-0.6643807600766953 -1.5607850777968593
-0.642728343765081 -1.5034157943338406
-0.6319021356092739 -1.446046510870822
-0.6102497192976596 -1.465169605358495
-0.5885973029860453 -1.5034157943338406
-0.5885973029860453 -1.5225388888215137
-0.5994235111418524 -1.5225388888215137
-0.642728343765081 -1.599031266772205
-0.6535545519208882 -1.5799081722845323
-0.6860331763883096 -1.5799081722845323
-0.6643807600766953 -1.5607850777968593
-0.6643807600766953 -1.5607850777968593
-0.642728343765081 -1.5225388888215137
-0.6535545519208882 -1.5034157943338406
-0.6643807600766953 -1.465169605358495
-0.5994235111418524 -1.3886772274078034
-0.5994235111418524 -1.4078003218954764
-0.5885973029860453 -1.3886772274078034
-0.5777710948302381 -1.465169605358495
-0.5885973029860453 -1.465169605358495
-0.5994235111418524 -1.5416619833091865
-0.6319021356092739 -1.5416619833091865
-0.642728343765081 -1.5607850777968593
-0.642728343765081 -1.5225388888215137
-0.6210759274534667 -1.5034157943338406
-0.5777710948302381 -1.5034157943338406
-0.5994235111418524 -1.4269234163831492
-0.5777710948302381 -1.3886772274078034
-0.5777710948302381 -1.3886772274078034
-0.5452924703628167 -1.4078003218954764
-0.5777710948302381 -1.446046510870822
-0.5236400540512024 -1.5034157943338406
-0.5344662622070095 -1.5607850777968593
-0.566944886674431 -1.5225388888215137
-0.5561186785186238 -1.5034157943338406
-0.5236400540512024 -1.5034157943338406
-0.5236400540512024 -1.4078003218954764
-0.48033522142797386 -1.3504310384324578
-0.5128138458953952 -1.3886772274078034
-0.5019876377395881 -1.3504310384324578
-0.45868280511635956 -1.4078003218954764
-0.45868280511635956 -1.4078003218954764
-0.4262041806489381 -1.4078003218954764
-0.4045517643373238 -1.446046510870822
-0.4045517643373238 -1.4269234163831492
-0.3828993480257095 -1.446046510870822
-0.4045517643373238 -1.446046510870822
-0.4478565969605524 -1.4078003218954764
-0.4695090132721667 -1.3504310384324578
-0.4695090132721667 -1.3313079439447848
-0.43703038880474526 -1.312184849457112
-0.4045517643373238 -1.312184849457112
-0.39372555618151667 -1.312184849457112
-0.4045517643373238 -1.3313079439447848
-0.4262041806489381 -1.3313079439447848
-0.4695090132721667 -1.3504310384324578
-0.491161429583781 -1.2930617549694392
-0.5019876377395881 -1.2930617549694392
-0.5344662622070095 -1.2548155659940934
-0.48033522142797386 -1.178323188043402
-0.45868280511635956 -1.159200093555729
-0.4262041806489381 -1.0827077156050375
-0.37207313986990237 -1.025338432142019
-0.3395945154024809 -1.0062153376543461
-0.3395945154024809 -0.9679691486790003
-0.3612469317140952 -1.0062153376543461
-0.4045517643373238 -1.0444615266296917
-0.43703038880474526 -1.1209539045803834
-0.48033522142797386 -1.178323188043402
-0.5561186785186238 -1.2548155659940934
-0.5994235111418524 -1.2548155659940934
-0.642728343765081 -1.312184849457112
-0.6643807600766953 -1.3504310384324578
-0.6535545519208882 -1.3504310384324578
-0.642728343765081 -1.312184849457112
-0.6319021356092739 -1.2739386604817662
-0.5994235111418524 -1.2356924715064206
-0.6102497192976596 -1.2739386604817662
-0.6102497192976596 -1.312184849457112
-0.6210759274534667 -1.3886772274078034
-0.642728343765081 -1.4269234163831492
-0.6319021356092739 -1.4842926998461679
-0.6752069682325025 -1.637277455747551
-0.6860331763883096 -1.771139117161261
-0.6752069682325025 -1.7520160226735881
-0.6535545519208882 -1.5799081722845323
-0.5885973029860453 -1.2548155659940934
-0.4695090132721667 -0.8149843927776173
-0.3395945154024809 -0.3560301250734684
-0.19885380937698802 0.04555485916766196
-0.05811310335149509 0.3706474654581008
0.05014897820657639 0.6001245993101753
0.10428001898561212 0.6001245993101753
0.1908896842320693 0.38977055994577364
0.1908896842320693 -0.27953774712277685
0.09345381082980497 -1.2930617549694392
-0.05811310335149509 -2.3830781407667927
-0.23133243384440944 -3.1671250147613805
-0.27463726646763803 -3.4922176210518194
-0.19885380937698802 -3.128878825786035
0.07180139451819069 -2.3257088573037743
0.4507186799714408 -1.3504310384324578
0.8621145898921124 -0.3177839360981226
1.2951629161243983 0.5810015048225023
1.6957326178892629 1.3650483788170902
2.0746499033425128 1.9769874024226222
2.453567188795763 2.5506802370528083
2.886615515028049 2.9713883157816112
3.330490049416142 3.2391116386090317
3.7094073348693923 3.334727111047396
3.969236330608764 3.2391116386090317
4.034193579543607 2.8757728433432472
4.012541163231992 2.4168185756390983
3.8176694164274636 1.9196181189596035
3.547014212532285 1.384171473304763
3.103139678144192 0.8296017331622497
2.6051341029770634 0.25590889853206356
2.020518862563477 -0.14567608570906676
1.47920845477312 -0.5472610699501971
0.9812028796059911 -0.70024582585158
0.5048497207504766 -0.8532305817529631
0.08262760267399782 -1.0635846211173647
-0.35042072355828807 -1.2739386604817662
-0.6860331763883096 -1.465169605358495
-0.9133835476602598 -1.637277455747551
-1.0649504618415597 -1.7520160226735881
-1.1299077107764026 -1.771139117161261
-1.1407339189322099 -1.6946467392105695
-1.1407339189322099 -1.6564005502352237
-1.1190815026205956 -1.5416619833091865
-1.075776669997367 -1.4842926998461679
-1.0216456292183311 -1.3313079439447848
-1.010819421062524 -1.2165693770187476
-0.935035963971874 -1.0635846211173647
-0.8700787150370312 -1.0444615266296917
-0.8484262987254169 -0.9297229597036545
-0.8051214661021883 -0.9488460541913274
-0.8484262987254169 -0.9105998652159817
-0.859252506881224 -0.9679691486790003
-0.9133835476602598 -1.0062153376543461
-0.9675145884392955 -1.0635846211173647
-0.9999932129067169 -1.0444615266296917
-1.010819421062524 -0.9870922431666731
-1.010819421062524 -0.9679691486790003
-0.9675145884392955 -0.9297229597036545
-0.9242097558160669 -0.8532305817529631
-0.8917311313486455 -0.8723536762406359
-0.859252506881224 -0.8723536762406359
-0.859252506881224 -0.8723536762406359
-0.8484262987254169 -0.8914767707283088
-0.8700787150370312 -0.9297229597036545
-0.8917311313486455 -0.9488460541913274
-0.9133835476602598 -0.9679691486790003
-0.9242097558160669 -0.9488460541913274
-0.935035963971874 -0.9105998652159817
-0.9458621721276812 -0.8914767707283088
-0.935035963971874 -0.9105998652159817
-0.9458621721276812 -0.8723536762406359
-0.9566883802834883 -0.8723536762406359
-0.9242097558160669 -0.8723536762406359
-0.9242097558160669 -0.8723536762406359
-0.8917311313486455 -0.9105998652159817
-0.9025573395044526 -0.9105998652159817
-0.9133835476602598 -0.9679691486790003
-0.935035963971874 -0.9297229597036545
-0.9458621721276812 -0.9679691486790003
-0.935035963971874 -1.025338432142019
-0.9458621721276812 -1.0062153376543461
-0.9566883802834883 -1.0062153376543461
-0.9675145884392955 -1.0062153376543461
-0.9783407965951026 -0.9870922431666731
-0.9458621721276812 -0.9679691486790003
-0.9458621721276812 -1.0444615266296917
-0.935035963971874 -1.025338432142019
-0.9458621721276812 -1.0635846211173647
-0.9675145884392955 -1.1400769990680562
-0.9675145884392955 -1.1974462825310748
-0.9783407965951026 -1.2356924715064206
-0.9675145884392955 -1.2739386604817662
-0.9891670047509098 -1.2930617549694392
-0.9675145884392955 -1.2356924715064206
-0.9891670047509098 -1.2548155659940934
-0.9891670047509098 -1.2356924715064206
-0.9675145884392955 -1.2739386604817662
-0.9675145884392955 -1.2739386604817662
-0.9999932129067169 -1.3886772274078034
-0.9891670047509098 -1.3695541329201306
-0.9999932129067169 -1.4078003218954764
-1.0324718373741384 -1.465169605358495
-1.0216456292183311 -1.5607850777968593
-1.0216456292183311 -1.599031266772205
-1.0324718373741384 -1.637277455747551
-1.0324718373741384 -1.6755236447228965
-0.9891670047509098 -1.6946467392105695
-0.9566883802834883 -1.7137698336982423
-0.9999932129067169 -1.6755236447228965
-0.9783407965951026 -1.6946467392105695
-0.9891670047509098 -1.7520160226735881
-1.0432980455299454 -1.8093853061366068
-1.0432980455299454 -1.905000778574971
-1.0541242536857527 -1.924123873062644
-1.0216456292183311 -1.9623700620379896
-1.0324718373741384 -1.9623700620379896
-1.0324718373741384 -1.9623700620379896
-0.9783407965951026 -1.9432469675503168
-0.9783407965951026 -1.924123873062644
-0.9891670047509098 -1.924123873062644
-0.9566883802834883 -1.905000778574971
-0.9458621721276812 -1.924123873062644
-0.9133835476602598 -1.9623700620379896
-0.9242097558160669 -1.9814931565256626
-0.9133835476602598 -2.038862439988681
-0.8917311313486455 -2.057985534476354
-0.8700787150370312 -2.057985534476354
-0.8700787150370312 -2.077108628964027
-0.8159476742579954 -2.0006162510133354
-0.783469049790574 -1.9814931565256626
-0.7726428416347668 -1.8667545895996254
-0.7293380090115382 -1.8093853061366068
-0.7185118008557311 -1.7520160226735881
-0.6643807600766953 -1.8285084006242796
-0.6535545519208882 -1.8093853061366068
-0.642728343765081 -1.771139117161261
-0.6210759274534667 -1.771139117161261
-0.5994235111418524 -1.771139117161261
-0.5885973029860453 -1.771139117161261
-0.5561186785186238 -1.7137698336982423
-0.566944886674431 -1.6946467392105695
-0.5019876377395881 -1.599031266772205
-0.45868280511635956 -1.5607850777968593
-0.4045517643373238 -1.446046510870822
-0.4045517643373238 -1.4269234163831492
-0.35042072355828807 -1.3695541329201306
-0.3179420990908666 -1.4269234163831492
-0.29628968277925233 -1.446046510870822
-0.27463726646763803 -1.465169605358495
-0.29628968277925233 -1.446046510870822
-0.3071158909350595 -1.5034157943338406
-0.3395945154024809 -1.446046510870822
-0.39372555618151667 -1.4269234163831492
-0.4262041806489381 -1.3695541329201306
-0.4045517643373238 -1.312184849457112
-0.37207313986990237 -1.2930617549694392
-0.3287683072466738 -1.2548155659940934
-0.2854634746234452 -1.2356924715064206
-0.29628968277925233 -1.2356924715064206
-0.2854634746234452 -1.2739386604817662
-0.3395945154024809 -1.3313079439447848
-0.41537797249313096 -1.3313079439447848
-0.45868280511635956 -1.3695541329201306
-0.5019876377395881 -1.3504310384324578
-0.5344662622070095 -1.2930617549694392
-0.5452924703628167 -1.312184849457112
-0.5561186785186238 -1.2548155659940934
-0.5452924703628167 -1.2165693770187476
-0.5128138458953952 -1.1974462825310748
-0.5128138458953952 -1.2165693770187476
-0.5561186785186238 -1.2165693770187476
-0.566944886674431 -1.2165693770187476
-0.6102497192976596 -1.2930617549694392
-0.6210759274534667 -1.3695541329201306
-0.642728343765081 -1.3504310384324578
-0.642728343765081 -1.3313079439447848
-0.6860331763883096 -1.3695541329201306
-0.6752069682325025 -1.312184849457112
-0.6752069682325025 -1.2548155659940934
-0.6643807600766953 -1.2356924715064206
-0.6860331763883096 -1.2548155659940934
-0.7185118008557311 -1.3313079439447848
-0.7401642171673454 -1.3886772274078034
-0.7401642171673454 -1.4269234163831492
-0.7618166334789597 -1.446046510870822
-0.7942952579463811 -1.5225388888215137
-0.7942952579463811 -1.5225388888215137
-0.7942952579463811 -1.5034157943338406
-0.8051214661021883 -1.465169605358495
-0.8159476742579954 -1.465169605358495
-0.8051214661021883 -1.4078003218954764
-0.7618166334789597 -1.4078003218954764
-0.7401642171673454 -1.4078003218954764
-0.7401642171673454 -1.3886772274078034
-0.7509904253231525 -1.4078003218954764
-0.783469049790574 -1.465169605358495
-0.783469049790574 -1.4078003218954764
-0.7726428416347668 -1.4842926998461679
-0.7618166334789597 -1.4842926998461679
-0.7509904253231525 -1.446046510870822
-0.7293380090115382 -1.465169605358495
-0.7293380090115382 -1.465169605358495
-0.7185118008557311 -1.3695541329201306
-0.6860331763883096 -1.3504310384324578
-0.6860331763883096 -1.4078003218954764
-0.6643807600766953 -1.3313079439447848
-0.6535545519208882 -1.4269234163831492
-0.642728343765081 -1.4078003218954764
-0.6860331763883096 -1.4269234163831492
-0.6752069682325025 -1.465169605358495
-0.6752069682325025 -1.465169605358495
-0.6643807600766953 -1.4078003218954764
-0.6860331763883096 -1.3695541329201306
-0.6968593845441168 -1.3313079439447848
-0.6643807600766953 -1.312184849457112
-0.6535545519208882 -1.3313079439447848
-0.6102497192976596 -1.2548155659940934
-0.5994235111418524 -1.2930617549694392
-0.6102497192976596 -1.2739386604817662
-0.5994235111418524 -1.2930617549694392
-0.6210759274534667 -1.3313079439447848
-0.6102497192976596 -1.3504310384324578
-0.6102497192976596 -1.4078003218954764
-0.6102497192976596 -1.3695541329201306
-0.5994235111418524 -1.3313079439447848
-0.6102497192976596 -1.2739386604817662
-0.6319021356092739 -1.2356924715064206
-0.6319021356092739 -1.1974462825310748
-0.5885973029860453 -1.1974462825310748
-0.5994235111418524 -1.2165693770187476
-0.6102497192976596 -1.2930617549694392
-0.6102497192976596 -1.2739386604817662
-0.6319021356092739 -1.3504310384324578
-0.6210759274534667 -1.2930617549694392
-0.642728343765081 -1.2930617549694392
-0.6319021356092739 -1.2930617549694392
-0.6102497192976596 -1.2739386604817662
-0.6102497192976596 -1.2739386604817662
-0.5994235111418524 -1.2739386604817662
-0.566944886674431 -1.2548155659940934
-0.5777710948302381 -1.2356924715064206
-0.566944886674431 -1.2165693770187476
-0.5561186785186238 -1.2165693770187476
-0.5561186785186238 -1.2930617549694392
-0.5561186785186238 -1.2739386604817662
-0.5777710948302381 -1.312184849457112
-0.566944886674431 -1.3313079439447848
-0.566944886674431 -1.2930617549694392
-0.566944886674431 -1.2739386604817662
-0.5885973029860453 -1.2165693770187476
-0.5452924703628167 -1.159200093555729
-0.5128138458953952 -1.1400769990680562
-0.5128138458953952 -1.159200093555729
-0.491161429583781 -1.2165693770187476
-0.5236400540512024 -1.1974462825310748
-0.5452924703628167 -1.2356924715064206
-0.5344662622070095 -1.2548155659940934
-0.5561186785186238 -1.2548155659940934
-0.5561186785186238 -1.2739386604817662
-0.5885973029860453 -1.2548155659940934
-0.5452924703628167 -1.2356924715064206
-0.5452924703628167 -1.178323188043402
-0.5236400540512024 -1.1400769990680562
-0.491161429583781 -1.178323188043402
-0.5128138458953952 -1.1209539045803834
-0.5019876377395881 -1.159200093555729
-0.5236400540512024 -1.1400769990680562
-0.5344662622070095 -1.1974462825310748
-0.5452924703628167 -1.2165693770187476
-0.5452924703628167 -1.2356924715064206
-0.566944886674431 -1.2739386604817662
-0.5452924703628167 -1.2548155659940934
-0.5561186785186238 -1.2548155659940934
-0.566944886674431 -1.1974462825310748
-0.5452924703628167 -1.178323188043402
-0.5561186785186238 -1.159200093555729
-0.5236400540512024 -1.1209539045803834
-0.5019876377395881 -1.1400769990680562
-0.5019876377395881 -1.0827077156050375
-0.5236400540512024 -1.1209539045803834
-0.5452924703628167 -1.1400769990680562
-0.566944886674431 -1.178323188043402
-0.566944886674431 -1.1974462825310748
-0.566944886674431 -1.2356924715064206
-0.5561186785186238 -1.2356924715064206
-0.5128138458953952 -1.2356924715064206
-0.5128138458953952 -1.1974462825310748
-0.48033522142797386 -1.159200093555729
-0.48033522142797386 -1.0827077156050375
-0.4695090132721667 -1.1018308100927103
-0.4695090132721667 -1.1018308100927103
-0.4695090132721667 -1.159200093555729
-0.48033522142797386 -1.178323188043402
-0.491161429583781 -1.178323188043402
-0.5019876377395881 -1.1974462825310748
-0.5019876377395881 -1.1974462825310748
-0.4695090132721667 -1.178323188043402
-0.4478565969605524 -1.178323188043402
-0.43703038880474526 -1.1400769990680562
-0.43703038880474526 -1.1018308100927103
-0.4262041806489381 -1.0444615266296917
-0.3828993480257095 -1.0635846211173647
-0.4045517643373238 -1.1018308100927103
-0.4045517643373238 -1.0635846211173647
-0.41537797249313096 -1.0827077156050375
-0.43703038880474526 -1.0635846211173647
-0.41537797249313096 -1.1209539045803834
-0.3828993480257095 -1.0827077156050375
-0.35042072355828807 -1.1018308100927103
-0.3395945154024809 -1.0827077156050375
-0.3287683072466738 -1.0444615266296917
-0.29628968277925233 -1.0062153376543461
-0.29628968277925233 -0.9679691486790003
-0.27463726646763803 -0.9488460541913274
-0.2854634746234452 -0.9679691486790003
-0.2854634746234452 -0.9679691486790003
-0.3071158909350595 -1.0062153376543461
-0.3612469317140952 -1.0635846211173647
-0.39372555618151667 -1.1018308100927103
-0.4045517643373238 -1.1018308100927103
-0.39372555618151667 -1.0635846211173647
-0.3828993480257095 -0.9679691486790003
-0.39372555618151667 -0.9105998652159817
-0.37207313986990237 -0.8532305817529631
-0.35042072355828807 -0.8341074872652902
-0.3395945154024809 -0.8149843927776173
-0.3071158909350595 -0.7958612982899445
-0.2854634746234452 -0.7958612982899445
-0.2638110583118309 -0.7958612982899445
-0.25298485015602373 -0.8341074872652902
-0.29628968277925233 -0.8914767707283088
-0.3071158909350595 -0.8532305817529631
-0.3612469317140952 -0.9679691486790003
-0.39372555618151667 -0.9488460541913274
-0.43703038880474526 -1.025338432142019
-0.4695090132721667 -1.025338432142019
-0.491161429583781 -1.0062153376543461
-0.5128138458953952 -1.0635846211173647
-0.5236400540512024 -1.1209539045803834
-0.5128138458953952 -1.1018308100927103
-0.5452924703628167 -1.159200093555729
-0.5561186785186238 -1.178323188043402
-0.5777710948302381 -1.1974462825310748
-0.5777710948302381 -1.178323188043402
-0.5777710948302381 -1.1974462825310748
-0.5561186785186238 -1.2165693770187476
-0.5561186785186238 -1.2356924715064206
-0.5777710948302381 -1.3313079439447848
-0.5561186785186238 -1.3313079439447848
-0.5452924703628167 -1.3504310384324578
-0.5019876377395881 -1.2356924715064206
-0.4262041806489381 -0.8914767707283088
-0.29628968277925233 -0.45164559751183275
-0.16637518490956657 0.026431764679989082
-0.025634478884073643 0.4280167489211194
0.060975186362383534 0.7148631662362125
0.14758485160884072 0.6957400717485396
0.20171589238787646 0.3706474654581008
0.20171589238787646 -0.39427631404881414
0.10428001898561212 -1.4842926998461679
-0.04728689519568794 -2.49781670769283
-0.14472276859795227 -3.109755731298362
-0.14472276859795227 -3.1671250147613805
0.017670353739154945 -2.5169398021805027
0.33163039025756225 -1.5225388888215137
0.7105476757108123 -0.43252250302415984
1.1544222100989054 0.6001245993101753
1.5766443281753841 1.4989100402308002
2.00969265440767 2.282956914225388
2.4752196051073776 2.9331421268062656
2.9515727639628917 3.3920963945104146
3.417099714662599 3.6598197173378346
3.839321832739078 3.774558284263872
4.174934285569099 3.621573528362489
4.294022575282979 3.2582347330967045
4.261543950815557 2.76103427641721
4.055845995855221 2.2064645362746966
3.676928710401971 1.6518947961321833
3.178923135234842 1.1546943394526885
2.572655478509642 0.6192476937978482
1.9447354054728272 0.19853961506904494
1.4034249976824698 -0.030937518783029534
0.9487242551385696 -0.260414652635104
0.5156759289062838 -0.43252250302415984
0.16923726792045501 -0.6237534479008886
-0.17720139306537372 -0.8149843927776173
-0.5128138458953952 -1.159200093555729
-0.7401642171673454 -1.3313079439447848
-0.9025573395044526 -1.465169605358495
-1.0324718373741384 -1.5034157943338406
-1.086602878153174 -1.5034157943338406
-1.1082552944647883 -1.3695541329201306
-1.075776669997367 -1.2930617549694392
-1.0216456292183311 -1.159200093555729
-0.9783407965951026 -1.0635846211173647
-0.9025573395044526 -0.9297229597036545
-0.8267738824138026 -0.8341074872652902
-0.7942952579463811 -0.7576151093145986
-0.7942952579463811 -0.8149843927776173
-0.7726428416347668 -0.7958612982899445
-0.783469049790574 -0.7958612982899445
-0.8376000905696097 -0.8341074872652902
-0.8700787150370312 -0.8341074872652902
-0.8809049231928383 -0.8149843927776173
-0.8917311313486455 -0.7958612982899445
-0.8700787150370312 -0.7576151093145986
-0.8376000905696097 -0.70024582585158
-0.8484262987254169 -0.6428765423885614
-0.8376000905696097 -0.6428765423885614
-0.8484262987254169 -0.5855072589255428
-0.7942952579463811 -0.6237534479008886
-0.7942952579463811 -0.6619996368762343
-0.8376000905696097 -0.7576151093145986
-0.8376000905696097 -0.7767382038022715
-0.8484262987254169 -0.7767382038022715
-0.8376000905696097 -0.7193689203392529
-0.8376000905696097 -0.70024582585158
-0.8267738824138026 -0.6811227313639072
-0.8376000905696097 -0.6237534479008886
-0.8051214661021883 -0.6046303534132157
-0.783469049790574 -0.6237534479008886
-0.7942952579463811 -0.6237534479008886
-0.8051214661021883 -0.7384920148269258
-0.7942952579463811 -0.7576151093145986
-0.8051214661021883 -0.7767382038022715
-0.8267738824138026 -0.7958612982899445
-0.8484262987254169 -0.8341074872652902
-0.8917311313486455 -0.8341074872652902
-0.8917311313486455 -0.7767382038022715
-0.9133835476602598 -0.7958612982899445
-0.8917311313486455 -0.7576151093145986
-0.8809049231928383 -0.7384920148269258
-0.859252506881224 -0.7576151093145986
-0.8484262987254169 -0.7767382038022715
-0.8159476742579954 -0.8149843927776173
-0.8376000905696097 -0.8532305817529631
-0.8376000905696097 -0.9297229597036545
-0.859252506881224 -0.9679691486790003
-0.9133835476602598 -1.025338432142019
-0.935035963971874 -0.9679691486790003
-0.9458621721276812 -0.9105998652159817
-0.9133835476602598 -0.9488460541913274
-0.9025573395044526 -0.9488460541913274
-0.8917311313486455 -1.0062153376543461
-0.8917311313486455 -1.025338432142019
-0.8700787150370312 -1.0444615266296917
-0.8700787150370312 -1.1400769990680562
-0.8700787150370312 -1.178323188043402
-0.8809049231928383 -1.2548155659940934
-0.9133835476602598 -1.3313079439447848
-0.9133835476602598 -1.3504310384324578
-0.935035963971874 -1.3504310384324578
-0.9242097558160669 -1.3695541329201306
-0.935035963971874 -1.3504310384324578
-0.935035963971874 -1.3886772274078034
-0.935035963971874 -1.4078003218954764
-0.9133835476602598 -1.4269234163831492
-0.9242097558160669 -1.446046510870822
-0.8809049231928383 -1.465169605358495
-0.8809049231928383 -1.4842926998461679
-0.9025573395044526 -1.5225388888215137
-0.8917311313486455 -1.5607850777968593
-0.8917311313486455 -1.5799081722845323
-0.9025573395044526 -1.5416619833091865
-0.8809049231928383 -1.5607850777968593
-0.8809049231928383 -1.5416619833091865
-0.8484262987254169 -1.5607850777968593
-0.8376000905696097 -1.599031266772205
-0.8159476742579954 -1.5034157943338406
-0.7942952579463811 -1.5225388888215137
-0.7942952579463811 -1.5799081722845323
-0.7942952579463811 -1.599031266772205
-0.7942952579463811 -1.5799081722845323
-0.783469049790574 -1.6181543612598779
-0.7726428416347668 -1.6181543612598779
-0.7618166334789597 -1.6181543612598779
-0.7401642171673454 -1.5607850777968593
-0.7293380090115382 -1.5416619833091865
-0.6535545519208882 -1.5034157943338406
-0.6102497192976596 -1.4269234163831492
-0.5777710948302381 -1.3313079439447848
-0.5561186785186238 -1.312184849457112
-0.5019876377395881 -1.312184849457112
-0.4695090132721667 -1.2165693770187476
-0.45868280511635956 -1.2548155659940934
-0.4045517643373238 -1.2165693770187476
-0.39372555618151667 -1.159200093555729
-0.37207313986990237 -1.1400769990680562
-0.3287683072466738 -1.1018308100927103
-0.2854634746234452 -1.0827077156050375
-0.25298485015602373 -1.0444615266296917
-0.2205062256886023 -0.9870922431666731
-0.19885380937698802 -0.9297229597036545
-0.15554897675375942 -0.8914767707283088
-0.17720139306537372 -0.9488460541913274
-0.15554897675375942 -0.9105998652159817
-0.15554897675375942 -0.9679691486790003
-0.17720139306537372 -0.9679691486790003
-0.18802760122118087 -0.9488460541913274
-0.16637518490956657 -0.9105998652159817
-0.18802760122118087 -0.8723536762406359
-0.19885380937698802 -0.8723536762406359
-0.18802760122118087 -0.8149843927776173
-0.13389656044214512 -0.7958612982899445
-0.12307035228633798 -0.7576151093145986
-0.07976551966310938 -0.7576151093145986
-0.11224414413053083 -0.8914767707283088
-0.19885380937698802 -0.9105998652159817
-0.2854634746234452 -0.9105998652159817
-0.35042072355828807 -1.025338432142019
-0.4045517643373238 -0.9297229597036545
-0.4695090132721667 -0.8914767707283088
-0.4478565969605524 -0.9488460541913274
-0.43703038880474526 -0.9870922431666731
-0.4045517643373238 -0.9870922431666731
-0.37207313986990237 -0.9679691486790003
-0.3612469317140952 -0.9105998652159817
-0.37207313986990237 -0.9105998652159817
-0.39372555618151667 -0.9679691486790003
-0.4262041806489381 -1.0062153376543461
-0.48033522142797386 -1.0635846211173647
-0.5777710948302381 -1.0827077156050375
-0.6210759274534667 -1.1209539045803834
-0.6643807600766953 -1.1209539045803834
-0.6860331763883096 -1.1018308100927103
-0.6860331763883096 -1.0827077156050375
-0.6968593845441168 -1.0635846211173647
-0.6860331763883096 -1.1018308100927103
-0.642728343765081 -1.1018308100927103
-0.6102497192976596 -1.1018308100927103
-0.5994235111418524 -1.159200093555729
-0.5885973029860453 -1.1974462825310748
-0.5994235111418524 -1.2165693770187476
-0.6102497192976596 -1.2165693770187476
-0.6102497192976596 -1.178323188043402
-0.6319021356092739 -1.1974462825310748
-0.6752069682325025 -1.1974462825310748
-0.6643807600766953 -1.1400769990680562
-0.6535545519208882 -1.0635846211173647
-0.6319021356092739 -0.9870922431666731
-0.6102497192976596 -0.9679691486790003
-0.5777710948302381 -0.9679691486790003
-0.5561186785186238 -0.9488460541913274
-0.5561186785186238 -0.9679691486790003
-0.5561186785186238 -0.9488460541913274
-0.5452924703628167 -0.9870922431666731
-0.5777710948302381 -0.9679691486790003
-0.5885973029860453 -0.9488460541913274
-0.5452924703628167 -0.9488460541913274
-0.5452924703628167 -0.8914767707283088
-0.5128138458953952 -0.8149843927776173
-0.48033522142797386 -0.7958612982899445
-0.4478565969605524 -0.7576151093145986
-0.39372555618151667 -0.7576151093145986
-0.3828993480257095 -0.7384920148269258
-0.39372555618151667 -0.7767382038022715
-0.3828993480257095 -0.7767382038022715
-0.41537797249313096 -0.8341074872652902
-0.4262041806489381 -0.8149843927776173
-0.45868280511635956 -0.8532305817529631
-0.4695090132721667 -0.8723536762406359
-0.4695090132721667 -0.7958612982899445
-0.4478565969605524 -0.7576151093145986
-0.4478565969605524 -0.7767382038022715
-0.4045517643373238 -0.6811227313639072
-0.3828993480257095 -0.6811227313639072
-0.3395945154024809 -0.6619996368762343
-0.3071158909350595 -0.6619996368762343
-0.27463726646763803 -0.7193689203392529
-0.29628968277925233 -0.7576151093145986
-0.37207313986990237 -0.8149843927776173
-0.4045517643373238 -0.7958612982899445
-0.4478565969605524 -0.7193689203392529
-0.45868280511635956 -0.6237534479008886
-0.4478565969605524 -0.56638416443787
-0.4262041806489381 -0.48989178648717846
-0.39372555618151667 -0.5090148809748514
-0.3828993480257095 -0.5281379754625242
-0.41537797249313096 -0.5281379754625242
-0.4045517643373238 -0.6046303534132157
-0.43703038880474526 -0.6046303534132157
-0.4262041806489381 -0.6237534479008886
-0.39372555618151667 -0.70024582585158
-0.3828993480257095 -0.70024582585158
-0.37207313986990237 -0.6428765423885614
-0.37207313986990237 -0.6046303534132157
-0.35042072355828807 -0.5472610699501971
-0.3287683072466738 -0.4707686919995056
-0.29628968277925233 -0.3751532195611412
-0.25298485015602373 -0.39427631404881414
-0.27463726646763803 -0.45164559751183275
-0.3179420990908666 -0.48989178648717846
-0.3071158909350595 -0.5855072589255428
-0.3179420990908666 -0.5472610699501971
-0.29628968277925233 -0.5281379754625242
-0.29628968277925233 -0.4707686919995056
-0.29628968277925233 -0.43252250302415984
-0.2638110583118309 -0.413399408536487
-0.27463726646763803 -0.3751532195611412
-0.2638110583118309 -0.3560301250734684
-0.25298485015602373 -0.413399408536487
-0.2638110583118309 -0.39427631404881414
-0.25298485015602373 -0.43252250302415984
-0.2638110583118309 -0.45164559751183275
-0.2638110583118309 -0.4707686919995056
-0.2854634746234452 -0.48989178648717846
-0.29628968277925233 -0.45164559751183275
-0.2854634746234452 -0.4707686919995056
-0.2638110583118309 -0.413399408536487
-0.2638110583118309 -0.4707686919995056
-0.2638110583118309 -0.39427631404881414
-0.2854634746234452 -0.3560301250734684
-0.2638110583118309 -0.3560301250734684
-0.20968001753279517 -0.3560301250734684
-0.19885380937698802 -0.413399408536487
-0.18802760122118087 -0.413399408536487
-0.18802760122118087 -0.45164559751183275
-0.18802760122118087 -0.45164559751183275
-0.23133243384440944 -0.45164559751183275
-0.2205062256886023 -0.45164559751183275
-0.2205062256886023 -0.39427631404881414
-0.20968001753279517 -0.33690703058579546
-0.18802760122118087 -0.3751532195611412
-0.14472276859795227 -0.3177839360981226
-0.10141793597472368 -0.3560301250734684
-0.14472276859795227 -0.3560301250734684
-0.15554897675375942 -0.39427631404881414
-0.24215864200021658 -0.413399408536487
-0.29628968277925233 -0.413399408536487
-0.23133243384440944 -0.39427631404881414
-0.25298485015602373 -0.4707686919995056
-0.20968001753279517 -0.43252250302415984
-0.14472276859795227 -0.43252250302415984
-0.13389656044214512 -0.45164559751183275
-0.12307035228633798 -0.3560301250734684
-0.09059172781891653 -0.3177839360981226
-0.07976551966310938 -0.29866084161044976
-0.04728689519568794 -0.3177839360981226
-0.06893931150730223 -0.33690703058579546
-0.09059172781891653 -0.33690703058579546
-0.12307035228633798 -0.29866084161044976
-0.13389656044214512 -0.3177839360981226
-0.07976551966310938 -0.3560301250734684
-0.07976551966310938 -0.33690703058579546
-0.04728689519568794 -0.3751532195611412
-0.014808270728266496 -0.39427631404881414
0.006844145583347798 -0.3751532195611412
0.05014897820657639 -0.27953774712277685
0.07180139451819069 -0.22216846365975826
0.11510622714141927 -0.18392227468441252
0.12593243529722642 -0.24129155814743114
0.08262760267399782 -0.3177839360981226
0.07180139451819069 -0.33690703058579546
0.017670353739154945 -0.3560301250734684
0.006844145583347798 -0.3751532195611412
-0.014808270728266496 -0.3560301250734684
-0.003982062572459349 -0.29866084161044976
0.017670353739154945 -0.24129155814743114
0.05014897820657639 -0.14567608570906676
0.05014897820657639 -0.08830680224604816
0.060975186362383534 -0.011814424295356661
0.07180139451819069 0.0073086701923162104
0.09345381082980497 0.06467795365533482
0.14758485160884072 0.026431764679989082
0.1908896842320693 0.04555485916766196
0.1908896842320693 -0.030937518783029534
0.15841105976464787 -0.10742989673372103
0.07180139451819069 -0.1265529912213939
-0.05811310335149509 -0.18392227468441252
-0.13389656044214512 -0.18392227468441252
-0.24215864200021658 -0.22216846365975826
-0.29628968277925233 -0.20304536917208538
-0.2854634746234452 -0.22216846365975826
-0.25298485015602373 -0.20304536917208538
-0.2205062256886023 -0.24129155814743114
-0.20968001753279517 -0.33690703058579546
-0.19885380937698802 -0.39427631404881414
-0.19885380937698802 -0.39427631404881414
-0.20968001753279517 -0.413399408536487
-0.19885380937698802 -0.33690703058579546
-0.19885380937698802 -0.33690703058579546
-0.17720139306537372 -0.33690703058579546
-0.16637518490956657 -0.29866084161044976
-0.15554897675375942 -0.39427631404881414
-0.15554897675375942 -0.45164559751183275
-0.14472276859795227 -0.48989178648717846
-0.15554897675375942 -0.3751532195611412
-0.12307035228633798 -0.06918370775837528
-0.014808270728266496 0.4280167489211194
0.14758485160884072 1.0399557725266513
0.33163039025756225 1.5754024181814918
0.4940235125946694 1.8813719299842577
0.602285594152741 1.9387412134472763
0.6997214675550052 1.3459252843294174
0.6455904267759695 0.31327818199508217
0.5156759289062838 -0.9679691486790003
0.3424565984133694 -1.9432469675503168
0.2558469331669122 -2.344831951791447
0.33163039025756225 -1.9432469675503168
0.602285594152741 -1.0062153376543461
1.0136815040734126 0.17941652058137206
1.47920845477312 1.3459252843294174
1.9772140299402488 2.3403261976884067
2.431914772484149 3.16261926065834
2.886615515028049 3.7171890008008535
3.330490049416142 4.061404701578965
3.7851907919600425 4.195266362992675
4.120803244790064 4.176143268505002
4.315674991594593 3.9849123236282735
4.380632240529436 3.678942811825508
4.304848783438786 3.29648092207205
4.109977036634256 2.914019032318593
3.8176694164274636 2.4933109535897895
3.3846210901951777 2.0152335913979678
2.9082679313396635 1.5562793236938188
2.345305107237692 1.09732505598967
1.8364733239147557 0.6766169772608668
1.3384677487476269 0.35152437097042794
0.8837670062037267 0.14117033160602632
0.4831973044388623 -0.011814424295356661
0.12593243529722642 -0.20304536917208538
-0.16637518490956657 -0.33690703058579546
-0.3828993480257095 -0.56638416443787
-0.5777710948302381 -0.6619996368762343
-0.6860331763883096 -0.7767382038022715
-0.7618166334789597 -0.7576151093145986
-0.7726428416347668 -0.70024582585158
-0.7726428416347668 -0.5855072589255428
-0.7401642171673454 -0.4707686919995056
-0.6860331763883096 -0.3751532195611412
-0.6102497192976596 -0.16479918019673964
-0.5777710948302381 -0.14567608570906676
-0.5452924703628167 -0.030937518783029534
-0.5019876377395881 0.026431764679989082
-0.491161429583781 0.026431764679989082
-0.4695090132721667 -0.011814424295356661
-0.45868280511635956 -0.06918370775837528
-0.45868280511635956 -0.030937518783029534
-0.4478565969605524 -0.08830680224604816
-0.43703038880474526 -0.08830680224604816
-0.4262041806489381 -0.05006061327070241
-0.41537797249313096 -0.06918370775837528
-0.41537797249313096 0.04555485916766196
-0.43703038880474526 0.0838010481430077
-0.4045517643373238 0.10292414263068057
-0.37207313986990237 0.12204723711835344
-0.35042072355828807 0.06467795365533482
-0.3395945154024809 0.06467795365533482
-0.3828993480257095 0.04555485916766196
-0.4695090132721667 -0.08830680224604816
-0.5777710948302381 -0.10742989673372103
-0.6319021356092739 -0.10742989673372103
-0.6968593845441168 -0.05006061327070241
-0.6860331763883096 -0.011814424295356661
-0.642728343765081 0.0073086701923162104
-0.5994235111418524 0.04555485916766196
-0.566944886674431 0.04555485916766196
-0.5236400540512024 0.04555485916766196
-0.5236400540512024 0.0073086701923162104
-0.5561186785186238 -0.06918370775837528
-0.5561186785186238 -0.1265529912213939
-0.5885973029860453 -0.16479918019673964
-0.6102497192976596 -0.22216846365975826
-0.6210759274534667 -0.10742989673372103
-0.6102497192976596 -0.14567608570906676
-0.5777710948302381 -0.18392227468441252
-0.5777710948302381 -0.1265529912213939
-0.5994235111418524 -0.14567608570906676
-0.6210759274534667 -0.18392227468441252
-0.5777710948302381 -0.16479918019673964
-0.5777710948302381 -0.20304536917208538
-0.5885973029860453 -0.22216846365975826
-0.642728343765081 -0.29866084161044976
-0.6535545519208882 -0.3177839360981226
-0.6643807600766953 -0.3560301250734684
-0.6752069682325025 -0.39427631404881414
-0.6968593845441168 -0.413399408536487
-0.6860331763883096 -0.43252250302415984
-0.642728343765081 -0.45164559751183275
-0.6643807600766953 -0.39427631404881414
-0.6535545519208882 -0.413399408536487
-0.6643807600766953 -0.4707686919995056
-0.6968593845441168 -0.56638416443787
-0.6968593845441168 -0.6046303534132157
-0.6968593845441168 -0.7193689203392529
-0.6968593845441168 -0.70024582585158
-0.7185118008557311 -0.7576151093145986
-0.7293380090115382 -0.8341074872652902
-0.7185118008557311 -0.8149843927776173
-0.6752069682325025 -0.7958612982899445
-0.642728343765081 -0.8149843927776173
-0.6210759274534667 -0.8532305817529631
-0.6102497192976596 -0.8723536762406359
-0.5885973029860453 -0.9297229597036545
-0.6319021356092739 -0.9488460541913274
-0.6643807600766953 -1.0062153376543461
-0.6860331763883096 -1.0444615266296917
-0.7076855926999239 -1.1018308100927103
-0.7401642171673454 -1.1400769990680562
-0.7401642171673454 -1.159200093555729
-0.7509904253231525 -1.159200093555729
-0.8159476742579954 -1.1974462825310748
-0.8267738824138026 -1.178323188043402
-0.8051214661021883 -1.1974462825310748
-0.7726428416347668 -1.178323188043402
-0.7293380090115382 -1.159200093555729
-0.6860331763883096 -1.2165693770187476
-0.6860331763883096 -1.2356924715064206
-0.6752069682325025 -1.2356924715064206
-0.6752069682325025 -1.312184849457112
-0.6752069682325025 -1.2930617549694392
-0.6752069682325025 -1.2930617549694392
-0.6535545519208882 -1.2739386604817662
-0.6535545519208882 -1.2739386604817662
-0.5885973029860453 -1.1974462825310748
-0.5777710948302381 -1.2356924715064206
-0.5452924703628167 -1.1400769990680562
-0.491161429583781 -1.159200093555729
-0.48033522142797386 -1.1974462825310748
-0.4478565969605524 -1.178323188043402
-0.45868280511635956 -1.2930617549694392
-0.45868280511635956 -1.2930617549694392
-0.4478565969605524 -1.2739386604817662
-0.4262041806489381 -1.2548155659940934
-0.4262041806489381 -1.178323188043402
-0.4045517643373238 -1.1400769990680562
-0.3395945154024809 -1.0444615266296917
-0.3287683072466738 -0.9870922431666731
-0.3071158909350595 -0.9105998652159817
-0.2205062256886023 -0.8532305817529631
-0.18802760122118087 -0.8341074872652902
-0.16637518490956657 -0.8723536762406359
-0.13389656044214512 -0.8914767707283088
-0.13389656044214512 -0.9105998652159817
-0.12307035228633798 -0.9297229597036545
-0.11224414413053083 -0.8723536762406359
-0.13389656044214512 -0.8149843927776173
-0.11224414413053083 -0.8341074872652902
-0.10141793597472368 -0.7767382038022715
-0.09059172781891653 -0.7767382038022715
-0.04728689519568794 -0.7384920148269258
0.006844145583347798 -0.7384920148269258
0.017670353739154945 -0.6619996368762343
-0.003982062572459349 -0.6619996368762343
-0.05811310335149509 -0.6619996368762343
-0.09059172781891653 -0.6428765423885614
-0.13389656044214512 -0.6428765423885614
-0.14472276859795227 -0.6428765423885614
-0.17720139306537372 -0.6046303534132157
-0.24215864200021658 -0.6237534479008886
-0.2638110583118309 -0.5281379754625242
-0.3179420990908666 -0.56638416443787
-0.3071158909350595 -0.48989178648717846
-0.3179420990908666 -0.5281379754625242
-0.27463726646763803 -0.4707686919995056
-0.2638110583118309 -0.5090148809748514
-0.29628968277925233 -0.5472610699501971
-0.35042072355828807 -0.6237534479008886
-0.39372555618151667 -0.70024582585158
-0.4045517643373238 -0.7384920148269258
-0.4478565969605524 -0.7576151093145986
-0.45868280511635956 -0.7576151093145986
-0.4695090132721667 -0.6619996368762343
-0.4695090132721667 -0.6619996368762343
-0.4262041806489381 -0.6619996368762343
-0.39372555618151667 -0.56638416443787
-0.4045517643373238 -0.6619996368762343
-0.41537797249313096 -0.6237534479008886
-0.43703038880474526 -0.7384920148269258
-0.491161429583781 -0.6811227313639072
-0.5236400540512024 -0.7193689203392529
-0.5561186785186238 -0.7576151093145986
-0.5885973029860453 -0.8149843927776173
-0.5994235111418524 -0.7958612982899445
-0.6102497192976596 -0.7384920148269258
-0.566944886674431 -0.7193689203392529
-0.5236400540512024 -0.6811227313639072
-0.48033522142797386 -0.6619996368762343
-0.4695090132721667 -0.6619996368762343
-0.48033522142797386 -0.6619996368762343
-0.5019876377395881 -0.7576151093145986
-0.5019876377395881 -0.7576151093145986
-0.5344662622070095 -0.7767382038022715
-0.5561186785186238 -0.8149843927776173
-0.5344662622070095 -0.7384920148269258
-0.5344662622070095 -0.7193689203392529
-0.5128138458953952 -0.7576151093145986
-0.491161429583781 -0.6811227313639072
-0.491161429583781 -0.70024582585158
-0.45868280511635956 -0.6811227313639072
-0.45868280511635956 -0.70024582585158
-0.45868280511635956 -0.70024582585158
-0.4262041806489381 -0.7193689203392529
-0.45868280511635956 -0.7193689203392529
-0.491161429583781 -0.7958612982899445
-0.5019876377395881 -0.7193689203392529
-0.5236400540512024 -0.7384920148269258
-0.5019876377395881 -0.70024582585158
-0.45868280511635956 -0.6428765423885614
-0.43703038880474526 -0.70024582585158
-0.4478565969605524 -0.56638416443787
-0.41537797249313096 -0.6046303534132157
-0.4262041806489381 -0.5855072589255428
-0.43703038880474526 -0.6237534479008886
-0.4478565969605524 -0.6237534479008886
-0.48033522142797386 -0.6237534479008886
-0.5128138458953952 -0.6428765423885614
-0.48033522142797386 -0.6237534479008886
-0.491161429583781 -0.6811227313639072
-0.5019876377395881 -0.5855072589255428
-0.4695090132721667 -0.5855072589255428
-0.4478565969605524 -0.48989178648717846
-0.4695090132721667 -0.45164559751183275
-0.41537797249313096 -0.5090148809748514
-0.43703038880474526 -0.56638416443787
-0.45868280511635956 -0.6046303534132157
-0.43703038880474526 -0.6428765423885614
-0.45868280511635956 -0.6811227313639072
-0.4695090132721667 -0.7193689203392529
-0.45868280511635956 -0.7384920148269258
-0.45868280511635956 -0.7576151093145986
-0.45868280511635956 -0.6811227313639072
-0.43703038880474526 -0.6811227313639072
-0.43703038880474526 -0.6237534479008886
-0.4045517643373238 -0.5472610699501971
-0.4045517643373238 -0.5855072589255428
-0.39372555618151667 -0.6046303534132157
-0.37207313986990237 -0.56638416443787
-0.3828993480257095 -0.70024582585158
-0.3828993480257095 -0.70024582585158
-0.3612469317140952 -0.7384920148269258
-0.4045517643373238 -0.7576151093145986
-0.45868280511635956 -0.7576151093145986
-0.48033522142797386 -0.7193689203392529
-0.491161429583781 -0.70024582585158
-0.4695090132721667 -0.6428765423885614
-0.4695090132721667 -0.5855072589255428
-0.43703038880474526 -0.5281379754625242
-0.43703038880474526 -0.6046303534132157
-0.4262041806489381 -0.6428765423885614
-0.43703038880474526 -0.70024582585158
-0.45868280511635956 -0.70024582585158
-0.48033522142797386 -0.70024582585158
-0.4478565969605524 -0.7193689203392529
-0.43703038880474526 -0.70024582585158
-0.4262041806489381 -0.6811227313639072
-0.41537797249313096 -0.6619996368762343
-0.4045517643373238 -0.5855072589255428
-0.3828993480257095 -0.5472610699501971
-0.37207313986990237 -0.5090148809748514
-0.4045517643373238 -0.5472610699501971
-0.41537797249313096 -0.6237534479008886
-0.4262041806489381 -0.6428765423885614
-0.43703038880474526 -0.70024582585158
-0.4695090132721667 -0.7193689203392529
-0.43703038880474526 -0.6811227313639072
-0.43703038880474526 -0.6811227313639072
-0.45868280511635956 -0.70024582585158
-0.45868280511635956 -0.6428765423885614
-0.43703038880474526 -0.6619996368762343
-0.43703038880474526 -0.6619996368762343
-0.4045517643373238 -0.70024582585158
-0.4262041806489381 -0.7576151093145986
-0.4478565969605524 -0.8149843927776173
-0.4045517643373238 -0.8149843927776173
-0.39372555618151667 -0.8723536762406359
-0.43703038880474526 -0.8341074872652902
-0.4478565969605524 -0.8341074872652902
-0.4478565969605524 -0.7958612982899445
-0.41537797249313096 -0.6811227313639072
-0.41537797249313096 -0.6046303534132157
-0.3828993480257095 -0.5855072589255428
-0.39372555618151667 -0.6046303534132157
-0.37207313986990237 -0.6046303534132157
-0.35042072355828807 -0.6237534479008886
-0.35042072355828807 -0.70024582585158
-0.3071158909350595 -0.7384920148269258
-0.2638110583118309 -0.7958612982899445
-0.25298485015602373 -0.7958612982899445
-0.23133243384440944 -0.8341074872652902
-0.29628968277925233 -0.8532305817529631
-0.37207313986990237 -0.8341074872652902
-0.45868280511635956 -0.8341074872652902
-0.5128138458953952 -0.7384920148269258
-0.5128138458953952 -0.7193689203392529
-0.4262041806489381 -0.6046303534132157
-0.37207313986990237 -0.5472610699501971
-0.3179420990908666 -0.5281379754625242
-0.2854634746234452 -0.5472610699501971
-0.27463726646763803 -0.56638416443787
-0.2638110583118309 -0.6428765423885614
-0.27463726646763803 -0.6811227313639072
-0.2638110583118309 -0.6811227313639072
-0.25298485015602373 -0.6619996368762343
-0.24215864200021658 -0.6237534479008886
-0.24215864200021658 -0.5855072589255428
-0.25298485015602373 -0.5472610699501971
-0.24215864200021658 -0.5281379754625242
-0.24215864200021658 -0.48989178648717846
-0.25298485015602373 -0.45164559751183275
-0.25298485015602373 -0.4707686919995056
-0.29628968277925233 -0.48989178648717846
-0.3179420990908666 -0.6046303534132157
-0.29628968277925233 -0.6237534479008886
-0.29628968277925233 -0.6237534479008886
-0.27463726646763803 -0.5855072589255428
-0.25298485015602373 -0.45164559751183275
-0.20968001753279517 -0.3560301250734684
-0.19885380937698802 -0.27953774712277685
-0.18802760122118087 -0.22216846365975826
-0.19885380937698802 -0.29866084161044976
-0.2205062256886023 -0.43252250302415984
-0.2854634746234452 -0.5472610699501971
-0.35042072355828807 -0.6619996368762343
-0.4262041806489381 -0.7576151093145986
-0.4695090132721667 -0.8341074872652902
-0.4695090132721667 -0.7958612982899445
-0.4695090132721667 -0.7958612982899445
-0.48033522142797386 -0.7576151093145986
-0.5019876377395881 -0.7193689203392529
-0.5128138458953952 -0.6428765423885614
-0.491161429583781 -0.6811227313639072
-0.48033522142797386 -0.70024582585158
-0.4695090132721667 -0.70024582585158
-0.45868280511635956 -0.8723536762406359
-0.48033522142797386 -1.0062153376543461
-0.5236400540512024 -1.1209539045803834
-0.5344662622070095 -1.1974462825310748
-0.5777710948302381 -1.0444615266296917
-0.5128138458953952 -0.7384920148269258
-0.43703038880474526 -0.20304536917208538
-0.27463726646763803 0.25590889853206356
-0.13389656044214512 0.7531093552115582
0.006844145583347798 1.0017095835513055
0.13675864345303357 0.944340300088287
0.18006347607626216 0.6192476937978482
0.20171589238787646 -0.10742989673372103
0.08262760267399782 -1.1209539045803834
-0.025634478884073643 -2.1536010069147182
-0.13389656044214512 -2.7272938415449044
-0.16637518490956657 -2.7846631250079232
-0.025634478884073643 -2.1344779124270454
0.24502072501110506 -1.2165693770187476
0.6239380104643552 -0.05006061327070241
1.0678125448524483 1.078201961501997
1.5549919118637698 2.0343566858856406
2.0421712788750916 2.89489593783092
2.518524437730606 3.5450811504117974
3.016530012897735 3.9657892291406007
3.4928831717532494 4.271758740943366
3.8826266653623067 4.310004929918713
4.164108077413292 4.118773985041984
4.2507177426597496 3.8510506622145635
4.218239118192328 3.5259580559241246
4.066672204011028 3.1434961661706673
3.828495624583271 2.76103427641721
3.4495783391300208 2.302080008713061
2.962398972118699 1.7857564575458933
2.3994361480167274 1.2885560008663988
1.7931684912915271 0.7339862607238854
1.2518580835011697 0.35152437097042794
0.7322000920224266 0.04555485916766196
0.2991517657901408 -0.29866084161044976
-0.11224414413053083 -0.5090148809748514
-0.41537797249313096 -0.7384920148269258
-0.7076855926999239 -0.8914767707283088
-0.8809049231928383 -1.025338432142019
-0.9891670047509098 -1.0635846211173647
-1.0324718373741384 -1.025338432142019
-1.0541242536857527 -0.8914767707283088
-1.0432980455299454 -0.9105998652159817
-1.0216456292183311 -0.7767382038022715
-0.9783407965951026 -0.70024582585158
-0.9458621721276812 -0.56638416443787
-0.9025573395044526 -0.6237534479008886
-0.859252506881224 -0.48989178648717846
-0.8267738824138026 -0.39427631404881414
-0.8159476742579954 -0.413399408536487
-0.8159476742579954 -0.3751532195611412
-0.8267738824138026 -0.3177839360981226
-0.8051214661021883 -0.29866084161044976
-0.783469049790574 -0.260414652635104
-0.8159476742579954 -0.3177839360981226
-0.783469049790574 -0.3751532195611412
-0.783469049790574 -0.39427631404881414
-0.783469049790574 -0.39427631404881414
-0.8051214661021883 -0.413399408536487
-0.8051214661021883 -0.33690703058579546
-0.783469049790574 -0.3177839360981226
-0.8159476742579954 -0.27953774712277685
-0.8267738824138026 -0.20304536917208538
-0.8376000905696097 -0.22216846365975826
-0.8051214661021883 -0.18392227468441252
