-0.16678116007914093 0.25190389447060135
-0.16678116007914093 0.3005414100264023
-0.11030780234447655 0.36539143076747016
-0.09618946291081046 0.3491789255822032
-0.11030780234447655 0.3329664203969362
-0.09618946291081046 0.25190389447060135
-0.09618946291081046 0.25190389447060135
-0.09618946291081046 0.3329664203969362
-0.039716105176146085 0.3816039359527371
-0.011479426308813899 0.3978164411380041
0.002638913124852195 0.3491789255822032
-0.039716105176146085 0.31675391521166923
-0.025597765742479992 0.3005414100264023
0.002638913124852195 0.3329664203969362
0.05911227085951657 0.4140289463232711
0.10146728916051485 0.3978164411380041
0.05911227085951657 0.3491789255822032
0.05911227085951657 0.3491789255822032
0.05911227085951657 0.3491789255822032
0.07323061029318266 0.3329664203969362
0.10146728916051485 0.446453956693805
0.15794064689517923 0.47887896706433897
0.12970396802784703 0.3978164411380041
0.08734894972684876 0.3816039359527371
0.10146728916051485 0.4140289463232711
0.14382230746151314 0.47887896706433897
0.2002956651961775 0.5113039774348729
0.2144140046298436 0.52751648262014
0.2285323440635097 0.4950914722496059
0.2002956651961775 0.462666461879072
0.2285323440635097 0.462666461879072
0.270887362364508 0.52751648262014
0.31324238066550625 0.5599414929906739
0.34147905953283847 0.5761539981759408
0.3838340778338367 0.5599414929906739
0.36971573840017063 0.4950914722496059
0.36971573840017063 0.5599414929906739
0.36971573840017063 0.5599414929906739
0.41207075670116894 0.6734290292875427
0.4544257750021672 0.6572165241022757
0.4403074355685011 0.6734290292875427
0.4544257750021672 0.5761539981759408
0.4403074355685011 0.5923665033612078
0.426189096134835 0.7058540396580766
0.4967807933031655 0.7382790500286106
0.5250174721704977 0.7220665448433435
0.567372490471496 0.7058540396580766
0.5391358116041638 0.6572165241022757
0.5532541510378298 0.6572165241022757
0.581490829905162 0.7544915552138776
0.6097275087724943 0.8355540811402123
0.6379641876398264 0.8517665863254794
0.6944375453744908 0.7707040603991445
0.6238458482061603 0.7869165655844115
0.6520825270734925 0.7707040603991445
0.6803192059408247 0.8355540811402123
0.7226742242418229 0.9166166070665472
0.7509109031091552 0.9328291122518142
0.7509109031091552 0.8517665863254794
0.7367925636754891 0.8193415759549454
0.7367925636754891 0.8031290707696784
0.7509109031091552 0.9004041018812803
0.7367925636754891 0.9490416174370813
0.7932659214101534 0.9976791329928821
0.7650292425428212 0.9166166070665472
0.7650292425428212 0.9004041018812803
0.7367925636754891 0.9004041018812803
0.7367925636754891 0.9328291122518142
0.7650292425428212 1.0301041433634162
0.8073842608438195 1.0301041433634162
0.8073842608438195 0.9328291122518142
0.7650292425428212 0.8841915966960133
0.7650292425428212 0.8841915966960133
0.7367925636754891 0.9166166070665472
0.7367925636754891 0.9976791329928821
0.7650292425428212 1.013891638178149
0.7509109031091552 0.9166166070665472
0.7367925636754891 0.8517665863254794
0.6944375453744908 0.8679790915107464
0.7226742242418229 0.9166166070665472
0.7226742242418229 0.9652541226223482
0.7367925636754891 0.9652541226223482
0.7367925636754891 0.9328291122518142
0.6662008665071586 0.8355540811402123
0.6662008665071586 0.8679790915107464
0.6379641876398264 0.9166166070665472
0.6520825270734925 0.9490416174370813
0.6944375453744908 0.9814666278076152
0.6520825270734925 0.8679790915107464
0.6238458482061603 0.8355540811402123
0.6097275087724943 0.8193415759549454
0.6097275087724943 0.8193415759549454
0.6097275087724943 0.8679790915107464
0.6379641876398264 0.9004041018812803
0.5956091693388281 0.8031290707696784
0.5391358116041638 0.7220665448433435
0.5391358116041638 0.6896415344728096
0.5532541510378298 0.7869165655844115
0.5391358116041638 0.8193415759549454
0.5391358116041638 0.8031290707696784
0.5250174721704977 0.7382790500286106
0.46854411443583327 0.6734290292875427
0.4403074355685011 0.6572165241022757
0.426189096134835 0.6896415344728096
0.426189096134835 0.7382790500286106
0.4403074355685011 0.7220665448433435
0.41207075670116894 0.6734290292875427
0.35559739896650455 0.5599414929906739
0.34147905953283847 0.5437289878054069
0.35559739896650455 0.5923665033612078
0.3838340778338367 0.6734290292875427
0.36971573840017063 0.6410040189170088
0.35559739896650455 0.5923665033612078
0.31324238066550625 0.5113039774348729
0.31324238066550625 0.5113039774348729
0.29912404123184017 0.5599414929906739
0.29912404123184017 0.5923665033612078
0.34147905953283847 0.5599414929906739
0.270887362364508 0.4950914722496059
0.25676902293084186 0.43024145150853804
0.25676902293084186 0.4140289463232711
0.2285323440635097 0.47887896706433897
0.24265068349717578 0.5113039774348729
0.24265068349717578 0.4950914722496059
0.24265068349717578 0.43024145150853804
0.18617732576251142 0.3491789255822032
0.1720589863288453 0.36539143076747016
0.14382230746151314 0.446453956693805
0.15794064689517923 0.47887896706433897
0.18617732576251142 0.43024145150853804
0.15794064689517923 0.36539143076747016
0.10146728916051485 0.31675391521166923
0.08734894972684876 0.3329664203969362
0.08734894972684876 0.3491789255822032
0.07323061029318266 0.3816039359527371
0.08734894972684876 0.3816039359527371
0.05911227085951657 0.2681163996558683
0.044993931425850474 0.25190389447060135
-0.011479426308813899 0.21947888410006738
0.016757252558518287 0.2681163996558683
0.044993931425850474 0.3005414100264023
0.044993931425850474 0.28432890484113527
0.030875591992184384 0.2681163996558683
-0.025597765742479992 0.18705387372953344
-0.06795278404347828 0.17084136854426646
-0.06795278404347828 0.18705387372953344
-0.05383444460981218 0.23569138928533437
-0.06795278404347828 0.21947888410006738
-0.11030780234447655 0.18705387372953344
-0.12442614177814265 0.13841635817373252
-0.18089949951280704 0.10599134780319856
-0.19501783894647312 0.13841635817373252
-0.18089949951280704 0.18705387372953344
-0.18089949951280704 0.2032663789148004
-0.19501783894647312 0.08977884261793159
-0.2091361783801392 0.057353832247397644
-0.2514911966811375 0.024928821876863697
-0.2514911966811375 0.12220385298846555
-0.22325451781380531 0.2032663789148004
-0.22325451781380531 0.2032663789148004
-0.22325451781380531 0.10599134780319856
-0.2797278755484697 0.024928821876863697
-0.33620123328313406 0.024928821876863697
-0.322082893849468 0.07356633743266462
-0.2656095361148036 0.1546288633589995
-0.2656095361148036 0.13841635817373252
-0.2797278755484697 0.10599134780319856
-0.322082893849468 0.057353832247397644
-0.3644379121504662 -0.007496188493670251
-0.322082893849468 0.041141327062130674
-0.322082893849468 0.12220385298846555
-0.322082893849468 0.13841635817373252
-0.322082893849468 0.08977884261793159
-0.35031957271680014 -0.007496188493670251
-0.37855625158413236 0.024928821876863697
-0.40679293045146453 0.024928821876863697
-0.35031957271680014 0.07356633743266462
-0.35031957271680014 0.12220385298846555
-0.3644379121504662 0.08977884261793159
-0.37855625158413236 0.041141327062130674
-0.4209112698851306 -0.007496188493670251
-0.40679293045146453 0.041141327062130674
-0.3644379121504662 0.12220385298846555
-0.3644379121504662 0.12220385298846555
-0.37855625158413236 0.057353832247397644
-0.4209112698851306 0.024928821876863697
-0.4209112698851306 -0.007496188493670251
-0.4350296093187967 0.041141327062130674
-0.40679293045146453 0.12220385298846555
-0.39267459101779845 0.12220385298846555
-0.40679293045146453 0.10599134780319856
-0.44914794875246283 0.008716316691596723
-0.44914794875246283 0.008716316691596723
-0.4350296093187967 0.057353832247397644
-0.40679293045146453 0.13841635817373252
-0.39267459101779845 0.1546288633589995
-0.40679293045146453 0.12220385298846555
-0.44914794875246283 0.041141327062130674
-0.4915029670534611 0.024928821876863697
-0.4915029670534611 0.07356633743266462
-0.4632662881861289 0.17084136854426646
-0.4632662881861289 0.18705387372953344
-0.40679293045146453 0.1546288633589995
-0.44914794875246283 0.10599134780319856
-0.4209112698851306 0.08977884261793159
-0.39267459101779845 0.17084136854426646
-0.3079645544158019 0.21947888410006738
-0.29384621498213576 0.2681163996558683
-0.2797278755484697 0.25190389447060135
-0.322082893849468 0.17084136854426646
-0.37855625158413236 0.18705387372953344
-0.39267459101779845 0.17084136854426646
-0.33620123328313406 0.25190389447060135
-0.3079645544158019 0.25190389447060135
-0.322082893849468 0.2032663789148004
-0.35031957271680014 0.12220385298846555
-0.3644379121504662 0.10599134780319856
-0.3644379121504662 0.12220385298846555
-0.39267459101779845 0.18705387372953344
-0.3644379121504662 0.17084136854426646
-0.3644379121504662 0.12220385298846555
-0.4350296093187967 0.08977884261793159
-0.4350296093187967 0.041141327062130674
-0.4350296093187967 0.024928821876863697
-0.4350296093187967 0.08977884261793159
-0.39267459101779845 0.07356633743266462
-0.44914794875246283 0.041141327062130674
-0.4350296093187967 -0.023708693678937225
-0.4915029670534611 -0.07234620923473815
-0.44914794875246283 -0.07234620923473815
-0.44914794875246283 -0.007496188493670251
-0.4209112698851306 -0.007496188493670251
-0.4350296093187967 -0.0399211988642042
-0.44914794875246283 -0.0399211988642042
-0.4915029670534611 -0.07234620923473815
-0.4632662881861289 -0.023708693678937225
-0.4350296093187967 0.041141327062130674
-0.4209112698851306 0.057353832247397644
-0.44914794875246283 0.057353832247397644
-0.4915029670534611 0.024928821876863697
-0.5197396459207932 0.008716316691596723
-0.5197396459207932 0.008716316691596723
-0.44914794875246283 0.057353832247397644
-0.4209112698851306 0.07356633743266462
-0.4209112698851306 0.057353832247397644
-0.4632662881861289 0.024928821876863697
-0.4915029670534611 -0.023708693678937225
-0.4632662881861289 0.024928821876863697
-0.4632662881861289 0.08977884261793159
-0.44914794875246283 0.08977884261793159
-0.44914794875246283 0.057353832247397644
-0.5338579853544594 0.041141327062130674
-0.5620946642217916 0.008716316691596723
-0.5338579853544594 0.024928821876863697
-0.477384627619795 0.07356633743266462
-0.44914794875246283 0.10599134780319856
-0.4632662881861289 0.057353832247397644
-0.5056213064871272 0.024928821876863697
-0.5197396459207932 -0.023708693678937225
-0.5338579853544594 -0.023708693678937225
-0.477384627619795 0.07356633743266462
-0.477384627619795 0.057353832247397644
-0.477384627619795 0.057353832247397644
-0.5197396459207932 0.041141327062130674
-0.4915029670534611 0.008716316691596723
-0.5056213064871272 0.024928821876863697
-0.4915029670534611 0.10599134780319856
-0.4915029670534611 0.10599134780319856
-0.477384627619795 0.07356633743266462
-0.5338579853544594 0.024928821876863697
-0.5479763247881254 0.008716316691596723
-0.5197396459207932 0.041141327062130674
-0.4632662881861289 0.07356633743266462
-0.477384627619795 0.08977884261793159
-0.5056213064871272 0.041141327062130674
-0.5197396459207932 0.041141327062130674
-0.5338579853544594 0.008716316691596723
-0.5197396459207932 0.024928821876863697
-0.4915029670534611 0.07356633743266462
-0.4915029670534611 0.057353832247397644
-0.4915029670534611 0.07356633743266462
-0.5197396459207932 0.041141327062130674
-0.5479763247881254 0.024928821876863697
-0.5056213064871272 0.07356633743266462
-0.477384627619795 0.07356633743266462
-0.4915029670534611 0.10599134780319856
-0.5197396459207932 0.08977884261793159
-0.5197396459207932 0.057353832247397644
-0.5479763247881254 0.057353832247397644
-0.477384627619795 0.057353832247397644
-0.4915029670534611 0.10599134780319856
-0.4350296093187967 0.10599134780319856
-0.4632662881861289 0.08977884261793159
-0.44914794875246283 0.08977884261793159
-0.4209112698851306 0.10599134780319856
-0.4350296093187967 0.08977884261793159
-0.39267459101779845 0.08977884261793159
-0.37855625158413236 0.10599134780319856
-0.40679293045146453 0.057353832247397644
-0.4915029670534611 0.041141327062130674
-0.5620946642217916 -0.007496188493670251
-0.6044496825227899 -0.023708693678937225
-0.6185680219564559 -0.023708693678937225
-0.6468047008237882 -0.07234620923473815
-0.7456330768594508 -0.16962124034634
-0.8868164711961117 -0.2668962714579418
-0.9432898289307761 -0.3479587973842767
-0.9715265077981082 -0.4776588388664125
-1.0279998655327727 -0.4938713440516795
-1.2115382781704318 -0.6073588803485483
-1.4091950302417573 -0.785696437386485
-1.536260085144752 -0.9964590047949556
-1.663325140047747 -1.2072215722034263
-1.8609818921190722 -1.369346624056096
-2.1151120019250618 -1.499046665538232
-2.5245438455013787 -1.5801091914645666
-2.933975689077695 -1.6449592122056347
-3.470472587557007 -1.6287467070203676
-3.766957715663995 -1.5476841810940327
-3.7810760550976608 -1.5152591707234988
-3.625774321327334 -1.3855591292413632
-3.484590926990673 -1.2396465825739602
-3.3716442115213443 -1.0288840151654897
-3.2445791566183493 -0.834333952942286
-3.06104074398069 -0.5911463751632813
-2.8492656524756987 -0.3479587973842767
-2.595135542669709 -0.13719622997580605
-2.3410054328637195 0.08977884261793159
-2.143348680792394 0.25190389447060135
-2.0445203047567313 0.462666461879072
-1.8892185709864044 0.6734290292875427
-1.7480351766497435 0.8355540811402123
-1.5786151034457503 0.9490416174370813
-1.4374317091090894 1.013891638178149
-1.3527216725070927 0.9976791329928821
-1.225656617604098 0.9652541226223482
-1.0985915627011031 0.9490416174370813
-0.8726981317624456 0.9328291122518142
-0.632686361390122 0.8355540811402123
-0.4915029670534611 0.7220665448433435
-0.39267459101779845 0.5923665033612078
-0.3644379121504662 0.52751648262014
-0.33620123328313406 0.47887896706433897
-0.322082893849468 0.47887896706433897
-0.2514911966811375 0.47887896706433897
-0.2514911966811375 0.446453956693805
-0.2373728572474714 0.3978164411380041
-0.2797278755484697 0.3978164411380041
-0.2797278755484697 0.3491789255822032
-0.2656095361148036 0.43024145150853804
-0.2373728572474714 0.4140289463232711
-0.2091361783801392 0.3816039359527371
-0.2091361783801392 0.3816039359527371
-0.2514911966811375 0.31675391521166923
-0.2514911966811375 0.3491789255822032
-0.22325451781380531 0.3816039359527371
-0.18089949951280704 0.4140289463232711
-0.18089949951280704 0.3978164411380041
-0.18089949951280704 0.31675391521166923
-0.19501783894647312 0.3005414100264023
-0.2373728572474714 0.31675391521166923
-0.2091361783801392 0.4140289463232711
-0.16678116007914093 0.4140289463232711
-0.18089949951280704 0.3816039359527371
-0.16678116007914093 0.3491789255822032
-0.22325451781380531 0.31675391521166923
-0.2091361783801392 0.36539143076747016
-0.15266282064547484 0.4140289463232711
-0.13854448121180873 0.3978164411380041
-0.13854448121180873 0.3816039359527371
-0.12442614177814265 0.3329664203969362
-0.18089949951280704 0.3005414100264023
-0.2091361783801392 0.3491789255822032
-0.16678116007914093 0.4140289463232711
-0.16678116007914093 0.462666461879072
-0.08207112347714436 0.3978164411380041
-0.08207112347714436 0.3816039359527371
-0.05383444460981218 0.3491789255822032
-0.05383444460981218 0.36539143076747016
-0.05383444460981218 0.43024145150853804
0.002638913124852195 0.4950914722496059
0.030875591992184384 0.462666461879072
0.05911227085951657 0.3978164411380041
-0.025597765742479992 0.3329664203969362
0.002638913124852195 0.43024145150853804
0.030875591992184384 0.462666461879072
0.08734894972684876 0.4950914722496059
0.10146728916051485 0.4950914722496059
0.11558562859418095 0.47887896706433897
0.10146728916051485 0.4140289463232711
0.08734894972684876 0.43024145150853804
0.11558562859418095 0.52751648262014
0.1720589863288453 0.5599414929906739
0.1720589863288453 0.5599414929906739
0.1720589863288453 0.4950914722496059
0.1720589863288453 0.47887896706433897
0.1720589863288453 0.4950914722496059
0.2002956651961775 0.5761539981759408
0.25676902293084186 0.6410040189170088
0.29912404123184017 0.6410040189170088
0.2850057017981741 0.5923665033612078
0.270887362364508 0.5437289878054069
0.32736072009917233 0.5437289878054069
0.34147905953283847 0.6734290292875427
0.36971573840017063 0.7058540396580766
0.41207075670116894 0.7058540396580766
0.3979524172675028 0.6734290292875427
0.36971573840017063 0.6247915137317417
0.35559739896650455 0.6572165241022757
0.426189096134835 0.7382790500286106
0.46854411443583327 0.7707040603991445
0.4544257750021672 0.7869165655844115
0.426189096134835 0.7707040603991445
0.41207075670116894 0.7382790500286106
0.46854411443583327 0.7058540396580766
0.46854411443583327 0.7707040603991445
0.5108991327368315 0.8355540811402123
0.5250174721704977 0.8517665863254794
0.5250174721704977 0.8841915966960133
0.4967807933031655 0.7869165655844115
0.4967807933031655 0.8031290707696784
0.5250174721704977 0.8517665863254794
0.5956091693388281 0.9004041018812803
0.6379641876398264 0.9328291122518142
0.6238458482061603 0.8841915966960133
0.6238458482061603 0.9004041018812803
0.6238458482061603 0.8679790915107464
0.6520825270734925 0.9004041018812803
0.6662008665071586 0.9490416174370813
0.6662008665071586 0.9814666278076152
0.6662008665071586 0.9652541226223482
0.6520825270734925 0.9004041018812803
0.6238458482061603 0.9166166070665472
0.6379641876398264 0.9166166070665472
0.6662008665071586 0.9976791329928821
0.6803192059408247 0.9814666278076152
0.6520825270734925 0.9814666278076152
0.6520825270734925 0.9328291122518142
0.6379641876398264 0.9490416174370813
0.6379641876398264 0.9328291122518142
0.6944375453744908 0.9490416174370813
0.7085558848081569 0.9652541226223482
0.6662008665071586 0.9814666278076152
0.6238458482061603 0.9004041018812803
0.6238458482061603 0.9004041018812803
0.6379641876398264 0.9166166070665472
0.6520825270734925 0.9328291122518142
0.6803192059408247 0.9004041018812803
0.6662008665071586 0.9166166070665472
0.5956091693388281 0.8679790915107464
0.581490829905162 0.8517665863254794
0.581490829905162 0.8517665863254794
0.6097275087724943 0.8841915966960133
0.5532541510378298 0.8679790915107464
0.5532541510378298 0.8517665863254794
0.4826624538694994 0.8193415759549454
0.46854411443583327 0.8193415759549454
0.5108991327368315 0.8031290707696784
0.5250174721704977 0.8193415759549454
0.4826624538694994 0.8031290707696784
0.4826624538694994 0.8193415759549454
0.46854411443583327 0.7707040603991445
0.4403074355685011 0.7869165655844115
0.4403074355685011 0.8193415759549454
0.46854411443583327 0.7869165655844115
0.46854411443583327 0.7382790500286106
0.41207075670116894 0.7058540396580766
0.3979524172675028 0.7220665448433435
0.3838340778338367 0.7382790500286106
0.41207075670116894 0.7058540396580766
0.41207075670116894 0.7058540396580766
0.3979524172675028 0.7220665448433435
0.3838340778338367 0.6896415344728096
0.29912404123184017 0.6734290292875427
0.2850057017981741 0.7058540396580766
0.29912404123184017 0.6896415344728096
0.34147905953283847 0.6734290292875427
0.34147905953283847 0.6734290292875427
0.29912404123184017 0.6247915137317417
0.270887362364508 0.6247915137317417
0.2002956651961775 0.5923665033612078
0.18617732576251142 0.6085790085464747
0.2285323440635097 0.5761539981759408
0.24265068349717578 0.5761539981759408
0.2285323440635097 0.5437289878054069
0.1720589863288453 0.52751648262014
0.14382230746151314 0.5761539981759408
0.1720589863288453 0.6085790085464747
0.1720589863288453 0.5599414929906739
0.2144140046298436 0.5437289878054069
0.1720589863288453 0.4950914722496059
0.14382230746151314 0.47887896706433897
0.08734894972684876 0.47887896706433897
0.10146728916051485 0.47887896706433897
0.10146728916051485 0.4950914722496059
0.10146728916051485 0.47887896706433897
0.08734894972684876 0.43024145150853804
0.030875591992184384 0.36539143076747016
-0.011479426308813899 0.3978164411380041
-0.011479426308813899 0.4140289463232711
0.030875591992184384 0.3978164411380041
0.030875591992184384 0.3816039359527371
0.016757252558518287 0.3491789255822032
-0.05383444460981218 0.3491789255822032
-0.08207112347714436 0.36539143076747016
-0.08207112347714436 0.36539143076747016
-0.05383444460981218 0.36539143076747016
-0.08207112347714436 0.3005414100264023
-0.12442614177814265 0.28432890484113527
-0.16678116007914093 0.23569138928533437
-0.16678116007914093 0.25190389447060135
-0.16678116007914093 0.25190389447060135
-0.2091361783801392 0.2681163996558683
-0.19501783894647312 0.2032663789148004
-0.2091361783801392 0.2032663789148004
-0.2656095361148036 0.18705387372953344
-0.29384621498213576 0.1546288633589995
-0.2656095361148036 0.21947888410006738
-0.2797278755484697 0.2032663789148004
-0.2797278755484697 0.17084136854426646
-0.33620123328313406 0.12220385298846555
-0.3644379121504662 0.12220385298846555
-0.39267459101779845 0.12220385298846555
-0.40679293045146453 0.1546288633589995
-0.37855625158413236 0.21947888410006738
-0.39267459101779845 0.12220385298846555
-0.40679293045146453 0.08977884261793159
-0.4632662881861289 0.041141327062130674
-0.477384627619795 0.07356633743266462
-0.4209112698851306 0.1546288633589995
-0.4209112698851306 0.12220385298846555
-0.4209112698851306 0.13841635817373252
-0.4350296093187967 0.041141327062130674
-0.4632662881861289 0.008716316691596723
-0.4632662881861289 0.024928821876863697
-0.44914794875246283 0.08977884261793159
-0.4350296093187967 0.10599134780319856
-0.4632662881861289 0.08977884261793159
-0.477384627619795 0.024928821876863697
-0.5197396459207932 -0.007496188493670251
-0.5338579853544594 0.008716316691596723
-0.5338579853544594 0.07356633743266462
-0.5197396459207932 0.10599134780319856
-0.4915029670534611 0.057353832247397644
-0.5056213064871272 -0.007496188493670251
-0.6044496825227899 -0.0399211988642042
-0.632686361390122 0.008716316691596723
-0.5620946642217916 0.057353832247397644
-0.5197396459207932 0.08977884261793159
-0.5197396459207932 0.07356633743266462
-0.5479763247881254 0.008716316691596723
-0.5620946642217916 -0.007496188493670251
-0.5903313430891237 0.024928821876863697
-0.5479763247881254 0.057353832247397644
-0.5338579853544594 0.12220385298846555
-0.5197396459207932 0.07356633743266462
-0.5338579853544594 0.024928821876863697
-0.5903313430891237 -0.023708693678937225
-0.6185680219564559 0.008716316691596723
-0.6044496825227899 0.07356633743266462
-0.5762130036554577 0.13841635817373252
-0.5338579853544594 0.057353832247397644
-0.6044496825227899 0.024928821876863697
-0.6044496825227899 -0.023708693678937225
-0.632686361390122 -0.023708693678937225
-0.6044496825227899 0.041141327062130674
-0.5762130036554577 0.08977884261793159
-0.6044496825227899 0.057353832247397644
-0.6185680219564559 0.057353832247397644
-0.6609230402574542 -0.023708693678937225
-0.6891597191247864 -0.007496188493670251
-0.6609230402574542 0.041141327062130674
-0.5762130036554577 0.10599134780319856
-0.5762130036554577 0.08977884261793159
-0.5620946642217916 0.10599134780319856
-0.5620946642217916 0.07356633743266462
-0.5338579853544594 0.07356633743266462
-0.4915029670534611 0.12220385298846555
-0.4350296093187967 0.2032663789148004
-0.4632662881861289 0.21947888410006738
-0.477384627619795 0.17084136854426646
-0.5056213064871272 0.1546288633589995
-0.5479763247881254 0.10599134780319856
-0.5197396459207932 0.12220385298846555
-0.4632662881861289 0.1546288633589995
-0.4632662881861289 0.1546288633589995
-0.4915029670534611 0.12220385298846555
-0.5479763247881254 0.07356633743266462
-0.5762130036554577 0.024928821876863697
-0.5620946642217916 0.024928821876863697
-0.5338579853544594 0.07356633743266462
-0.5479763247881254 0.08977884261793159
-0.5762130036554577 0.057353832247397644
-0.632686361390122 -0.0399211988642042
-0.632686361390122 -0.08855871442000512
-0.6044496825227899 -0.05613370404947118
-0.5903313430891237 -0.0399211988642042
-0.5762130036554577 -0.023708693678937225
-0.6468047008237882 -0.023708693678937225
-0.6750413796911203 -0.07234620923473815
-0.7032780585584525 -0.12098372479053907
-0.6609230402574542 -0.05613370404947118
-0.6750413796911203 -0.0399211988642042
-0.632686361390122 -0.023708693678937225
-0.632686361390122 -0.023708693678937225
-0.6185680219564559 -0.0399211988642042
-0.6468047008237882 -0.05613370404947118
-0.6044496825227899 -0.007496188493670251
-0.5903313430891237 0.008716316691596723
-0.6185680219564559 -0.0399211988642042
-0.6609230402574542 -0.0399211988642042
-0.7173963979921186 -0.0399211988642042
-0.7032780585584525 -0.05613370404947118
-0.6750413796911203 -0.007496188493670251
-0.6609230402574542 0.008716316691596723
-0.6468047008237882 -0.023708693678937225
-0.6468047008237882 -0.023708693678937225
-0.7173963979921186 -0.0399211988642042
-0.7173963979921186 -0.0399211988642042
-0.7032780585584525 -0.023708693678937225
-0.6044496825227899 0.008716316691596723
-0.6609230402574542 0.024928821876863697
-0.632686361390122 -0.007496188493670251
-0.6891597191247864 -0.0399211988642042
-0.6891597191247864 -0.0399211988642042
-0.6750413796911203 0.024928821876863697
-0.6185680219564559 -0.023708693678937225
-0.6185680219564559 -0.0399211988642042
-0.632686361390122 -0.023708693678937225
-0.6750413796911203 -0.0399211988642042
-0.7173963979921186 -0.007496188493670251
-0.7315147374257847 0.008716316691596723
-0.6891597191247864 0.024928821876863697
-0.7032780585584525 -0.07234620923473815
-0.6891597191247864 -0.0399211988642042
-0.6750413796911203 -0.05613370404947118
-0.7032780585584525 -0.023708693678937225
-0.6891597191247864 0.041141327062130674
-0.632686361390122 0.008716316691596723
-0.6891597191247864 -0.0399211988642042
-0.6750413796911203 -0.07234620923473815
-0.6750413796911203 -0.05613370404947118
-0.7032780585584525 -0.05613370404947118
-0.6468047008237882 0.024928821876863697
-0.6185680219564559 0.008716316691596723
-0.5903313430891237 0.008716316691596723
-0.6044496825227899 -0.05613370404947118
-0.6468047008237882 -0.1047712196052721
-0.6891597191247864 -0.05613370404947118
-0.6891597191247864 0.024928821876863697
-0.6468047008237882 0.07356633743266462
-0.6468047008237882 0.041141327062130674
-0.632686361390122 -0.07234620923473815
-0.6750413796911203 -0.07234620923473815
-0.7173963979921186 -0.07234620923473815
-0.6891597191247864 -0.007496188493670251
-0.632686361390122 0.041141327062130674
-0.6044496825227899 0.008716316691596723
-0.632686361390122 -0.023708693678937225
-0.6468047008237882 -0.08855871442000512
-0.6891597191247864 -0.023708693678937225
-0.6750413796911203 0.024928821876863697
-0.632686361390122 0.057353832247397644
-0.632686361390122 0.041141327062130674
-0.5903313430891237 -0.023708693678937225
-0.6044496825227899 -0.08855871442000512
-0.5762130036554577 -0.05613370404947118
-0.5338579853544594 0.008716316691596723
-0.5056213064871272 0.08977884261793159
-0.4915029670534611 0.057353832247397644
-0.5479763247881254 -0.0399211988642042
-0.6044496825227899 -0.05613370404947118
-0.6891597191247864 -0.1047712196052721
-0.7597514162931168 -0.08855871442000512
-0.7597514162931168 -0.08855871442000512
-0.8021064345941151 -0.16962124034634
-0.92917148949711 -0.2993212818284758
-1.056236544400105 -0.4290213233106116
-1.1127099021347693 -0.4938713440516795
-1.1550649204357675 -0.5911463751632813
-1.2680116359050964 -0.6073588803485483
-1.3950766908080912 -0.7370589218306841
-1.5786151034457503 -0.9802464996096887
-1.677443479481413 -1.1910090670181595
-1.7480351766497435 -1.434196644797164
-1.8751002315527383 -1.5476841810940327
-2.143348680792394 -1.5801091914645666
-2.566898863802377 -1.6125342018351008
-3.1457507805826865 -1.6935967277614357
-3.639892660761 -1.6773842225761686
-3.809312733964993 -1.5963216966498337
-3.7104843579293303 -1.450409149982431
-3.5410642847253375 -1.2720715929444941
-3.4281175692560084 -1.1423715514623585
-3.343407532654012 -1.0126715099802226
-3.173987459450019 -0.834333952942286
-3.0045673862460256 -0.6235713855338153
-2.792792294741034 -0.3479587973842767
-2.5245438455013787 -0.12098372479053907
-2.3410054328637195 0.057353832247397644
-2.1715853596597263 0.25190389447060135
-2.016283625889399 0.462666461879072
-1.846863552685406 0.6247915137317417
-1.7480351766497435 0.8193415759549454
-1.5786151034457503 1.0301041433634162
-1.5080234062774198 1.094954164104484
-1.4233133696754232 1.06252915373395
-1.2962483147724284 0.9652541226223482
-1.084473223267437 0.9166166070665472
-0.8726981317624456 0.8679790915107464
-0.6891597191247864 0.8031290707696784
-0.5056213064871272 0.6734290292875427
-0.477384627619795 0.52751648262014
-0.4350296093187967 0.3978164411380041
-0.39267459101779845 0.3816039359527371
-0.3644379121504662 0.3816039359527371
-0.33620123328313406 0.43024145150853804
-0.35031957271680014 0.4140289463232711
-0.37855625158413236 0.31675391521166923
-0.39267459101779845 0.28432890484113527
-0.37855625158413236 0.23569138928533437
-0.3644379121504662 0.31675391521166923
-0.29384621498213576 0.36539143076747016
-0.2656095361148036 0.36539143076747016
-0.322082893849468 0.31675391521166923
-0.33620123328313406 0.25190389447060135
-0.3644379121504662 0.3005414100264023
-0.33620123328313406 0.36539143076747016
-0.322082893849468 0.3491789255822032
-0.322082893849468 0.3491789255822032
-0.2797278755484697 0.28432890484113527
-0.322082893849468 0.23569138928533437
-0.29384621498213576 0.25190389447060135
-0.29384621498213576 0.3491789255822032
-0.2091361783801392 0.3978164411380041
-0.16678116007914093 0.3329664203969362
-0.22325451781380531 0.28432890484113527
-0.2797278755484697 0.25190389447060135
-0.29384621498213576 0.3005414100264023
-0.22325451781380531 0.3329664203969362
-0.2091361783801392 0.43024145150853804
-0.13854448121180873 0.36539143076747016
-0.18089949951280704 0.3005414100264023
-0.19501783894647312 0.23569138928533437
-0.2091361783801392 0.3491789255822032
-0.19501783894647312 0.36539143076747016
-0.11030780234447655 0.4140289463232711
-0.11030780234447655 0.36539143076747016
-0.11030780234447655 0.3329664203969362
-0.12442614177814265 0.2681163996558683
-0.13854448121180873 0.36539143076747016
-0.08207112347714436 0.4140289463232711
-0.039716105176146085 0.43024145150853804
-0.011479426308813899 0.43024145150853804
-0.011479426308813899 0.3816039359527371
-0.011479426308813899 0.3005414100264023
0.002638913124852195 0.3491789255822032
0.016757252558518287 0.43024145150853804
0.05911227085951657 0.4950914722496059
0.10146728916051485 0.43024145150853804
0.10146728916051485 0.4140289463232711
0.07323061029318266 0.3816039359527371
0.05911227085951657 0.462666461879072
0.11558562859418095 0.4950914722496059
0.1720589863288453 0.52751648262014
0.2002956651961775 0.5437289878054069
0.2144140046298436 0.462666461879072
0.2002956651961775 0.462666461879072
0.18617732576251142 0.4950914722496059
0.2285323440635097 0.5761539981759408
0.2285323440635097 0.6085790085464747
0.29912404123184017 0.6085790085464747
0.2850057017981741 0.4950914722496059
0.2850057017981741 0.52751648262014
0.2850057017981741 0.5923665033612078
0.36971573840017063 0.6247915137317417
0.4403074355685011 0.6896415344728096
0.4544257750021672 0.6734290292875427
0.46854411443583327 0.6247915137317417
0.426189096134835 0.6410040189170088
0.36971573840017063 0.7058540396580766
0.3979524172675028 0.7382790500286106
0.46854411443583327 0.7869165655844115
0.5250174721704977 0.7544915552138776
0.5108991327368315 0.7382790500286106
0.4967807933031655 0.7220665448433435
0.4826624538694994 0.7869165655844115
0.5250174721704977 0.8355540811402123
0.5532541510378298 0.8517665863254794
0.567372490471496 0.8193415759549454
0.581490829905162 0.8031290707696784
0.5532541510378298 0.8031290707696784
0.5532541510378298 0.8355540811402123
0.6238458482061603 0.9004041018812803
0.6520825270734925 0.9328291122518142
0.7085558848081569 0.8841915966960133
0.6944375453744908 0.8679790915107464
0.6379641876398264 0.8193415759549454
0.6662008665071586 0.8841915966960133
0.6803192059408247 0.9328291122518142
0.6803192059408247 0.9652541226223482
0.6803192059408247 0.9004041018812803
0.6662008665071586 0.9004041018812803
0.6379641876398264 0.8355540811402123
0.6097275087724943 0.9166166070665472
0.6379641876398264 0.9814666278076152
0.6944375453744908 0.9490416174370813
0.6803192059408247 0.9166166070665472
0.6238458482061603 0.8679790915107464
0.5956091693388281 0.8679790915107464
0.567372490471496 0.9004041018812803
0.6238458482061603 0.9166166070665472
0.6379641876398264 0.9328291122518142
0.6379641876398264 0.9004041018812803
0.5956091693388281 0.8355540811402123
0.581490829905162 0.8193415759549454
0.5956091693388281 0.8517665863254794
0.5391358116041638 0.9004041018812803
0.5250174721704977 0.9004041018812803
0.5391358116041638 0.8679790915107464
0.4967807933031655 0.7869165655844115
0.46854411443583327 0.7869165655844115
0.46854411443583327 0.7869165655844115
0.46854411443583327 0.8031290707696784
0.4967807933031655 0.8355540811402123
0.4826624538694994 0.7707040603991445
0.4403074355685011 0.7544915552138776
0.3838340778338367 0.7058540396580766
0.35559739896650455 0.7544915552138776
0.34147905953283847 0.7869165655844115
0.35559739896650455 0.7707040603991445
0.3838340778338367 0.7058540396580766
0.36971573840017063 0.6572165241022757
0.32736072009917233 0.6572165241022757
0.29912404123184017 0.6572165241022757
0.32736072009917233 0.6572165241022757
0.29912404123184017 0.6247915137317417
0.35559739896650455 0.6085790085464747
0.2850057017981741 0.6247915137317417
0.29912404123184017 0.5599414929906739
0.2285323440635097 0.5923665033612078
0.25676902293084186 0.5761539981759408
0.270887362364508 0.5599414929906739
0.2144140046298436 0.5599414929906739
0.2144140046298436 0.4950914722496059
0.12970396802784703 0.52751648262014
0.14382230746151314 0.5599414929906739
0.1720589863288453 0.52751648262014
0.2002956651961775 0.4950914722496059
0.1720589863288453 0.462666461879072
0.18617732576251142 0.3978164411380041
0.10146728916051485 0.3978164411380041
0.07323061029318266 0.4140289463232711
0.11558562859418095 0.4140289463232711
0.07323061029318266 0.43024145150853804
0.08734894972684876 0.3978164411380041
0.044993931425850474 0.31675391521166923
0.016757252558518287 0.3329664203969362
0.016757252558518287 0.31675391521166923
0.030875591992184384 0.36539143076747016
0.07323061029318266 0.31675391521166923
0.05911227085951657 0.3005414100264023
0.030875591992184384 0.25190389447060135
-0.025597765742479992 0.25190389447060135
-0.05383444460981218 0.25190389447060135
-0.039716105176146085 0.23569138928533437
-0.06795278404347828 0.2681163996558683
-0.08207112347714436 0.2032663789148004
-0.13854448121180873 0.1546288633589995
-0.12442614177814265 0.1546288633589995
-0.18089949951280704 0.1546288633589995
-0.2091361783801392 0.17084136854426646
-0.19501783894647312 0.1546288633589995
-0.2091361783801392 0.13841635817373252
-0.2091361783801392 0.13841635817373252
-0.2656095361148036 0.10599134780319856
-0.2514911966811375 0.08977884261793159
-0.2797278755484697 0.12220385298846555
-0.2514911966811375 0.08977884261793159
-0.2797278755484697 0.10599134780319856
-0.2797278755484697 0.041141327062130674
-0.35031957271680014 0.057353832247397644
-0.35031957271680014 0.10599134780319856
-0.3644379121504662 0.07356633743266462
-0.322082893849468 0.07356633743266462
-0.322082893849468 0.024928821876863697
-0.39267459101779845 -0.023708693678937225
-0.4209112698851306 -0.023708693678937225
-0.4915029670534611 -0.007496188493670251
-0.4632662881861289 0.024928821876863697
-0.40679293045146453 0.008716316691596723
-0.40679293045146453 -0.007496188493670251
-0.5056213064871272 -0.0399211988642042
-0.5338579853544594 -0.0399211988642042
-0.5197396459207932 -0.023708693678937225
-0.4632662881861289 -0.007496188493670251
-0.44914794875246283 -0.023708693678937225
-0.4915029670534611 -0.023708693678937225
-0.5056213064871272 -0.023708693678937225
-0.5197396459207932 -0.05613370404947118
-0.5479763247881254 -0.0399211988642042
-0.5197396459207932 -0.023708693678937225
-0.477384627619795 -0.05613370404947118
-0.5056213064871272 -0.07234620923473815
-0.5056213064871272 -0.1047712196052721
-0.5197396459207932 -0.08855871442000512
-0.5479763247881254 -0.05613370404947118
-0.5479763247881254 -0.05613370404947118
-0.5056213064871272 -0.0399211988642042
-0.5338579853544594 -0.023708693678937225
-0.5479763247881254 -0.07234620923473815
-0.5903313430891237 -0.05613370404947118
-0.6044496825227899 -0.05613370404947118
-0.5620946642217916 -0.0399211988642042
-0.5479763247881254 -0.05613370404947118
-0.5056213064871272 -0.07234620923473815
-0.5762130036554577 -0.05613370404947118
-0.632686361390122 -0.07234620923473815
-0.6044496825227899 -0.07234620923473815
-0.5479763247881254 -0.07234620923473815
-0.5338579853544594 -0.05613370404947118
-0.5338579853544594 -0.05613370404947118
-0.5762130036554577 -0.07234620923473815
-0.5903313430891237 -0.1047712196052721
-0.6044496825227899 -0.07234620923473815
-0.5338579853544594 -0.07234620923473815
-0.5620946642217916 -0.0399211988642042
-0.5762130036554577 -0.08855871442000512
-0.5903313430891237 -0.07234620923473815
-0.6185680219564559 -0.1047712196052721
-0.6750413796911203 -0.07234620923473815
-0.6185680219564559 -0.0399211988642042
-0.5762130036554577 -0.05613370404947118
-0.5620946642217916 -0.07234620923473815
-0.5762130036554577 -0.07234620923473815
-0.5479763247881254 -0.023708693678937225
-0.5197396459207932 0.024928821876863697
-0.5056213064871272 0.024928821876863697
-0.477384627619795 0.057353832247397644
-0.4632662881861289 0.041141327062130674
-0.477384627619795 0.024928821876863697
-0.5197396459207932 0.024928821876863697
-0.5197396459207932 0.057353832247397644
-0.4915029670534611 0.057353832247397644
-0.4632662881861289 0.041141327062130674
-0.44914794875246283 -0.023708693678937225
-0.477384627619795 -0.0399211988642042
-0.5197396459207932 -0.07234620923473815
-0.5479763247881254 -0.0399211988642042
-0.5197396459207932 -0.07234620923473815
-0.5056213064871272 -0.05613370404947118
-0.5197396459207932 -0.08855871442000512
-0.5197396459207932 -0.1047712196052721
-0.5903313430891237 -0.16962124034634
-0.6185680219564559 -0.13719622997580605
-0.6044496825227899 -0.153408735161073
-0.5762130036554577 -0.153408735161073
-0.5762130036554577 -0.16962124034634
-0.632686361390122 -0.2344712610874079
-0.7032780585584525 -0.2344712610874079
-0.6609230402574542 -0.16962124034634
-0.6185680219564559 -0.16962124034634
-0.5762130036554577 -0.18583374553160698
-0.5620946642217916 -0.18583374553160698
-0.5762130036554577 -0.21825875590214092
-0.6044496825227899 -0.20204625071687393
-0.6044496825227899 -0.13719622997580605
-0.5620946642217916 -0.13719622997580605
-0.5620946642217916 -0.1047712196052721
-0.5338579853544594 -0.153408735161073
-0.5762130036554577 -0.21825875590214092
-0.5762130036554577 -0.16962124034634
-0.6185680219564559 -0.13719622997580605
-0.6044496825227899 -0.1047712196052721
-0.5479763247881254 -0.12098372479053907
-0.5903313430891237 -0.16962124034634
-0.5762130036554577 -0.18583374553160698
-0.6044496825227899 -0.13719622997580605
-0.6609230402574542 -0.1047712196052721
-0.6185680219564559 -0.1047712196052721
-0.5762130036554577 -0.07234620923473815
-0.6185680219564559 -0.12098372479053907
-0.6185680219564559 -0.153408735161073
-0.6609230402574542 -0.13719622997580605
-0.6185680219564559 -0.12098372479053907
-0.5762130036554577 -0.08855871442000512
-0.5762130036554577 -0.08855871442000512
-0.5620946642217916 -0.1047712196052721
-0.5903313430891237 -0.153408735161073
-0.6044496825227899 -0.13719622997580605
-0.632686361390122 -0.13719622997580605
-0.5762130036554577 -0.0399211988642042
-0.5620946642217916 -0.08855871442000512
-0.5762130036554577 -0.07234620923473815
-0.6044496825227899 -0.1047712196052721
-0.632686361390122 -0.12098372479053907
-0.6609230402574542 -0.05613370404947118
-0.6044496825227899 -0.05613370404947118
-0.5620946642217916 -0.05613370404947118
-0.5620946642217916 -0.07234620923473815
-0.6044496825227899 -0.12098372479053907
-0.6185680219564559 -0.153408735161073
-0.6044496825227899 -0.08855871442000512
-0.6185680219564559 -0.08855871442000512
-0.6044496825227899 -0.0399211988642042
-0.5762130036554577 -0.05613370404947118
-0.5620946642217916 -0.13719622997580605
-0.5762130036554577 -0.08855871442000512
-0.5903313430891237 -0.07234620923473815
-0.5620946642217916 -0.007496188493670251
-0.5338579853544594 -0.05613370404947118
-0.5338579853544594 -0.08855871442000512
-0.5197396459207932 -0.05613370404947118
-0.5762130036554577 -0.1047712196052721
-0.5903313430891237 -0.07234620923473815
-0.5338579853544594 -0.023708693678937225
-0.5056213064871272 -0.023708693678937225
-0.5197396459207932 -0.05613370404947118
-0.5197396459207932 -0.0399211988642042
-0.5620946642217916 -0.08855871442000512
-0.5620946642217916 -0.05613370404947118
-0.5197396459207932 -0.0399211988642042
-0.44914794875246283 -0.023708693678937225
-0.4350296093187967 -0.07234620923473815
-0.4632662881861289 -0.1047712196052721
-0.477384627619795 -0.1047712196052721
-0.5338579853544594 -0.08855871442000512
-0.5620946642217916 -0.0399211988642042
-0.5903313430891237 -0.1047712196052721
-0.6468047008237882 -0.153408735161073
-0.7315147374257847 -0.2344712610874079
-0.8444614528951134 -0.31553378701374274
-0.9150531500634439 -0.36417130256954366
-0.9574081683644422 -0.4128088181253446
-0.9997631866654405 -0.5262963544222135
-1.0703548838337709 -0.6397838907190823
-1.239774957037764 -0.7532714270159511
-1.4091950302417573 -0.8829714684980868
-1.4515500485427555 -1.0288840151654897
-1.4515500485427555 -1.1910090670181595
-1.6068517823130826 -1.3369216136855622
-1.9033369104200706 -1.4666216551676978
-2.326887093430053 -1.5476841810940327
-2.877502331343031 -1.5638966862792998
-3.4139992298223425 -1.5314716759087659
-3.6822476790619985 -1.4666216551676978
-3.6822476790619985 -1.369346624056096
-3.526945945291671 -1.320709108500295
-3.4281175692560084 -1.2072215722034263
-3.329289193220346 -1.0613090255360236
-3.188105798883685 -0.834333952942286
-2.933975689077695 -0.6073588803485483
-2.7645556158737024 -0.4290213233106116
-2.4963071666340464 -0.20204625071687393
-2.2562953962617227 -0.0399211988642042
-2.100993662491396 0.18705387372953344
-1.959810268154735 0.43024145150853804
-1.7621535160834096 0.6085790085464747
-1.5927334428794164 0.7382790500286106
-1.4797867274100878 0.8355540811402123
-1.380958351374425 0.8355540811402123
-1.2538932964714302 0.8193415759549454
-1.0985915627011031 0.8031290707696784
-0.8726981317624456 0.7869165655844115
-0.6750413796911203 0.7220665448433435
-0.5056213064871272 0.5923665033612078
-0.40679293045146453 0.5113039774348729
-0.37855625158413236 0.43024145150853804
-0.3644379121504662 0.43024145150853804
-0.33620123328313406 0.4140289463232711
-0.29384621498213576 0.3978164411380041
-0.2373728572474714 0.3491789255822032
-0.2656095361148036 0.3005414100264023
-0.322082893849468 0.28432890484113527
-0.2797278755484697 0.3005414100264023
-0.2514911966811375 0.3491789255822032
-0.2373728572474714 0.31675391521166923
-0.22325451781380531 0.31675391521166923
-0.2373728572474714 0.28432890484113527
-0.2656095361148036 0.23569138928533437
-0.2656095361148036 0.2681163996558683
-0.2514911966811375 0.3005414100264023
-0.19501783894647312 0.3005414100264023
-0.19501783894647312 0.2681163996558683
-0.19501783894647312 0.2681163996558683
-0.22325451781380531 0.21947888410006738
-0.2373728572474714 0.2681163996558683
-0.2091361783801392 0.3005414100264023
-0.15266282064547484 0.28432890484113527
-0.11030780234447655 0.3005414100264023
-0.12442614177814265 0.28432890484113527
-0.15266282064547484 0.2681163996558683
-0.16678116007914093 0.3005414100264023
-0.11030780234447655 0.28432890484113527
-0.05383444460981218 0.3005414100264023
-0.08207112347714436 0.31675391521166923
-0.06795278404347828 0.3005414100264023
-0.09618946291081046 0.3005414100264023
-0.11030780234447655 0.3005414100264023
-0.06795278404347828 0.31675391521166923
-0.025597765742479992 0.3491789255822032
-0.05383444460981218 0.3491789255822032
-0.06795278404347828 0.31675391521166923
-0.039716105176146085 0.3329664203969362
-0.09618946291081046 0.31675391521166923
-0.025597765742479992 0.3329664203969362
0.044993931425850474 0.36539143076747016
0.030875591992184384 0.36539143076747016
-0.011479426308813899 0.36539143076747016
0.030875591992184384 0.3329664203969362
0.016757252558518287 0.36539143076747016
0.10146728916051485 0.4140289463232711
0.15794064689517923 0.43024145150853804
0.14382230746151314 0.462666461879072
0.11558562859418095 0.43024145150853804
0.08734894972684876 0.446453956693805
0.11558562859418095 0.462666461879072
0.18617732576251142 0.47887896706433897
0.25676902293084186 0.5113039774348729
0.2285323440635097 0.5437289878054069
0.24265068349717578 0.52751648262014
0.2144140046298436 0.4950914722496059
0.2285323440635097 0.4950914722496059
0.31324238066550625 0.6085790085464747
0.32736072009917233 0.6247915137317417
0.3838340778338367 0.5923665033612078
0.32736072009917233 0.6247915137317417
0.31324238066550625 0.5923665033612078
0.34147905953283847 0.5761539981759408
0.3979524172675028 0.6896415344728096
0.426189096134835 0.7220665448433435
0.4544257750021672 0.7220665448433435
0.46854411443583327 0.6896415344728096
0.4544257750021672 0.6734290292875427
0.46854411443583327 0.7220665448433435
0.5250174721704977 0.7869165655844115
0.5532541510378298 0.8355540811402123
0.567372490471496 0.8031290707696784
0.5532541510378298 0.7707040603991445
0.5532541510378298 0.7707040603991445
0.5391358116041638 0.8031290707696784
0.5956091693388281 0.8841915966960133
0.6520825270734925 0.9166166070665472
0.6379641876398264 0.8841915966960133
0.6238458482061603 0.8193415759549454
0.6379641876398264 0.8355540811402123
0.6238458482061603 0.8841915966960133
0.6379641876398264 0.9490416174370813
0.7085558848081569 0.9814666278076152
0.7226742242418229 0.9976791329928821
0.6662008665071586 0.9004041018812803
0.6379641876398264 0.8841915966960133
0.6238458482061603 0.9328291122518142
0.6662008665071586 1.013891638178149
0.6944375453744908 1.0301041433634162
0.6944375453744908 0.9976791329928821
0.6520825270734925 0.9004041018812803
0.6520825270734925 0.9004041018812803
0.6379641876398264 0.9652541226223482
0.6379641876398264 1.013891638178149
0.6520825270734925 0.9814666278076152
0.6379641876398264 1.013891638178149
0.5956091693388281 0.9166166070665472
0.581490829905162 0.9328291122518142
0.5532541510378298 0.9328291122518142
0.581490829905162 0.9652541226223482
0.6097275087724943 0.9814666278076152
0.5956091693388281 0.9166166070665472
0.5532541510378298 0.8355540811402123
0.5108991327368315 0.8679790915107464
0.4967807933031655 0.9004041018812803
0.5250174721704977 0.9166166070665472
0.5391358116041638 0.9166166070665472
0.5250174721704977 0.8355540811402123
0.5108991327368315 0.7869165655844115
0.46854411443583327 0.7869165655844115
0.4544257750021672 0.8031290707696784
0.46854411443583327 0.8031290707696784
0.46854411443583327 0.8355540811402123
0.46854411443583327 0.7544915552138776
0.4403074355685011 0.7382790500286106
0.36971573840017063 0.7220665448433435
0.35559739896650455 0.7869165655844115
0.34147905953283847 0.8031290707696784
0.35559739896650455 0.7544915552138776
0.31324238066550625 0.7220665448433435
0.31324238066550625 0.6734290292875427
0.270887362364508 0.6734290292875427
0.25676902293084186 0.7382790500286106
0.270887362364508 0.6896415344728096
0.31324238066550625 0.7058540396580766
0.270887362364508 0.6572165241022757
0.2144140046298436 0.6247915137317417
0.18617732576251142 0.6410040189170088
0.2002956651961775 0.5923665033612078
0.2285323440635097 0.6085790085464747
0.270887362364508 0.6085790085464747
0.2285323440635097 0.5599414929906739
0.2002956651961775 0.5761539981759408
0.15794064689517923 0.5113039774348729
0.11558562859418095 0.5113039774348729
0.10146728916051485 0.52751648262014
0.15794064689517923 0.4950914722496059
0.12970396802784703 0.5113039774348729
0.08734894972684876 0.4950914722496059
0.05911227085951657 0.4950914722496059
0.030875591992184384 0.446453956693805
0.044993931425850474 0.446453956693805
0.044993931425850474 0.446453956693805
0.044993931425850474 0.446453956693805
-0.011479426308813899 0.4140289463232711
-0.039716105176146085 0.3491789255822032
-0.09618946291081046 0.3329664203969362
-0.025597765742479992 0.36539143076747016
0.002638913124852195 0.3978164411380041
-0.011479426308813899 0.3978164411380041
-0.06795278404347828 0.31675391521166923
-0.08207112347714436 0.2681163996558683
-0.12442614177814265 0.2681163996558683
-0.13854448121180873 0.3329664203969362
-0.08207112347714436 0.3329664203969362
-0.13854448121180873 0.31675391521166923
-0.18089949951280704 0.2681163996558683
-0.22325451781380531 0.18705387372953344
-0.2656095361148036 0.2032663789148004
-0.2514911966811375 0.25190389447060135
-0.2091361783801392 0.2681163996558683
-0.2514911966811375 0.2681163996558683
-0.2656095361148036 0.17084136854426646
-0.3079645544158019 0.10599134780319856
-0.33620123328313406 0.17084136854426646
-0.322082893849468 0.21947888410006738
-0.29384621498213576 0.21947888410006738
-0.3079645544158019 0.2032663789148004
-0.322082893849468 0.13841635817373252
-0.37855625158413236 0.08977884261793159
-0.3644379121504662 0.12220385298846555
-0.3644379121504662 0.1546288633589995
-0.37855625158413236 0.1546288633589995
-0.39267459101779845 0.12220385298846555
-0.4209112698851306 0.041141327062130674
-0.4209112698851306 0.024928821876863697
-0.44914794875246283 0.08977884261793159
-0.4350296093187967 0.1546288633589995
-0.40679293045146453 0.1546288633589995
-0.4209112698851306 0.10599134780319856
-0.477384627619795 0.008716316691596723
-0.5479763247881254 0.008716316691596723
-0.5479763247881254 0.07356633743266462
-0.5056213064871272 0.10599134780319856
-0.5056213064871272 0.12220385298846555
-0.4915029670534611 0.07356633743266462
-0.5056213064871272 0.024928821876863697
-0.5338579853544594 0.024928821876863697
-0.5762130036554577 0.057353832247397644
-0.5479763247881254 0.10599134780319856
-0.5056213064871272 0.10599134780319856
-0.5338579853544594 0.041141327062130674
-0.5338579853544594 0.008716316691596723
-0.5903313430891237 -0.007496188493670251
-0.5903313430891237 0.057353832247397644
-0.5903313430891237 0.08977884261793159
-0.5479763247881254 0.07356633743266462
-0.5620946642217916 0.041141327062130674
-0.5903313430891237 0.041141327062130674
-0.6468047008237882 0.057353832247397644
-0.632686361390122 0.07356633743266462
-0.5903313430891237 0.08977884261793159
-0.5620946642217916 0.07356633743266462
-0.5762130036554577 0.041141327062130674
-0.5903313430891237 0.041141327062130674
-0.632686361390122 0.057353832247397644
-0.6185680219564559 0.10599134780319856
-0.5762130036554577 0.08977884261793159
-0.5479763247881254 0.07356633743266462
-0.5479763247881254 0.10599134780319856
-0.632686361390122 0.12220385298846555
-0.6468047008237882 0.08977884261793159
-0.6468047008237882 0.12220385298846555
-0.5903313430891237 0.13841635817373252
-0.5762130036554577 0.1546288633589995
-0.5197396459207932 0.17084136854426646
-0.5197396459207932 0.13841635817373252
-0.5479763247881254 0.2032663789148004
-0.5338579853544594 0.2032663789148004
-0.5197396459207932 0.17084136854426646
-0.477384627619795 0.21947888410006738
-0.4915029670534611 0.18705387372953344
-0.5338579853544594 0.18705387372953344
-0.5762130036554577 0.12220385298846555
-0.5762130036554577 0.13841635817373252
-0.5620946642217916 0.1546288633589995
-0.5338579853544594 0.13841635817373252
-0.5338579853544594 0.08977884261793159
-0.5903313430891237 0.07356633743266462
-0.6468047008237882 0.024928821876863697
-0.6468047008237882 0.008716316691596723
-0.6468047008237882 0.057353832247397644
-0.6468047008237882 0.07356633743266462
-0.6750413796911203 0.041141327062130674
-0.6891597191247864 -0.007496188493670251
-0.7315147374257847 -0.05613370404947118
-0.7879880951604491 -0.0399211988642042
-0.7315147374257847 -0.05613370404947118
-0.6891597191247864 -0.007496188493670251
-0.7032780585584525 -0.007496188493670251
-0.7173963979921186 -0.0399211988642042
-0.7173963979921186 -0.05613370404947118
-0.7597514162931168 -0.023708693678937225
-0.7032780585584525 -0.007496188493670251
-0.6468047008237882 -0.007496188493670251
-0.6468047008237882 0.07356633743266462
-0.7032780585584525 0.057353832247397644
-0.7456330768594508 -0.007496188493670251
-0.7456330768594508 0.008716316691596723
-0.7173963979921186 0.008716316691596723
-0.6891597191247864 0.057353832247397644
-0.6891597191247864 0.07356633743266462
-0.7173963979921186 0.057353832247397644
-0.7456330768594508 0.041141327062130674
-0.7456330768594508 0.041141327062130674
-0.773869755726783 0.024928821876863697
-0.7032780585584525 0.041141327062130674
-0.7173963979921186 0.041141327062130674
-0.773869755726783 0.057353832247397644
-0.773869755726783 0.024928821876863697
-0.773869755726783 0.041141327062130674
-0.7315147374257847 0.057353832247397644
-0.7315147374257847 0.041141327062130674
-0.7173963979921186 0.057353832247397644
-0.7315147374257847 0.057353832247397644
-0.7879880951604491 0.041141327062130674
-0.7597514162931168 0.024928821876863697
-0.773869755726783 0.057353832247397644
-0.6750413796911203 0.041141327062130674
-0.6891597191247864 0.08977884261793159
-0.7315147374257847 0.057353832247397644
-0.7879880951604491 0.057353832247397644
-0.773869755726783 0.024928821876863697
-0.773869755726783 0.07356633743266462
-0.7173963979921186 0.057353832247397644
-0.7315147374257847 0.057353832247397644
-0.7173963979921186 0.057353832247397644
-0.7597514162931168 0.024928821876863697
-0.7879880951604491 0.024928821876863697
-0.7597514162931168 0.057353832247397644
-0.7315147374257847 0.10599134780319856
-0.7315147374257847 0.08977884261793159
-0.7597514162931168 0.057353832247397644
-0.7879880951604491 0.041141327062130674
-0.773869755726783 0.041141327062130674
-0.7315147374257847 0.07356633743266462
-0.7315147374257847 0.057353832247397644
-0.7315147374257847 0.10599134780319856
-0.773869755726783 0.08977884261793159
-0.7879880951604491 0.057353832247397644
-0.8303431134614473 0.07356633743266462
-0.7456330768594508 0.08977884261793159
-0.6891597191247864 0.08977884261793159
-0.7032780585584525 0.12220385298846555
-0.7173963979921186 0.07356633743266462
-0.7456330768594508 0.057353832247397644
-0.773869755726783 0.057353832247397644
-0.7597514162931168 0.10599134780319856
-0.6891597191247864 0.08977884261793159
-0.6891597191247864 0.08977884261793159
-0.7032780585584525 0.12220385298846555
-0.7032780585584525 0.12220385298846555
-0.7032780585584525 0.08977884261793159
-0.6750413796911203 0.07356633743266462
-0.632686361390122 0.041141327062130674
-0.6891597191247864 0.07356633743266462
-0.7456330768594508 0.041141327062130674
-0.8444614528951134 0.024928821876863697
-0.9009348106297778 -0.05613370404947118
-0.9009348106297778 -0.1047712196052721
-0.9574081683644422 -0.153408735161073
-1.0421182049664388 -0.21825875590214092
-1.1127099021347693 -0.33174629219900975
-1.1974199387367659 -0.44523382849587856
-1.3103666542060945 -0.5100838492369465
-1.4656683879764216 -0.6235713855338153
-1.5927334428794164 -0.7370589218306841
-1.6915618189150792 -0.9802464996096887
-1.8327452132517401 -1.2558590877592273
-2.0868753230577295 -1.417984139611897
-2.453952148333048 -1.5801091914645666
-2.8492656524756987 -1.5963216966498337
-3.3998808903886766 -1.5638966862792998
-3.8375494128323253 -1.5152591707234988
-3.9646144677353203 -1.482834160352965
-3.936377788867988 -1.450409149982431
-3.752839376230329 -1.2882840981297612
-3.611655981893668 -1.0288840151654897
-3.357525872087678 -0.7370589218306841
-3.173987459450019 -0.4938713440516795
-2.9904490468123597 -0.2993212818284758
-2.792792294741034 -0.153408735161073
-2.5386621849350446 0.07356633743266462
-2.298650414562721 0.31675391521166923
-2.1151120019250618 0.5923665033612078
-1.959810268154735 0.7707040603991445
-1.8327452132517401 0.8679790915107464
-1.7762718555170756 0.9328291122518142
-1.663325140047747 0.9976791329928821
-1.522141745711086 1.0301041433634162
-1.3244849936397607 1.06252915373395
-1.1550649204357675 0.9814666278076152
-0.9574081683644422 0.8679790915107464
-0.8021064345941151 0.7058540396580766
-0.6750413796911203 0.6247915137317417
-0.5479763247881254 0.6247915137317417
-0.5338579853544594 0.6247915137317417
-0.5197396459207932 0.5599414929906739
-0.5762130036554577 0.47887896706433897
-0.5903313430891237 0.43024145150853804
-0.5762130036554577 0.446453956693805
-0.5056213064871272 0.4950914722496059
-0.477384627619795 0.5437289878054069
-0.44914794875246283 0.5113039774348729
-0.5056213064871272 0.43024145150853804
-0.5620946642217916 0.3978164411380041
-0.4915029670534611 0.4140289463232711
-0.477384627619795 0.4950914722496059
-0.40679293045146453 0.47887896706433897
-0.4632662881861289 0.462666461879072
-0.5056213064871272 0.3978164411380041
-0.5197396459207932 0.3816039359527371
-0.5338579853544594 0.3978164411380041
-0.4632662881861289 0.5113039774348729
-0.4209112698851306 0.47887896706433897
-0.39267459101779845 0.47887896706433897
-0.44914794875246283 0.43024145150853804
-0.477384627619795 0.3978164411380041
-0.477384627619795 0.446453956693805
-0.4350296093187967 0.5113039774348729
-0.39267459101779845 0.4950914722496059
-0.40679293045146453 0.5113039774348729
-0.40679293045146453 0.446453956693805
-0.4209112698851306 0.43024145150853804
-0.39267459101779845 0.5113039774348729
-0.35031957271680014 0.5437289878054069
-0.33620123328313406 0.4950914722496059
-0.33620123328313406 0.446453956693805
-0.35031957271680014 0.43024145150853804
-0.3644379121504662 0.462666461879072
-0.35031957271680014 0.47887896706433897
-0.322082893849468 0.5599414929906739
-0.29384621498213576 0.5761539981759408
-0.2514911966811375 0.4950914722496059
-0.3079645544158019 0.462666461879072
-0.29384621498213576 0.47887896706433897
-0.322082893849468 0.5761539981759408
-0.2373728572474714 0.6085790085464747
-0.19501783894647312 0.5923665033612078
-0.19501783894647312 0.5761539981759408
-0.2514911966811375 0.5437289878054069
-0.2373728572474714 0.5761539981759408
-0.2373728572474714 0.6734290292875427
-0.16678116007914093 0.6734290292875427
-0.11030780234447655 0.6572165241022757
-0.06795278404347828 0.6410040189170088
-0.06795278404347828 0.6410040189170088
-0.08207112347714436 0.6896415344728096
-0.06795278404347828 0.7220665448433435
-0.025597765742479992 0.7544915552138776
0.044993931425850474 0.7220665448433435
0.030875591992184384 0.7220665448433435
-0.025597765742479992 0.7382790500286106
-0.011479426308813899 0.7382790500286106
0.016757252558518287 0.8031290707696784
0.07323061029318266 0.8355540811402123
0.08734894972684876 0.8517665863254794
0.08734894972684876 0.8355540811402123
0.07323061029318266 0.8193415759549454
0.030875591992184384 0.8841915966960133
0.08734894972684876 0.8841915966960133
0.15794064689517923 0.9166166070665472
0.2002956651961775 0.9004041018812803
0.2144140046298436 0.9166166070665472
0.2285323440635097 0.9328291122518142
0.18617732576251142 0.9652541226223482
0.2285323440635097 0.9814666278076152
0.25676902293084186 0.9814666278076152
0.31324238066550625 0.9976791329928821
0.31324238066550625 0.9976791329928821
0.2850057017981741 1.046316648548683
0.270887362364508 1.0301041433634162
0.25676902293084186 1.013891638178149
0.270887362364508 1.0301041433634162
0.34147905953283847 1.0301041433634162
0.29912404123184017 1.046316648548683
0.2850057017981741 1.046316648548683
0.31324238066550625 1.0301041433634162
0.2850057017981741 1.046316648548683
0.36971573840017063 1.078741658919217
0.3838340778338367 1.06252915373395
0.3838340778338367 1.094954164104484
0.36971573840017063 1.046316648548683
0.31324238066550625 1.06252915373395
0.31324238066550625 1.046316648548683
0.34147905953283847 1.06252915373395
0.3838340778338367 1.111166669289751
0.3838340778338367 1.094954164104484
0.32736072009917233 1.06252915373395
0.2850057017981741 1.013891638178149
0.29912404123184017 1.013891638178149
0.31324238066550625 0.9976791329928821
0.31324238066550625 1.06252915373395
0.31324238066550625 1.046316648548683
0.270887362364508 0.9976791329928821
0.2144140046298436 0.9814666278076152
0.2285323440635097 0.9652541226223482
0.2144140046298436 0.9976791329928821
0.24265068349717578 0.9814666278076152
0.2144140046298436 1.0301041433634162
0.15794064689517923 0.9328291122518142
0.18617732576251142 0.8841915966960133
0.14382230746151314 0.9004041018812803
0.12970396802784703 0.9490416174370813
0.14382230746151314 0.9814666278076152
0.18617732576251142 0.9652541226223482
0.14382230746151314 0.8679790915107464
0.14382230746151314 0.8517665863254794
0.11558562859418095 0.8355540811402123
0.12970396802784703 0.8517665863254794
0.15794064689517923 0.9166166070665472
0.12970396802784703 0.8517665863254794
0.05911227085951657 0.8517665863254794
0.030875591992184384 0.7707040603991445
0.030875591992184384 0.8031290707696784
0.05911227085951657 0.8517665863254794
0.08734894972684876 0.8841915966960133
0.07323061029318266 0.8679790915107464
0.002638913124852195 0.8355540811402123
-0.039716105176146085 0.7544915552138776
-0.05383444460981218 0.7544915552138776
-0.011479426308813899 0.8193415759549454
0.002638913124852195 0.8193415759549454
-0.039716105176146085 0.7707040603991445
-0.09618946291081046 0.7058540396580766
-0.09618946291081046 0.6734290292875427
-0.08207112347714436 0.6896415344728096
-0.06795278404347828 0.7382790500286106
-0.05383444460981218 0.7707040603991445
-0.09618946291081046 0.7220665448433435
-0.16678116007914093 0.6572165241022757
-0.16678116007914093 0.6247915137317417
-0.18089949951280704 0.6247915137317417
-0.11030780234447655 0.6896415344728096
-0.13854448121180873 0.7058540396580766
-0.18089949951280704 0.6572165241022757
-0.19501783894647312 0.6247915137317417
-0.2656095361148036 0.52751648262014
-0.2373728572474714 0.5599414929906739
-0.2373728572474714 0.5437289878054069
-0.2091361783801392 0.6085790085464747
-0.2514911966811375 0.5599414929906739
-0.3079645544158019 0.5113039774348729
-0.33620123328313406 0.4950914722496059
-0.35031957271680014 0.47887896706433897
-0.33620123328313406 0.52751648262014
-0.33620123328313406 0.52751648262014
-0.3644379121504662 0.462666461879072
-0.4209112698851306 0.3816039359527371
-0.477384627619795 0.3491789255822032
-0.4632662881861289 0.4140289463232711
-0.44914794875246283 0.462666461879072
-0.44914794875246283 0.4950914722496059
-0.44914794875246283 0.3978164411380041
-0.5056213064871272 0.31675391521166923
-0.5762130036554577 0.3005414100264023
-0.5620946642217916 0.36539143076747016
-0.5197396459207932 0.43024145150853804
-0.5620946642217916 0.3816039359527371
-0.5903313430891237 0.3005414100264023
-0.632686361390122 0.25190389447060135
-0.6468047008237882 0.23569138928533437
-0.6750413796911203 0.2681163996558683
-0.6750413796911203 0.31675391521166923
-0.632686361390122 0.3005414100264023
-0.632686361390122 0.25190389447060135
-0.6891597191247864 0.2032663789148004
-0.7032780585584525 0.18705387372953344
-0.7173963979921186 0.23569138928533437
-0.6891597191247864 0.3005414100264023
-0.6891597191247864 0.3005414100264023
-0.7315147374257847 0.23569138928533437
-0.773869755726783 0.10599134780319856
-0.7879880951604491 0.12220385298846555
-0.8303431134614473 0.1546288633589995
-0.8021064345941151 0.23569138928533437
-0.7879880951604491 0.25190389447060135
-0.773869755726783 0.2032663789148004
-0.773869755726783 0.12220385298846555
-0.8303431134614473 0.12220385298846555
-0.8444614528951134 0.17084136854426646
-0.8162247740277813 0.1546288633589995
-0.773869755726783 0.21947888410006738
-0.8021064345941151 0.1546288633589995
-0.8444614528951134 0.10599134780319856
-0.8444614528951134 0.08977884261793159
-0.8585797923287796 0.1546288633589995
-0.8021064345941151 0.2032663789148004
-0.773869755726783 0.21947888410006738
-0.8162247740277813 0.17084136854426646
-0.8444614528951134 0.13841635817373252
-0.8726981317624456 0.08977884261793159
-0.8585797923287796 0.17084136854426646
-0.8585797923287796 0.21947888410006738
-0.8162247740277813 0.18705387372953344
-0.8585797923287796 0.12220385298846555
-0.8868164711961117 0.08977884261793159
-0.8726981317624456 0.13841635817373252
-0.8585797923287796 0.12220385298846555
-0.8585797923287796 0.2032663789148004
-0.8444614528951134 0.21947888410006738
-0.8444614528951134 0.13841635817373252
-0.8726981317624456 0.07356633743266462
-0.8868164711961117 0.12220385298846555
-0.9009348106297778 0.18705387372953344
-0.9009348106297778 0.2681163996558683
-0.8585797923287796 0.25190389447060135
-0.9009348106297778 0.2032663789148004
-0.9150531500634439 0.13841635817373252
-0.8868164711961117 0.13841635817373252
-0.8444614528951134 0.23569138928533437
-0.7456330768594508 0.3491789255822032
-0.6891597191247864 0.31675391521166923
-0.7173963979921186 0.2681163996558683
-0.7456330768594508 0.21947888410006738
-0.8021064345941151 0.2681163996558683
-0.8021064345941151 0.2681163996558683
-0.7879880951604491 0.3329664203969362
-0.7597514162931168 0.31675391521166923
-0.7879880951604491 0.23569138928533437
-0.8444614528951134 0.18705387372953344
-0.8444614528951134 0.17084136854426646
-0.8303431134614473 0.21947888410006738
-0.8303431134614473 0.23569138928533437
-0.8162247740277813 0.23569138928533437
-0.8303431134614473 0.1546288633589995
-0.8585797923287796 0.10599134780319856
-0.9009348106297778 0.07356633743266462
-0.9150531500634439 0.10599134780319856
-0.8868164711961117 0.12220385298846555
-0.8585797923287796 0.10599134780319856
-0.8444614528951134 -0.007496188493670251
-0.9150531500634439 -0.023708693678937225
-0.9574081683644422 -0.007496188493670251
-0.9856448472317744 0.057353832247397644
-0.9432898289307761 0.10599134780319856
-0.9009348106297778 0.10599134780319856
-0.9150531500634439 0.07356633743266462
-0.9150531500634439 0.008716316691596723
-0.9432898289307761 0.057353832247397644
-0.9574081683644422 0.10599134780319856
-0.92917148949711 0.13841635817373252
-0.9150531500634439 0.07356633743266462
-0.9715265077981082 0.057353832247397644
-0.9856448472317744 0.041141327062130674
-0.9574081683644422 0.07356633743266462
-0.9715265077981082 0.12220385298846555
-0.92917148949711 0.1546288633589995
-0.8868164711961117 0.1546288633589995
-0.9009348106297778 0.07356633743266462
-0.9150531500634439 0.057353832247397644
-0.9432898289307761 0.10599134780319856
-0.9997631866654405 0.1546288633589995
-0.9432898289307761 0.1546288633589995
-0.9432898289307761 0.13841635817373252
-0.9150531500634439 0.057353832247397644
-0.92917148949711 0.041141327062130674
-0.9432898289307761 0.07356633743266462
-0.92917148949711 0.10599134780319856
-0.9150531500634439 0.21947888410006738
-0.92917148949711 0.17084136854426646
-0.9574081683644422 0.10599134780319856
-0.9574081683644422 0.08977884261793159
-0.9574081683644422 0.08977884261793159
-0.9432898289307761 0.1546288633589995
-0.92917148949711 0.1546288633589995
-0.9150531500634439 0.1546288633589995
-0.9574081683644422 0.10599134780319856
-0.9856448472317744 0.08977884261793159
-0.9997631866654405 0.12220385298846555
-0.9574081683644422 0.13841635817373252
-0.9432898289307761 0.18705387372953344
-0.9009348106297778 0.13841635817373252
-0.8868164711961117 0.08977884261793159
-0.9009348106297778 0.08977884261793159
-0.92917148949711 0.07356633743266462
-0.92917148949711 0.1546288633589995
-0.8868164711961117 0.17084136854426646
-0.8585797923287796 0.17084136854426646
-0.8868164711961117 0.10599134780319856
-0.92917148949711 0.07356633743266462
-0.9574081683644422 0.13841635817373252
-0.9432898289307761 0.17084136854426646
-0.92917148949711 0.17084136854426646
-0.8868164711961117 0.13841635817373252
-0.8868164711961117 0.10599134780319856
-0.92917148949711 0.08977884261793159
-0.9432898289307761 0.12220385298846555
-0.92917148949711 0.17084136854426646
-0.9150531500634439 0.18705387372953344
-0.8868164711961117 0.17084136854426646
-0.8585797923287796 0.10599134780319856
-0.8868164711961117 0.08977884261793159
-0.8868164711961117 0.10599134780319856
-0.8303431134614473 0.13841635817373252
-0.8021064345941151 0.18705387372953344
-0.7597514162931168 0.13841635817373252
-0.7879880951604491 0.1546288633589995
-0.8726981317624456 0.07356633743266462
-0.9574081683644422 0.10599134780319856
-1.056236544400105 0.057353832247397644
-1.056236544400105 0.008716316691596723
-1.0703548838337709 -0.07234620923473815
-1.1833015993030997 -0.13719622997580605
-1.2538932964714302 -0.2344712610874079
-1.3244849936397607 -0.31553378701374274
-1.380958351374425 -0.4290213233106116
-1.536260085144752 -0.5425088596074804
-1.663325140047747 -0.6559963959043492
-1.818626873818074 -0.8667589633128199
-1.9174552498537365 -1.1099465410918246
-2.0304019653230654 -1.3044966033150283
-2.2139403779607245 -1.417984139611897
-2.4963071666340464 -1.5152591707234988
-3.0045673862460256 -1.4666216551676978
-3.5128276058580052 -1.434196644797164
-3.936377788867988 -1.417984139611897
-3.950496128301654 -1.320709108500295
-3.8375494128323253 -1.2396465825739602
-3.668129339628332 -1.0288840151654897
-3.498709266424339 -0.834333952942286
-3.357525872087678 -0.6397838907190823
-3.2586974960520156 -0.4614463336811455
-3.075159083414356 -0.25068376627267486
-2.8069106341747005 -0.0399211988642042
-2.5386621849350446 0.23569138928533437
-2.3127687539963873 0.4950914722496059
-2.1857036990933922 0.7382790500286106
-2.0586386441903977 0.9004041018812803
-1.988046947022067 1.013891638178149
-1.846863552685406 1.078741658919217
-1.7197984977824112 1.1598041848455518
-1.536260085144752 1.1922291952160857
-1.3527216725070927 1.143591679660285
-1.1833015993030997 0.9490416174370813
-1.1127099021347693 0.8355540811402123
-0.9432898289307761 0.7058540396580766
-0.8021064345941151 0.6410040189170088
-0.7173963979921186 0.6247915137317417
-0.7173963979921186 0.5761539981759408
-0.7597514162931168 0.446453956693805
-0.773869755726783 0.3816039359527371
-0.7315147374257847 0.4140289463232711
-0.6891597191247864 0.52751648262014
-0.632686361390122 0.52751648262014
-0.6750413796911203 0.3978164411380041
-0.7032780585584525 0.3329664203969362
-0.7032780585584525 0.2681163996558683
-0.7173963979921186 0.36539143076747016
-0.6468047008237882 0.4140289463232711
-0.6044496825227899 0.462666461879072
-0.5903313430891237 0.4140289463232711
-0.5903313430891237 0.28432890484113527
-0.6185680219564559 0.2681163996558683
-0.632686361390122 0.3978164411380041
-0.632686361390122 0.4140289463232711
-0.5762130036554577 0.47887896706433897
-0.5620946642217916 0.3978164411380041
-0.5620946642217916 0.3329664203969362
-0.5762130036554577 0.3005414100264023
-0.5903313430891237 0.3491789255822032
-0.5620946642217916 0.446453956693805
-0.477384627619795 0.4140289463232711
-0.5197396459207932 0.3491789255822032
-0.5338579853544594 0.3491789255822032
-0.5479763247881254 0.36539143076747016
-0.5056213064871272 0.3978164411380041
-0.44914794875246283 0.43024145150853804
-0.39267459101779845 0.43024145150853804
-0.4209112698851306 0.36539143076747016
-0.4632662881861289 0.3816039359527371
-0.477384627619795 0.3816039359527371
-0.4632662881861289 0.446453956693805
-0.39267459101779845 0.446453956693805
-0.37855625158413236 0.462666461879072
-0.3644379121504662 0.43024145150853804
-0.37855625158413236 0.3816039359527371
-0.4209112698851306 0.462666461879072
-0.3644379121504662 0.462666461879072
-0.2797278755484697 0.4950914722496059
-0.2373728572474714 0.4950914722496059
-0.2373728572474714 0.47887896706433897
-0.2656095361148036 0.4950914722496059
-0.2656095361148036 0.4950914722496059
-0.22325451781380531 0.5113039774348729
-0.19501783894647312 0.5599414929906739
-0.18089949951280704 0.5113039774348729
-0.16678116007914093 0.5599414929906739
-0.19501783894647312 0.5437289878054069
-0.15266282064547484 0.5599414929906739
-0.11030780234447655 0.6085790085464747
-0.06795278404347828 0.6247915137317417
-0.011479426308813899 0.6734290292875427
-0.025597765742479992 0.6572165241022757
-0.025597765742479992 0.6734290292875427
-0.05383444460981218 0.6734290292875427
0.002638913124852195 0.6572165241022757
0.05911227085951657 0.7220665448433435
0.08734894972684876 0.7544915552138776
0.12970396802784703 0.7382790500286106
0.11558562859418095 0.7544915552138776
0.10146728916051485 0.7058540396580766
0.11558562859418095 0.7544915552138776
0.10146728916051485 0.8841915966960133
0.2144140046298436 0.8679790915107464
0.2285323440635097 0.8031290707696784
0.2144140046298436 0.8031290707696784
0.2002956651961775 0.8031290707696784
0.2144140046298436 0.8841915966960133
0.25676902293084186 0.9652541226223482
0.31324238066550625 0.9490416174370813
0.34147905953283847 0.9166166070665472
0.35559739896650455 0.9004041018812803
0.29912404123184017 0.9328291122518142
0.2850057017981741 0.9652541226223482
0.29912404123184017 0.9652541226223482
0.32736072009917233 0.9976791329928821
0.34147905953283847 0.9490416174370813
0.31324238066550625 0.9490416174370813
0.31324238066550625 0.9328291122518142
0.29912404123184017 0.9490416174370813
0.31324238066550625 0.9814666278076152
0.34147905953283847 0.9976791329928821
0.32736072009917233 0.9976791329928821
0.2850057017981741 0.9490416174370813
0.25676902293084186 0.8841915966960133
0.270887362364508 0.9166166070665472
0.29912404123184017 0.9490416174370813
0.34147905953283847 0.9814666278076152
0.32736072009917233 0.9490416174370813
0.2850057017981741 0.8841915966960133
0.24265068349717578 0.8355540811402123
0.24265068349717578 0.8841915966960133
0.24265068349717578 0.9166166070665472
0.2144140046298436 0.9328291122518142
0.18617732576251142 0.8517665863254794
0.15794064689517923 0.7707040603991445
0.11558562859418095 0.7544915552138776
0.14382230746151314 0.8355540811402123
0.2002956651961775 0.8517665863254794
0.24265068349717578 0.8193415759549454
0.18617732576251142 0.7869165655844115
0.10146728916051485 0.7382790500286106
0.016757252558518287 0.7220665448433435
0.016757252558518287 0.7382790500286106
0.016757252558518287 0.7869165655844115
0.030875591992184384 0.7544915552138776
0.016757252558518287 0.7220665448433435
0.016757252558518287 0.5923665033612078
0.002638913124852195 0.5923665033612078
0.030875591992184384 0.6410040189170088
0.044993931425850474 0.6896415344728096
0.044993931425850474 0.6410040189170088
0.002638913124852195 0.6572165241022757
-0.05383444460981218 0.6085790085464747
-0.16678116007914093 0.5599414929906739
-0.11030780234447655 0.5923665033612078
-0.11030780234447655 0.5761539981759408
-0.08207112347714436 0.5923665033612078
-0.11030780234447655 0.5437289878054069
-0.15266282064547484 0.47887896706433897
-0.18089949951280704 0.446453956693805
-0.16678116007914093 0.5113039774348729
-0.13854448121180873 0.5437289878054069
-0.15266282064547484 0.5113039774348729
-0.15266282064547484 0.446453956693805
-0.18089949951280704 0.3978164411380041
-0.22325451781380531 0.3491789255822032
-0.29384621498213576 0.4140289463232711
-0.2797278755484697 0.462666461879072
-0.2514911966811375 0.3978164411380041
-0.2373728572474714 0.3816039359527371
-0.29384621498213576 0.2681163996558683
-0.29384621498213576 0.31675391521166923
-0.2797278755484697 0.3491789255822032
-0.2373728572474714 0.36539143076747016
-0.2514911966811375 0.31675391521166923
-0.322082893849468 0.3005414100264023
-0.3644379121504662 0.25190389447060135
-0.40679293045146453 0.25190389447060135
-0.4350296093187967 0.3005414100264023
-0.40679293045146453 0.28432890484113527
-0.3644379121504662 0.3005414100264023
-0.39267459101779845 0.2032663789148004
-0.4209112698851306 0.17084136854426646
-0.4915029670534611 0.1546288633589995
-0.4915029670534611 0.2032663789148004
-0.4632662881861289 0.25190389447060135
-0.4350296093187967 0.2032663789148004
-0.4632662881861289 0.13841635817373252
-0.5197396459207932 0.12220385298846555
-0.5338579853544594 0.10599134780319856
-0.5620946642217916 0.12220385298846555
-0.5762130036554577 0.13841635817373252
-0.5762130036554577 0.10599134780319856
-0.6044496825227899 0.041141327062130674
-0.6468047008237882 0.024928821876863697
-0.632686361390122 0.024928821876863697
-0.7032780585584525 0.08977884261793159
-0.6891597191247864 0.10599134780319856
-0.6609230402574542 0.057353832247397644
-0.6468047008237882 0.041141327062130674
-0.6609230402574542 0.008716316691596723
-0.6891597191247864 0.024928821876863697
-0.6891597191247864 0.057353832247397644
-0.7032780585584525 0.07356633743266462
-0.6891597191247864 0.008716316691596723
-0.6891597191247864 -0.0399211988642042
-0.7456330768594508 -0.07234620923473815
-0.7879880951604491 -0.05613370404947118
-0.8162247740277813 0.008716316691596723
-0.7597514162931168 -0.007496188493670251
-0.7173963979921186 0.008716316691596723
-0.6750413796911203 -0.023708693678937225
-0.7456330768594508 -0.0399211988642042
-0.8303431134614473 -0.0399211988642042
-0.8726981317624456 -0.023708693678937225
-0.7879880951604491 -0.007496188493670251
-0.773869755726783 -0.0399211988642042
-0.7597514162931168 -0.05613370404947118
-0.7597514162931168 -0.05613370404947118
-0.8303431134614473 -0.07234620923473815
-0.8303431134614473 -0.05613370404947118
-0.8162247740277813 -0.0399211988642042
-0.7456330768594508 -0.05613370404947118
-0.7879880951604491 -0.023708693678937225
-0.8444614528951134 -0.07234620923473815
-0.8162247740277813 -0.07234620923473815
-0.8162247740277813 -0.0399211988642042
-0.8162247740277813 -0.0399211988642042
-0.8162247740277813 -0.0399211988642042
-0.7879880951604491 -0.12098372479053907
-0.773869755726783 -0.07234620923473815
-0.8162247740277813 -0.0399211988642042
-0.7879880951604491 -0.05613370404947118
-0.7597514162931168 -0.05613370404947118
-0.7315147374257847 -0.0399211988642042
-0.7315147374257847 -0.08855871442000512
-0.7879880951604491 -0.1047712196052721
-0.8021064345941151 -0.07234620923473815
-0.7879880951604491 -0.023708693678937225
-0.7456330768594508 -0.023708693678937225
-0.8162247740277813 -0.023708693678937225
-0.7879880951604491 -0.07234620923473815
-0.8162247740277813 -0.05613370404947118
-0.8585797923287796 -0.0399211988642042
-0.8868164711961117 0.041141327062130674
-0.8303431134614473 0.041141327062130674
-0.773869755726783 0.008716316691596723
-0.7597514162931168 -0.007496188493670251
-0.7315147374257847 0.008716316691596723
-0.7456330768594508 0.07356633743266462
-0.7456330768594508 0.08977884261793159
-0.6750413796911203 0.13841635817373252
-0.6750413796911203 0.07356633743266462
-0.7315147374257847 0.024928821876863697
-0.7597514162931168 0.008716316691596723
-0.7315147374257847 -0.007496188493670251
-0.7456330768594508 0.041141327062130674
-0.7173963979921186 0.024928821876863697
-0.7032780585584525 0.024928821876863697
-0.7315147374257847 -0.05613370404947118
-0.773869755726783 -0.07234620923473815
-0.8021064345941151 -0.07234620923473815
-0.7879880951604491 -0.05613370404947118
-0.7879880951604491 -0.05613370404947118
-0.773869755726783 -0.07234620923473815
-0.7879880951604491 -0.13719622997580605
-0.8162247740277813 -0.153408735161073
-0.8444614528951134 -0.153408735161073
-0.9009348106297778 -0.153408735161073
-0.8585797923287796 -0.13719622997580605
-0.8444614528951134 -0.16962124034634
-0.8303431134614473 -0.20204625071687393
-0.8585797923287796 -0.2344712610874079
-0.8585797923287796 -0.18583374553160698
-0.8868164711961117 -0.13719622997580605
-0.8303431134614473 -0.1047712196052721
-0.8021064345941151 -0.13719622997580605
-0.7879880951604491 -0.16962124034634
-0.8444614528951134 -0.16962124034634
-0.8444614528951134 -0.12098372479053907
-0.8868164711961117 -0.13719622997580605
-0.8585797923287796 -0.05613370404947118
-0.8303431134614473 -0.12098372479053907
-0.8585797923287796 -0.12098372479053907
-0.8868164711961117 -0.153408735161073
-0.9150531500634439 -0.1047712196052721
-0.8868164711961117 -0.05613370404947118
-0.8868164711961117 -0.07234620923473815
-0.8585797923287796 -0.07234620923473815
-0.9150531500634439 -0.153408735161073
-0.9009348106297778 -0.153408735161073
-0.9009348106297778 -0.13719622997580605
-0.9009348106297778 -0.07234620923473815
-0.8585797923287796 -0.0399211988642042
-0.8303431134614473 -0.07234620923473815
-0.8162247740277813 -0.153408735161073
-0.8585797923287796 -0.16962124034634
-0.8726981317624456 -0.1047712196052721
-0.8726981317624456 -0.07234620923473815
-0.8021064345941151 -0.023708693678937225
-0.7879880951604491 -0.023708693678937225
-0.8444614528951134 -0.08855871442000512
-0.8585797923287796 -0.13719622997580605
-0.9009348106297778 -0.1047712196052721
-0.8726981317624456 -0.07234620923473815
-0.8303431134614473 -0.023708693678937225
-0.8303431134614473 -0.05613370404947118
-0.8303431134614473 -0.12098372479053907
-0.8585797923287796 -0.12098372479053907
-0.8868164711961117 -0.1047712196052721
-0.8726981317624456 -0.1047712196052721
-0.8868164711961117 0.008716316691596723
-0.8585797923287796 -0.023708693678937225
-0.7879880951604491 -0.07234620923473815
-0.8444614528951134 -0.153408735161073
-0.8585797923287796 -0.12098372479053907
-0.8444614528951134 -0.05613370404947118
-0.8303431134614473 0.024928821876863697
-0.773869755726783 -0.023708693678937225
-0.773869755726783 -0.023708693678937225
-0.8162247740277813 -0.1047712196052721
-0.8303431134614473 -0.12098372479053907
-0.8162247740277813 -0.0399211988642042
-0.7879880951604491 -0.007496188493670251
-0.8021064345941151 -0.023708693678937225
-0.773869755726783 -0.07234620923473815
-0.7597514162931168 -0.12098372479053907
-0.7879880951604491 -0.08855871442000512
-0.773869755726783 -0.007496188493670251
-0.7173963979921186 0.008716316691596723
-0.6750413796911203 -0.007496188493670251
-0.7173963979921186 -0.023708693678937225
-0.7315147374257847 -0.08855871442000512
-0.773869755726783 -0.1047712196052721
-0.7315147374257847 -0.05613370404947118
-0.6609230402574542 0.041141327062130674
-0.6185680219564559 0.041141327062130674
-0.632686361390122 0.008716316691596723
-0.6891597191247864 -0.12098372479053907
-0.7456330768594508 -0.12098372479053907
-0.8021064345941151 -0.07234620923473815
-0.8868164711961117 -0.1047712196052721
-0.8444614528951134 -0.153408735161073
-0.9150531500634439 -0.21825875590214092
-1.056236544400105 -0.3479587973842767
-1.1268282415684354 -0.4776588388664125
-1.1409465810021013 -0.5100838492369465
-1.1691832598694336 -0.5100838492369465
-1.2680116359050964 -0.6073588803485483
-1.4091950302417573 -0.769483932201218
-1.5080234062774198 -0.9964590047949556
-1.4656683879764216 -1.1910090670181595
-1.522141745711086 -1.369346624056096
-1.6350884611804146 -1.450409149982431
-1.988046947022067 -1.482834160352965
-2.453952148333048 -1.5152591707234988
-3.032804065113358 -1.5314716759087659
-3.498709266424339 -1.5314716759087659
-3.668129339628332 -1.450409149982431
-3.5834193030263357 -1.353134118870829
-3.470472587557007 -1.2072215722034263
-3.38576255095501 -1.0450965203507565
-3.3151708537866797 -0.9153964788686209
-3.2586974960520156 -0.785696437386485
-3.032804065113358 -0.5587213647927474
-2.792792294741034 -0.31553378701374274
-2.552780524368711 -0.05613370404947118
-2.3551237722973855 0.12220385298846555
-2.2562953962617227 0.23569138928533437
-2.129230341358728 0.446453956693805
-1.973928607588401 0.6572165241022757
-1.846863552685406 0.8355540811402123
-1.6915618189150792 0.9976791329928821
-1.6209701217467487 1.0301041433634162
-1.5503784245784182 0.9976791329928821
-1.380958351374425 0.9328291122518142
-1.1833015993030997 0.8517665863254794
-0.9715265077981082 0.7869165655844115
-0.7879880951604491 0.7220665448433435
-0.6891597191247864 0.5761539981759408
-0.632686361390122 0.4950914722496059
-0.5762130036554577 0.3491789255822032
-0.5762130036554577 0.36539143076747016
-0.5056213064871272 0.3816039359527371
-0.5338579853544594 0.3816039359527371
-0.5197396459207932 0.3491789255822032
-0.5338579853544594 0.28432890484113527
-0.5479763247881254 0.23569138928533437
-0.5479763247881254 0.25190389447060135
-0.5338579853544594 0.31675391521166923
-0.477384627619795 0.36539143076747016
-0.4915029670534611 0.3329664203969362
-0.5338579853544594 0.2681163996558683
-0.5620946642217916 0.23569138928533437
-0.5056213064871272 0.23569138928533437
-0.477384627619795 0.3005414100264023
-0.4632662881861289 0.3329664203969362
-0.477384627619795 0.3005414100264023
-0.4915029670534611 0.2681163996558683
-0.5056213064871272 0.21947888410006738
-0.44914794875246283 0.25190389447060135
-0.39267459101779845 0.31675391521166923
-0.35031957271680014 0.3491789255822032
-0.4209112698851306 0.31675391521166923
-0.4209112698851306 0.28432890484113527
-0.4632662881861289 0.25190389447060135
-0.4209112698851306 0.31675391521166923
-0.33620123328313406 0.3491789255822032
-0.3644379121504662 0.3816039359527371
-0.35031957271680014 0.36539143076747016
-0.37855625158413236 0.28432890484113527
-0.3644379121504662 0.25190389447060135
-0.35031957271680014 0.31675391521166923
-0.322082893849468 0.3816039359527371
-0.2656095361148036 0.3978164411380041
-0.2514911966811375 0.3816039359527371
-0.2797278755484697 0.3329664203969362
-0.322082893849468 0.31675391521166923
-0.2514911966811375 0.3491789255822032
-0.22325451781380531 0.36539143076747016
-0.19501783894647312 0.43024145150853804
-0.19501783894647312 0.4140289463232711
-0.2091361783801392 0.4140289463232711
-0.2091361783801392 0.36539143076747016
-0.18089949951280704 0.4140289463232711
-0.13854448121180873 0.446453956693805
-0.11030780234447655 0.462666461879072
-0.08207112347714436 0.462666461879072
-0.09618946291081046 0.43024145150853804
-0.11030780234447655 0.4140289463232711
-0.05383444460981218 0.462666461879072
-0.05383444460981218 0.5113039774348729
-0.025597765742479992 0.52751648262014
-0.011479426308813899 0.52751648262014
-0.025597765742479992 0.52751648262014
-0.011479426308813899 0.5113039774348729
0.016757252558518287 0.52751648262014
0.05911227085951657 0.5599414929906739
0.11558562859418095 0.6085790085464747
0.12970396802784703 0.6572165241022757
0.07323061029318266 0.6572165241022757
0.11558562859418095 0.6247915137317417
0.15794064689517923 0.6410040189170088
0.1720589863288453 0.6734290292875427
0.25676902293084186 0.6572165241022757
0.2285323440635097 0.7220665448433435
0.2144140046298436 0.7058540396580766
0.2285323440635097 0.6734290292875427
0.2285323440635097 0.7058540396580766
0.270887362364508 0.7544915552138776
0.36971573840017063 0.8031290707696784
0.35559739896650455 0.8517665863254794
0.35559739896650455 0.7869165655844115
0.31324238066550625 0.7707040603991445
0.32736072009917233 0.8193415759549454
0.36971573840017063 0.8679790915107464
0.41207075670116894 0.9004041018812803
0.426189096134835 0.8679790915107464
0.36971573840017063 0.8355540811402123
0.3979524172675028 0.8679790915107464
0.3979524172675028 0.9166166070665472
0.3979524172675028 0.9328291122518142
0.46854411443583327 0.9328291122518142
0.46854411443583327 0.9652541226223482
0.4403074355685011 0.9814666278076152
0.4544257750021672 0.9652541226223482
0.4403074355685011 0.9814666278076152
0.5108991327368315 0.9976791329928821
0.5391358116041638 1.0301041433634162
0.5108991327368315 1.013891638178149
0.46854411443583327 1.013891638178149
0.4826624538694994 0.9652541226223482
0.4826624538694994 1.013891638178149
0.4967807933031655 0.9976791329928821
0.5391358116041638 1.046316648548683
0.5250174721704977 1.0301041433634162
0.4826624538694994 1.013891638178149
0.4544257750021672 1.0301041433634162
0.4544257750021672 0.9976791329928821
0.46854411443583327 1.046316648548683
0.4826624538694994 0.9976791329928821
0.46854411443583327 1.0301041433634162
0.4544257750021672 1.013891638178149
0.426189096134835 1.013891638178149
0.3838340778338367 0.9976791329928821
0.41207075670116894 1.0301041433634162
0.426189096134835 0.9976791329928821
0.4403074355685011 0.9814666278076152
0.3838340778338367 0.9652541226223482
0.36971573840017063 0.9652541226223482
0.36971573840017063 1.0301041433634162
0.41207075670116894 1.013891638178149
0.41207075670116894 0.9814666278076152
0.3979524172675028 0.9328291122518142
0.36971573840017063 0.9652541226223482
0.31324238066550625 0.9490416174370813
0.2850057017981741 0.9490416174370813
0.29912404123184017 0.9814666278076152
0.32736072009917233 0.9328291122518142
0.29912404123184017 0.9166166070665472
0.25676902293084186 0.8841915966960133
0.18617732576251142 0.9004041018812803
0.2144140046298436 0.9328291122518142
0.25676902293084186 0.8841915966960133
0.18617732576251142 0.8679790915107464
0.2144140046298436 0.8355540811402123
0.15794064689517923 0.8193415759549454
0.12970396802784703 0.8355540811402123
0.11558562859418095 0.8193415759549454
0.11558562859418095 0.8193415759549454
0.14382230746151314 0.7869165655844115
0.10146728916051485 0.7707040603991445
0.10146728916051485 0.7707040603991445
0.07323061029318266 0.7707040603991445
0.016757252558518287 0.8031290707696784
0.030875591992184384 0.7869165655844115
0.044993931425850474 0.7382790500286106
0.002638913124852195 0.6896415344728096
-0.025597765742479992 0.7058540396580766
-0.025597765742479992 0.7220665448433435
-0.025597765742479992 0.7544915552138776
-0.025597765742479992 0.7707040603991445
-0.011479426308813899 0.7058540396580766
-0.05383444460981218 0.6247915137317417
-0.05383444460981218 0.6085790085464747
-0.09618946291081046 0.6085790085464747
-0.09618946291081046 0.6572165241022757
-0.11030780234447655 0.6734290292875427
-0.08207112347714436 0.6734290292875427
-0.06795278404347828 0.5761539981759408
-0.11030780234447655 0.5761539981759408
-0.15266282064547484 0.5599414929906739
-0.15266282064547484 0.5923665033612078
-0.18089949951280704 0.6247915137317417
-0.15266282064547484 0.6085790085464747
-0.18089949951280704 0.5113039774348729
-0.19501783894647312 0.446453956693805
-0.2514911966811375 0.47887896706433897
-0.2091361783801392 0.5437289878054069
-0.19501783894647312 0.5923665033612078
-0.19501783894647312 0.5437289878054069
-0.2514911966811375 0.47887896706433897
-0.2797278755484697 0.3978164411380041
-0.3079645544158019 0.4140289463232711
-0.3079645544158019 0.446453956693805
-0.2797278755484697 0.4950914722496059
-0.2656095361148036 0.462666461879072
-0.33620123328313406 0.3978164411380041
-0.322082893849468 0.3816039359527371
-0.3644379121504662 0.3491789255822032
-0.39267459101779845 0.3816039359527371
-0.4350296093187967 0.462666461879072
-0.4209112698851306 0.4140289463232711
-0.37855625158413236 0.36539143076747016
-0.4350296093187967 0.3329664203969362
-0.4632662881861289 0.28432890484113527
-0.4350296093187967 0.36539143076747016
-0.477384627619795 0.3816039359527371
-0.40679293045146453 0.3978164411380041
-0.4350296093187967 0.31675391521166923
-0.477384627619795 0.23569138928533437
-0.5197396459207932 0.23569138928533437
-0.5056213064871272 0.25190389447060135
-0.477384627619795 0.3005414100264023
-0.5056213064871272 0.3491789255822032
-0.5479763247881254 0.3005414100264023
-0.5762130036554577 0.2681163996558683
-0.6044496825227899 0.21947888410006738
-0.5903313430891237 0.23569138928533437
-0.5479763247881254 0.3329664203969362
-0.5338579853544594 0.3005414100264023
-0.5903313430891237 0.2681163996558683
-0.632686361390122 0.21947888410006738
-0.6468047008237882 0.18705387372953344
-0.6609230402574542 0.18705387372953344
-0.6185680219564559 0.23569138928533437
-0.5762130036554577 0.28432890484113527
-0.6185680219564559 0.2681163996558683
-0.632686361390122 0.21947888410006738
-0.6468047008237882 0.23569138928533437
-0.6609230402574542 0.18705387372953344
-0.6044496825227899 0.23569138928533437
-0.5762130036554577 0.23569138928533437
-0.5903313430891237 0.25190389447060135
-0.6609230402574542 0.21947888410006738
-0.6750413796911203 0.18705387372953344
-0.6750413796911203 0.2032663789148004
-0.6750413796911203 0.25190389447060135
-0.6609230402574542 0.23569138928533437
-0.6891597191247864 0.2032663789148004
-0.7032780585584525 0.2032663789148004
-0.7456330768594508 0.18705387372953344
-0.7173963979921186 0.2032663789148004
-0.7173963979921186 0.21947888410006738
-0.6891597191247864 0.23569138928533437
-0.7173963979921186 0.2032663789148004
-0.7597514162931168 0.2032663789148004
-0.7456330768594508 0.23569138928533437
-0.7315147374257847 0.23569138928533437
-0.7173963979921186 0.21947888410006738
-0.7032780585584525 0.23569138928533437
-0.7173963979921186 0.2032663789148004
-0.7597514162931168 0.18705387372953344
-0.7456330768594508 0.23569138928533437
-0.7315147374257847 0.25190389447060135
-0.7032780585584525 0.25190389447060135
-0.7032780585584525 0.21947888410006738
-0.7032780585584525 0.18705387372953344
-0.7315147374257847 0.1546288633589995
-0.7597514162931168 0.21947888410006738
-0.7315147374257847 0.25190389447060135
-0.7315147374257847 0.3005414100264023
-0.7315147374257847 0.2681163996558683
-0.7173963979921186 0.2032663789148004
-0.8303431134614473 0.2032663789148004
-0.7879880951604491 0.23569138928533437
-0.7879880951604491 0.31675391521166923
-0.7879880951604491 0.3329664203969362
-0.7315147374257847 0.3329664203969362
-0.7597514162931168 0.25190389447060135
-0.7456330768594508 0.23569138928533437
-0.7032780585584525 0.3329664203969362
-0.6750413796911203 0.31675391521166923
-0.6468047008237882 0.3978164411380041
-0.632686361390122 0.4140289463232711
-0.6185680219564559 0.31675391521166923
-0.632686361390122 0.2681163996558683
-0.6609230402574542 0.3329664203969362
-0.6468047008237882 0.3491789255822032
-0.632686361390122 0.3816039359527371
-0.6185680219564559 0.3005414100264023
-0.7032780585584525 0.25190389447060135
-0.7173963979921186 0.23569138928533437
-0.7597514162931168 0.21947888410006738
-0.8021064345941151 0.25190389447060135
-0.7315147374257847 0.31675391521166923
-0.7456330768594508 0.28432890484113527
-0.773869755726783 0.18705387372953344
-0.8162247740277813 0.1546288633589995
-0.8162247740277813 0.12220385298846555
-0.8021064345941151 0.17084136854426646
-0.8021064345941151 0.21947888410006738
-0.8021064345941151 0.18705387372953344
-0.8162247740277813 0.13841635817373252
-0.8726981317624456 0.08977884261793159
-0.8726981317624456 0.057353832247397644
-0.8303431134614473 0.07356633743266462
-0.8162247740277813 0.2032663789148004
-0.8162247740277813 0.2032663789148004
-0.773869755726783 0.13841635817373252
-0.8303431134614473 0.12220385298846555
-0.8585797923287796 0.12220385298846555
-0.8585797923287796 0.13841635817373252
-0.8021064345941151 0.23569138928533437
-0.8021064345941151 0.23569138928533437
-0.8585797923287796 0.2032663789148004
-0.8726981317624456 0.13841635817373252
-0.9009348106297778 0.13841635817373252
-0.8726981317624456 0.1546288633589995
-0.8444614528951134 0.25190389447060135
-0.8726981317624456 0.28432890484113527
-0.8585797923287796 0.21947888410006738
-0.8726981317624456 0.18705387372953344
-0.8868164711961117 0.1546288633589995
-0.8868164711961117 0.18705387372953344
-0.8868164711961117 0.25190389447060135
-0.8444614528951134 0.2681163996558683
-0.8444614528951134 0.25190389447060135
-0.9009348106297778 0.21947888410006738
-0.9009348106297778 0.2032663789148004
-0.8868164711961117 0.18705387372953344
-0.8303431134614473 0.21947888410006738
-0.8303431134614473 0.21947888410006738
-0.8303431134614473 0.25190389447060135
-0.8726981317624456 0.2032663789148004
-0.8868164711961117 0.18705387372953344
-0.8726981317624456 0.18705387372953344
-0.8726981317624456 0.2681163996558683
-0.8444614528951134 0.25190389447060135
-0.8585797923287796 0.2681163996558683
-0.9150531500634439 0.23569138928533437
-0.9432898289307761 0.2032663789148004
-0.9150531500634439 0.21947888410006738
-0.8868164711961117 0.25190389447060135
-0.8303431134614473 0.21947888410006738
-0.8585797923287796 0.23569138928533437
-0.8726981317624456 0.23569138928533437
-0.9150531500634439 0.21947888410006738
-0.9150531500634439 0.23569138928533437
-0.8585797923287796 0.2681163996558683
-0.8444614528951134 0.25190389447060135
-0.8444614528951134 0.23569138928533437
-0.9009348106297778 0.25190389447060135
-0.9009348106297778 0.21947888410006738
-0.9009348106297778 0.23569138928533437
-0.8444614528951134 0.23569138928533437
-0.8444614528951134 0.2032663789148004
-0.8303431134614473 0.23569138928533437
-0.8726981317624456 0.21947888410006738
-0.9009348106297778 0.21947888410006738
-0.8726981317624456 0.21947888410006738
-0.8585797923287796 0.2681163996558683
-0.8303431134614473 0.21947888410006738
-0.8444614528951134 0.21947888410006738
-0.8444614528951134 0.23569138928533437
-0.8585797923287796 0.23569138928533437
-0.8444614528951134 0.28432890484113527
-0.8585797923287796 0.2681163996558683
-0.773869755726783 0.23569138928533437
-0.8021064345941151 0.21947888410006738
-0.7879880951604491 0.21947888410006738
-0.8162247740277813 0.23569138928533437
-0.8444614528951134 0.25190389447060135
-0.7597514162931168 0.25190389447060135
-0.8021064345941151 0.21947888410006738
-0.9150531500634439 0.13841635817373252
-0.9432898289307761 0.1546288633589995
-0.9997631866654405 0.08977884261793159
-1.0138815260991065 0.08977884261793159
-1.056236544400105 0.057353832247397644
-1.1127099021347693 -0.08855871442000512
-1.1691832598694336 -0.20204625071687393
-1.2538932964714302 -0.3479587973842767
-1.380958351374425 -0.3479587973842767
-1.5503784245784182 -0.4128088181253446
-1.663325140047747 -0.5587213647927474
-1.677443479481413 -0.785696437386485
-1.818626873818074 -1.0450965203507565
-1.959810268154735 -1.2720715929444941
-2.3127687539963873 -1.3044966033150283
-2.693963918705372 -1.353134118870829
-3.188105798883685 -1.3369216136855622
-3.654011000194666 -1.353134118870829
-3.9646144677353203 -1.3855591292413632
-3.9646144677353203 -1.3369216136855622
-3.8375494128323253 -1.2072215722034263
-3.7246026973629967 -1.0288840151654897
-3.5693009635926694 -0.8019089425717519
-3.4139992298223425 -0.6397838907190823
-3.2728158354856816 -0.4776588388664125
-3.0892774228480224 -0.25068376627267486
-2.891620670776697 -0.0399211988642042
-2.6233722215370414 0.21947888410006738
-2.425715469465716 0.462666461879072
-2.2280587173943904 0.6896415344728096
-2.0868753230577295 0.7869165655844115
-1.973928607588401 0.9490416174370813
-1.8892185709864044 1.078741658919217
-1.7621535160834096 1.1760166900308189
-1.6209701217467487 1.2084417004013528
-1.4091950302417573 1.143591679660285
-1.2680116359050964 1.046316648548683
-1.1127099021347693 0.9328291122518142
-0.9574081683644422 0.8679790915107464
-0.8162247740277813 0.8355540811402123
-0.7456330768594508 0.8193415759549454
-0.6750413796911203 0.7382790500286106
-0.6609230402574542 0.6572165241022757
-0.7032780585584525 0.5437289878054069
-0.6609230402574542 0.6247915137317417
-0.6891597191247864 0.6085790085464747
-0.6750413796911203 0.6734290292875427
-0.5903313430891237 0.6410040189170088
-0.6468047008237882 0.5599414929906739
-0.6468047008237882 0.47887896706433897
-0.6609230402574542 0.5437289878054069
-0.632686361390122 0.5599414929906739
-0.6044496825227899 0.6085790085464747
-0.6044496825227899 0.5599414929906739
-0.6185680219564559 0.4950914722496059
-0.6468047008237882 0.5113039774348729
-0.6468047008237882 0.462666461879072
-0.6044496825227899 0.5437289878054069
-0.5620946642217916 0.5923665033612078
-0.5479763247881254 0.5761539981759408
-0.6044496825227899 0.5113039774348729
-0.5903313430891237 0.47887896706433897
-0.5762130036554577 0.462666461879072
-0.5338579853544594 0.52751648262014
-0.5338579853544594 0.5923665033612078
-0.5338579853544594 0.5923665033612078
-0.4915029670534611 0.5113039774348729
-0.5056213064871272 0.462666461879072
-0.5620946642217916 0.47887896706433897
-0.4915029670534611 0.5437289878054069
-0.477384627619795 0.6085790085464747
-0.44914794875246283 0.5923665033612078
-0.4632662881861289 0.5437289878054069
-0.5338579853544594 0.47887896706433897
-0.5338579853544594 0.4950914722496059
-0.44914794875246283 0.5437289878054069
-0.4209112698851306 0.6085790085464747
-0.4209112698851306 0.6085790085464747
-0.4632662881861289 0.5599414929906739
-0.4632662881861289 0.5113039774348729
-0.4632662881861289 0.5113039774348729
-0.44914794875246283 0.5599414929906739
-0.4209112698851306 0.6247915137317417
-0.3644379121504662 0.6247915137317417
-0.35031957271680014 0.5437289878054069
-0.39267459101779845 0.5113039774348729
-0.37855625158413236 0.5599414929906739
-0.33620123328313406 0.6410040189170088
-0.322082893849468 0.6896415344728096
-0.2656095361148036 0.6734290292875427
-0.2797278755484697 0.6247915137317417
-0.35031957271680014 0.6085790085464747
-0.3079645544158019 0.6085790085464747
-0.2656095361148036 0.6734290292875427
-0.2091361783801392 0.7220665448433435
-0.2373728572474714 0.7220665448433435
-0.2091361783801392 0.7058540396580766
-0.2373728572474714 0.6572165241022757
-0.2091361783801392 0.6896415344728096
-0.16678116007914093 0.7544915552138776
-0.18089949951280704 0.8031290707696784
-0.13854448121180873 0.8193415759549454
-0.15266282064547484 0.7544915552138776
-0.15266282064547484 0.7382790500286106
-0.15266282064547484 0.6896415344728096
-0.09618946291081046 0.7869165655844115
-0.05383444460981218 0.8679790915107464
-0.011479426308813899 0.8679790915107464
-0.011479426308813899 0.8031290707696784
0.002638913124852195 0.7869165655844115
0.002638913124852195 0.8031290707696784
0.030875591992184384 0.8355540811402123
0.05911227085951657 0.9490416174370813
0.07323061029318266 0.9328291122518142
0.08734894972684876 0.9328291122518142
0.016757252558518287 0.8679790915107464
0.002638913124852195 0.8517665863254794
0.07323061029318266 0.9166166070665472
0.07323061029318266 0.9976791329928821
0.10146728916051485 0.9976791329928821
0.07323061029318266 0.9652541226223482
0.030875591992184384 0.9004041018812803
0.030875591992184384 0.9004041018812803
0.10146728916051485 0.9814666278076152
0.12970396802784703 1.046316648548683
0.1720589863288453 1.06252915373395
0.15794064689517923 0.9976791329928821
0.12970396802784703 0.9814666278076152
0.12970396802784703 0.9652541226223482
0.15794064689517923 1.013891638178149
0.15794064689517923 1.094954164104484
0.2144140046298436 1.078741658919217
0.2002956651961775 1.046316648548683
0.2002956651961775 0.9976791329928821
0.18617732576251142 0.9976791329928821
0.18617732576251142 1.013891638178149
0.2002956651961775 1.127379174475018
0.18617732576251142 1.046316648548683
0.18617732576251142 1.0301041433634162
0.10146728916051485 0.9652541226223482
0.11558562859418095 0.9328291122518142
0.12970396802784703 0.9976791329928821
0.15794064689517923 1.046316648548683
0.1720589863288453 1.046316648548683
0.10146728916051485 1.013891638178149
0.10146728916051485 0.9976791329928821
0.12970396802784703 0.9166166070665472
0.12970396802784703 0.9490416174370813
0.14382230746151314 1.013891638178149
0.10146728916051485 0.9814666278076152
0.07323061029318266 0.9652541226223482
0.044993931425850474 0.9328291122518142
0.002638913124852195 0.8679790915107464
-0.011479426308813899 0.9004041018812803
0.030875591992184384 0.9814666278076152
0.044993931425850474 0.9490416174370813
0.002638913124852195 0.9166166070665472
-0.025597765742479992 0.8031290707696784
-0.06795278404347828 0.8031290707696784
-0.12442614177814265 0.8355540811402123
-0.11030780234447655 0.9004041018812803
-0.09618946291081046 0.9166166070665472
-0.11030780234447655 0.8355540811402123
-0.13854448121180873 0.7869165655844115
-0.13854448121180873 0.7544915552138776
-0.11030780234447655 0.8031290707696784
-0.11030780234447655 0.8193415759549454
-0.08207112347714436 0.8517665863254794
-0.11030780234447655 0.8031290707696784
-0.16678116007914093 0.7382790500286106
-0.19501783894647312 0.7382790500286106
-0.2091361783801392 0.7382790500286106
-0.18089949951280704 0.7869165655844115
-0.16678116007914093 0.8193415759549454
-0.2091361783801392 0.7869165655844115
-0.19501783894647312 0.7220665448433435
-0.22325451781380531 0.6896415344728096
-0.22325451781380531 0.6734290292875427
-0.2514911966811375 0.7382790500286106
-0.2514911966811375 0.7220665448433435
-0.2514911966811375 0.7220665448433435
-0.3079645544158019 0.6572165241022757
-0.3079645544158019 0.6247915137317417
-0.3079645544158019 0.6410040189170088
-0.29384621498213576 0.6896415344728096
-0.29384621498213576 0.6572165241022757
-0.322082893849468 0.6410040189170088
-0.35031957271680014 0.5923665033612078
-0.39267459101779845 0.5923665033612078
-0.40679293045146453 0.5761539981759408
-0.37855625158413236 0.5761539981759408
-0.37855625158413236 0.5761539981759408
-0.37855625158413236 0.5923665033612078
-0.44914794875246283 0.4950914722496059
-0.477384627619795 0.4950914722496059
-0.44914794875246283 0.446453956693805
-0.4209112698851306 0.5113039774348729
-0.4209112698851306 0.52751648262014
-0.44914794875246283 0.4950914722496059
-0.4915029670534611 0.43024145150853804
-0.4915029670534611 0.3978164411380041
-0.5197396459207932 0.3978164411380041
-0.5197396459207932 0.3978164411380041
-0.5197396459207932 0.3978164411380041
-0.5903313430891237 0.3816039359527371
-0.6044496825227899 0.3491789255822032
-0.632686361390122 0.3491789255822032
-0.6468047008237882 0.31675391521166923
-0.6468047008237882 0.3329664203969362
-0.6750413796911203 0.36539143076747016
-0.7032780585584525 0.3329664203969362
-0.7456330768594508 0.3005414100264023
-0.7456330768594508 0.25190389447060135
-0.7456330768594508 0.25190389447060135
-0.773869755726783 0.3005414100264023
-0.7456330768594508 0.2681163996558683
-0.7879880951604491 0.23569138928533437
-0.8726981317624456 0.21947888410006738
-0.9009348106297778 0.2032663789148004
-0.8868164711961117 0.2032663789148004
-0.8726981317624456 0.21947888410006738
-0.8303431134614473 0.2032663789148004
-0.8303431134614473 0.2032663789148004
-0.8868164711961117 0.1546288633589995
-0.92917148949711 0.13841635817373252
-0.92917148949711 0.18705387372953344
-0.9150531500634439 0.2032663789148004
-0.92917148949711 0.18705387372953344
-0.9574081683644422 0.13841635817373252
-0.9856448472317744 0.12220385298846555
-1.0138815260991065 0.12220385298846555
-0.9856448472317744 0.08977884261793159
-0.9574081683644422 0.12220385298846555
-0.9574081683644422 0.13841635817373252
-0.9574081683644422 0.12220385298846555
-0.9856448472317744 0.07356633743266462
-1.056236544400105 0.057353832247397644
-1.056236544400105 0.08977884261793159
-1.0138815260991065 0.10599134780319856
-0.9997631866654405 0.13841635817373252
-1.0138815260991065 0.08977884261793159
-1.056236544400105 0.07356633743266462
-1.0703548838337709 0.041141327062130674
-1.0138815260991065 0.041141327062130674
-1.0279998655327727 0.08977884261793159
-0.9997631866654405 0.07356633743266462
-1.056236544400105 0.07356633743266462
-1.0985915627011031 0.024928821876863697
-1.056236544400105 0.057353832247397644
-1.0279998655327727 0.041141327062130674
-1.0421182049664388 0.07356633743266462
-1.056236544400105 0.10599134780319856
-1.1127099021347693 0.10599134780319856
-1.084473223267437 0.07356633743266462
-1.084473223267437 0.041141327062130674
-1.0421182049664388 0.08977884261793159
-1.0421182049664388 0.057353832247397644
-1.0279998655327727 0.07356633743266462
-1.0421182049664388 0.024928821876863697
-1.056236544400105 0.024928821876863697
-1.0703548838337709 0.07356633743266462
-1.0703548838337709 0.041141327062130674
-1.0279998655327727 0.057353832247397644
-1.0279998655327727 0.07356633743266462
-1.0703548838337709 0.12220385298846555
-1.1550649204357675 0.07356633743266462
-1.0985915627011031 0.08977884261793159
-1.0421182049664388 0.08977884261793159
-0.9574081683644422 0.13841635817373252
-0.9574081683644422 0.12220385298846555
-0.9997631866654405 0.13841635817373252
-0.9997631866654405 0.1546288633589995
-0.9856448472317744 0.17084136854426646
-0.9432898289307761 0.10599134780319856
-0.9715265077981082 0.1546288633589995
-0.9715265077981082 0.1546288633589995
-1.0138815260991065 0.10599134780319856
-1.0138815260991065 0.10599134780319856
-1.0138815260991065 0.024928821876863697
-0.9574081683644422 0.057353832247397644
-0.9574081683644422 0.057353832247397644
-0.9715265077981082 0.057353832247397644
-1.0138815260991065 0.057353832247397644
-0.9997631866654405 0.041141327062130674
-1.0138815260991065 0.008716316691596723
-1.0279998655327727 0.008716316691596723
-1.0279998655327727 -0.023708693678937225
-0.9997631866654405 -0.05613370404947118
-1.0421182049664388 -0.05613370404947118
-1.0985915627011031 -0.07234620923473815
-1.0985915627011031 -0.12098372479053907
-1.1268282415684354 -0.1047712196052721
-1.1127099021347693 -0.1047712196052721
-1.0703548838337709 -0.08855871442000512
-1.056236544400105 -0.12098372479053907
-1.0985915627011031 -0.1047712196052721
-1.1127099021347693 -0.12098372479053907
-1.0703548838337709 -0.08855871442000512
-1.056236544400105 -0.07234620923473815
-1.0279998655327727 -0.05613370404947118
-1.0421182049664388 -0.05613370404947118
-1.056236544400105 -0.05613370404947118
-1.056236544400105 -0.07234620923473815
-1.0421182049664388 -0.0399211988642042
-1.0985915627011031 -0.0399211988642042
-1.0279998655327727 -0.05613370404947118
-1.056236544400105 -0.08855871442000512
-1.0703548838337709 -0.08855871442000512
-1.0985915627011031 -0.0399211988642042
-1.1268282415684354 -0.023708693678937225
-1.084473223267437 -0.0399211988642042
-1.084473223267437 -0.0399211988642042
-1.056236544400105 -0.05613370404947118
-1.084473223267437 -0.1047712196052721
-1.0985915627011031 -0.0399211988642042
-1.056236544400105 -0.0399211988642042
-1.084473223267437 -0.0399211988642042
-1.0703548838337709 -0.0399211988642042
-1.0421182049664388 -0.0399211988642042
-1.084473223267437 -0.07234620923473815
-1.084473223267437 -0.05613370404947118
-1.1127099021347693 -0.0399211988642042
-1.084473223267437 0.024928821876863697
-1.056236544400105 -0.023708693678937225
-1.056236544400105 -0.07234620923473815
-1.056236544400105 -0.05613370404947118
-1.0421182049664388 -0.08855871442000512
-1.0421182049664388 -0.0399211988642042
-1.0138815260991065 -0.0399211988642042
-0.9856448472317744 -0.023708693678937225
-0.9715265077981082 -0.07234620923473815
-1.0279998655327727 -0.0399211988642042
-1.084473223267437 -0.0399211988642042
-1.056236544400105 -0.007496188493670251
-1.0138815260991065 -0.007496188493670251
-1.0279998655327727 -0.0399211988642042
-1.056236544400105 -0.07234620923473815
-1.0703548838337709 -0.08855871442000512
-1.0985915627011031 -0.0399211988642042
-1.0703548838337709 -0.05613370404947118
-1.0279998655327727 -0.023708693678937225
-0.9997631866654405 -0.05613370404947118
-0.9715265077981082 -0.007496188493670251
-0.9715265077981082 -0.023708693678937225
-0.9856448472317744 -0.07234620923473815
-0.9997631866654405 0.008716316691596723
-0.9715265077981082 -0.023708693678937225
-0.9715265077981082 -0.007496188493670251
-0.9715265077981082 -0.007496188493670251
-0.9997631866654405 -0.0399211988642042
-0.9856448472317744 -0.0399211988642042
-0.9574081683644422 -0.023708693678937225
-0.9574081683644422 -0.007496188493670251
-0.9150531500634439 -0.023708693678937225
-0.8868164711961117 -0.007496188493670251
-0.9009348106297778 -0.023708693678937225
-0.9150531500634439 -0.0399211988642042
-0.9432898289307761 -0.05613370404947118
-1.0138815260991065 -0.023708693678937225
-1.0985915627011031 -0.07234620923473815
-1.1268282415684354 -0.18583374553160698
-1.1974199387367659 -0.21825875590214092
-1.2538932964714302 -0.2831087766432088
-1.3103666542060945 -0.33174629219900975
-1.3527216725070927 -0.4290213233106116
-1.380958351374425 -0.5587213647927474
-1.4656683879764216 -0.6884214062748831
-1.6209701217467487 -0.7532714270159511
-1.7621535160834096 -0.8829714684980868
-1.7480351766497435 -1.0775215307212906
-1.7621535160834096 -1.2882840981297612
-1.9033369104200706 -1.40177163442663
-2.2280587173943904 -1.5638966862792998
-2.6233722215370414 -1.6125342018351008
-3.1316324411490206 -1.5963216966498337
-3.5693009635926694 -1.5152591707234988
-3.809312733964993 -1.434196644797164
-3.7810760550976608 -1.3855591292413632
-3.654011000194666 -1.2720715929444941
-3.5834193030263357 -1.1585840566476253
-3.484590926990673 -0.9316089840538878
-3.357525872087678 -0.7046339114601501
-3.159869120016353 -0.4938713440516795
-2.9622123679450274 -0.33174629219900975
-2.7222005975727037 -0.16962124034634
-2.5104255060677123 0.041141327062130674
-2.3692421117310514 0.2681163996558683
-2.2139403779607245 0.462666461879072
-2.0868753230577295 0.6410040189170088
-1.9174552498537365 0.7869165655844115
-1.846863552685406 0.9004041018812803
-1.7903901949507417 0.9004041018812803
-1.7197984977824112 0.9652541226223482
-1.5503784245784182 0.9004041018812803
-1.3244849936397607 0.8679790915107464
-1.1268282415684354 0.7544915552138776
-0.9715265077981082 0.5923665033612078
-0.8726981317624456 0.47887896706433897
-0.8021064345941151 0.47887896706433897
-0.773869755726783 0.36539143076747016
-0.773869755726783 0.3491789255822032
-0.8162247740277813 0.3005414100264023
-0.7879880951604491 0.2681163996558683
-0.7879880951604491 0.25190389447060135
-0.8162247740277813 0.2681163996558683
-0.773869755726783 0.25190389447060135
-0.7597514162931168 0.23569138928533437
-0.7456330768594508 0.23569138928533437
-0.7315147374257847 0.21947888410006738
-0.7315147374257847 0.21947888410006738
-0.7173963979921186 0.21947888410006738
-0.6750413796911203 0.25190389447060135
-0.632686361390122 0.2681163996558683
-0.6185680219564559 0.21947888410006738
-0.632686361390122 0.23569138928533437
-0.6609230402574542 0.2032663789148004
-0.6750413796911203 0.1546288633589995
-0.6750413796911203 0.18705387372953344
-0.6185680219564559 0.25190389447060135
-0.6044496825227899 0.18705387372953344
-0.6468047008237882 0.18705387372953344
-0.6609230402574542 0.17084136854426646
-0.6750413796911203 0.21947888410006738
-0.632686361390122 0.2032663789148004
-0.5479763247881254 0.25190389447060135
-0.5338579853544594 0.21947888410006738
-0.6044496825227899 0.2032663789148004
-0.6044496825227899 0.2032663789148004
-0.5903313430891237 0.2032663789148004
-0.477384627619795 0.21947888410006738
-0.4350296093187967 0.23569138928533437
-0.4209112698851306 0.28432890484113527
-0.44914794875246283 0.25190389447060135
-0.477384627619795 0.21947888410006738
-0.4915029670534611 0.23569138928533437
-0.477384627619795 0.23569138928533437
-0.44914794875246283 0.23569138928533437
-0.4209112698851306 0.2681163996558683
-0.3644379121504662 0.25190389447060135
-0.4209112698851306 0.25190389447060135
-0.4350296093187967 0.25190389447060135
-0.4209112698851306 0.28432890484113527
-0.35031957271680014 0.25190389447060135
-0.3079645544158019 0.3329664203969362
-0.29384621498213576 0.3005414100264023
-0.322082893849468 0.28432890484113527
-0.29384621498213576 0.3005414100264023
-0.2797278755484697 0.3491789255822032
-0.2373728572474714 0.3816039359527371
-0.2091361783801392 0.3978164411380041
-0.2373728572474714 0.3491789255822032
-0.22325451781380531 0.3329664203969362
-0.2373728572474714 0.3329664203969362
-0.16678116007914093 0.3978164411380041
-0.11030780234447655 0.446453956693805
-0.08207112347714436 0.446453956693805
-0.13854448121180873 0.462666461879072
-0.09618946291081046 0.43024145150853804
-0.05383444460981218 0.4140289463232711
-0.039716105176146085 0.462666461879072
0.002638913124852195 0.5113039774348729
0.030875591992184384 0.5599414929906739
0.05911227085951657 0.5599414929906739
0.05911227085951657 0.52751648262014
0.016757252558518287 0.4950914722496059
0.05911227085951657 0.5923665033612078
0.07323061029318266 0.6085790085464747
0.07323061029318266 0.6410040189170088
0.08734894972684876 0.6085790085464747
0.12970396802784703 0.6085790085464747
0.1720589863288453 0.5923665033612078
0.18617732576251142 0.6085790085464747
0.1720589863288453 0.6734290292875427
0.2002956651961775 0.7544915552138776
0.18617732576251142 0.6896415344728096
0.2144140046298436 0.6896415344728096
0.2144140046298436 0.6734290292875427
0.31324238066550625 0.7220665448433435
0.34147905953283847 0.7707040603991445
0.32736072009917233 0.8031290707696784
0.29912404123184017 0.7869165655844115
0.31324238066550625 0.7220665448433435
0.270887362364508 0.7544915552138776
0.29912404123184017 0.7544915552138776
0.29912404123184017 0.7869165655844115
0.3838340778338367 0.8517665863254794
0.32736072009917233 0.7707040603991445
0.29912404123184017 0.7058540396580766
0.2850057017981741 0.7220665448433435
0.31324238066550625 0.7707040603991445
0.34147905953283847 0.8355540811402123
0.36971573840017063 0.7707040603991445
0.32736072009917233 0.7707040603991445
0.29912404123184017 0.7058540396580766
0.29912404123184017 0.7058540396580766
0.2850057017981741 0.7707040603991445
0.29912404123184017 0.8031290707696784
0.36971573840017063 0.8031290707696784
0.35559739896650455 0.7382790500286106
0.29912404123184017 0.6896415344728096
0.2285323440635097 0.6896415344728096
0.2285323440635097 0.7220665448433435
0.31324238066550625 0.7869165655844115
0.270887362364508 0.7544915552138776
0.2285323440635097 0.6896415344728096
0.1720589863288453 0.6247915137317417
0.1720589863288453 0.6247915137317417
0.1720589863288453 0.7058540396580766
0.18617732576251142 0.7544915552138776
0.12970396802784703 0.7058540396580766
0.11558562859418095 0.6572165241022757
0.08734894972684876 0.5761539981759408
0.07323061029318266 0.5761539981759408
0.10146728916051485 0.6247915137317417
0.14382230746151314 0.6896415344728096
0.14382230746151314 0.6085790085464747
0.044993931425850474 0.5599414929906739
0.002638913124852195 0.47887896706433897
0.002638913124852195 0.5113039774348729
0.030875591992184384 0.5437289878054069
0.044993931425850474 0.5761539981759408
0.016757252558518287 0.5599414929906739
-0.025597765742479992 0.446453956693805
-0.06795278404347828 0.446453956693805
-0.11030780234447655 0.47887896706433897
-0.09618946291081046 0.47887896706433897
-0.05383444460981218 0.5113039774348729
-0.039716105176146085 0.446453956693805
-0.11030780234447655 0.3978164411380041
-0.15266282064547484 0.31675391521166923
-0.12442614177814265 0.3816039359527371
-0.11030780234447655 0.3816039359527371
-0.12442614177814265 0.4140289463232711
-0.13854448121180873 0.3491789255822032
-0.12442614177814265 0.3005414100264023
-0.16678116007914093 0.2681163996558683
-0.18089949951280704 0.28432890484113527
-0.15266282064547484 0.3491789255822032
-0.15266282064547484 0.3329664203969362
-0.18089949951280704 0.2681163996558683
-0.2373728572474714 0.21947888410006738
-0.2797278755484697 0.2032663789148004
-0.2656095361148036 0.23569138928533437
-0.2373728572474714 0.2681163996558683
-0.2373728572474714 0.2681163996558683
-0.2514911966811375 0.21947888410006738
-0.29384621498213576 0.17084136854426646
-0.33620123328313406 0.12220385298846555
-0.40679293045146453 0.18705387372953344
-0.39267459101779845 0.17084136854426646
-0.35031957271680014 0.2032663789148004
-0.322082893849468 0.1546288633589995
-0.3644379121504662 0.07356633743266462
-0.40679293045146453 0.10599134780319856
-0.4209112698851306 0.08977884261793159
-0.4209112698851306 0.12220385298846555
-0.37855625158413236 0.12220385298846555
-0.3644379121504662 0.041141327062130674
-0.39267459101779845 0.024928821876863697
-0.4632662881861289 0.041141327062130674
-0.477384627619795 0.024928821876863697
-0.4915029670534611 0.057353832247397644
-0.4632662881861289 0.07356633743266462
-0.5056213064871272 0.008716316691596723
-0.5479763247881254 -0.023708693678937225
-0.5197396459207932 0.008716316691596723
-0.5479763247881254 0.024928821876863697
-0.5479763247881254 0.041141327062130674
-0.5620946642217916 0.008716316691596723
-0.5620946642217916 -0.0399211988642042
-0.6044496825227899 -0.0399211988642042
-0.6185680219564559 -0.05613370404947118
-0.632686361390122 -0.05613370404947118
-0.632686361390122 -0.0399211988642042
-0.5903313430891237 -0.05613370404947118
-0.6044496825227899 -0.05613370404947118
-0.6468047008237882 -0.08855871442000512
-0.6609230402574542 -0.13719622997580605
-0.7032780585584525 -0.1047712196052721
-0.6468047008237882 -0.05613370404947118
-0.632686361390122 -0.05613370404947118
-0.6185680219564559 -0.1047712196052721
-0.6609230402574542 -0.13719622997580605
-0.7315147374257847 -0.12098372479053907
-0.7315147374257847 -0.0399211988642042
-0.7032780585584525 -0.07234620923473815
-0.6609230402574542 -0.05613370404947118
-0.6891597191247864 -0.12098372479053907
-0.7315147374257847 -0.13719622997580605
-0.7597514162931168 -0.1047712196052721
-0.773869755726783 -0.1047712196052721
-0.7597514162931168 -0.05613370404947118
-0.7173963979921186 -0.07234620923473815
-0.7173963979921186 -0.12098372479053907
-0.7315147374257847 -0.1047712196052721
