-0.09938864793671191 0.4699927334298704
-0.07205532581881129 0.2847462932002612
-0.04472200370091067 -0.08574658725895735
-0.04472200370091067 -0.419190179672254
-0.05838866475986098 -0.1968944513967229
-0.0857219868777616 0.24769700515433932
-0.0857219868777616 0.5811405975676359
-0.0857219868777616 0.4699927334298704
-0.0857219868777616 0.06245056492473005
-0.11305530899566223 -0.08574658725895735
-0.12672197005461253 -0.08574658725895735
-0.15405529217251315 0.0254012768788082
-0.15405529217251315 0.321795581246183
-0.15405529217251315 0.06245056492473005
-0.18138861429041378 -0.1968944513967229
-0.09938864793671191 -0.3450916035804103
-0.07205532581881129 -0.1968944513967229
-0.11305530899566223 0.0994998529706519
-0.0857219868777616 0.35884486929210485
-0.14038863111356284 0.35884486929210485
-0.07205532581881129 -0.011648011167113649
-0.05838866475986098 -0.1968944513967229
-0.04472200370091067 -0.1227958753048792
-0.05838866475986098 0.0254012768788082
-0.0857219868777616 0.2847462932002612
-0.09938864793671191 0.17359842906249562
-0.11305530899566223 -0.08574658725895735
-0.0857219868777616 -0.27099302748856663
-0.05838866475986098 -0.0486972992130355
-0.05838866475986098 0.24769700515433932
-0.05838866475986098 0.6552391736594797
-0.0037220205240597382 0.5070420214757922
0.009944640534890572 0.0994998529706519
-0.0037220205240597382 -0.08574658725895735
-0.01738868158301005 0.0254012768788082
-0.05838866475986098 0.17359842906249562
-0.07205532581881129 0.13654914101657376
-0.07205532581881129 0.13654914101657376
-0.0037220205240597382 -0.1968944513967229
-0.03105534264196036 -0.27099302748856663
-0.01738868158301005 -0.011648011167113649
-0.03105534264196036 0.4329434453839486
-0.0037220205240597382 0.5811405975676359
0.023611301593840884 0.5811405975676359
0.10561126794754275 0.21064771710841745
0.10561126794754275 -0.011648011167113649
0.09194460688859243 0.13654914101657376
0.09194460688859243 0.2847462932002612
0.06461128477069182 0.2847462932002612
0.07827794582964212 0.21064771710841745
0.11927792900649306 -0.0486972992130355
0.11927792900649306 -0.08574658725895735
0.13294459006544337 0.13654914101657376
0.10561126794754275 0.4699927334298704
0.10561126794754275 0.5440913095217141
0.1466112511243937 0.21064771710841745
0.22861121747809554 -0.08574658725895735
0.2832778617138968 -0.08574658725895735
0.33794450594969805 0.24769700515433932
0.3652778280675987 0.4329434453839486
0.4336111333623502 0.4329434453839486
0.4609444554802508 0.06245056492473005
0.5292777607750023 -0.0486972992130355
0.5839444050108036 0.0994998529706519
0.6522777103055551 0.5070420214757922
0.6796110324234558 0.8775349019350108
0.7206110156003067 0.9145841899809326
0.734277676659257 0.6922884617054015
0.7479443377182073 0.5811405975676359
0.7069443545413564 0.6922884617054015
0.6932776934824061 0.9516334780268545
0.6249443881876545 1.1368799182564637
0.5702777439518533 0.8404856138890889
0.5702777439518533 0.5440913095217141
0.6112777271287042 0.3958941573380267
0.5839444050108036 0.4329434453839486
0.556611082892903 0.803436325843167
0.5156110997160521 1.3591756465319949
0.5156110997160521 1.581471374807526
0.5019444386571018 1.2480277823942292
0.5292777607750023 0.7293377497513234
0.4746111165392011 0.17359842906249562
0.3652778280675987 0.13654914101657376
0.3106111838317974 0.2847462932002612
0.20127789536019491 0.35884486929210485
0.13294459006544337 0.3958941573380267
0.09194460688859243 -0.08574658725895735
0.09194460688859243 -0.1968944513967229
0.09194460688859243 -0.1227958753048792
0.10561126794754275 0.2847462932002612
0.023611301593840884 0.7663870377972453
0.037277962652791194 0.7663870377972453
0.05094462371174151 0.5811405975676359
0.11927792900649306 0.06245056492473005
0.10561126794754275 -0.1968944513967229
0.05094462371174151 -0.0486972992130355
0.023611301593840884 0.24769700515433932
-0.0857219868777616 0.35884486929210485
-0.0857219868777616 0.321795581246183
-0.05838866475986098 -0.011648011167113649
0.009944640534890572 -0.15984516335080104
0.037277962652791194 0.13654914101657376
0.023611301593840884 0.5811405975676359
0.009944640534890572 0.6552391736594797
0.037277962652791194 0.5440913095217141
-0.0037220205240597382 0.17359842906249562
-0.01738868158301005 -0.15984516335080104
-0.05838866475986098 -0.1968944513967229
-0.09938864793671191 0.0994998529706519
-0.22238859746726472 0.21064771710841745
-0.3317218859388672 0.13654914101657376
-0.4137218522925691 -0.23394373944264477
-0.591388446058923 -0.38214089162633214
-0.632388429235774 -0.1968944513967229
-0.6050551071178734 0.35884486929210485
-0.4683884965283703 0.7663870377972453
-0.16772195323146347 0.8775349019350108
0.22861121747809554 1.0998306302105418
0.775277659836108 1.322126358486073
1.349277424312021 1.7667178150371352
1.8959438666700335 2.5818021520474157
2.415276986910145 3.1004921846903217
2.975610090327108 3.47098506514954
3.50860987162617 3.359837201011775
3.986943008689431 3.322787912965853
4.396942840457941 3.1745907607821655
4.642942739519046 2.9152457444607127
4.875275977521201 2.137210695496354
4.929942621757003 0.8775349019350108
4.916275960698052 -0.27099302748856663
4.738609366931698 -0.6044366199018633
4.465276145752692 -0.38214089162633214
4.055276313984183 0.4329434453839486
3.3992765831545677 1.1368799182564637
2.579276919617549 1.285077070440151
1.6362773065499776 1.2480277823942292
0.8162776430129589 1.1368799182564637
0.2969445227728471 0.8404856138890889
0.023611301593840884 0.6922884617054015
0.05094462371174151 0.2847462932002612
0.22861121747809554 -0.08574658725895735
0.48827777759815144 -0.27099302748856663
0.4746111165392011 0.0254012768788082
0.4472777944213005 0.4329434453839486
0.3106111838317974 0.6552391736594797
0.20127789536019491 0.5811405975676359
0.023611301593840884 0.21064771710841745
-0.12672197005461253 -0.23394373944264477
-0.2087219364083144 -0.1968944513967229
-0.22238859746726472 0.24769700515433932
-0.2087219364083144 0.6181898856135578
-0.22238859746726472 0.7293377497513234
-0.15405529217251315 0.5070420214757922
-0.14038863111356284 0.24769700515433932
-0.18138861429041378 0.17359842906249562
-0.2087219364083144 0.2847462932002612
-0.26338858064411563 0.5070420214757922
-0.3180552248799169 0.6552391736594797
-0.27705524170306595 0.4329434453839486
-0.23605525852621503 0.17359842906249562
-0.22238859746726472 0.2847462932002612
-0.18138861429041378 0.6552391736594797
-0.15405529217251315 0.9145841899809326
-0.16772195323146347 1.0998306302105418
-0.11305530899566223 0.6922884617054015
-0.18138861429041378 0.2847462932002612
-0.1950552753493641 0.35884486929210485
-0.2087219364083144 0.4699927334298704
-0.1950552753493641 0.7293377497513234
-0.26338858064411563 0.8404856138890889
-0.3043885638209666 0.5440913095217141
-0.24972191958516532 0.4329434453839486
-0.24972191958516532 0.3958941573380267
-0.22238859746726472 0.5440913095217141
-0.22238859746726472 0.9886827660727763
-0.18138861429041378 1.2480277823942292
-0.16772195323146347 0.8404856138890889
-0.15405529217251315 0.5440913095217141
-0.1950552753493641 0.35884486929210485
-0.16772195323146347 0.3958941573380267
-0.16772195323146347 0.6922884617054015
-0.22238859746726472 0.9145841899809326
-0.24972191958516532 0.7663870377972453
-0.22238859746726472 0.5811405975676359
-0.1950552753493641 0.5440913095217141
-0.15405529217251315 0.6922884617054015
-0.18138861429041378 1.0257320541186983
-0.18138861429041378 1.322126358486073
-0.18138861429041378 1.2480277823942292
-0.18138861429041378 0.8775349019350108
-0.16772195323146347 0.4329434453839486
-0.22238859746726472 0.5070420214757922
-0.2087219364083144 0.7293377497513234
-0.26338858064411563 1.1739292063023856
-0.27705524170306595 1.1739292063023856
-0.27705524170306595 0.8775349019350108
-0.22238859746726472 0.5811405975676359
-0.2087219364083144 0.5440913095217141
-0.2087219364083144 0.9516334780268545
-0.23605525852621503 1.285077070440151
-0.1950552753493641 1.3962249345779167
-0.24972191958516532 1.285077070440151
-0.2087219364083144 0.7663870377972453
-0.22238859746726472 0.5811405975676359
-0.26338858064411563 0.6552391736594797
-0.24972191958516532 1.0257320541186983
-0.23605525852621503 0.9516334780268545
-0.23605525852621503 1.06278134216462
-0.18138861429041378 0.9145841899809326
-0.18138861429041378 0.7293377497513234
-0.15405529217251315 1.0257320541186983
-0.14038863111356284 1.3591756465319949
-0.11305530899566223 1.285077070440151
-0.07205532581881129 1.06278134216462
-0.04472200370091067 0.6181898856135578
-0.05838866475986098 0.5440913095217141
-0.0857219868777616 0.803436325843167
-0.11305530899566223 1.0257320541186983
-0.12672197005461253 1.1368799182564637
-0.05838866475986098 0.9886827660727763
-0.03105534264196036 0.6181898856135578
0.06461128477069182 0.5811405975676359
0.07827794582964212 0.6922884617054015
0.09194460688859243 1.06278134216462
0.07827794582964212 1.3591756465319949
0.11927792900649306 1.285077070440151
0.13294459006544337 0.9145841899809326
0.13294459006544337 0.3958941573380267
0.1466112511243937 0.3958941573380267
0.13294459006544337 0.4699927334298704
0.11927792900649306 0.9516334780268545
0.13294459006544337 0.9886827660727763
0.20127789536019491 0.803436325843167
0.25594453959599617 0.4699927334298704
0.22861121747809554 0.5440913095217141
0.25594453959599617 0.7293377497513234
0.24227787853704585 0.9145841899809326
0.24227787853704585 1.0257320541186983
0.22861121747809554 0.7293377497513234
0.1876112343012446 0.24769700515433932
0.1466112511243937 0.17359842906249562
0.1739445732422943 0.35884486929210485
0.11927792900649306 0.5440913095217141
0.11927792900649306 0.7293377497513234
0.1466112511243937 0.6922884617054015
0.160277912183344 0.35884486929210485
0.22861121747809554 0.21064771710841745
0.1876112343012446 0.3958941573380267
0.160277912183344 0.7663870377972453
0.1466112511243937 1.0257320541186983
0.13294459006544337 0.9886827660727763
0.13294459006544337 0.4329434453839486
0.13294459006544337 0.0254012768788082
0.10561126794754275 0.0254012768788082
0.05094462371174151 0.321795581246183
0.05094462371174151 0.5440913095217141
0.06461128477069182 0.7293377497513234
0.05094462371174151 0.5811405975676359
0.09194460688859243 0.321795581246183
0.11927792900649306 0.21064771710841745
0.09194460688859243 0.3958941573380267
0.11927792900649306 0.6181898856135578
0.037277962652791194 0.7663870377972453
0.023611301593840884 0.7293377497513234
0.023611301593840884 0.35884486929210485
0.023611301593840884 -0.15984516335080104
0.023611301593840884 -0.1968944513967229
0.009944640534890572 0.17359842906249562
-0.04472200370091067 0.4699927334298704
-0.0037220205240597382 0.6552391736594797
-0.03105534264196036 0.5070420214757922
-0.01738868158301005 0.321795581246183
-0.04472200370091067 0.13654914101657376
-0.07205532581881129 0.17359842906249562
-0.12672197005461253 0.5070420214757922
-0.12672197005461253 0.5070420214757922
-0.12672197005461253 0.321795581246183
-0.11305530899566223 -0.0486972992130355
-0.16772195323146347 -0.011648011167113649
-0.16772195323146347 0.24769700515433932
-0.12672197005461253 0.5070420214757922
-0.1950552753493641 0.6181898856135578
-0.0857219868777616 0.321795581246183
-0.07205532581881129 0.13654914101657376
-0.0857219868777616 0.21064771710841745
-0.0857219868777616 0.35884486929210485
-0.14038863111356284 0.5070420214757922
-0.16772195323146347 0.4329434453839486
-0.16772195323146347 0.0994998529706519
-0.18138861429041378 -0.27099302748856663
-0.16772195323146347 -0.27099302748856663
-0.18138861429041378 0.17359842906249562
-0.15405529217251315 0.4329434453839486
-0.15405529217251315 0.5440913095217141
-0.07205532581881129 0.4329434453839486
-0.05838866475986098 0.2847462932002612
-0.07205532581881129 0.0994998529706519
-0.0857219868777616 0.06245056492473005
-0.07205532581881129 0.321795581246183
-0.09938864793671191 0.5440913095217141
-0.14038863111356284 0.3958941573380267
-0.11305530899566223 -0.0486972992130355
-0.11305530899566223 -0.30804231553448846
-0.15405529217251315 -0.1227958753048792
-0.07205532581881129 0.21064771710841745
-0.07205532581881129 0.5811405975676359
-0.05838866475986098 0.4699927334298704
-0.04472200370091067 0.2847462932002612
-0.0037220205240597382 -0.0486972992130355
-0.07205532581881129 -0.08574658725895735
-0.04472200370091067 0.17359842906249562
-0.0857219868777616 0.321795581246183
-0.05838866475986098 0.13654914101657376
-0.01738868158301005 -0.23394373944264477
-0.04472200370091067 -0.27099302748856663
-0.05838866475986098 -0.15984516335080104
-0.05838866475986098 0.21064771710841745
-0.07205532581881129 0.5070420214757922
-0.04472200370091067 0.5440913095217141
0.023611301593840884 0.3958941573380267
0.009944640534890572 0.06245056492473005
0.06461128477069182 -0.08574658725895735
0.037277962652791194 0.13654914101657376
0.009944640534890572 0.24769700515433932
0.009944640534890572 0.4699927334298704
0.07827794582964212 0.2847462932002612
0.07827794582964212 -0.1227958753048792
0.11927792900649306 -0.27099302748856663
0.09194460688859243 0.0994998529706519
0.1739445732422943 0.4329434453839486
0.24227787853704585 0.6181898856135578
0.2832778617138968 0.4699927334298704
0.378944489126549 0.06245056492473005
0.40627781124444956 0.0254012768788082
0.4472777944213005 0.17359842906249562
0.4336111333623502 0.4699927334298704
0.4472777944213005 0.4699927334298704
0.48827777759815144 0.35884486929210485
0.4746111165392011 0.21064771710841745
0.5019444386571018 0.0994998529706519
0.5429444218339526 0.2847462932002612
0.5702777439518533 0.8404856138890889
0.556611082892903 1.285077070440151
0.5839444050108036 1.285077070440151
0.5702777439518533 0.803436325843167
0.5839444050108036 0.35884486929210485
0.5156110997160521 0.4329434453839486
0.4472777944213005 0.6552391736594797
0.378944489126549 0.803436325843167
0.32427784489074774 0.6552391736594797
0.35161116700864836 0.5440913095217141
0.35161116700864836 0.35884486929210485
0.35161116700864836 0.4329434453839486
0.2832778617138968 0.7293377497513234
0.22861121747809554 0.7663870377972453
0.22861121747809554 0.5070420214757922
0.160277912183344 0.21064771710841745
0.10561126794754275 -0.08574658725895735
0.009944640534890572 0.06245056492473005
-0.0857219868777616 0.0994998529706519
-0.14038863111356284 0.0254012768788082
-0.16772195323146347 -0.0486972992130355
-0.16772195323146347 -0.419190179672254
-0.1950552753493641 -0.1227958753048792
-0.18138861429041378 0.17359842906249562
-0.2087219364083144 0.5811405975676359
-0.1950552753493641 0.4699927334298704
-0.18138861429041378 0.2847462932002612
-0.11305530899566223 -0.15984516335080104
-0.15405529217251315 -0.27099302748856663
-0.16772195323146347 -0.011648011167113649
-0.2087219364083144 0.21064771710841745
-0.22238859746726472 0.321795581246183
-0.22238859746726472 0.06245056492473005
-0.23605525852621503 -0.30804231553448846
-0.2087219364083144 -0.419190179672254
-0.22238859746726472 -0.08574658725895735
-0.22238859746726472 0.2847462932002612
-0.22238859746726472 0.4329434453839486
-0.22238859746726472 0.21064771710841745
-0.29072190276201626 -0.011648011167113649
-0.4273885133515194 -0.30804231553448846
-0.6050551071178734 -0.15984516335080104
-0.7827217008842274 -0.15984516335080104
-0.8920549893558299 -0.011648011167113649
-0.8647216672379293 -0.15984516335080104
-0.6870550734715752 -0.419190179672254
-0.5367218018231219 -0.1968944513967229
-0.07205532581881129 0.4699927334298704
0.378944489126549 1.322126358486073
0.993944236779313 2.137210695496354
1.5406106791373253 2.6929500161851814
2.1146104436132385 2.5818021520474157
2.63394356385335 2.5077035759555724
3.0849433787987106 2.767048592277025
3.5222765326851206 3.1375414727362436
3.8776097202178286 3.4339357771036183
4.219276246691586 3.3968864890576964
4.478942806811642 2.5447528640014943
4.601942756342195 1.544422086761604
4.683942722695897 0.4329434453839486
4.615609417401146 -0.08574658725895735
4.519942789988493 -0.23394373944264477
4.36960951834004 0.0254012768788082
4.150942941396835 0.24769700515433932
3.768276431746226 0.5811405975676359
3.2216099893882135 1.1368799182564637
2.319610359497493 1.544422086761604
1.4312773906657228 1.581471374807526
0.6386110492466048 1.322126358486073
0.13294459006544337 0.35884486929210485
-0.14038863111356284 -0.5673873318559414
-0.14038863111356284 -1.0119787884070037
-0.03105534264196036 -0.93788021231516
0.11927792900649306 -0.3450916035804103
0.22861121747809554 0.0254012768788082
0.22861121747809554 0.06245056492473005
0.1466112511243937 -0.1968944513967229
-0.0037220205240597382 -0.38214089162633214
-0.16772195323146347 -0.38214089162633214
-0.3180552248799169 -0.27099302748856663
-0.4410551744104697 0.06245056492473005
-0.5093884797052213 -0.011648011167113649
-0.5367218018231219 -0.3450916035804103
-0.4957218186462709 -0.5673873318559414
-0.45472183546941997 -0.38214089162633214
-0.4820551575873206 0.06245056492473005
-0.5503884628820722 0.35884486929210485
-0.5777217849999728 0.17359842906249562
-0.5640551239410225 -0.0486972992130355
-0.5367218018231219 -0.1968944513967229
-0.5367218018231219 -0.1968944513967229
-0.5640551239410225 -0.011648011167113649
-0.5503884628820722 0.13654914101657376
-0.5230551407641716 -0.08574658725895735
-0.5230551407641716 -0.38214089162633214
-0.5777217849999728 -0.38214089162633214
-0.5503884628820722 0.13654914101657376
-0.5640551239410225 0.21064771710841745
-0.5230551407641716 0.321795581246183
-0.5093884797052213 -0.011648011167113649
-0.4957218186462709 -0.30804231553448846
-0.5230551407641716 -0.30804231553448846
-0.5503884628820722 -0.15984516335080104
-0.6187217681768237 0.17359842906249562
-0.591388446058923 0.17359842906249562
-0.5640551239410225 -0.0486972992130355
-0.5367218018231219 -0.38214089162633214
-0.6050551071178734 -0.45623946771817586
-0.5367218018231219 -0.15984516335080104
-0.5503884628820722 0.35884486929210485
-0.5503884628820722 0.5811405975676359
-0.5093884797052213 0.35884486929210485
-0.5640551239410225 -0.08574658725895735
-0.5230551407641716 -0.1227958753048792
-0.5367218018231219 -0.08574658725895735
-0.6050551071178734 0.13654914101657376
-0.6597217513536746 0.321795581246183
-0.6050551071178734 0.06245056492473005
-0.5777217849999728 -0.1227958753048792
-0.5503884628820722 -0.419190179672254
-0.5777217849999728 -0.08574658725895735
-0.5503884628820722 0.2847462932002612
-0.5503884628820722 0.6922884617054015
-0.5367218018231219 0.5070420214757922
-0.5093884797052213 0.17359842906249562
-0.4820551575873206 0.0254012768788082
-0.5093884797052213 -0.1227958753048792
-0.5367218018231219 0.0254012768788082
-0.591388446058923 0.321795581246183
-0.6050551071178734 0.4329434453839486
-0.6187217681768237 0.21064771710841745
-0.5367218018231219 -0.011648011167113649
-0.5503884628820722 -0.08574658725895735
-0.5230551407641716 0.2847462932002612
-0.4820551575873206 0.6181898856135578
-0.45472183546941997 0.6922884617054015
-0.4683884965283703 0.35884486929210485
-0.45472183546941997 0.06245056492473005
-0.4683884965283703 -0.08574658725895735
-0.4957218186462709 0.0254012768788082
-0.5367218018231219 0.3958941573380267
-0.5367218018231219 0.4329434453839486
-0.4957218186462709 0.21064771710841745
-0.4820551575873206 -0.011648011167113649
-0.45472183546941997 -0.08574658725895735
-0.38638853017466845 0.13654914101657376
-0.4137218522925691 0.4329434453839486
-0.40005519123361877 0.5070420214757922
-0.38638853017466845 0.2847462932002612
-0.38638853017466845 -0.15984516335080104
-0.38638853017466845 -0.27099302748856663
-0.3590552080567678 -0.23394373944264477
-0.40005519123361877 0.13654914101657376
-0.3590552080567678 0.21064771710841745
-0.3043885638209666 -0.011648011167113649
-0.22238859746726472 -0.15984516335080104
-0.16772195323146347 -0.23394373944264477
-0.18138861429041378 0.0254012768788082
-0.15405529217251315 0.321795581246183
-0.16772195323146347 0.24769700515433932
-0.11305530899566223 -0.08574658725895735
-0.11305530899566223 -0.419190179672254
-0.14038863111356284 -0.1968944513967229
-0.16772195323146347 -0.08574658725895735
-0.24972191958516532 -0.011648011167113649
-0.22238859746726472 -0.38214089162633214
-0.18138861429041378 -0.5303380438100196
-0.1950552753493641 -0.45623946771817586
-0.18138861429041378 -0.08574658725895735
-0.11305530899566223 0.17359842906249562
-0.0857219868777616 0.21064771710841745
-0.07205532581881129 -0.15984516335080104
-0.0857219868777616 -0.4932887557640977
-0.14038863111356284 -0.45623946771817586
-0.2087219364083144 -0.3450916035804103
-0.26338858064411563 -0.0486972992130355
-0.23605525852621503 -0.23394373944264477
-0.22238859746726472 -0.5673873318559414
-0.15405529217251315 -0.7526337720855507
-0.18138861429041378 -0.7155844840396288
-0.23605525852621503 -0.23394373944264477
-0.23605525852621503 -0.011648011167113649
-0.22238859746726472 -0.1227958753048792
-0.2087219364083144 -0.27099302748856663
-0.15405529217251315 -0.5303380438100196
-0.15405529217251315 -0.6044366199018633
-0.22238859746726472 -0.38214089162633214
-0.24972191958516532 -0.1227958753048792
-0.27705524170306595 -0.38214089162633214
-0.26338858064411563 -0.6044366199018633
-0.24972191958516532 -0.8637816362233163
-0.26338858064411563 -0.7526337720855507
-0.27705524170306595 -0.419190179672254
-0.3043885638209666 -0.011648011167113649
-0.3043885638209666 0.06245056492473005
-0.27705524170306595 -0.38214089162633214
-0.24972191958516532 -0.7896830601314725
-0.3043885638209666 -0.8267323481773944
-0.3453885469978175 -0.6414859079477852
-0.38638853017466845 -0.38214089162633214
-0.40005519123361877 -0.27099302748856663
-0.4273885133515194 -0.45623946771817586
-0.4273885133515194 -0.7155844840396288
-0.45472183546941997 -0.8267323481773944
-0.45472183546941997 -0.7155844840396288
-0.4137218522925691 -0.27099302748856663
-0.4137218522925691 -0.08574658725895735
-0.4273885133515194 -0.23394373944264477
-0.40005519123361877 -0.7155844840396288
-0.4273885133515194 -0.8267323481773944
-0.4683884965283703 -0.7896830601314725
-0.5093884797052213 -0.4932887557640977
-0.4957218186462709 -0.45623946771817586
-0.5093884797052213 -0.6414859079477852
-0.4683884965283703 -0.93788021231516
-0.45472183546941997 -1.0119787884070037
-0.4683884965283703 -0.7896830601314725
-0.4410551744104697 -0.38214089162633214
-0.4683884965283703 -0.0486972992130355
-0.40005519123361877 -0.3450916035804103
-0.40005519123361877 -0.5673873318559414
-0.37272186911571814 -0.900830924269238
-0.40005519123361877 -0.900830924269238
-0.4683884965283703 -0.6044366199018633
-0.45472183546941997 -0.38214089162633214
-0.4410551744104697 -0.6414859079477852
-0.40005519123361877 -0.8267323481773944
-0.38638853017466845 -0.9749295003610817
-0.38638853017466845 -0.6414859079477852
-0.3453885469978175 -0.3450916035804103
-0.3453885469978175 -0.23394373944264477
-0.27705524170306595 -0.4932887557640977
-0.3180552248799169 -0.7526337720855507
-0.37272186911571814 -0.6785351959937069
-0.38638853017466845 -0.6785351959937069
-0.37272186911571814 -0.45623946771817586
-0.38638853017466845 -0.6414859079477852
-0.38638853017466845 -0.8637816362233163
-0.3590552080567678 -0.9749295003610817
-0.37272186911571814 -0.7896830601314725
-0.3590552080567678 -0.38214089162633214
-0.3590552080567678 -0.08574658725895735
-0.27705524170306595 -0.38214089162633214
-0.27705524170306595 -0.6414859079477852
-0.23605525852621503 -0.8637816362233163
-0.27705524170306595 -0.7896830601314725
-0.3043885638209666 -0.5673873318559414
-0.3317218859388672 -0.3450916035804103
-0.3317218859388672 -0.419190179672254
-0.26338858064411563 -0.8267323481773944
-0.24972191958516532 -1.160175940590691
-0.26338858064411563 -1.197225228636613
-0.23605525852621503 -0.7155844840396288
-0.23605525852621503 -0.30804231553448846
-0.18138861429041378 -0.27099302748856663
-0.12672197005461253 -0.45623946771817586
-0.07205532581881129 -0.7526337720855507
-0.01738868158301005 -0.7896830601314725
-0.01738868158301005 -0.419190179672254
0.05094462371174151 -0.419190179672254
0.07827794582964212 -0.6044366199018633
0.10561126794754275 -0.93788021231516
0.1466112511243937 -1.0490280764529254
0.22861121747809554 -0.7896830601314725
0.21494455641914523 -0.1968944513967229
0.2832778617138968 0.13654914101657376
0.2696112006549465 0.0254012768788082
0.3106111838317974 -0.30804231553448846
0.2969445227728471 -0.5303380438100196
0.2696112006549465 -0.45623946771817586
0.25594453959599617 -0.23394373944264477
0.22861121747809554 -0.08574658725895735
0.1739445732422943 -0.011648011167113649
0.1466112511243937 -0.4932887557640977
0.1876112343012446 -0.6785351959937069
0.11927792900649306 -0.6414859079477852
0.13294459006544337 -0.27099302748856663
0.09194460688859243 0.13654914101657376
0.10561126794754275 0.13654914101657376
0.11927792900649306 -0.15984516335080104
0.037277962652791194 -0.6785351959937069
-0.0037220205240597382 -0.9749295003610817
-0.09938864793671191 -0.8267323481773944
-0.23605525852621503 -0.6414859079477852
-0.3453885469978175 -0.7526337720855507
-0.37272186911571814 -0.8267323481773944
-0.3590552080567678 -1.160175940590691
-0.3453885469978175 -1.2342745166825346
-0.3453885469978175 -0.9749295003610817
-0.3453885469978175 -0.5303380438100196
-0.38638853017466845 -0.23394373944264477
-0.38638853017466845 -0.5303380438100196
-0.38638853017466845 -0.8637816362233163
-0.37272186911571814 -1.1231266525447692
-0.38638853017466845 -0.9749295003610817
-0.4820551575873206 -0.8637816362233163
-0.5230551407641716 -0.6414859079477852
-0.4820551575873206 -0.93788021231516
-0.4683884965283703 -1.3083730927743784
-0.4410551744104697 -1.2713238047284565
-0.45472183546941997 -0.8637816362233163
-0.45472183546941997 -0.5673873318559414
-0.4137218522925691 -0.419190179672254
-0.4683884965283703 -0.7155844840396288
-0.4410551744104697 -1.0119787884070037
-0.5503884628820722 -1.0490280764529254
-0.6597217513536746 -0.7896830601314725
-0.7963883619431777 -0.7526337720855507
-0.9467216335916312 -1.0119787884070037
-1.0560549220632336 -1.3824716688662222
-1.1243882273579853 -1.4936195330039876
-1.0833882441811342 -1.0490280764529254
-0.8783883282968796 -0.419190179672254
-0.5503884628820722 0.321795581246183
-0.05838866475986098 0.5811405975676359
0.4746111165392011 0.5440913095217141
1.0622775420740644 0.7293377497513234
1.567944001255226 1.0257320541186983
2.0189438162005864 1.581471374807526
2.442610309028046 2.137210695496354
2.879943462914456 2.3965557118178067
3.371943261036667 2.285407847680041
3.8229430759820273 1.803767103083057
4.178276263514736 1.5073727987156822
4.4516094846937415 1.3962249345779167
4.588276095283245 1.0998306302105418
4.629276078460095 0.4699927334298704
4.5746094342242944 -0.30804231553448846
4.465276145752692 -1.160175940590691
4.287609551986338 -1.2342745166825346
4.000609669748381 -0.6785351959937069
3.549609854803021 0.24769700515433932
2.852610140796555 1.0257320541186983
1.9916104940826855 0.9886827660727763
1.0622775420740644 0.4329434453839486
0.3106111838317974 -0.38214089162633214
-0.14038863111356284 -1.0490280764529254
-0.3317218859388672 -1.197225228636613
-0.3317218859388672 -1.0490280764529254
-0.16772195323146347 -1.2713238047284565
0.009944640534890572 -1.2713238047284565
0.13294459006544337 -1.4565702449580658
0.037277962652791194 -1.3083730927743784
-0.07205532581881129 -1.2342745166825346
-0.24972191958516532 -0.8637816362233163
-0.4137218522925691 -0.7155844840396288
-0.5503884628820722 -0.900830924269238
-0.6050551071178734 -1.2713238047284565
-0.6187217681768237 -1.2713238047284565
-0.6597217513536746 -1.3454223808203003
-0.6870550734715752 -0.900830924269238
-0.6597217513536746 -0.6785351959937069
-0.6460550902947243 -0.6785351959937069
-0.6733884124126249 -1.197225228636613
-0.6733884124126249 -1.3454223808203003
-0.7007217345305256 -1.3824716688662222
-0.7690550398252771 -0.93788021231516
-0.7963883619431777 -0.7526337720855507
-0.7963883619431777 -0.8267323481773944
-0.7417217177073765 -1.0490280764529254
-0.6597217513536746 -1.0490280764529254
-0.6597217513536746 -1.0119787884070037
-0.6870550734715752 -0.6785351959937069
-0.7007217345305256 -0.30804231553448846
-0.7280550566484262 -0.45623946771817586
-0.7007217345305256 -0.7896830601314725
-0.7553883787663268 -1.197225228636613
-0.7827217008842274 -1.3083730927743784
-0.7963883619431777 -1.1231266525447692
-0.8100550230021281 -0.8267323481773944
-0.7963883619431777 -0.8267323481773944
-0.8100550230021281 -0.8637816362233163
-0.7417217177073765 -1.0490280764529254
-0.7690550398252771 -0.9749295003610817
-0.8100550230021281 -0.7155844840396288
-0.7007217345305256 -0.3450916035804103
-0.7417217177073765 -0.419190179672254
-0.7280550566484262 -0.6785351959937069
-0.7417217177073765 -0.7896830601314725
-0.7690550398252771 -0.8267323481773944
-0.7963883619431777 -0.6414859079477852
-0.8100550230021281 -0.3450916035804103
-0.7827217008842274 -0.6044366199018633
-0.7417217177073765 -0.8637816362233163
-0.7280550566484262 -0.6785351959937069
-0.7280550566484262 -0.5673873318559414
-0.7280550566484262 -0.08574658725895735
-0.7143883955894759 -0.08574658725895735
-0.6870550734715752 -0.4932887557640977
-0.7007217345305256 -0.7526337720855507
-0.7143883955894759 -0.8637816362233163
-0.7417217177073765 -0.5673873318559414
-0.7827217008842274 -0.419190179672254
-0.8100550230021281 -0.3450916035804103
-0.8373883451200287 -0.5673873318559414
-0.7963883619431777 -0.7896830601314725
-0.7690550398252771 -0.6785351959937069
-0.7143883955894759 -0.3450916035804103
-0.7143883955894759 0.0254012768788082
-0.7007217345305256 0.17359842906249562
-0.6460550902947243 -0.1227958753048792
-0.6187217681768237 -0.5673873318559414
-0.7007217345305256 -0.6414859079477852
-0.7143883955894759 -0.45623946771817586
-0.7280550566484262 -0.1968944513967229
-0.7280550566484262 -0.1968944513967229
-0.7007217345305256 -0.419190179672254
-0.6733884124126249 -0.6785351959937069
-0.6187217681768237 -0.5303380438100196
-0.6460550902947243 -0.15984516335080104
-0.6187217681768237 0.06245056492473005
-0.6050551071178734 0.0994998529706519
-0.5640551239410225 -0.27099302748856663
-0.5367218018231219 -0.8267323481773944
-0.5367218018231219 -0.900830924269238
-0.5777217849999728 -0.5303380438100196
-0.6050551071178734 -0.15984516335080104
-0.6050551071178734 -0.08574658725895735
-0.5777217849999728 -0.38214089162633214
-0.5640551239410225 -0.7526337720855507
-0.45472183546941997 -0.7896830601314725
-0.4273885133515194 -0.6785351959937069
-0.4137218522925691 -0.1968944513967229
-0.37272186911571814 -0.0486972992130355
-0.37272186911571814 -0.1968944513967229
-0.3317218859388672 -0.5673873318559414
-0.3453885469978175 -0.8637816362233163
-0.40005519123361877 -0.900830924269238
-0.40005519123361877 -0.5673873318559414
-0.4273885133515194 -0.4932887557640977
-0.37272186911571814 -0.45623946771817586
-0.3180552248799169 -0.7896830601314725
-0.29072190276201626 -0.8637816362233163
-0.27705524170306595 -0.7896830601314725
-0.29072190276201626 -0.38214089162633214
-0.27705524170306595 -0.27099302748856663
-0.29072190276201626 -0.23394373944264477
-0.3180552248799169 -0.6785351959937069
-0.3180552248799169 -1.1231266525447692
-0.3453885469978175 -1.0860773644988473
-0.3317218859388672 -0.7526337720855507
-0.3590552080567678 -0.5303380438100196
-0.3453885469978175 -0.4932887557640977
-0.3317218859388672 -0.7526337720855507
-0.29072190276201626 -1.0490280764529254
-0.3043885638209666 -1.0490280764529254
-0.3043885638209666 -0.7155844840396288
-0.3043885638209666 -0.27099302748856663
-0.3180552248799169 -0.38214089162633214
-0.27705524170306595 -0.6414859079477852
-0.3317218859388672 -1.0490280764529254
-0.3180552248799169 -1.0860773644988473
-0.3590552080567678 -0.93788021231516
-0.40005519123361877 -0.6785351959937069
-0.40005519123361877 -0.7896830601314725
-0.38638853017466845 -0.900830924269238
-0.3590552080567678 -1.0119787884070037
-0.3453885469978175 -0.7896830601314725
-0.3453885469978175 -0.4932887557640977
-0.37272186911571814 -0.3450916035804103
-0.3590552080567678 -0.5673873318559414
-0.3317218859388672 -0.93788021231516
-0.38638853017466845 -1.2342745166825346
-0.4273885133515194 -1.160175940590691
-0.4820551575873206 -0.7896830601314725
-0.5367218018231219 -0.5303380438100196
-0.5367218018231219 -0.7155844840396288
-0.4957218186462709 -1.1231266525447692
-0.5230551407641716 -1.3083730927743784
-0.5503884628820722 -1.197225228636613
-0.5640551239410225 -0.8267323481773944
-0.5777217849999728 -0.5303380438100196
-0.6187217681768237 -0.38214089162633214
-0.5640551239410225 -0.8267323481773944
-0.632388429235774 -1.2342745166825346
-0.6187217681768237 -1.5306688210499095
-0.6187217681768237 -1.3454223808203003
-0.6597217513536746 -1.160175940590691
-0.6597217513536746 -0.8637816362233163
-0.6187217681768237 -0.900830924269238
-0.591388446058923 -1.2713238047284565
-0.5503884628820722 -1.2713238047284565
-0.5777217849999728 -1.160175940590691
-0.5640551239410225 -0.7526337720855507
-0.591388446058923 -0.5673873318559414
-0.5503884628820722 -0.7526337720855507
-0.5503884628820722 -1.160175940590691
-0.5777217849999728 -1.4565702449580658
-0.5777217849999728 -1.641816685187675
-0.6050551071178734 -1.2342745166825346
-0.6187217681768237 -0.7896830601314725
-0.6187217681768237 -0.7526337720855507
-0.5503884628820722 -0.93788021231516
-0.5367218018231219 -1.197225228636613
-0.5093884797052213 -1.197225228636613
-0.4957218186462709 -0.8637816362233163
-0.5367218018231219 -0.6414859079477852
-0.5230551407641716 -0.6414859079477852
-0.5093884797052213 -0.93788021231516
-0.5367218018231219 -1.3083730927743784
-0.5230551407641716 -1.4936195330039876
-0.5503884628820722 -1.2713238047284565
-0.5503884628820722 -0.900830924269238
-0.6050551071178734 -0.900830924269238
-0.4957218186462709 -0.93788021231516
-0.4820551575873206 -1.2713238047284565
-0.4410551744104697 -1.3083730927743784
-0.4410551744104697 -1.0490280764529254
-0.4410551744104697 -0.8267323481773944
-0.45472183546941997 -0.6414859079477852
-0.4820551575873206 -0.900830924269238
-0.4683884965283703 -1.2713238047284565
-0.45472183546941997 -1.4936195330039876
-0.5230551407641716 -1.3083730927743784
-0.4820551575873206 -1.0119787884070037
-0.4957218186462709 -0.8637816362233163
-0.4683884965283703 -0.93788021231516
-0.38638853017466845 -1.2713238047284565
-0.3180552248799169 -1.2713238047284565
-0.3317218859388672 -1.0119787884070037
-0.3453885469978175 -0.8267323481773944
-0.3317218859388672 -0.7155844840396288
-0.3590552080567678 -0.93788021231516
-0.3453885469978175 -1.3454223808203003
-0.3043885638209666 -1.4936195330039876
-0.3317218859388672 -1.3083730927743784
-0.3043885638209666 -1.0860773644988473
-0.24972191958516532 -1.0490280764529254
-0.18138861429041378 -1.1231266525447692
-0.11305530899566223 -1.160175940590691
-0.01738868158301005 -0.8637816362233163
0.037277962652791194 -0.4932887557640977
0.09194460688859243 -0.4932887557640977
0.1466112511243937 -0.8267323481773944
0.20127789536019491 -1.1231266525447692
0.160277912183344 -0.9749295003610817
0.13294459006544337 -0.7526337720855507
0.1876112343012446 -0.38214089162633214
0.13294459006544337 -0.45623946771817586
0.20127789536019491 -0.6044366199018633
0.20127789536019491 -0.7896830601314725
0.24227787853704585 -0.7896830601314725
0.1739445732422943 -0.5303380438100196
0.1876112343012446 -0.23394373944264477
0.09194460688859243 -0.23394373944264477
0.09194460688859243 -0.5673873318559414
0.09194460688859243 -1.0119787884070037
0.05094462371174151 -1.1231266525447692
-0.01738868158301005 -0.7155844840396288
-0.04472200370091067 -0.6414859079477852
-0.04472200370091067 -0.6785351959937069
-0.0857219868777616 -0.9749295003610817
-0.15405529217251315 -1.2342745166825346
-0.24972191958516532 -1.197225228636613
-0.26338858064411563 -1.0490280764529254
-0.37272186911571814 -0.7526337720855507
-0.37272186911571814 -0.7896830601314725
-0.3590552080567678 -1.2342745166825346
-0.3590552080567678 -1.6047673971417533
-0.38638853017466845 -1.6788659732335969
-0.4820551575873206 -1.419520956912144
-0.5367218018231219 -0.9749295003610817
-0.6050551071178734 -0.900830924269238
-0.5640551239410225 -1.160175940590691
-0.5367218018231219 -1.3824716688662222
-0.5093884797052213 -1.5306688210499095
-0.4957218186462709 -1.160175940590691
-0.4957218186462709 -0.7896830601314725
-0.5230551407641716 -0.8267323481773944
-0.4683884965283703 -1.1231266525447692
-0.5093884797052213 -1.4936195330039876
-0.5230551407641716 -1.6047673971417533
-0.5230551407641716 -1.419520956912144
-0.6050551071178734 -1.1231266525447692
-0.6187217681768237 -1.160175940590691
-0.6187217681768237 -1.2713238047284565
-0.6050551071178734 -1.3824716688662222
-0.6460550902947243 -1.4565702449580658
-0.7553883787663268 -1.160175940590691
-0.9330549725326809 -0.900830924269238
-1.069721583122184 -0.900830924269238
-1.0970549052400846 -1.0860773644988473
-1.0833882441811342 -1.5306688210499095
-0.9330549725326809 -1.3824716688662222
-0.6597217513536746 -0.7896830601314725
-0.24972191958516532 -0.1227958753048792
0.2832778617138968 0.5070420214757922
0.952944253602462 0.7293377497513234
1.6226106454910272 0.9516334780268545
2.223943732084841 1.4332742226238386
2.7296101912660022 2.06311211940451
3.2216099893882135 2.3965557118178067
3.6999431264514744 2.322457135725963
4.137276280337884 1.803767103083057
4.424276162575841 1.06278134216462
4.560942773165344 0.321795581246183
4.560942773165344 -0.38214089162633214
4.478942806811642 -0.93788021231516
4.273942890927388 -1.160175940590691
4.027942991866282 -0.900830924269238
3.5359431937440706 -0.08574658725895735
2.797943496560754 0.6922884617054015
1.8002772392573814 1.06278134216462
0.8299443040719092 0.5440913095217141
0.13294459006544337 -0.419190179672254
-0.27705524170306595 -1.4936195330039876
-0.4820551575873206 -1.7529645493254407
-0.4273885133515194 -1.4936195330039876
-0.26338858064411563 -1.4565702449580658
-0.12672197005461253 -1.2713238047284565
-0.04472200370091067 -1.4936195330039876
-0.14038863111356284 -1.5677181090958314
-0.26338858064411563 -1.2342745166825346
-0.4273885133515194 -0.7896830601314725
-0.5367218018231219 -0.6414859079477852
-0.6050551071178734 -1.0119787884070037
-0.6597217513536746 -1.3824716688662222
-0.7143883955894759 -1.5677181090958314
-0.7553883787663268 -1.2713238047284565
-0.7963883619431777 -1.0860773644988473
-0.8373883451200287 -0.900830924269238
-0.851055006178979 -1.197225228636613
-0.7827217008842274 -1.419520956912144
-0.8237216840610784 -1.3083730927743784
-0.7963883619431777 -1.0860773644988473
-0.7553883787663268 -0.6785351959937069
-0.7280550566484262 -0.7526337720855507
-0.7143883955894759 -0.9749295003610817
-0.7280550566484262 -1.419520956912144
-0.7417217177073765 -1.3824716688662222
-0.7690550398252771 -1.1231266525447692
-0.7690550398252771 -0.8267323481773944
-0.7690550398252771 -0.9749295003610817
-0.7690550398252771 -1.2713238047284565
-0.7827217008842274 -1.5306688210499095
-0.7690550398252771 -1.4565702449580658
-0.7827217008842274 -1.0860773644988473
-0.7417217177073765 -0.6414859079477852
-0.7417217177073765 -0.6044366199018633
-0.7007217345305256 -0.7896830601314725
-0.6870550734715752 -1.2342745166825346
-0.7143883955894759 -1.3824716688662222
-0.7553883787663268 -1.0490280764529254
-0.7963883619431777 -0.900830924269238
-0.8100550230021281 -0.8267323481773944
-0.7553883787663268 -1.197225228636613
-0.7690550398252771 -1.3824716688662222
-0.7280550566484262 -1.3083730927743784
-0.7827217008842274 -0.7896830601314725
-0.7417217177073765 -0.4932887557640977
-0.7280550566484262 -0.6044366199018633
-0.6870550734715752 -0.93788021231516
-0.6733884124126249 -0.93788021231516
-0.7007217345305256 -0.9749295003610817
-0.7280550566484262 -0.5673873318559414
-0.7827217008842274 -0.38214089162633214
-0.7553883787663268 -0.45623946771817586
-0.7690550398252771 -0.7896830601314725
-0.7553883787663268 -1.0860773644988473
-0.7280550566484262 -0.7526337720855507
-0.7143883955894759 -0.419190179672254
-0.7280550566484262 -0.1968944513967229
-0.7143883955894759 -0.3450916035804103
-0.6733884124126249 -0.7155844840396288
-0.632388429235774 -0.7526337720855507
-0.6733884124126249 -0.5673873318559414
-0.6870550734715752 -0.30804231553448846
-0.7280550566484262 -0.38214089162633214
-0.7143883955894759 -0.5673873318559414
-0.7280550566484262 -0.93788021231516
-0.7143883955894759 -0.8637816362233163
-0.7143883955894759 -0.4932887557640977
-0.6733884124126249 -0.27099302748856663
-0.6050551071178734 -0.27099302748856663
-0.5640551239410225 -0.5673873318559414
-0.5367218018231219 -0.6785351959937069
-0.5503884628820722 -0.5673873318559414
-0.5640551239410225 -0.1968944513967229
-0.5230551407641716 -0.3450916035804103
-0.5367218018231219 -0.6414859079477852
-0.5230551407641716 -0.9749295003610817
-0.4957218186462709 -0.9749295003610817
-0.5367218018231219 -0.7155844840396288
-0.4820551575873206 -0.3450916035804103
-0.4273885133515194 -0.45623946771817586
-0.3590552080567678 -0.6785351959937069
-0.3317218859388672 -0.9749295003610817
-0.3180552248799169 -0.7896830601314725
-0.3043885638209666 -0.45623946771817586
-0.3180552248799169 -0.419190179672254
-0.27705524170306595 -0.6044366199018633
-0.24972191958516532 -0.9749295003610817
-0.22238859746726472 -1.0490280764529254
-0.27705524170306595 -0.9749295003610817
-0.26338858064411563 -0.6414859079477852
-0.29072190276201626 -0.38214089162633214
-0.27705524170306595 -0.5673873318559414
-0.23605525852621503 -0.8637816362233163
-0.18138861429041378 -1.0119787884070037
-0.18138861429041378 -0.7896830601314725
-0.22238859746726472 -0.5303380438100196
-0.24972191958516532 -0.419190179672254
-0.23605525852621503 -0.7155844840396288
-0.1950552753493641 -0.9749295003610817
-0.22238859746726472 -1.160175940590691
-0.23605525852621503 -1.0860773644988473
-0.3043885638209666 -0.8267323481773944
-0.3180552248799169 -0.5303380438100196
-0.3043885638209666 -0.6785351959937069
-0.23605525852621503 -0.7896830601314725
-0.23605525852621503 -1.0119787884070037
-0.22238859746726472 -0.8267323481773944
-0.23605525852621503 -0.6044366199018633
-0.27705524170306595 -0.45623946771817586
-0.27705524170306595 -0.7155844840396288
-0.27705524170306595 -1.2342745166825346
-0.3043885638209666 -1.3824716688662222
-0.3590552080567678 -1.160175940590691
-0.3590552080567678 -0.900830924269238
-0.40005519123361877 -0.8267323481773944
-0.37272186911571814 -0.8637816362233163
-0.3043885638209666 -0.9749295003610817
-0.27705524170306595 -0.93788021231516
-0.3043885638209666 -0.6044366199018633
-0.3590552080567678 -0.5673873318559414
-0.37272186911571814 -0.5673873318559414
-0.40005519123361877 -1.0119787884070037
-0.40005519123361877 -1.2713238047284565
-0.37272186911571814 -1.2713238047284565
-0.4137218522925691 -0.900830924269238
-0.4410551744104697 -0.7526337720855507
-0.4683884965283703 -0.6044366199018633
-0.45472183546941997 -1.0490280764529254
-0.4137218522925691 -0.93788021231516
-0.4683884965283703 -0.7526337720855507
-0.4820551575873206 -0.5303380438100196
-0.4683884965283703 -0.6785351959937069
-0.4820551575873206 -0.93788021231516
-0.5093884797052213 -1.2713238047284565
-0.5230551407641716 -1.160175940590691
-0.5777217849999728 -1.0860773644988473
-0.5777217849999728 -0.93788021231516
-0.5503884628820722 -0.93788021231516
-0.5777217849999728 -1.197225228636613
-0.5230551407641716 -1.2342745166825346
-0.5093884797052213 -0.8267323481773944
-0.4683884965283703 -0.6414859079477852
-0.45472183546941997 -0.4932887557640977
-0.4820551575873206 -0.7896830601314725
-0.45472183546941997 -1.0860773644988473
-0.4957218186462709 -1.1231266525447692
-0.5093884797052213 -1.0860773644988473
-0.5367218018231219 -0.900830924269238
-0.4957218186462709 -0.7155844840396288
-0.4957218186462709 -1.0490280764529254
-0.4410551744104697 -1.0860773644988473
-0.4137218522925691 -1.0860773644988473
-0.4137218522925691 -0.7896830601314725
-0.4410551744104697 -0.4932887557640977
-0.38638853017466845 -0.5303380438100196
-0.4137218522925691 -0.7526337720855507
-0.38638853017466845 -1.0490280764529254
-0.38638853017466845 -1.197225228636613
-0.4137218522925691 -0.900830924269238
-0.4683884965283703 -0.7526337720855507
-0.45472183546941997 -0.7896830601314725
-0.4410551744104697 -0.900830924269238
-0.40005519123361877 -1.160175940590691
-0.40005519123361877 -1.1231266525447692
-0.37272186911571814 -0.7896830601314725
-0.40005519123361877 -0.4932887557640977
-0.37272186911571814 -0.38214089162633214
-0.3317218859388672 -0.7155844840396288
-0.3590552080567678 -0.9749295003610817
-0.38638853017466845 -1.160175940590691
-0.38638853017466845 -0.8267323481773944
-0.40005519123361877 -0.5303380438100196
-0.38638853017466845 -0.6414859079477852
-0.3180552248799169 -0.7896830601314725
-0.3043885638209666 -1.160175940590691
-0.26338858064411563 -1.0490280764529254
-0.3180552248799169 -0.7155844840396288
-0.3317218859388672 -0.419190179672254
-0.27705524170306595 -0.38214089162633214
-0.23605525852621503 -0.6414859079477852
-0.24972191958516532 -0.93788021231516
-0.26338858064411563 -0.9749295003610817
-0.1950552753493641 -0.7896830601314725
-0.22238859746726472 -0.5673873318559414
-0.24972191958516532 -0.4932887557640977
-0.2087219364083144 -0.8637816362233163
-0.16772195323146347 -1.0119787884070037
-0.12672197005461253 -0.9749295003610817
-0.04472200370091067 -0.5673873318559414
0.009944640534890572 -0.27099302748856663
0.09194460688859243 -0.23394373944264477
0.13294459006544337 -0.5303380438100196
0.22861121747809554 -0.7896830601314725
0.2696112006549465 -0.900830924269238
0.2969445227728471 -0.7896830601314725
0.2696112006549465 -0.3450916035804103
0.2969445227728471 -0.0486972992130355
0.2969445227728471 -0.15984516335080104
0.32427784489074774 -0.1968944513967229
0.3652778280675987 -0.3450916035804103
0.33794450594969805 -0.0486972992130355
0.35161116700864836 0.35884486929210485
0.32427784489074774 0.321795581246183
0.33794450594969805 -0.011648011167113649
0.33794450594969805 -0.3450916035804103
0.24227787853704585 -0.4932887557640977
0.1466112511243937 -0.27099302748856663
0.1466112511243937 0.0254012768788082
0.11927792900649306 0.06245056492473005
0.11927792900649306 -0.1968944513967229
0.07827794582964212 -0.5673873318559414
0.009944640534890572 -0.6414859079477852
-0.05838866475986098 -0.4932887557640977
-0.0857219868777616 -0.30804231553448846
-0.12672197005461253 -0.27099302748856663
-0.18138861429041378 -0.5303380438100196
-0.1950552753493641 -0.93788021231516
-0.23605525852621503 -0.900830924269238
-0.29072190276201626 -0.6785351959937069
-0.37272186911571814 -0.38214089162633214
-0.38638853017466845 -0.3450916035804103
-0.4410551744104697 -0.6044366199018633
-0.40005519123361877 -0.8637816362233163
-0.3180552248799169 -0.900830924269238
-0.3043885638209666 -0.7896830601314725
-0.3317218859388672 -0.27099302748856663
-0.3043885638209666 -0.1227958753048792
-0.3317218859388672 -0.15984516335080104
-0.3453885469978175 -0.6044366199018633
-0.3590552080567678 -1.0860773644988473
-0.40005519123361877 -0.93788021231516
-0.37272186911571814 -0.7155844840396288
-0.37272186911571814 -0.45623946771817586
-0.40005519123361877 -0.45623946771817586
-0.3453885469978175 -0.7155844840396288
-0.3317218859388672 -0.7896830601314725
-0.3180552248799169 -0.900830924269238
-0.3590552080567678 -0.4932887557640977
-0.4410551744104697 -0.3450916035804103
-0.5503884628820722 -0.419190179672254
-0.6870550734715752 -0.8267323481773944
-0.851055006178979 -1.0860773644988473
-0.9740549557095318 -1.1231266525447692
-1.0560549220632336 -0.8637816362233163
-1.0150549388863828 -0.45623946771817586
-0.8237216840610784 -0.0486972992130355
-0.4410551744104697 -0.0486972992130355
0.1739445732422943 0.321795581246183
0.7616109987771577 0.7293377497513234
1.3766107464299215 1.6555699508993695
1.9506105109058347 2.3965557118178067
2.4699436311459464 2.9152457444607127
2.9482767682092073 3.026393608598478
3.426609905272468 2.767048592277025
3.904943042335729 2.5818021520474157
4.246609568809487 2.5077035759555724
4.492609467870593 2.5447528640014943
4.656609400577996 1.9890135433126663
4.752276027990648 1.06278134216462
4.7932760111674995 0.06245056492473005
4.683942722695897 -0.419190179672254
4.533609451047443 -0.08574658725895735
4.301276213045288 0.6181898856135578
3.7546097706872756 1.3591756465319949
3.0302767345629094 1.7296685269912133
2.18294374890799 1.3591756465319949
1.2672774579583193 0.9516334780268545
0.5019444386571018 0.4699927334298704
0.009944640534890572 -0.011648011167113649
-0.16772195323146347 -0.419190179672254
-0.16772195323146347 -0.8637816362233163
0.023611301593840884 -1.0860773644988473
0.22861121747809554 -1.0860773644988473
0.24227787853704585 -0.4932887557640977
0.20127789536019491 -0.15984516335080104
0.037277962652791194 -0.08574658725895735
-0.11305530899566223 -0.30804231553448846
-0.26338858064411563 -0.6785351959937069
-0.40005519123361877 -0.900830924269238
-0.4957218186462709 -0.7526337720855507
-0.5640551239410225 -0.4932887557640977
-0.591388446058923 -0.3450916035804103
-0.5777217849999728 -0.5673873318559414
-0.5503884628820722 -0.5303380438100196
-0.5230551407641716 -0.5673873318559414
-0.5367218018231219 -0.38214089162633214
-0.4820551575873206 -0.0486972992130355
-0.4957218186462709 0.06245056492473005
-0.5093884797052213 -0.27099302748856663
-0.45472183546941997 -0.5303380438100196
-0.4820551575873206 -0.7526337720855507
-0.4957218186462709 -0.5673873318559414
-0.5230551407641716 -0.23394373944264477
-0.5367218018231219 -0.1227958753048792
-0.5503884628820722 -0.30804231553448846
-0.5230551407641716 -0.5673873318559414
-0.4820551575873206 -0.7896830601314725
-0.4957218186462709 -0.4932887557640977
-0.5230551407641716 -0.08574658725895735
-0.5640551239410225 0.13654914101657376
-0.5640551239410225 0.0254012768788082
-0.5093884797052213 -0.38214089162633214
-0.5230551407641716 -0.7526337720855507
-0.5367218018231219 -0.7155844840396288
-0.5503884628820722 -0.5303380438100196
-0.5777217849999728 0.06245056492473005
-0.5640551239410225 0.17359842906249562
-0.5093884797052213 -0.0486972992130355
-0.4820551575873206 -0.3450916035804103
-0.4820551575873206 -0.38214089162633214
-0.4683884965283703 -0.27099302748856663
-0.5093884797052213 0.13654914101657376
-0.5367218018231219 0.24769700515433932
-0.5367218018231219 -0.1227958753048792
-0.5503884628820722 -0.45623946771817586
-0.5640551239410225 -0.6785351959937069
-0.5230551407641716 -0.5303380438100196
-0.5503884628820722 -0.1227958753048792
-0.591388446058923 0.0994998529706519
-0.5230551407641716 0.0254012768788082
-0.4683884965283703 -0.0486972992130355
-0.4957218186462709 -0.15984516335080104
-0.4683884965283703 -0.011648011167113649
-0.4957218186462709 0.321795581246183
-0.5230551407641716 0.4329434453839486
-0.5503884628820722 0.21064771710841745
-0.5230551407641716 -0.1227958753048792
-0.5093884797052213 -0.45623946771817586
-0.5230551407641716 -0.4932887557640977
-0.5777217849999728 -0.0486972992130355
-0.6050551071178734 0.24769700515433932
-0.4957218186462709 0.4329434453839486
-0.4683884965283703 0.24769700515433932
-0.4137218522925691 -0.0486972992130355
-0.37272186911571814 -0.08574658725895735
-0.40005519123361877 0.321795581246183
-0.4273885133515194 0.5811405975676359
-0.40005519123361877 0.3958941573380267
-0.4137218522925691 0.21064771710841745
-0.37272186911571814 -0.23394373944264477
-0.40005519123361877 -0.38214089162633214
-0.4273885133515194 0.0254012768788082
-0.40005519123361877 0.4329434453839486
-0.40005519123361877 0.6552391736594797
-0.3043885638209666 0.5070420214757922
-0.24972191958516532 0.13654914101657376
-0.23605525852621503 -0.011648011167113649
-0.26338858064411563 0.0994998529706519
-0.26338858064411563 0.321795581246183
-0.26338858064411563 0.3958941573380267
-0.23605525852621503 0.21064771710841745
-0.2087219364083144 -0.23394373944264477
-0.14038863111356284 -0.4932887557640977
-0.1950552753493641 -0.08574658725895735
-0.1950552753493641 0.17359842906249562
-0.15405529217251315 0.2847462932002612
-0.11305530899566223 0.21064771710841745
-0.07205532581881129 -0.011648011167113649
-0.0037220205240597382 0.0254012768788082
-0.01738868158301005 0.21064771710841745
0.009944640534890572 0.4329434453839486
0.05094462371174151 0.321795581246183
-0.01738868158301005 -0.011648011167113649
0.023611301593840884 -0.30804231553448846
0.023611301593840884 -0.1227958753048792
-0.01738868158301005 0.13654914101657376
0.009944640534890572 0.17359842906249562
0.05094462371174151 0.06245056492473005
0.11927792900649306 -0.1227958753048792
0.1466112511243937 -0.23394373944264477
0.1466112511243937 -0.0486972992130355
0.1466112511243937 0.2847462932002612
0.10561126794754275 0.35884486929210485
0.10561126794754275 0.24769700515433932
0.13294459006544337 -0.27099302748856663
0.10561126794754275 -0.6044366199018633
0.06461128477069182 -0.38214089162633214
0.009944640534890572 -0.1227958753048792
-0.03105534264196036 -0.011648011167113649
-0.01738868158301005 -0.15984516335080104
0.05094462371174151 -0.3450916035804103
0.06461128477069182 -0.419190179672254
0.06461128477069182 -0.23394373944264477
0.05094462371174151 0.06245056492473005
-0.0037220205240597382 0.0994998529706519
-0.03105534264196036 -0.23394373944264477
-0.01738868158301005 -0.4932887557640977
-0.05838866475986098 -0.5673873318559414
-0.07205532581881129 -0.4932887557640977
-0.16772195323146347 -0.1227958753048792
-0.15405529217251315 0.0254012768788082
-0.0857219868777616 -0.15984516335080104
-0.04472200370091067 -0.5303380438100196
-0.01738868158301005 -0.4932887557640977
-0.01738868158301005 -0.1968944513967229
-0.05838866475986098 0.06245056492473005
-0.07205532581881129 0.0994998529706519
-0.16772195323146347 -0.011648011167113649
-0.15405529217251315 -0.5303380438100196
-0.09938864793671191 -0.8637816362233163
-0.15405529217251315 -0.7896830601314725
-0.22238859746726472 -0.4932887557640977
-0.1950552753493641 -0.0486972992130355
-0.1950552753493641 -0.08574658725895735
-0.15405529217251315 -0.45623946771817586
-0.11305530899566223 -0.6414859079477852
-0.11305530899566223 -0.4932887557640977
-0.12672197005461253 -0.30804231553448846
-0.16772195323146347 0.0254012768788082
-0.22238859746726472 -0.1968944513967229
-0.18138861429041378 -0.419190179672254
-0.18138861429041378 -0.7155844840396288
-0.18138861429041378 -0.6414859079477852
-0.24972191958516532 -0.3450916035804103
-0.24972191958516532 0.06245056492473005
-0.23605525852621503 -0.011648011167113649
-0.1950552753493641 -0.1968944513967229
-0.18138861429041378 -0.45623946771817586
-0.15405529217251315 -0.419190179672254
-0.16772195323146347 -0.1968944513967229
-0.18138861429041378 0.0254012768788082
-0.22238859746726472 -0.08574658725895735
-0.23605525852621503 -0.38214089162633214
-0.26338858064411563 -0.8267323481773944
-0.2087219364083144 -0.7896830601314725
-0.18138861429041378 -0.4932887557640977
-0.16772195323146347 -0.1227958753048792
-0.14038863111356284 0.0254012768788082
-0.05838866475986098 -0.1968944513967229
-0.03105534264196036 -0.30804231553448846
-0.0857219868777616 -0.15984516335080104
-0.11305530899566223 -0.011648011167113649
-0.14038863111356284 0.0994998529706519
-0.07205532581881129 -0.15984516335080104
-0.07205532581881129 -0.419190179672254
-0.12672197005461253 -0.6044366199018633
-0.15405529217251315 -0.419190179672254
-0.1950552753493641 -0.1227958753048792
-0.15405529217251315 -0.08574658725895735
-0.11305530899566223 -0.30804231553448846
-0.12672197005461253 -0.38214089162633214
-0.05838866475986098 -0.5673873318559414
-0.0037220205240597382 -0.30804231553448846
-0.03105534264196036 0.21064771710841745
0.009944640534890572 0.35884486929210485
0.009944640534890572 0.06245056492473005
-0.01738868158301005 -0.3450916035804103
-0.05838866475986098 -0.7896830601314725
-0.03105534264196036 -0.7896830601314725
-0.0857219868777616 -0.30804231553448846
-0.12672197005461253 -0.08574658725895735
-0.05838866475986098 -0.011648011167113649
0.06461128477069182 -0.1227958753048792
0.06461128477069182 -0.38214089162633214
0.160277912183344 -0.45623946771817586
0.06461128477069182 -0.1227958753048792
0.10561126794754275 0.0994998529706519
0.023611301593840884 0.0994998529706519
0.07827794582964212 -0.23394373944264477
0.10561126794754275 -0.419190179672254
0.1466112511243937 -0.5673873318559414
0.1876112343012446 -0.23394373944264477
0.2696112006549465 -0.011648011167113649
0.33794450594969805 0.0994998529706519
0.4199444723033999 -0.0486972992130355
0.4609444554802508 -0.15984516335080104
0.5429444218339526 -0.1968944513967229
0.556611082892903 0.0254012768788082
0.5156110997160521 0.3958941573380267
0.5292777607750023 0.4329434453839486
0.5429444218339526 0.0994998529706519
0.5702777439518533 -0.15984516335080104
0.5976110660697539 -0.15984516335080104
0.5292777607750023 0.21064771710841745
0.5156110997160521 0.6552391736594797
0.5292777607750023 0.7663870377972453
0.556611082892903 0.5811405975676359
0.556611082892903 0.21064771710841745
0.556611082892903 0.0254012768788082
0.5292777607750023 0.2847462932002612
0.4199444723033999 0.5811405975676359
0.4609444554802508 0.5070420214757922
0.4472777944213005 0.24769700515433932
0.39261115018549925 -0.23394373944264477
0.378944489126549 -0.5303380438100196
0.2696112006549465 -0.27099302748856663
0.1739445732422943 -0.0486972992130355
0.11927792900649306 0.06245056492473005
0.09194460688859243 -0.1227958753048792
0.11927792900649306 -0.38214089162633214
0.11927792900649306 -0.5303380438100196
0.09194460688859243 -0.15984516335080104
0.06461128477069182 0.13654914101657376
-0.01738868158301005 0.06245056492473005
-0.03105534264196036 -0.23394373944264477
-0.07205532581881129 -0.6414859079477852
-0.09938864793671191 -0.6044366199018633
-0.14038863111356284 -0.30804231553448846
-0.14038863111356284 -0.15984516335080104
-0.1950552753493641 -0.15984516335080104
-0.12672197005461253 -0.45623946771817586
-0.11305530899566223 -0.5303380438100196
-0.09938864793671191 -0.27099302748856663
-0.09938864793671191 -0.0486972992130355
-0.07205532581881129 -0.011648011167113649
-0.01738868158301005 -0.15984516335080104
-0.05838866475986098 -0.38214089162633214
-0.12672197005461253 -0.38214089162633214
-0.16772195323146347 -0.27099302748856663
-0.27705524170306595 -0.011648011167113649
-0.37272186911571814 -0.15984516335080104
-0.4957218186462709 -0.5673873318559414
-0.6597217513536746 -0.6044366199018633
-0.7007217345305256 -0.30804231553448846
-0.7007217345305256 -0.08574658725895735
-0.6187217681768237 0.17359842906249562
-0.37272186911571814 0.0254012768788082
0.009944640534890572 0.17359842906249562
0.4746111165392011 0.4699927334298704
1.0486108810151142 1.0998306302105418
1.5816106623141764 2.0260628313585882
2.100943782554288 2.5077035759555724
2.5929435806764993 2.767048592277025
3.139610023034512 2.767048592277025
3.5769431769209215 2.767048592277025
4.0142763308073315 2.841147168368869
4.355942857281089 2.9522950325066346
4.560942773165344 2.322457135725963
4.6702760616369465 1.322126358486073
4.752276027990648 -0.0486972992130355
4.683942722695897 -1.160175940590691
4.547276112106394 -1.2713238047284565
4.314942874104238 -0.6785351959937069
3.9459430255125802 0.21064771710841745
3.453943227390369 0.7663870377972453
2.63394356385335 1.06278134216462
1.827610561375282 1.06278134216462
1.0622775420740644 0.9145841899809326
0.4472777944213005 0.5811405975676359
0.10561126794754275 0.35884486929210485
-0.01738868158301005 -0.1227958753048792
0.07827794582964212 -0.6414859079477852
0.2696112006549465 -1.160175940590691
0.3652778280675987 -1.0119787884070037
0.40627781124444956 -0.7155844840396288
0.2696112006549465 -0.15984516335080104
0.13294459006544337 -0.011648011167113649
0.009944640534890572 -0.08574658725895735
-0.11305530899566223 -0.419190179672254
-0.1950552753493641 -0.45623946771817586
-0.26338858064411563 -0.23394373944264477
-0.27705524170306595 -0.08574658725895735
-0.3043885638209666 -0.011648011167113649
-0.3180552248799169 -0.3450916035804103
-0.3317218859388672 -0.6785351959937069
-0.3453885469978175 -0.7896830601314725
-0.37272186911571814 -0.419190179672254
-0.38638853017466845 -0.1968944513967229
-0.4137218522925691 -0.0486972992130355
-0.3317218859388672 -0.23394373944264477
-0.27705524170306595 -0.419190179672254
-0.23605525852621503 -0.4932887557640977
-0.23605525852621503 -0.23394373944264477
-0.24972191958516532 0.21064771710841745
-0.24972191958516532 0.24769700515433932
-0.27705524170306595 -0.011648011167113649
-0.24972191958516532 -0.419190179672254
-0.27705524170306595 -0.5673873318559414
-0.3453885469978175 -0.45623946771817586
-0.37272186911571814 -0.15984516335080104
-0.40005519123361877 -0.08574658725895735
-0.3453885469978175 -0.1968944513967229
-0.3043885638209666 -0.45623946771817586
-0.27705524170306595 -0.38214089162633214
-0.27705524170306595 -0.08574658725895735
-0.3317218859388672 0.21064771710841745
-0.3453885469978175 0.24769700515433932
-0.3180552248799169 -0.1227958753048792
-0.3180552248799169 -0.419190179672254
-0.3590552080567678 -0.5303380438100196
-0.37272186911571814 -0.30804231553448846
-0.40005519123361877 -0.011648011167113649
-0.4137218522925691 0.13654914101657376
-0.40005519123361877 -0.011648011167113649
-0.37272186911571814 -0.30804231553448846
-0.3317218859388672 -0.27099302748856663
-0.3043885638209666 0.0994998529706519
-0.26338858064411563 0.21064771710841745
-0.3180552248799169 0.3958941573380267
-0.3180552248799169 0.21064771710841745
-0.3043885638209666 -0.3450916035804103
-0.3317218859388672 -0.5673873318559414
-0.3453885469978175 -0.5303380438100196
-0.4137218522925691 -0.1227958753048792
-0.4137218522925691 0.2847462932002612
-0.37272186911571814 0.2847462932002612
-0.3590552080567678 0.0254012768788082
-0.3180552248799169 -0.1968944513967229
-0.3043885638209666 -0.1227958753048792
-0.3317218859388672 0.0994998529706519
-0.3453885469978175 0.35884486929210485
-0.37272186911571814 0.2847462932002612
-0.3180552248799169 -0.1227958753048792
-0.3453885469978175 -0.419190179672254
-0.3453885469978175 -0.3450916035804103
-0.40005519123361877 -0.08574658725895735
-0.37272186911571814 0.21064771710841745
-0.3043885638209666 0.2847462932002612
-0.3180552248799169 -0.011648011167113649
-0.23605525852621503 -0.27099302748856663
-0.22238859746726472 -0.1968944513967229
-0.23605525852621503 0.06245056492473005
-0.23605525852621503 0.24769700515433932
-0.22238859746726472 0.35884486929210485
-0.2087219364083144 -0.0486972992130355
-0.1950552753493641 -0.419190179672254
-0.1950552753493641 -0.7526337720855507
-0.18138861429041378 -0.419190179672254
-0.22238859746726472 -0.1227958753048792
-0.16772195323146347 0.21064771710841745
-0.11305530899566223 -0.08574658725895735
-0.09938864793671191 -0.23394373944264477
-0.03105534264196036 -0.4932887557640977
0.009944640534890572 -0.30804231553448846
0.009944640534890572 -0.011648011167113649
-0.01738868158301005 -0.011648011167113649
-0.0037220205240597382 -0.1968944513967229
-0.03105534264196036 -0.6044366199018633
-0.0037220205240597382 -0.6414859079477852
-0.04472200370091067 -0.4932887557640977
-0.03105534264196036 -0.15984516335080104
0.037277962652791194 0.06245056492473005
0.06461128477069182 -0.1968944513967229
0.13294459006544337 -0.419190179672254
0.1876112343012446 -0.5303380438100196
0.1466112511243937 -0.30804231553448846
0.07827794582964212 -0.1227958753048792
0.05094462371174151 0.06245056492473005
0.009944640534890572 -0.1968944513967229
0.06461128477069182 -0.6044366199018633
0.023611301593840884 -0.900830924269238
0.009944640534890572 -0.6785351959937069
0.009944640534890572 -0.3450916035804103
-0.01738868158301005 -0.1968944513967229
0.037277962652791194 -0.3450916035804103
0.06461128477069182 -0.6785351959937069
0.09194460688859243 -0.6414859079477852
0.09194460688859243 -0.38214089162633214
0.05094462371174151 -0.1968944513967229
-0.0037220205240597382 -0.27099302748856663
0.009944640534890572 -0.7526337720855507
0.009944640534890572 -0.900830924269238
-0.01738868158301005 -0.900830924269238
-0.04472200370091067 -0.4932887557640977
-0.05838866475986098 -0.23394373944264477
-0.0037220205240597382 -0.4932887557640977
-0.0037220205240597382 -0.6785351959937069
0.009944640534890572 -0.7155844840396288
-0.01738868158301005 -0.419190179672254
-0.0857219868777616 -0.23394373944264477
-0.0857219868777616 -0.30804231553448846
-0.05838866475986098 -0.6414859079477852
-0.07205532581881129 -1.0490280764529254
-0.0857219868777616 -1.160175940590691
-0.14038863111356284 -0.93788021231516
-0.18138861429041378 -0.5303380438100196
-0.2087219364083144 -0.45623946771817586
-0.15405529217251315 -0.4932887557640977
-0.12672197005461253 -0.8267323481773944
-0.0857219868777616 -0.8637816362233163
-0.09938864793671191 -0.6414859079477852
-0.22238859746726472 -0.45623946771817586
-0.23605525852621503 -0.1968944513967229
-0.16772195323146347 -0.30804231553448846
-0.1950552753493641 -0.8267323481773944
-0.1950552753493641 -1.0490280764529254
-0.22238859746726472 -0.93788021231516
-0.27705524170306595 -0.7526337720855507
-0.24972191958516532 -0.4932887557640977
-0.23605525852621503 -0.6414859079477852
-0.23605525852621503 -0.900830924269238
-0.18138861429041378 -0.9749295003610817
-0.16772195323146347 -0.7155844840396288
-0.18138861429041378 -0.38214089162633214
-0.22238859746726472 -0.27099302748856663
-0.1950552753493641 -0.4932887557640977
-0.22238859746726472 -0.900830924269238
-0.2087219364083144 -1.197225228636613
-0.23605525852621503 -1.0490280764529254
-0.24972191958516532 -0.7155844840396288
-0.23605525852621503 -0.45623946771817586
-0.24972191958516532 -0.45623946771817586
-0.14038863111356284 -0.8267323481773944
-0.16772195323146347 -1.0860773644988473
-0.15405529217251315 -0.8267323481773944
-0.16772195323146347 -0.6414859079477852
-0.1950552753493641 -0.3450916035804103
-0.1950552753493641 -0.5673873318559414
-0.1950552753493641 -0.9749295003610817
-0.16772195323146347 -1.2342745166825346
-0.22238859746726472 -1.1231266525447692
-0.23605525852621503 -0.7896830601314725
-0.24972191958516532 -0.5303380438100196
-0.18138861429041378 -0.7155844840396288
-0.12672197005461253 -0.900830924269238
-0.12672197005461253 -0.9749295003610817
-0.09938864793671191 -0.8637816362233163
-0.12672197005461253 -0.5673873318559414
-0.15405529217251315 -0.419190179672254
-0.16772195323146347 -0.7526337720855507
-0.1950552753493641 -1.0860773644988473
-0.18138861429041378 -1.3083730927743784
-0.18138861429041378 -1.197225228636613
-0.26338858064411563 -0.8267323481773944
-0.26338858064411563 -0.7155844840396288
-0.23605525852621503 -0.7526337720855507
-0.18138861429041378 -0.9749295003610817
-0.09938864793671191 -1.0490280764529254
-0.14038863111356284 -0.8267323481773944
-0.1950552753493641 -0.6414859079477852
-0.1950552753493641 -0.45623946771817586
-0.15405529217251315 -0.8637816362233163
-0.14038863111356284 -1.0860773644988473
-0.11305530899566223 -1.2713238047284565
-0.15405529217251315 -1.0860773644988473
-0.14038863111356284 -0.7155844840396288
-0.0857219868777616 -0.6414859079477852
-0.04472200370091067 -0.8267323481773944
0.009944640534890572 -1.0860773644988473
0.06461128477069182 -1.160175940590691
0.05094462371174151 -0.7155844840396288
0.05094462371174151 -0.6785351959937069
0.10561126794754275 -0.5303380438100196
0.160277912183344 -0.7896830601314725
0.21494455641914523 -1.2342745166825346
0.21494455641914523 -1.2713238047284565
0.2696112006549465 -1.0860773644988473
0.25594453959599617 -0.8267323481773944
0.2969445227728471 -0.6785351959937069
0.3652778280675987 -0.7526337720855507
0.4199444723033999 -0.8637816362233163
0.4609444554802508 -0.8637816362233163
0.48827777759815144 -0.5303380438100196
0.48827777759815144 -0.23394373944264477
0.4746111165392011 -0.011648011167113649
0.4746111165392011 -0.30804231553448846
0.4472777944213005 -0.7896830601314725
0.4199444723033999 -1.0860773644988473
0.33794450594969805 -0.7896830601314725
0.2832778617138968 -0.5673873318559414
0.2832778617138968 -0.38214089162633214
0.25594453959599617 -0.419190179672254
0.3106111838317974 -0.7896830601314725
0.2832778617138968 -0.8267323481773944
0.2696112006549465 -0.5673873318559414
0.20127789536019491 -0.27099302748856663
0.11927792900649306 -0.27099302748856663
0.037277962652791194 -0.6785351959937069
-0.04472200370091067 -1.3454223808203003
-0.07205532581881129 -1.641816685187675
-0.16772195323146347 -1.5677181090958314
-0.23605525852621503 -1.3454223808203003
-0.2087219364083144 -1.160175940590691
-0.23605525852621503 -1.0860773644988473
-0.2087219364083144 -1.3083730927743784
-0.18138861429041378 -1.3454223808203003
-0.24972191958516532 -1.2342745166825346
-0.29072190276201626 -0.900830924269238
-0.29072190276201626 -0.7155844840396288
-0.3453885469978175 -1.0119787884070037
-0.3590552080567678 -1.3824716688662222
-0.37272186911571814 -1.641816685187675
-0.3317218859388672 -1.6047673971417533
-0.37272186911571814 -1.2713238047284565
-0.38638853017466845 -1.0490280764529254
-0.3453885469978175 -1.0119787884070037
-0.3180552248799169 -1.3454223808203003
-0.27705524170306595 -1.4936195330039876
-0.26338858064411563 -1.3824716688662222
-0.29072190276201626 -0.93788021231516
-0.3453885469978175 -0.900830924269238
-0.3453885469978175 -0.9749295003610817
-0.40005519123361877 -1.5306688210499095
-0.4957218186462709 -1.7900138373713625
-0.6733884124126249 -1.7900138373713625
-0.7827217008842274 -1.5677181090958314
-0.9330549725326809 -1.2713238047284565
-0.9467216335916312 -1.160175940590691
-0.7963883619431777 -1.3824716688662222
-0.5777217849999728 -1.0490280764529254
-0.27705524170306595 -0.6044366199018633
0.20127789536019491 0.0994998529706519
0.8026109819540086 0.8404856138890889
1.4449440517246732 0.9145841899809326
2.0326104772595364 0.9886827660727763
2.5656102585585985 1.1368799182564637
3.112276700916611 1.7667178150371352
3.6042764990388223 2.06311211940451
4.000609669748381 2.06311211940451
4.355942857281089 1.544422086761604
4.547276112106394 0.5811405975676359
4.642942739519046 -0.27099302748856663
4.629276078460095 -0.93788021231516
4.506276128929543 -1.0860773644988473
4.328609535163189 -1.197225228636613
4.123609619278934 -1.1231266525447692
3.7956097538641265 -0.8637816362233163
3.2489433115061144 -0.3450916035804103
2.4699436311459464 0.2847462932002612
1.5406106791373253 0.5440913095217141
0.7069443545413564 0.2847462932002612
0.11927792900649306 -0.5303380438100196
-0.18138861429041378 -1.5677181090958314
-0.1950552753493641 -2.197556005876503
-0.15405529217251315 -2.197556005876503
-0.0037220205240597382 -1.8270631254172844
0.06461128477069182 -1.2713238047284565
0.07827794582964212 -1.1231266525447692
0.023611301593840884 -1.419520956912144
-0.0857219868777616 -1.7529645493254407
-0.29072190276201626 -1.864112413463206
-0.45472183546941997 -1.6788659732335969
-0.6187217681768237 -1.419520956912144
-0.6733884124126249 -1.3454223808203003
-0.6870550734715752 -1.6047673971417533
-0.632388429235774 -1.7529645493254407
-0.6050551071178734 -1.641816685187675
-0.6597217513536746 -1.4565702449580658
-0.6460550902947243 -0.93788021231516
-0.7143883955894759 -1.0490280764529254
-0.6597217513536746 -1.419520956912144
-0.6597217513536746 -1.7900138373713625
-0.7007217345305256 -1.8270631254172844
-0.7553883787663268 -1.5677181090958314
-0.7280550566484262 -1.1231266525447692
-0.6597217513536746 -1.0119787884070037
-0.591388446058923 -1.1231266525447692
-0.591388446058923 -1.4936195330039876
-0.591388446058923 -1.4936195330039876
-0.6050551071178734 -1.2713238047284565
-0.6050551071178734 -1.0860773644988473
-0.6050551071178734 -1.1231266525447692
-0.6597217513536746 -1.3824716688662222
-0.6597217513536746 -1.641816685187675
-0.6597217513536746 -1.641816685187675
-0.7143883955894759 -1.3454223808203003
-0.6733884124126249 -1.1231266525447692
-0.6460550902947243 -1.0860773644988473
-0.6050551071178734 -1.3454223808203003
-0.6187217681768237 -1.3824716688662222
-0.6050551071178734 -1.197225228636613
-0.632388429235774 -0.9749295003610817
-0.6733884124126249 -0.8267323481773944
-0.6733884124126249 -1.0490280764529254
-0.6733884124126249 -1.3083730927743784
-0.6870550734715752 -1.641816685187675
-0.6733884124126249 -1.5306688210499095
-0.7143883955894759 -1.2713238047284565
-0.7143883955894759 -0.8637816362233163
-0.6870550734715752 -0.7896830601314725
-0.6870550734715752 -1.0860773644988473
-0.6460550902947243 -1.3083730927743784
-0.6597217513536746 -1.0490280764529254
-0.6733884124126249 -0.7526337720855507
-0.7007217345305256 -0.6414859079477852
-0.6870550734715752 -0.7155844840396288
-0.7007217345305256 -1.0860773644988473
-0.6733884124126249 -1.3454223808203003
-0.7143883955894759 -1.197225228636613
-0.7007217345305256 -0.8637816362233163
-0.7143883955894759 -0.8637816362233163
-0.7143883955894759 -0.7896830601314725
-0.7007217345305256 -1.0490280764529254
-0.6733884124126249 -0.9749295003610817
-0.6597217513536746 -0.7526337720855507
-0.6597217513536746 -0.4932887557640977
-0.6870550734715752 -0.4932887557640977
-0.632388429235774 -0.900830924269238
-0.6597217513536746 -1.160175940590691
-0.6597217513536746 -1.3083730927743784
-0.7007217345305256 -0.8637816362233163
-0.7007217345305256 -0.7526337720855507
-0.6460550902947243 -0.8637816362233163
-0.6460550902947243 -0.9749295003610817
-0.5640551239410225 -1.197225228636613
-0.5640551239410225 -1.0119787884070037
-0.5367218018231219 -0.7155844840396288
-0.5367218018231219 -0.5303380438100196
-0.5503884628820722 -0.6044366199018633
-0.5093884797052213 -0.9749295003610817
-0.5503884628820722 -1.3454223808203003
-0.5367218018231219 -1.4565702449580658
-0.5640551239410225 -1.1231266525447692
-0.5230551407641716 -1.0119787884070037
-0.4683884965283703 -0.9749295003610817
-0.45472183546941997 -1.0119787884070037
-0.38638853017466845 -1.2713238047284565
-0.38638853017466845 -1.3454223808203003
-0.3590552080567678 -1.0119787884070037
-0.3043885638209666 -0.7896830601314725
-0.3043885638209666 -0.9749295003610817
-0.29072190276201626 -1.197225228636613
-0.24972191958516532 -1.5677181090958314
-0.26338858064411563 -1.641816685187675
-0.3180552248799169 -1.5677181090958314
-0.37272186911571814 -1.160175940590691
-0.3453885469978175 -1.0119787884070037
-0.27705524170306595 -1.3083730927743784
-0.24972191958516532 -1.4565702449580658
-0.23605525852621503 -1.6788659732335969
-0.22238859746726472 -1.2342745166825346
-0.23605525852621503 -0.93788021231516
-0.1950552753493641 -0.9749295003610817
-0.22238859746726472 -1.2713238047284565
-0.2087219364083144 -1.6047673971417533
-0.23605525852621503 -1.864112413463206
-0.29072190276201626 -1.641816685187675
-0.38638853017466845 -1.3083730927743784
-0.3453885469978175 -1.2342745166825346
-0.3043885638209666 -1.3083730927743784
-0.22238859746726472 -1.5677181090958314
-0.23605525852621503 -1.7159152612795188
-0.27705524170306595 -1.4936195330039876
-0.27705524170306595 -1.2713238047284565
-0.29072190276201626 -1.0860773644988473
-0.3043885638209666 -1.160175940590691
-0.3180552248799169 -1.5677181090958314
-0.3043885638209666 -1.9752602776009718
-0.3590552080567678 -1.8270631254172844
-0.38638853017466845 -1.5306688210499095
-0.38638853017466845 -1.3454223808203003
-0.4273885133515194 -1.2342745166825346
-0.37272186911571814 -1.4565702449580658
-0.3590552080567678 -1.6788659732335969
-0.3590552080567678 -1.5306688210499095
-0.3453885469978175 -1.2713238047284565
-0.38638853017466845 -1.160175940590691
-0.4273885133515194 -1.3083730927743784
-0.40005519123361877 -1.641816685187675
-0.4410551744104697 -1.901161701509128
-0.4820551575873206 -1.864112413463206
-0.5367218018231219 -1.4936195330039876
-0.5367218018231219 -1.3454223808203003
-0.5093884797052213 -1.3454223808203003
-0.4957218186462709 -1.6788659732335969
-0.5093884797052213 -1.8270631254172844
-0.4820551575873206 -1.5677181090958314
-0.4957218186462709 -1.3454223808203003
-0.4957218186462709 -1.2713238047284565
-0.5230551407641716 -1.4936195330039876
-0.5503884628820722 -1.901161701509128
-0.5503884628820722 -2.0123095656468935
-0.6187217681768237 -1.864112413463206
-0.6460550902947243 -1.6047673971417533
-0.6187217681768237 -1.4565702449580658
-0.5640551239410225 -1.5677181090958314
-0.5777217849999728 -1.7900138373713625
-0.5093884797052213 -1.864112413463206
-0.4957218186462709 -1.7159152612795188
-0.5503884628820722 -1.4565702449580658
-0.5230551407641716 -1.160175940590691
-0.5230551407641716 -1.2342745166825346
-0.5367218018231219 -1.6047673971417533
-0.5503884628820722 -1.901161701509128
-0.591388446058923 -1.864112413463206
-0.591388446058923 -1.6047673971417533
-0.6050551071178734 -1.3824716688662222
-0.591388446058923 -1.3824716688662222
-0.5093884797052213 -1.7159152612795188
-0.4957218186462709 -1.901161701509128
-0.4683884965283703 -1.641816685187675
-0.4820551575873206 -1.419520956912144
-0.4683884965283703 -1.160175940590691
-0.4683884965283703 -1.3454223808203003
-0.4820551575873206 -1.7159152612795188
-0.5230551407641716 -2.123457429784659
-0.5093884797052213 -2.123457429784659
-0.4820551575873206 -1.7529645493254407
-0.5093884797052213 -1.3824716688662222
-0.5230551407641716 -1.2713238047284565
-0.4820551575873206 -1.419520956912144
-0.4410551744104697 -1.7159152612795188
-0.4137218522925691 -1.6788659732335969
-0.45472183546941997 -1.4936195330039876
-0.4410551744104697 -1.197225228636613
-0.4273885133515194 -1.160175940590691
-0.4683884965283703 -1.5306688210499095
-0.4410551744104697 -1.864112413463206
-0.4273885133515194 -1.7900138373713625
-0.4957218186462709 -1.641816685187675
-0.4820551575873206 -1.3083730927743784
-0.45472183546941997 -1.3454223808203003
-0.45472183546941997 -1.4936195330039876
-0.4273885133515194 -1.8270631254172844
-0.37272186911571814 -1.641816685187675
-0.38638853017466845 -1.6047673971417533
-0.4137218522925691 -1.197225228636613
-0.38638853017466845 -1.2342745166825346
-0.45472183546941997 -1.6047673971417533
-0.4273885133515194 -1.9752602776009718
-0.4683884965283703 -2.0123095656468935
-0.45472183546941997 -1.8270631254172844
-0.4683884965283703 -1.3454223808203003
-0.4820551575873206 -1.160175940590691
-0.45472183546941997 -1.3824716688662222
-0.3590552080567678 -1.6047673971417533
-0.3180552248799169 -1.6047673971417533
-0.3043885638209666 -1.5306688210499095
-0.26338858064411563 -1.2713238047284565
-0.27705524170306595 -1.0490280764529254
-0.24972191958516532 -1.3083730927743784
-0.26338858064411563 -1.6788659732335969
-0.24972191958516532 -1.864112413463206
-0.26338858064411563 -1.7529645493254407
-0.22238859746726472 -1.419520956912144
-0.16772195323146347 -1.160175940590691
-0.05838866475986098 -1.2713238047284565
0.023611301593840884 -1.5677181090958314
0.10561126794754275 -1.4565702449580658
0.160277912183344 -1.2713238047284565
0.20127789536019491 -0.900830924269238
0.25594453959599617 -0.8637816362233163
0.2696112006549465 -1.1231266525447692
0.25594453959599617 -1.3824716688662222
0.20127789536019491 -1.3454223808203003
0.21494455641914523 -1.0860773644988473
0.13294459006544337 -0.6785351959937069
0.13294459006544337 -0.6044366199018633
0.1876112343012446 -0.8267323481773944
0.20127789536019491 -1.160175940590691
0.1466112511243937 -1.197225228636613
0.10561126794754275 -1.0490280764529254
0.05094462371174151 -0.6785351959937069
0.023611301593840884 -0.4932887557640977
-0.03105534264196036 -0.8267323481773944
-0.0037220205240597382 -1.2713238047284565
-0.0037220205240597382 -1.5677181090958314
-0.03105534264196036 -1.5677181090958314
-0.0857219868777616 -1.2713238047284565
-0.1950552753493641 -1.0490280764529254
-0.22238859746726472 -1.2342745166825346
-0.2087219364083144 -1.5677181090958314
-0.3043885638209666 -1.7529645493254407
-0.3453885469978175 -1.641816685187675
-0.3590552080567678 -1.3454223808203003
-0.4410551744104697 -1.2342745166825346
-0.4410551744104697 -1.5306688210499095
-0.4683884965283703 -1.8270631254172844
-0.4957218186462709 -1.901161701509128
-0.5093884797052213 -1.7159152612795188
-0.5640551239410225 -1.4565702449580658
-0.591388446058923 -1.1231266525447692
-0.5367218018231219 -1.197225228636613
-0.5093884797052213 -1.6047673971417533
-0.4820551575873206 -1.7900138373713625
-0.45472183546941997 -1.6047673971417533
-0.5367218018231219 -1.3824716688662222
-0.5777217849999728 -1.2342745166825346
-0.5503884628820722 -1.2713238047284565
-0.5640551239410225 -1.641816685187675
-0.5640551239410225 -1.901161701509128
-0.5230551407641716 -1.8270631254172844
-0.5503884628820722 -1.5677181090958314
-0.6050551071178734 -1.2342745166825346
-0.6050551071178734 -1.2713238047284565
-0.6597217513536746 -1.3454223808203003
-0.7690550398252771 -1.5306688210499095
-0.9193883114737306 -1.5677181090958314
-1.0560549220632336 -1.2342745166825346
-1.1107215662990348 -1.2713238047284565
-1.0423882610042834 -1.3083730927743784
-0.851055006178979 -1.3824716688662222
-0.5093884797052213 -1.0490280764529254
-0.01738868158301005 -0.419190179672254
0.4746111165392011 0.24769700515433932
1.1169441863098657 1.06278134216462
1.7319439339626297 1.1368799182564637
2.360610342674344 1.4332742226238386
2.8662768018555056 1.581471374807526
3.3856099220956173 1.9890135433126663
3.8502763980999277 2.100161407450432
4.260276229868437 1.581471374807526
4.4516094846937415 0.5811405975676359
4.601942756342195 -0.4932887557640977
4.492609467870593 -1.2342745166825346
4.396942840457941 -1.419520956912144
4.191942924573685 -1.160175940590691
3.904943042335729 -0.7896830601314725
3.50860987162617 -0.30804231553448846
2.8116101576197043 0.0994998529706519
1.9096105277289837 0.5070420214757922
0.993944236779313 0.3958941573380267
0.22861121747809554 -0.27099302748856663
-0.22238859746726472 -1.2342745166825346
-0.4137218522925691 -2.0864081417387372
-0.3317218859388672 -2.4939503102438776
-0.23605525852621503 -2.123457429784659
-0.16772195323146347 -1.6788659732335969
-0.09938864793671191 -1.3454223808203003
-0.18138861429041378 -1.3824716688662222
-0.24972191958516532 -1.6047673971417533
-0.3453885469978175 -1.6047673971417533
-0.5093884797052213 -1.3454223808203003
-0.6870550734715752 -1.160175940590691
-0.7143883955894759 -0.9749295003610817
-0.7417217177073765 -1.3454223808203003
-0.7690550398252771 -1.7529645493254407
-0.7963883619431777 -1.7900138373713625
-0.8237216840610784 -1.6047673971417533
-0.8100550230021281 -1.3083730927743784
-0.851055006178979 -1.160175940590691
-0.8100550230021281 -1.160175940590691
-0.6870550734715752 -1.3824716688662222
-0.7143883955894759 -1.4565702449580658
-0.6597217513536746 -1.197225228636613
-0.7007217345305256 -0.9749295003610817
-0.7007217345305256 -0.7896830601314725
-0.6870550734715752 -0.9749295003610817
-0.6870550734715752 -1.419520956912144
-0.7417217177073765 -1.4936195330039876
-0.7690550398252771 -1.4936195330039876
-0.8373883451200287 -1.0860773644988473
-0.7827217008842274 -0.8637816362233163
-0.7690550398252771 -0.93788021231516
-0.6870550734715752 -1.2342745166825346
-0.632388429235774 -1.3824716688662222
-0.6733884124126249 -1.0860773644988473
-0.6870550734715752 -0.6785351959937069
-0.7280550566484262 -0.6414859079477852
-0.6733884124126249 -0.8637816362233163
-0.6870550734715752 -1.2342745166825346
-0.7280550566484262 -1.419520956912144
-0.7553883787663268 -1.3083730927743784
-0.7553883787663268 -0.8637816362233163
-0.7963883619431777 -0.7155844840396288
-0.7553883787663268 -0.8637816362233163
-0.7553883787663268 -1.0490280764529254
-0.7417217177073765 -1.0119787884070037
-0.7280550566484262 -0.8637816362233163
-0.7143883955894759 -0.6044366199018633
-0.7553883787663268 -0.27099302748856663
-0.7143883955894759 -0.6414859079477852
-0.7143883955894759 -1.0490280764529254
-0.7417217177073765 -1.3083730927743784
-0.7690550398252771 -1.1231266525447692
-0.7690550398252771 -0.7896830601314725
-0.7827217008842274 -0.45623946771817586
-0.7553883787663268 -0.38214089162633214
-0.7280550566484262 -0.7155844840396288
-0.7007217345305256 -0.8637816362233163
-0.6870550734715752 -0.6414859079477852
-0.6597217513536746 -0.38214089162633214
-0.6870550734715752 -0.15984516335080104
-0.7007217345305256 -0.30804231553448846
-0.6870550734715752 -0.6414859079477852
-0.7417217177073765 -0.93788021231516
-0.7690550398252771 -0.900830924269238
-0.8237216840610784 -0.5673873318559414
-0.7827217008842274 -0.45623946771817586
-0.7280550566484262 -0.45623946771817586
-0.6733884124126249 -0.6044366199018633
-0.6460550902947243 -0.8267323481773944
-0.632388429235774 -0.6785351959937069
-0.591388446058923 -0.30804231553448846
-0.6460550902947243 -0.1227958753048792
-0.6460550902947243 -0.30804231553448846
-0.6597217513536746 -0.7526337720855507
-0.6050551071178734 -1.0119787884070037
-0.632388429235774 -0.93788021231516
-0.6187217681768237 -0.7155844840396288
-0.6187217681768237 -0.45623946771817586
-0.6050551071178734 -0.4932887557640977
-0.5777217849999728 -0.7896830601314725
-0.4957218186462709 -0.93788021231516
-0.4820551575873206 -0.8637816362233163
-0.4957218186462709 -0.6044366199018633
-0.4683884965283703 -0.27099302748856663
-0.4957218186462709 -0.419190179672254
-0.4957218186462709 -0.7155844840396288
-0.4410551744104697 -1.0490280764529254
-0.40005519123361877 -1.160175940590691
-0.40005519123361877 -1.0860773644988473
-0.38638853017466845 -0.8267323481773944
-0.37272186911571814 -0.4932887557640977
-0.3590552080567678 -0.6044366199018633
-0.3043885638209666 -0.8267323481773944
-0.24972191958516532 -1.0119787884070037
-0.23605525852621503 -1.0490280764529254
-0.23605525852621503 -0.6785351959937069
-0.3043885638209666 -0.6044366199018633
-0.3180552248799169 -0.7155844840396288
-0.27705524170306595 -1.160175940590691
-0.3180552248799169 -1.3824716688662222
-0.3180552248799169 -1.2342745166825346
-0.3317218859388672 -0.93788021231516
-0.37272186911571814 -0.5303380438100196
-0.27705524170306595 -0.6414859079477852
-0.26338858064411563 -1.0119787884070037
-0.23605525852621503 -1.2342745166825346
-0.24972191958516532 -1.197225228636613
-0.24972191958516532 -0.8637816362233163
-0.27705524170306595 -0.7155844840396288
-0.26338858064411563 -0.7526337720855507
-0.3043885638209666 -1.0860773644988473
-0.29072190276201626 -1.419520956912144
-0.3043885638209666 -1.4936195330039876
-0.3043885638209666 -1.197225228636613
-0.3453885469978175 -0.8267323481773944
-0.3043885638209666 -0.7526337720855507
-0.3317218859388672 -0.93788021231516
-0.23605525852621503 -1.197225228636613
-0.24972191958516532 -1.1231266525447692
-0.27705524170306595 -0.9749295003610817
-0.3180552248799169 -0.7526337720855507
-0.37272186911571814 -0.7896830601314725
-0.3590552080567678 -1.160175940590691
-0.38638853017466845 -1.4565702449580658
-0.37272186911571814 -1.4936195330039876
-0.38638853017466845 -1.197225228636613
-0.4683884965283703 -0.8267323481773944
-0.4137218522925691 -0.7155844840396288
-0.3590552080567678 -0.7896830601314725
-0.3590552080567678 -1.1231266525447692
-0.37272186911571814 -1.3083730927743784
-0.3590552080567678 -1.0490280764529254
-0.4273885133515194 -0.7526337720855507
-0.4410551744104697 -0.7896830601314725
-0.4683884965283703 -1.160175940590691
-0.4273885133515194 -1.5306688210499095
-0.4957218186462709 -1.5306688210499095
-0.5230551407641716 -1.3824716688662222
-0.5093884797052213 -1.0119787884070037
-0.5230551407641716 -0.8267323481773944
-0.4957218186462709 -1.0490280764529254
-0.45472183546941997 -1.2713238047284565
-0.45472183546941997 -1.2713238047284565
-0.4820551575873206 -0.900830924269238
-0.4957218186462709 -0.7526337720855507
-0.5503884628820722 -0.9749295003610817
-0.5777217849999728 -1.3454223808203003
-0.5503884628820722 -1.6047673971417533
-0.5640551239410225 -1.3824716688662222
-0.5777217849999728 -1.1231266525447692
-0.5367218018231219 -0.900830924269238
-0.4683884965283703 -1.160175940590691
-0.4410551744104697 -1.4565702449580658
-0.4683884965283703 -1.4936195330039876
-0.4273885133515194 -1.3083730927743784
-0.4410551744104697 -0.9749295003610817
-0.45472183546941997 -0.6785351959937069
-0.4820551575873206 -1.0490280764529254
-0.45472183546941997 -1.419520956912144
-0.4820551575873206 -1.6788659732335969
-0.4683884965283703 -1.6788659732335969
-0.5093884797052213 -1.3454223808203003
-0.4820551575873206 -0.9749295003610817
-0.4820551575873206 -0.7526337720855507
-0.4273885133515194 -0.9749295003610817
-0.37272186911571814 -1.2342745166825346
-0.3590552080567678 -1.3083730927743784
-0.3590552080567678 -1.2713238047284565
-0.4273885133515194 -0.93788021231516
-0.4410551744104697 -0.900830924269238
-0.4957218186462709 -1.1231266525447692
-0.4273885133515194 -1.5306688210499095
-0.4273885133515194 -1.5677181090958314
-0.4410551744104697 -1.3083730927743784
-0.4957218186462709 -0.9749295003610817
-0.4410551744104697 -0.8267323481773944
-0.38638853017466845 -1.1231266525447692
-0.3317218859388672 -1.197225228636613
-0.3043885638209666 -1.4565702449580658
-0.29072190276201626 -1.1231266525447692
-0.3453885469978175 -0.9749295003610817
-0.4137218522925691 -0.7896830601314725
-0.4273885133515194 -1.0119787884070037
-0.4410551744104697 -1.419520956912144
-0.4137218522925691 -1.7900138373713625
-0.37272186911571814 -1.641816685187675
-0.37272186911571814 -1.160175940590691
-0.38638853017466845 -0.7896830601314725
-0.37272186911571814 -0.6785351959937069
-0.3043885638209666 -0.8637816362233163
-0.29072190276201626 -1.3824716688662222
-0.26338858064411563 -1.419520956912144
-0.3180552248799169 -1.197225228636613
-0.3590552080567678 -0.8637816362233163
-0.3590552080567678 -0.7155844840396288
-0.3590552080567678 -0.93788021231516
-0.3317218859388672 -1.3083730927743784
-0.24972191958516532 -1.641816685187675
-0.24972191958516532 -1.5677181090958314
-0.22238859746726472 -1.0490280764529254
-0.2087219364083144 -0.7155844840396288
-0.16772195323146347 -0.5303380438100196
-0.15405529217251315 -0.8637816362233163
-0.11305530899566223 -1.197225228636613
-0.09938864793671191 -1.5677181090958314
-0.12672197005461253 -1.3454223808203003
-0.11305530899566223 -1.0119787884070037
-0.11305530899566223 -0.900830924269238
-0.05838866475986098 -0.93788021231516
0.023611301593840884 -1.3454223808203003
0.06461128477069182 -1.3454223808203003
0.1466112511243937 -1.160175940590691
0.1876112343012446 -0.6785351959937069
0.22861121747809554 -0.23394373944264477
0.25594453959599617 -0.419190179672254
0.2832778617138968 -0.6785351959937069
0.2969445227728471 -0.900830924269238
0.25594453959599617 -0.7896830601314725
0.2832778617138968 -0.5303380438100196
0.22861121747809554 -0.23394373944264477
0.22861121747809554 -0.3450916035804103
0.21494455641914523 -0.7896830601314725
0.21494455641914523 -0.900830924269238
0.1876112343012446 -0.8637816362233163
0.13294459006544337 -0.419190179672254
0.09194460688859243 -0.15984516335080104
0.09194460688859243 -0.30804231553448846
0.10561126794754275 -0.5673873318559414
0.13294459006544337 -0.9749295003610817
0.05094462371174151 -1.0119787884070037
-0.0037220205240597382 -0.8637816362233163
-0.12672197005461253 -0.7155844840396288
-0.1950552753493641 -0.8637816362233163
-0.27705524170306595 -1.0490280764529254
-0.24972191958516532 -1.4565702449580658
-0.3043885638209666 -1.6047673971417533
-0.3317218859388672 -1.3824716688662222
-0.40005519123361877 -0.900830924269238
-0.3317218859388672 -0.7155844840396288
-0.3590552080567678 -0.6044366199018633
-0.3590552080567678 -1.160175940590691
-0.40005519123361877 -1.3083730927743784
-0.38638853017466845 -1.3824716688662222
-0.4820551575873206 -1.160175940590691
-0.4957218186462709 -0.8637816362233163
-0.4820551575873206 -0.9749295003610817
-0.4273885133515194 -1.3083730927743784
-0.40005519123361877 -1.3454223808203003
-0.38638853017466845 -1.2713238047284565
-0.37272186911571814 -0.7896830601314725
-0.38638853017466845 -0.6044366199018633
-0.3590552080567678 -0.6044366199018633
-0.40005519123361877 -0.93788021231516
-0.40005519123361877 -1.3824716688662222
-0.40005519123361877 -1.4936195330039876
-0.45472183546941997 -1.160175940590691
-0.4957218186462709 -1.0119787884070037
-0.5640551239410225 -0.7155844840396288
-0.6050551071178734 -1.0860773644988473
-0.6733884124126249 -1.3454223808203003
-0.7963883619431777 -1.419520956912144
-0.9193883114737306 -1.2342745166825346
-1.028721599945333 -0.93788021231516
-1.0560549220632336 -0.5673873318559414
-0.9603882946505815 -0.7526337720855507
-0.7417217177073765 -0.900830924269238
-0.4683884965283703 -0.8267323481773944
-0.03105534264196036 -0.1968944513967229
0.4746111165392011 0.5811405975676359
1.0486108810151142 1.285077070440151
1.608943984432077 1.6926192389452914
2.2102770710258905 1.7296685269912133
2.7296101912660022 1.7667178150371352
3.1806100062113627 2.100161407450432
3.6316098211567227 2.4336049998637286
4.000609669748381 2.5447528640014943
4.301276213045288 2.2113092715881972
4.519942789988493 1.2109784943483075
4.601942756342195 0.0994998529706519
4.519942789988493 -0.93788021231516
4.41060950151689 -1.0490280764529254
4.205609585632636 -0.7896830601314725
3.9596096865715302 -0.27099302748856663
3.6316098211567227 0.13654914101657376
3.0029434124450085 0.5440913095217141
2.128277104672189 0.7293377497513234
1.2399441358404186 0.6922884617054015
0.48827777759815144 0.06245056492473005
-0.05838866475986098 -0.6414859079477852
-0.29072190276201626 -1.6047673971417533
-0.3043885638209666 -1.9752602776009718
-0.1950552753493641 -1.901161701509128
-0.0857219868777616 -1.3454223808203003
-0.04472200370091067 -1.0490280764529254
-0.11305530899566223 -1.197225228636613
-0.24972191958516532 -1.160175940590691
-0.3317218859388672 -1.197225228636613
-0.4820551575873206 -1.0119787884070037
-0.5777217849999728 -0.7896830601314725
-0.632388429235774 -0.8267323481773944
-0.7007217345305256 -1.1231266525447692
-0.7007217345305256 -1.641816685187675
-0.7007217345305256 -1.864112413463206
-0.7143883955894759 -1.6047673971417533
-0.7553883787663268 -1.160175940590691
-0.7280550566484262 -0.900830924269238
-0.7280550566484262 -0.8267323481773944
-0.632388429235774 -1.0860773644988473
-0.6460550902947243 -1.3824716688662222
-0.6187217681768237 -1.197225228636613
-0.6187217681768237 -0.7896830601314725
-0.6733884124126249 -0.4932887557640977
-0.6733884124126249 -0.6044366199018633
-0.7007217345305256 -0.900830924269238
-0.6870550734715752 -1.3083730927743784
-0.7280550566484262 -1.4565702449580658
-0.7280550566484262 -1.197225228636613
-0.7417217177073765 -0.8637816362233163
-0.7963883619431777 -0.7526337720855507
-0.7553883787663268 -0.900830924269238
-0.6733884124126249 -1.1231266525447692
-0.6597217513536746 -1.0860773644988473
-0.632388429235774 -0.7526337720855507
-0.6597217513536746 -0.419190179672254
-0.7007217345305256 -0.5303380438100196
-0.632388429235774 -0.7896830601314725
-0.6460550902947243 -1.160175940590691
-0.632388429235774 -1.2342745166825346
-0.7007217345305256 -1.0490280764529254
-0.7280550566484262 -0.6044366199018633
-0.7417217177073765 -0.4932887557640977
-0.6597217513536746 -0.5303380438100196
-0.632388429235774 -0.900830924269238
-0.591388446058923 -0.8267323481773944
-0.632388429235774 -0.7155844840396288
-0.6597217513536746 -0.30804231553448846
-0.7417217177073765 -0.23394373944264477
-0.7553883787663268 -0.38214089162633214
-0.7553883787663268 -0.7155844840396288
-0.6733884124126249 -0.900830924269238
-0.7143883955894759 -0.7155844840396288
-0.7417217177073765 -0.419190179672254
-0.7417217177073765 -0.15984516335080104
-0.7007217345305256 -0.1968944513967229
-0.6733884124126249 -0.38214089162633214
-0.632388429235774 -0.5673873318559414
-0.6050551071178734 -0.5673873318559414
-0.6460550902947243 -0.3450916035804103
-0.632388429235774 0.0254012768788082
-0.6733884124126249 -0.08574658725895735
-0.7007217345305256 -0.419190179672254
-0.6870550734715752 -0.6785351959937069
-0.7280550566484262 -0.7896830601314725
-0.6870550734715752 -0.38214089162633214
-0.6733884124126249 -0.011648011167113649
-0.6870550734715752 -0.011648011167113649
-0.6460550902947243 -0.1968944513967229
-0.6050551071178734 -0.4932887557640977
-0.5777217849999728 -0.5303380438100196
-0.6050551071178734 -0.27099302748856663
-0.591388446058923 -0.08574658725895735
-0.591388446058923 -0.15984516335080104
-0.5640551239410225 -0.5303380438100196
-0.5640551239410225 -0.7526337720855507
-0.591388446058923 -0.6414859079477852
-0.5503884628820722 -0.3450916035804103
-0.5230551407641716 -0.23394373944264477
-0.4820551575873206 -0.3450916035804103
-0.4137218522925691 -0.45623946771817586
-0.40005519123361877 -0.27099302748856663
-0.38638853017466845 -0.011648011167113649
-0.3590552080567678 0.0994998529706519
-0.3180552248799169 -0.08574658725895735
-0.3180552248799169 -0.45623946771817586
-0.24972191958516532 -0.7526337720855507
-0.3453885469978175 -0.4932887557640977
-0.3180552248799169 -0.30804231553448846
-0.38638853017466845 -0.08574658725895735
-0.3180552248799169 -0.15984516335080104
-0.22238859746726472 -0.45623946771817586
-0.18138861429041378 -0.5673873318559414
-0.16772195323146347 -0.30804231553448846
-0.16772195323146347 0.0254012768788082
-0.1950552753493641 0.0994998529706519
-0.16772195323146347 0.0254012768788082
-0.1950552753493641 -0.4932887557640977
-0.2087219364083144 -0.8267323481773944
-0.24972191958516532 -0.7526337720855507
-0.27705524170306595 -0.38214089162633214
-0.24972191958516532 -0.27099302748856663
-0.24972191958516532 -0.27099302748856663
-0.23605525852621503 -0.6044366199018633
-0.1950552753493641 -0.5673873318559414
-0.22238859746726472 -0.45623946771817586
-0.23605525852621503 -0.1227958753048792
-0.26338858064411563 0.0254012768788082
-0.2087219364083144 -0.1968944513967229
-0.18138861429041378 -0.7526337720855507
-0.2087219364083144 -0.900830924269238
-0.27705524170306595 -0.7896830601314725
-0.3043885638209666 -0.4932887557640977
-0.27705524170306595 -0.27099302748856663
-0.27705524170306595 -0.30804231553448846
-0.26338858064411563 -0.5673873318559414
-0.18138861429041378 -0.8267323481773944
-0.2087219364083144 -0.5673873318559414
-0.16772195323146347 -0.1968944513967229
-0.22238859746726472 -0.011648011167113649
-0.26338858064411563 -0.011648011167113649
-0.24972191958516532 -0.38214089162633214
-0.26338858064411563 -0.8267323481773944
-0.26338858064411563 -0.7896830601314725
-0.3317218859388672 -0.6044366199018633
-0.3590552080567678 -0.1968944513967229
-0.4137218522925691 -0.1227958753048792
-0.3317218859388672 -0.27099302748856663
-0.3043885638209666 -0.5673873318559414
-0.27705524170306595 -0.5673873318559414
-0.26338858064411563 -0.1968944513967229
-0.3180552248799169 -0.011648011167113649
-0.38638853017466845 -0.08574658725895735
-0.37272186911571814 -0.23394373944264477
-0.40005519123361877 -0.8267323481773944
-0.45472183546941997 -0.900830924269238
-0.4683884965283703 -0.7155844840396288
-0.5093884797052213 -0.30804231553448846
-0.4820551575873206 -0.27099302748856663
-0.4137218522925691 -0.45623946771817586
-0.38638853017466845 -0.6414859079477852
-0.38638853017466845 -0.5673873318559414
-0.37272186911571814 -0.3450916035804103
-0.4137218522925691 -0.011648011167113649
-0.4957218186462709 -0.15984516335080104
-0.4820551575873206 -0.6785351959937069
-0.4957218186462709 -0.8267323481773944
-0.4820551575873206 -0.8267323481773944
-0.4957218186462709 -0.419190179672254
-0.5230551407641716 -0.23394373944264477
-0.4683884965283703 -0.3450916035804103
-0.4137218522925691 -0.5303380438100196
-0.3590552080567678 -0.6414859079477852
-0.3317218859388672 -0.3450916035804103
-0.3590552080567678 0.0254012768788082
-0.38638853017466845 0.0254012768788082
-0.40005519123361877 -0.38214089162633214
-0.40005519123361877 -0.6414859079477852
-0.3453885469978175 -0.8637816362233163
-0.3453885469978175 -0.6414859079477852
-0.3590552080567678 -0.15984516335080104
-0.3590552080567678 -0.15984516335080104
-0.38638853017466845 -0.38214089162633214
-0.3043885638209666 -0.6785351959937069
-0.29072190276201626 -0.5673873318559414
-0.3043885638209666 -0.3450916035804103
-0.29072190276201626 0.06245056492473005
-0.3180552248799169 0.13654914101657376
-0.3043885638209666 -0.08574658725895735
-0.27705524170306595 -0.5303380438100196
-0.3043885638209666 -0.7526337720855507
-0.3180552248799169 -0.6044366199018633
-0.37272186911571814 -0.38214089162633214
-0.3453885469978175 -0.0486972992130355
-0.3317218859388672 -0.27099302748856663
-0.29072190276201626 -0.5303380438100196
-0.29072190276201626 -0.6785351959937069
-0.26338858064411563 -0.15984516335080104
-0.26338858064411563 0.17359842906249562
-0.3043885638209666 0.13654914101657376
-0.29072190276201626 0.0254012768788082
-0.24972191958516532 -0.6044366199018633
-0.26338858064411563 -0.6785351959937069
-0.3180552248799169 -0.6044366199018633
-0.3180552248799169 -0.1227958753048792
-0.3453885469978175 0.13654914101657376
-0.3180552248799169 0.13654914101657376
-0.24972191958516532 -0.1968944513967229
-0.22238859746726472 -0.45623946771817586
-0.16772195323146347 -0.3450916035804103
-0.15405529217251315 -0.08574658725895735
-0.18138861429041378 0.321795581246183
-0.1950552753493641 0.24769700515433932
-0.1950552753493641 -0.15984516335080104
-0.2087219364083144 -0.3450916035804103
-0.24972191958516532 -0.4932887557640977
-0.24972191958516532 -0.1227958753048792
-0.26338858064411563 -0.011648011167113649
-0.23605525852621503 -0.1227958753048792
-0.1950552753493641 -0.27099302748856663
-0.11305530899566223 -0.419190179672254
-0.14038863111356284 -0.1227958753048792
-0.12672197005461253 0.0254012768788082
-0.09938864793671191 0.24769700515433932
-0.07205532581881129 0.13654914101657376
-0.09938864793671191 -0.30804231553448846
-0.05838866475986098 -0.5303380438100196
-0.0037220205240597382 -0.419190179672254
0.009944640534890572 -0.0486972992130355
0.07827794582964212 0.321795581246183
0.1466112511243937 0.24769700515433932
0.21494455641914523 0.0254012768788082
0.3106111838317974 -0.08574658725895735
0.33794450594969805 0.0994998529706519
0.3652778280675987 0.5440913095217141
0.35161116700864836 0.7663870377972453
0.378944489126549 0.5811405975676359
0.39261115018549925 0.35884486929210485
0.4199444723033999 0.0994998529706519
0.35161116700864836 0.321795581246183
0.3106111838317974 0.5070420214757922
0.2832778617138968 0.5440913095217141
0.2832778617138968 0.4329434453839486
0.2832778617138968 0.3958941573380267
0.2969445227728471 0.5070420214757922
0.22861121747809554 0.7293377497513234
0.24227787853704585 0.8404856138890889
0.20127789536019491 0.6181898856135578
0.1739445732422943 0.2847462932002612
0.10561126794754275 0.0254012768788082
-0.03105534264196036 0.06245056492473005
-0.11305530899566223 0.0994998529706519
-0.18138861429041378 0.06245056492473005
-0.18138861429041378 -0.15984516335080104
-0.1950552753493641 -0.5303380438100196
-0.23605525852621503 -0.27099302748856663
-0.24972191958516532 0.06245056492473005
-0.27705524170306595 0.5070420214757922
-0.23605525852621503 0.5811405975676359
-0.23605525852621503 0.2847462932002612
-0.24972191958516532 -0.15984516335080104
-0.24972191958516532 -0.27099302748856663
-0.3453885469978175 -0.08574658725895735
-0.3180552248799169 -0.011648011167113649
-0.3590552080567678 -0.011648011167113649
-0.3453885469978175 -0.1227958753048792
-0.27705524170306595 -0.4932887557640977
-0.29072190276201626 -0.3450916035804103
-0.24972191958516532 -0.011648011167113649
-0.26338858064411563 0.3958941573380267
-0.24972191958516532 0.3958941573380267
-0.24972191958516532 0.06245056492473005
-0.23605525852621503 -0.30804231553448846
-0.24972191958516532 -0.30804231553448846
-0.3043885638209666 -0.0486972992130355
-0.45472183546941997 0.17359842906249562
-0.5230551407641716 0.06245056492473005
-0.632388429235774 -0.15984516335080104
-0.7417217177073765 -0.45623946771817586
-0.8237216840610784 -0.419190179672254
-0.9057216504147803 -0.15984516335080104
-0.9057216504147803 0.2847462932002612
-0.7690550398252771 0.6922884617054015
-0.5230551407641716 0.6552391736594797
-0.14038863111356284 0.6181898856135578
0.32427784489074774 0.803436325843167
0.8846109483077105 1.285077070440151
1.349277424312021 2.137210695496354
1.9096105277289837 2.841147168368869
2.3742770037332943 3.359837201011775
2.9072767850323564 3.359837201011775
3.426609905272468 3.359837201011775
3.904943042335729 3.3968864890576964
4.301276213045288 3.545083641241384
4.588276095283245 3.322787912965853
4.724942705872747 2.322457135725963
4.779609350108549 1.1368799182564637
4.711276044813798 0.21064771710841745
4.588276095283245 -0.011648011167113649
4.36960951834004 0.24769700515433932
4.068942975043133 1.1368799182564637
3.590609837979872 1.6555699508993695
2.893610123973406 1.9890135433126663
1.9916104940826855 1.9519642552667444
1.1442775084277663 1.581471374807526
0.4199444723033999 1.322126358486073
0.023611301593840884 0.6552391736594797
-0.15405529217251315 0.17359842906249562
-0.05838866475986098 -0.38214089162633214
0.10561126794754275 -0.6044366199018633
0.1876112343012446 -0.38214089162633214
0.21494455641914523 0.0994998529706519
0.06461128477069182 0.35884486929210485
-0.11305530899566223 0.17359842906249562
-0.23605525852621503 -0.0486972992130355
-0.38638853017466845 -0.15984516335080104
-0.5093884797052213 -0.011648011167113649
-0.5503884628820722 0.2847462932002612
-0.5503884628820722 0.321795581246183
-0.5503884628820722 0.06245056492473005
-0.5367218018231219 -0.1227958753048792
-0.591388446058923 -0.30804231553448846
-0.591388446058923 -0.1227958753048792
-0.591388446058923 0.0254012768788082
-0.5640551239410225 -0.08574658725895735
-0.5367218018231219 -0.23394373944264477
-0.5093884797052213 -0.27099302748856663
-0.45472183546941997 -0.08574658725895735
-0.45472183546941997 0.4699927334298704
-0.4820551575873206 0.803436325843167
-0.4683884965283703 0.7663870377972453
-0.4820551575873206 0.4329434453839486
-0.5093884797052213 -0.08574658725895735
-0.4820551575873206 -0.0486972992130355
-0.5093884797052213 0.13654914101657376
-0.5230551407641716 0.2847462932002612
-0.6187217681768237 0.3958941573380267
-0.6050551071178734 0.21064771710841745
-0.591388446058923 -0.15984516335080104
-0.591388446058923 0.0254012768788082
-0.5367218018231219 0.35884486929210485
-0.591388446058923 0.6181898856135578
-0.5230551407641716 0.6922884617054015
-0.5367218018231219 0.24769700515433932
-0.5777217849999728 -0.15984516335080104
-0.5777217849999728 0.06245056492473005
-0.6050551071178734 0.17359842906249562
-0.6460550902947243 0.4329434453839486
-0.6050551071178734 0.4699927334298704
-0.5777217849999728 0.17359842906249562
-0.5640551239410225 -0.08574658725895735
-0.5367218018231219 -0.1227958753048792
-0.4957218186462709 0.4699927334298704
-0.5367218018231219 0.8404856138890889
-0.5367218018231219 0.9886827660727763
-0.4957218186462709 0.6181898856135578
-0.5367218018231219 0.17359842906249562
-0.5777217849999728 -0.0486972992130355
-0.6597217513536746 0.13654914101657376
-0.6733884124126249 0.3958941573380267
-0.7007217345305256 0.5070420214757922
-0.6733884124126249 0.3958941573380267
-0.6187217681768237 0.13654914101657376
-0.6460550902947243 0.13654914101657376
-0.632388429235774 0.4699927334298704
-0.6187217681768237 0.8775349019350108
-0.5777217849999728 0.9886827660727763
-0.5640551239410225 0.7663870377972453
-0.5230551407641716 0.35884486929210485
-0.4957218186462709 0.06245056492473005
-0.5230551407641716 0.21064771710841745
-0.5503884628820722 0.4329434453839486
-0.5503884628820722 0.7663870377972453
-0.5640551239410225 0.7293377497513234
-0.5367218018231219 0.3958941573380267
-0.5230551407641716 0.2847462932002612
-0.4683884965283703 0.5440913095217141
-0.4683884965283703 0.7293377497513234
-0.4137218522925691 0.803436325843167
-0.4410551744104697 0.5440913095217141
-0.4957218186462709 0.0994998529706519
-0.45472183546941997 0.0254012768788082
-0.45472183546941997 0.21064771710841745
-0.4820551575873206 0.321795581246183
-0.4410551744104697 0.4329434453839486
-0.4137218522925691 0.2847462932002612
-0.3590552080567678 0.0254012768788082
-0.27705524170306595 0.17359842906249562
-0.1950552753493641 0.5070420214757922
-0.18138861429041378 0.9145841899809326
-0.14038863111356284 0.6181898856135578
-0.11305530899566223 0.5070420214757922
-0.14038863111356284 0.13654914101657376
-0.14038863111356284 0.17359842906249562
-0.2087219364083144 0.35884486929210485
-0.22238859746726472 0.4699927334298704
-0.18138861429041378 0.321795581246183
-0.16772195323146347 0.0994998529706519
-0.15405529217251315 -0.08574658725895735
-0.14038863111356284 0.0254012768788082
-0.14038863111356284 0.4699927334298704
-0.12672197005461253 0.7663870377972453
-0.09938864793671191 0.5440913095217141
-0.09938864793671191 0.2847462932002612
-0.0857219868777616 -0.1227958753048792
-0.0857219868777616 -0.1968944513967229
-0.16772195323146347 0.13654914101657376
-0.15405529217251315 0.35884486929210485
-0.2087219364083144 0.3958941573380267
-0.16772195323146347 0.21064771710841745
-0.2087219364083144 -0.011648011167113649
-0.18138861429041378 -0.0486972992130355
-0.15405529217251315 0.2847462932002612
-0.15405529217251315 0.6181898856135578
-0.14038863111356284 0.5811405975676359
-0.16772195323146347 0.2847462932002612
-0.1950552753493641 0.0254012768788082
-0.1950552753493641 -0.0486972992130355
-0.22238859746726472 0.13654914101657376
-0.22238859746726472 0.4329434453839486
-0.2087219364083144 0.4329434453839486
-0.22238859746726472 0.21064771710841745
-0.23605525852621503 -0.0486972992130355
-0.23605525852621503 -0.1227958753048792
-0.22238859746726472 0.2847462932002612
-0.22238859746726472 0.5811405975676359
-0.16772195323146347 0.6181898856135578
-0.16772195323146347 0.4699927334298704
-0.2087219364083144 0.0254012768788082
-0.22238859746726472 -0.1227958753048792
-0.24972191958516532 0.0994998529706519
-0.3453885469978175 0.21064771710841745
-0.3453885469978175 0.35884486929210485
-0.3317218859388672 0.13654914101657376
-0.3043885638209666 -0.1227958753048792
-0.3180552248799169 0.0254012768788082
-0.3453885469978175 0.3958941573380267
-0.3453885469978175 0.6181898856135578
-0.3317218859388672 0.6181898856135578
-0.3453885469978175 0.24769700515433932
-0.3590552080567678 0.06245056492473005
-0.3590552080567678 0.06245056492473005
-0.40005519123361877 0.24769700515433932
-0.4137218522925691 0.2847462932002612
-0.45472183546941997 0.17359842906249562
-0.45472183546941997 -0.1227958753048792
-0.45472183546941997 -0.38214089162633214
-0.4410551744104697 -0.1227958753048792
-0.40005519123361877 0.2847462932002612
-0.37272186911571814 0.5811405975676359
-0.3453885469978175 0.4329434453839486
-0.3453885469978175 0.0994998529706519
-0.3180552248799169 -0.011648011167113649
-0.3453885469978175 0.13654914101657376
-0.38638853017466845 0.4329434453839486
-0.4273885133515194 0.35884486929210485
-0.4137218522925691 0.0994998529706519
-0.4137218522925691 -0.1968944513967229
-0.4137218522925691 -0.1968944513967229
-0.38638853017466845 0.13654914101657376
-0.37272186911571814 0.4329434453839486
-0.3317218859388672 0.4329434453839486
-0.3180552248799169 0.24769700515433932
-0.3043885638209666 0.0994998529706519
-0.3317218859388672 0.21064771710841745
-0.3590552080567678 0.2847462932002612
-0.4137218522925691 0.2847462932002612
-0.40005519123361877 0.13654914101657376
-0.37272186911571814 -0.30804231553448846
-0.3590552080567678 -0.30804231553448846
-0.3453885469978175 0.0254012768788082
-0.29072190276201626 0.4329434453839486
-0.24972191958516532 0.4699927334298704
-0.27705524170306595 0.321795581246183
-0.2087219364083144 0.0254012768788082
-0.1950552753493641 -0.1227958753048792
-0.27705524170306595 -0.1227958753048792
-0.3590552080567678 0.2847462932002612
-0.37272186911571814 0.4699927334298704
-0.3317218859388672 0.35884486929210485
-0.3453885469978175 -0.011648011167113649
-0.3590552080567678 -0.23394373944264477
-0.3590552080567678 -0.15984516335080104
-0.37272186911571814 0.06245056492473005
-0.3317218859388672 0.4699927334298704
-0.3180552248799169 0.5440913095217141
-0.22238859746726472 0.24769700515433932
-0.22238859746726472 -0.1227958753048792
-0.24972191958516532 -0.0486972992130355
-0.29072190276201626 0.13654914101657376
-0.3043885638209666 0.321795581246183
-0.3180552248799169 0.13654914101657376
-0.3453885469978175 -0.1968944513967229
-0.3043885638209666 -0.30804231553448846
-0.29072190276201626 -0.1968944513967229
-0.29072190276201626 0.13654914101657376
-0.23605525852621503 0.4699927334298704
-0.16772195323146347 0.6552391736594797
-0.12672197005461253 0.24769700515433932
-0.05838866475986098 -0.08574658725895735
-0.14038863111356284 -0.011648011167113649
-0.12672197005461253 0.06245056492473005
-0.18138861429041378 0.35884486929210485
-0.16772195323146347 0.5070420214757922
-0.12672197005461253 0.06245056492473005
-0.09938864793671191 -0.15984516335080104
-0.03105534264196036 -0.1968944513967229
0.05094462371174151 0.0994998529706519
0.10561126794754275 0.4699927334298704
0.1876112343012446 0.6552391736594797
0.2832778617138968 0.4699927334298704
0.2832778617138968 0.13654914101657376
0.32427784489074774 0.17359842906249562
0.378944489126549 0.35884486929210485
0.25594453959599617 0.6922884617054015
0.21494455641914523 0.7663870377972453
0.2969445227728471 0.5070420214757922
0.3106111838317974 0.321795581246183
0.2969445227728471 0.2847462932002612
0.3106111838317974 0.6181898856135578
0.2969445227728471 0.9145841899809326
0.2696112006549465 1.06278134216462
0.2969445227728471 0.7663870377972453
0.24227787853704585 0.5070420214757922
0.22861121747809554 0.2847462932002612
0.21494455641914523 0.4329434453839486
0.11927792900649306 0.5070420214757922
0.10561126794754275 0.35884486929210485
0.05094462371174151 -0.011648011167113649
-0.01738868158301005 -0.3450916035804103
-0.05838866475986098 -0.419190179672254
-0.0857219868777616 -0.38214089162633214
-0.12672197005461253 0.0254012768788082
-0.1950552753493641 0.0994998529706519
-0.14038863111356284 -0.15984516335080104
-0.1950552753493641 -0.419190179672254
-0.24972191958516532 -0.3450916035804103
-0.29072190276201626 0.06245056492473005
-0.3317218859388672 0.21064771710841745
-0.3590552080567678 0.06245056492473005
-0.3590552080567678 -0.38214089162633214
-0.37272186911571814 -0.419190179672254
-0.37272186911571814 -0.38214089162633214
-0.40005519123361877 -0.08574658725895735
-0.37272186911571814 0.06245056492473005
-0.3453885469978175 0.0994998529706519
-0.3043885638209666 -0.23394373944264477
-0.27705524170306595 -0.38214089162633214
-0.3043885638209666 -0.38214089162633214
-0.3590552080567678 -0.08574658725895735
-0.38638853017466845 -0.011648011167113649
-0.38638853017466845 -0.08574658725895735
-0.38638853017466845 -0.5303380438100196
-0.4137218522925691 -0.7896830601314725
-0.4683884965283703 -0.6414859079477852
-0.5093884797052213 -0.1227958753048792
-0.5777217849999728 0.21064771710841745
-0.6733884124126249 0.06245056492473005
-0.8100550230021281 -0.27099302748856663
-0.9193883114737306 -0.6785351959937069
-0.9603882946505815 -0.7155844840396288
-0.9603882946505815 -0.419190179672254
-0.8647216672379293 -0.011648011167113649
-0.5503884628820722 0.2847462932002612
-0.15405529217251315 0.4329434453839486
0.378944489126549 0.6181898856135578
0.9666109146614124 1.285077070440151
1.5406106791373253 2.0260628313585882
2.059943799377437 2.804097880322947
2.5246102753817476 3.2486893368740093
2.9892767513860585 3.1745907607821655
3.426609905272468 2.9152457444607127
3.809276414923077 2.6188514400933376
4.068942975043133 2.285407847680041
4.205609585632636 1.840816391128979
4.273942890927388 0.8775349019350108
4.260276229868437 -0.23394373944264477
4.191942924573685 -1.0860773644988473
3.9596096865715302 -0.8267323481773944
3.6316098211567227 -0.1968944513967229
3.139610023034512 0.7663870377972453
2.4289436479690956 1.581471374807526
1.567944001255226 1.3962249345779167
0.775277659836108 0.8775349019350108
0.13294459006544337 0.35884486929210485
-0.26338858064411563 -0.0486972992130355
-0.37272186911571814 -0.38214089162633214
-0.29072190276201626 -0.93788021231516
-0.14038863111356284 -1.0860773644988473
-0.01738868158301005 -1.0860773644988473
-0.0037220205240597382 -0.7896830601314725
-0.05838866475986098 -0.15984516335080104
-0.15405529217251315 0.24769700515433932
-0.27705524170306595 0.0994998529706519
-0.38638853017466845 -0.30804231553448846
-0.5093884797052213 -0.7155844840396288
-0.6187217681768237 -0.7526337720855507
-0.7280550566484262 -0.419190179672254
-0.7553883787663268 -0.38214089162633214
-0.7280550566484262 -0.6414859079477852
-0.7280550566484262 -0.6414859079477852
-0.7280550566484262 -0.7526337720855507
-0.7143883955894759 -0.45623946771817586
-0.6870550734715752 -0.0486972992130355
-0.6597217513536746 -0.1227958753048792
-0.632388429235774 -0.30804231553448846
-0.6050551071178734 -0.45623946771817586
-0.6050551071178734 -0.38214089162633214
-0.6733884124126249 -0.1968944513967229
-0.6597217513536746 -0.15984516335080104
-0.6597217513536746 -0.45623946771817586
-0.6733884124126249 -0.7896830601314725
-0.6597217513536746 -0.8267323481773944
-0.7007217345305256 -0.6414859079477852
-0.7143883955894759 -0.27099302748856663
-0.7143883955894759 -0.15984516335080104
-0.7280550566484262 -0.3450916035804103
-0.6187217681768237 -0.6414859079477852
-0.6733884124126249 -0.5673873318559414
-0.7007217345305256 -0.23394373944264477
-0.6733884124126249 -0.011648011167113649
-0.6870550734715752 -0.08574658725895735
-0.7280550566484262 -0.30804231553448846
-0.7417217177073765 -0.7155844840396288
-0.7417217177073765 -0.7155844840396288
-0.7963883619431777 -0.38214089162633214
-0.7690550398252771 -0.1227958753048792
-0.7553883787663268 -0.08574658725895735
-0.7143883955894759 -0.30804231553448846
-0.7007217345305256 -0.5303380438100196
-0.7280550566484262 -0.45623946771817586
-0.7417217177073765 -0.1227958753048792
-0.7417217177073765 0.13654914101657376
-0.7827217008842274 -0.0486972992130355
-0.7280550566484262 -0.419190179672254
-0.7417217177073765 -0.6785351959937069
-0.7280550566484262 -0.7526337720855507
-0.7690550398252771 -0.3450916035804103
-0.7963883619431777 0.13654914101657376
-0.7827217008842274 0.13654914101657376
-0.7417217177073765 -0.011648011167113649
-0.7007217345305256 -0.27099302748856663
-0.6733884124126249 -0.419190179672254
-0.6870550734715752 -0.1968944513967229
-0.7143883955894759 0.13654914101657376
-0.7280550566484262 0.21064771710841745
-0.7417217177073765 -0.011648011167113649
-0.7417217177073765 -0.419190179672254
-0.7143883955894759 -0.5673873318559414
-0.7553883787663268 -0.38214089162633214
-0.7827217008842274 0.06245056492473005
-0.7280550566484262 0.13654914101657376
-0.6733884124126249 0.17359842906249562
-0.632388429235774 -0.15984516335080104
-0.5777217849999728 -0.45623946771817586
-0.6050551071178734 -0.27099302748856663
-0.5640551239410225 -0.0486972992130355
-0.591388446058923 0.17359842906249562
-0.591388446058923 -0.08574658725895735
-0.591388446058923 -0.419190179672254
-0.632388429235774 -0.6785351959937069
-0.6050551071178734 -0.5303380438100196
-0.591388446058923 -0.1968944513967229
-0.5777217849999728 0.21064771710841745
-0.5367218018231219 0.24769700515433932
-0.5093884797052213 -0.15984516335080104
-0.4137218522925691 -0.45623946771817586
-0.38638853017466845 -0.3450916035804103
-0.4410551744104697 -0.08574658725895735
-0.4410551744104697 0.0994998529706519
-0.4957218186462709 0.06245056492473005
-0.4683884965283703 -0.38214089162633214
-0.4683884965283703 -0.7155844840396288
-0.4137218522925691 -0.6414859079477852
-0.4820551575873206 -0.27099302748856663
-0.4137218522925691 0.17359842906249562
-0.3453885469978175 0.21064771710841745
-0.3590552080567678 -0.1227958753048792
-0.27705524170306595 -0.30804231553448846
-0.26338858064411563 -0.23394373944264477
-0.27705524170306595 0.0254012768788082
-0.3590552080567678 -0.011648011167113649
-0.3317218859388672 -0.1968944513967229
-0.3453885469978175 -0.5673873318559414
-0.3590552080567678 -0.7155844840396288
-0.40005519123361877 -0.6414859079477852
-0.37272186911571814 -0.15984516335080104
-0.38638853017466845 0.13654914101657376
-0.3043885638209666 -0.08574658725895735
-0.3043885638209666 -0.3450916035804103
-0.26338858064411563 -0.4932887557640977
-0.3043885638209666 -0.38214089162633214
-0.3317218859388672 -0.15984516335080104
-0.37272186911571814 -0.011648011167113649
-0.40005519123361877 -0.1968944513967229
