-0.3453885469978175 0.8404856138890889
-0.3453885469978175 0.7293377497513234
-0.27705524170306595 0.2847462932002612
-0.3043885638209666 -0.08574658725895735
-0.27705524170306595 0.06245056492473005
-0.3180552248799169 0.2847462932002612
-0.4137218522925691 0.4329434453839486
-0.45472183546941997 0.24769700515433932
-0.4410551744104697 -0.0486972992130355
-0.40005519123361877 -0.15984516335080104
-0.3590552080567678 -0.011648011167113649
-0.3590552080567678 0.2847462932002612
-0.3590552080567678 0.5440913095217141
-0.3590552080567678 0.35884486929210485
-0.3180552248799169 0.06245056492473005
-0.3453885469978175 -0.15984516335080104
-0.3453885469978175 0.17359842906249562
-0.4137218522925691 0.35884486929210485
-0.4820551575873206 0.4329434453839486
-0.4683884965283703 0.13654914101657376
-0.4683884965283703 -0.30804231553448846
-0.45472183546941997 -0.30804231553448846
-0.4683884965283703 -0.011648011167113649
-0.45472183546941997 0.4329434453839486
-0.4957218186462709 0.6181898856135578
-0.4137218522925691 0.24769700515433932
-0.40005519123361877 0.06245056492473005
-0.40005519123361877 -0.27099302748856663
-0.40005519123361877 -0.0486972992130355
-0.4957218186462709 0.321795581246183
-0.591388446058923 0.321795581246183
-0.5640551239410225 -0.0486972992130355
-0.5367218018231219 -0.3450916035804103
-0.5640551239410225 -0.419190179672254
-0.5367218018231219 0.06245056492473005
-0.5640551239410225 0.3958941573380267
-0.5640551239410225 0.5811405975676359
-0.5230551407641716 0.321795581246183
-0.5230551407641716 -0.15984516335080104
-0.4957218186462709 -0.27099302748856663
-0.5093884797052213 0.0994998529706519
-0.5640551239410225 0.2847462932002612
-0.6187217681768237 0.4329434453839486
-0.6460550902947243 0.06245056492473005
-0.591388446058923 -0.30804231553448846
-0.5640551239410225 -0.45623946771817586
-0.5367218018231219 -0.08574658725895735
-0.5367218018231219 0.2847462932002612
-0.5093884797052213 0.6922884617054015
-0.4957218186462709 0.5070420214757922
-0.4410551744104697 -0.011648011167113649
-0.45472183546941997 -0.23394373944264477
-0.45472183546941997 -0.0486972992130355
-0.4683884965283703 0.24769700515433932
-0.5093884797052213 0.24769700515433932
-0.5230551407641716 0.17359842906249562
-0.4683884965283703 -0.23394373944264477
-0.4683884965283703 -0.30804231553448846
-0.4273885133515194 0.0994998529706519
-0.45472183546941997 0.4699927334298704
-0.4410551744104697 0.5070420214757922
-0.37272186911571814 0.0994998529706519
-0.3453885469978175 -0.15984516335080104
-0.3180552248799169 -0.08574658725895735
-0.37272186911571814 0.06245056492473005
-0.4410551744104697 0.321795581246183
-0.4410551744104697 0.13654914101657376
-0.4137218522925691 -0.23394373944264477
-0.37272186911571814 -0.419190179672254
-0.3453885469978175 -0.38214089162633214
-0.3590552080567678 0.13654914101657376
-0.3180552248799169 0.5440913095217141
-0.3043885638209666 0.5440913095217141
-0.3043885638209666 0.35884486929210485
-0.26338858064411563 -0.0486972992130355
-0.24972191958516532 -0.27099302748856663
-0.1950552753493641 0.0254012768788082
-0.22238859746726472 0.2847462932002612
-0.2087219364083144 0.5440913095217141
-0.14038863111356284 0.24769700515433932
-0.04472200370091067 -0.1227958753048792
0.023611301593840884 -0.30804231553448846
0.11927792900649306 0.0994998529706519
0.160277912183344 0.5440913095217141
0.160277912183344 0.8404856138890889
0.20127789536019491 0.803436325843167
0.25594453959599617 0.5070420214757922
0.1876112343012446 0.3958941573380267
0.20127789536019491 0.5440913095217141
0.10561126794754275 0.9145841899809326
0.11927792900649306 1.1739292063023856
0.037277962652791194 0.803436325843167
0.10561126794754275 0.35884486929210485
0.11927792900649306 0.17359842906249562
0.160277912183344 0.21064771710841745
0.10561126794754275 0.7663870377972453
0.06461128477069182 1.1368799182564637
0.037277962652791194 1.06278134216462
0.037277962652791194 0.7293377497513234
0.06461128477069182 0.21064771710841745
0.05094462371174151 -0.011648011167113649
0.009944640534890572 0.321795581246183
-0.12672197005461253 0.3958941573380267
-0.23605525852621503 0.321795581246183
-0.3180552248799169 -0.1227958753048792
-0.3317218859388672 -0.45623946771817586
-0.3180552248799169 -0.27099302748856663
-0.37272186911571814 0.0994998529706519
-0.4273885133515194 0.5070420214757922
-0.38638853017466845 0.5811405975676359
-0.4137218522925691 0.06245056492473005
-0.40005519123361877 -0.27099302748856663
-0.38638853017466845 -0.23394373944264477
-0.4410551744104697 -0.011648011167113649
-0.5093884797052213 0.321795581246183
-0.5777217849999728 0.321795581246183
-0.5367218018231219 -0.0486972992130355
-0.4820551575873206 -0.4932887557640977
-0.45472183546941997 -0.6044366199018633
-0.40005519123361877 -0.27099302748856663
-0.40005519123361877 0.321795581246183
-0.4410551744104697 0.6552391736594797
-0.4410551744104697 0.3958941573380267
-0.4273885133515194 -0.08574658725895735
-0.4410551744104697 -0.45623946771817586
-0.4820551575873206 -0.27099302748856663
-0.5640551239410225 -0.08574658725895735
-0.7553883787663268 0.21064771710841745
-0.9193883114737306 -0.0486972992130355
-1.0150549388863828 -0.38214089162633214
-1.0560549220632336 -0.5673873318559414
-0.9877216167684821 -0.1227958753048792
-0.8237216840610784 0.5070420214757922
-0.5367218018231219 1.1368799182564637
-0.12672197005461253 1.322126358486073
0.40627781124444956 1.4703235106697603
0.9666109146614124 1.7296685269912133
1.4996106959604745 2.285407847680041
2.005277155141636 2.841147168368869
2.442610309028046 3.2116400488280874
2.9346101071502573 3.0634428966444
3.3856099220956173 2.6188514400933376
3.7819430928051765 2.4336049998637286
4.082609636102084 2.322457135725963
4.219276246691586 2.137210695496354
4.260276229868437 1.544422086761604
4.246609568809487 0.5811405975676359
4.205609585632636 -0.27099302748856663
4.096276297161033 -0.6785351959937069
3.8502763980999277 -0.30804231553448846
3.4402765663314185 0.6922884617054015
2.8662768018555056 1.3962249345779167
2.0872771214953376 1.7296685269912133
1.2809441190172695 1.285077070440151
0.5702777439518533 0.5811405975676359
0.07827794582964212 0.24769700515433932
-0.16772195323146347 0.17359842906249562
-0.24972191958516532 0.21064771710841745
-0.16772195323146347 0.0994998529706519
-0.0037220205240597382 -0.23394373944264477
0.07827794582964212 -0.45623946771817586
0.07827794582964212 -0.1227958753048792
-0.04472200370091067 0.2847462932002612
-0.24972191958516532 0.6181898856135578
-0.4410551744104697 0.4699927334298704
-0.5367218018231219 0.0254012768788082
-0.5640551239410225 -0.1968944513967229
-0.6050551071178734 -0.23394373944264477
-0.6050551071178734 0.17359842906249562
-0.6187217681768237 0.7293377497513234
-0.6733884124126249 0.7293377497513234
-0.6597217513536746 0.3958941573380267
-0.6597217513536746 -0.0486972992130355
-0.6050551071178734 -0.1968944513967229
-0.6597217513536746 0.17359842906249562
-0.6870550734715752 0.5070420214757922
-0.7280550566484262 0.5070420214757922
-0.6733884124126249 0.2847462932002612
-0.632388429235774 0.21064771710841745
-0.591388446058923 0.21064771710841745
-0.591388446058923 0.6922884617054015
-0.6187217681768237 0.9516334780268545
-0.591388446058923 0.8404856138890889
-0.591388446058923 0.5811405975676359
-0.5640551239410225 0.17359842906249562
-0.591388446058923 0.0994998529706519
-0.5777217849999728 0.3958941573380267
-0.632388429235774 0.6922884617054015
-0.632388429235774 0.6922884617054015
-0.6597217513536746 0.321795581246183
-0.5777217849999728 0.13654914101657376
-0.5093884797052213 0.0994998529706519
-0.4683884965283703 0.5811405975676359
-0.4820551575873206 1.1739292063023856
-0.5093884797052213 1.3591756465319949
-0.5093884797052213 1.06278134216462
-0.4957218186462709 0.6552391736594797
-0.5230551407641716 0.6552391736594797
-0.5230551407641716 0.7293377497513234
-0.5503884628820722 1.0998306302105418
-0.591388446058923 1.06278134216462
-0.6050551071178734 1.06278134216462
-0.5777217849999728 0.6922884617054015
-0.5367218018231219 0.803436325843167
-0.4957218186462709 1.285077070440151
-0.4957218186462709 1.6926192389452914
-0.45472183546941997 1.581471374807526
-0.4273885133515194 1.2480277823942292
-0.4137218522925691 1.0257320541186983
-0.45472183546941997 1.1368799182564637
-0.4957218186462709 1.544422086761604
-0.5367218018231219 1.6185206628534479
-0.5367218018231219 1.544422086761604
-0.4820551575873206 1.1739292063023856
-0.4137218522925691 1.285077070440151
-0.3453885469978175 1.544422086761604
-0.40005519123361877 1.8778656791749007
-0.40005519123361877 2.2113092715881972
-0.4137218522925691 2.0260628313585882
-0.3180552248799169 1.581471374807526
-0.3043885638209666 1.322126358486073
-0.3453885469978175 1.3591756465319949
-0.3317218859388672 1.6926192389452914
-0.3590552080567678 1.9149149672208226
-0.40005519123361877 1.7667178150371352
-0.3453885469978175 1.285077070440151
-0.3180552248799169 1.2480277823942292
-0.29072190276201626 1.322126358486073
-0.29072190276201626 1.7667178150371352
-0.27705524170306595 2.100161407450432
-0.26338858064411563 1.9890135433126663
-0.2087219364083144 1.581471374807526
-0.22238859746726472 1.1368799182564637
-0.2087219364083144 1.06278134216462
-0.22238859746726472 1.3591756465319949
-0.24972191958516532 1.6185206628534479
-0.29072190276201626 1.4332742226238386
-0.26338858064411563 1.0257320541186983
-0.2087219364083144 0.7663870377972453
-0.16772195323146347 0.9516334780268545
-0.16772195323146347 1.322126358486073
-0.18138861429041378 1.7667178150371352
-0.23605525852621503 1.6185206628534479
-0.24972191958516532 1.2109784943483075
-0.18138861429041378 0.6552391736594797
-0.1950552753493641 0.4329434453839486
-0.15405529217251315 0.6922884617054015
-0.1950552753493641 1.1368799182564637
-0.24972191958516532 1.285077070440151
-0.24972191958516532 0.9886827660727763
-0.2087219364083144 0.6181898856135578
-0.15405529217251315 0.5070420214757922
-0.15405529217251315 0.8404856138890889
-0.1950552753493641 1.285077070440151
-0.2087219364083144 1.4332742226238386
-0.23605525852621503 1.1368799182564637
-0.16772195323146347 0.6181898856135578
-0.2087219364083144 0.321795581246183
-0.22238859746726472 0.5070420214757922
-0.22238859746726472 0.9145841899809326
-0.24972191958516532 0.9886827660727763
-0.22238859746726472 0.8404856138890889
-0.18138861429041378 0.3958941573380267
-0.12672197005461253 0.321795581246183
-0.09938864793671191 0.5440913095217141
-0.14038863111356284 0.9886827660727763
-0.18138861429041378 1.2109784943483075
-0.2087219364083144 1.0257320541186983
-0.22238859746726472 0.6181898856135578
-0.26338858064411563 0.321795581246183
-0.23605525852621503 0.4699927334298704
-0.24972191958516532 0.7293377497513234
-0.3043885638209666 0.9516334780268545
-0.3180552248799169 0.9886827660727763
-0.3180552248799169 0.5440913095217141
-0.23605525852621503 0.5070420214757922
-0.22238859746726472 0.6922884617054015
-0.23605525852621503 1.1739292063023856
-0.26338858064411563 1.322126358486073
-0.29072190276201626 1.0257320541186983
-0.27705524170306595 0.5811405975676359
-0.29072190276201626 0.35884486929210485
-0.3317218859388672 0.6181898856135578
-0.4137218522925691 0.9886827660727763
-0.4410551744104697 1.06278134216462
-0.4410551744104697 0.803436325843167
-0.4137218522925691 0.4329434453839486
-0.37272186911571814 0.321795581246183
-0.37272186911571814 0.7663870377972453
-0.3590552080567678 1.285077070440151
-0.4410551744104697 1.4332742226238386
-0.4410551744104697 1.1368799182564637
-0.4273885133515194 0.6922884617054015
-0.4273885133515194 0.321795581246183
-0.4273885133515194 0.2847462932002612
-0.4273885133515194 0.6552391736594797
-0.5093884797052213 1.1739292063023856
-0.4957218186462709 1.06278134216462
-0.5367218018231219 0.7663870377972453
-0.4683884965283703 0.4329434453839486
-0.4273885133515194 0.4329434453839486
-0.3453885469978175 0.9516334780268545
-0.4137218522925691 1.2109784943483075
-0.4273885133515194 1.2480277823942292
-0.4137218522925691 0.803436325843167
-0.38638853017466845 0.4699927334298704
-0.3590552080567678 0.3958941573380267
-0.4137218522925691 0.6181898856135578
-0.4273885133515194 0.9886827660727763
-0.4683884965283703 0.9886827660727763
-0.4410551744104697 0.9145841899809326
-0.3590552080567678 0.5440913095217141
-0.3043885638209666 0.4699927334298704
-0.26338858064411563 0.9516334780268545
-0.29072190276201626 1.2480277823942292
-0.3180552248799169 1.3591756465319949
-0.3590552080567678 1.06278134216462
-0.3317218859388672 0.6181898856135578
-0.3317218859388672 0.35884486929210485
-0.3317218859388672 0.5070420214757922
-0.3590552080567678 0.8775349019350108
-0.3590552080567678 1.2480277823942292
-0.37272186911571814 1.4703235106697603
-0.3180552248799169 1.0257320541186983
-0.24972191958516532 0.6922884617054015
-0.18138861429041378 0.8775349019350108
-0.23605525852621503 1.0257320541186983
-0.24972191958516532 1.3591756465319949
-0.24972191958516532 1.285077070440151
-0.27705524170306595 0.9145841899809326
-0.1950552753493641 0.4699927334298704
-0.15405529217251315 0.35884486929210485
-0.1950552753493641 0.6552391736594797
-0.18138861429041378 1.06278134216462
-0.16772195323146347 1.4332742226238386
-0.12672197005461253 1.1739292063023856
-0.03105534264196036 0.8404856138890889
0.09194460688859243 0.6552391736594797
0.1466112511243937 0.6922884617054015
0.1876112343012446 1.1739292063023856
0.1739445732422943 1.6185206628534479
0.22861121747809554 1.6185206628534479
0.25594453959599617 1.285077070440151
0.2832778617138968 0.9516334780268545
0.35161116700864836 1.1368799182564637
0.32427784489074774 1.544422086761604
0.2969445227728471 1.9149149672208226
0.3106111838317974 2.06311211940451
0.32427784489074774 1.7296685269912133
0.3652778280675987 1.544422086761604
0.39261115018549925 1.6555699508993695
0.33794450594969805 1.803767103083057
0.2969445227728471 2.06311211940451
0.21494455641914523 1.803767103083057
0.20127789536019491 1.4703235106697603
0.1739445732422943 1.1739292063023856
0.160277912183344 1.4703235106697603
0.1739445732422943 1.7296685269912133
0.13294459006544337 1.8778656791749007
0.06461128477069182 1.6926192389452914
0.009944640534890572 1.2480277823942292
0.05094462371174151 1.06278134216462
0.06461128477069182 1.1368799182564637
-0.12672197005461253 1.5073727987156822
-0.15405529217251315 1.6185206628534479
-0.24972191958516532 1.285077070440151
-0.29072190276201626 0.9145841899809326
-0.24972191958516532 0.5811405975676359
-0.3043885638209666 0.6181898856135578
-0.3043885638209666 1.0998306302105418
-0.3453885469978175 1.581471374807526
-0.3590552080567678 1.6555699508993695
-0.3180552248799169 1.3591756465319949
-0.22238859746726472 1.06278134216462
-0.24972191958516532 1.0998306302105418
-0.26338858064411563 1.322126358486073
-0.3590552080567678 1.544422086761604
-0.3453885469978175 1.285077070440151
-0.3453885469978175 1.0257320541186983
-0.29072190276201626 0.5811405975676359
-0.27705524170306595 0.9886827660727763
-0.3590552080567678 1.285077070440151
-0.40005519123361877 1.3962249345779167
-0.4137218522925691 1.3591756465319949
-0.4410551744104697 1.0998306302105418
-0.5230551407641716 0.9886827660727763
-0.6733884124126249 0.9886827660727763
-0.8373883451200287 1.3962249345779167
-0.9467216335916312 1.6555699508993695
-0.8783883282968796 1.4703235106697603
-0.6597217513536746 1.3591756465319949
-0.29072190276201626 1.3962249345779167
0.160277912183344 2.06311211940451
0.6932776934824061 2.804097880322947
1.2262774747814682 3.6932807934250715
1.7456105950215801 4.026724385838368
2.18294374890799 3.9896750977924462
2.6886102080891514 4.174921538022056
3.1806100062113627 4.508365130435352
3.5769431769209215 4.841808722848649
3.93227636445363 4.841808722848649
4.205609585632636 4.360167978251665
4.355942857281089 3.322787912965853
4.465276145752692 2.2113092715881972
4.478942806811642 1.3591756465319949
4.41060950151689 1.285077070440151
4.246609568809487 1.7296685269912133
3.9732763476304807 2.137210695496354
3.6999431264514744 2.285407847680041
3.2489433115061144 2.5818021520474157
2.6202769027943997 2.5818021520474157
1.8139439003163316 2.841147168368869
1.0486108810151142 2.989344320552556
0.378944489126549 2.5818021520474157
-0.01738868158301005 1.9519642552667444
-0.14038863111356284 1.06278134216462
-0.07205532581881129 0.5070420214757922
0.07827794582964212 0.5811405975676359
0.24227787853704585 1.0998306302105418
0.2832778617138968 1.6926192389452914
0.2696112006549465 2.100161407450432
0.160277912183344 1.840816391128979
0.07827794582964212 1.4332742226238386
-0.0857219868777616 1.3591756465319949
-0.2087219364083144 1.6185206628534479
-0.3453885469978175 1.840816391128979
-0.4957218186462709 1.6926192389452914
-0.5503884628820722 1.3962249345779167
-0.4957218186462709 1.0998306302105418
-0.4957218186462709 1.3591756465319949
-0.4957218186462709 1.6926192389452914
-0.4820551575873206 2.100161407450432
-0.4683884965283703 1.9890135433126663
-0.38638853017466845 1.7296685269912133
-0.37272186911571814 1.3962249345779167
-0.3453885469978175 1.3962249345779167
-0.3590552080567678 1.840816391128979
-0.3453885469978175 2.1742599835422753
-0.4410551744104697 2.100161407450432
-0.45472183546941997 1.6926192389452914
-0.40005519123361877 1.1368799182564637
-0.37272186911571814 0.9886827660727763
-0.3317218859388672 1.2109784943483075
-0.3453885469978175 1.7667178150371352
-0.4137218522925691 2.1742599835422753
-0.4410551744104697 2.285407847680041
-0.4273885133515194 1.9149149672208226
-0.45472183546941997 1.4703235106697603
-0.40005519123361877 1.3962249345779167
-0.4137218522925691 1.6926192389452914
-0.38638853017466845 2.137210695496354
-0.4683884965283703 2.137210695496354
-0.4410551744104697 1.840816391128979
-0.4137218522925691 1.6185206628534479
-0.3317218859388672 1.7667178150371352
-0.3590552080567678 2.2113092715881972
-0.37272186911571814 2.6929500161851814
-0.38638853017466845 2.841147168368869
-0.3317218859388672 2.5818021520474157
-0.3043885638209666 2.248358559634119
-0.27705524170306595 1.9149149672208226
-0.3043885638209666 2.100161407450432
-0.3453885469978175 2.3965557118178067
-0.40005519123361877 2.6559007281392595
-0.4137218522925691 2.5818021520474157
-0.40005519123361877 2.322457135725963
-0.37272186911571814 1.9890135433126663
-0.3180552248799169 2.1742599835422753
-0.3043885638209666 2.5818021520474157
-0.3453885469978175 3.1004921846903217
-0.26338858064411563 3.1745907607821655
-0.29072190276201626 2.804097880322947
-0.26338858064411563 2.4336049998637286
-0.26338858064411563 2.322457135725963
-0.27705524170306595 2.5818021520474157
-0.29072190276201626 3.026393608598478
-0.3180552248799169 3.1375414727362436
-0.24972191958516532 2.804097880322947
-0.24972191958516532 2.3965557118178067
-0.18138861429041378 2.4706542879096505
-0.16772195323146347 2.6559007281392595
-0.16772195323146347 3.1745907607821655
-0.22238859746726472 3.322787912965853
-0.22238859746726472 3.1745907607821655
-0.18138861429041378 2.767048592277025
-0.14038863111356284 2.4706542879096505
-0.12672197005461253 2.6559007281392595
-0.16772195323146347 2.9522950325066346
-0.2087219364083144 3.1375414727362436
-0.22238859746726472 2.989344320552556
-0.18138861429041378 2.6559007281392595
-0.11305530899566223 2.3965557118178067
-0.04472200370091067 2.4336049998637286
-0.0857219868777616 2.878196456414791
-0.0857219868777616 3.285738624919931
-0.16772195323146347 3.0634428966444
-0.11305530899566223 2.6559007281392595
-0.09938864793671191 2.2113092715881972
-0.04472200370091067 2.1742599835422753
-0.05838866475986098 2.4336049998637286
-0.11305530899566223 2.5077035759555724
-0.11305530899566223 2.4336049998637286
-0.0857219868777616 2.137210695496354
0.009944640534890572 2.06311211940451
0.009944640534890572 2.359506423771885
-0.01738868158301005 2.6929500161851814
-0.0037220205240597382 2.5447528640014943
-0.01738868158301005 2.3965557118178067
-0.0037220205240597382 1.840816391128979
-0.03105534264196036 1.9890135433126663
-0.05838866475986098 1.9890135433126663
-0.09938864793671191 2.2113092715881972
-0.11305530899566223 2.137210695496354
-0.05838866475986098 1.840816391128979
-0.0037220205240597382 1.544422086761604
0.023611301593840884 1.7296685269912133
0.009944640534890572 2.06311211940451
-0.0037220205240597382 2.4706542879096505
-0.01738868158301005 2.3965557118178067
-0.05838866475986098 2.0260628313585882
-0.05838866475986098 1.6185206628534479
-0.01738868158301005 1.3962249345779167
-0.04472200370091067 1.7296685269912133
-0.0857219868777616 2.1742599835422753
-0.14038863111356284 2.2113092715881972
-0.15405529217251315 2.1742599835422753
-0.15405529217251315 1.6555699508993695
-0.04472200370091067 1.581471374807526
-0.04472200370091067 1.9890135433126663
-0.04472200370091067 2.3965557118178067
-0.07205532581881129 2.5818021520474157
-0.09938864793671191 2.248358559634119
-0.09938864793671191 1.8778656791749007
-0.0857219868777616 1.4703235106697603
-0.11305530899566223 1.544422086761604
-0.16772195323146347 1.9519642552667444
-0.18138861429041378 2.285407847680041
-0.2087219364083144 2.2113092715881972
-0.16772195323146347 1.9149149672208226
-0.12672197005461253 1.7667178150371352
-0.0857219868777616 1.6555699508993695
-0.07205532581881129 2.06311211940451
-0.11305530899566223 2.3965557118178067
-0.15405529217251315 2.359506423771885
-0.14038863111356284 1.8778656791749007
-0.16772195323146347 1.3962249345779167
-0.22238859746726472 1.4703235106697603
-0.2087219364083144 1.7296685269912133
-0.24972191958516532 2.06311211940451
-0.29072190276201626 2.285407847680041
-0.26338858064411563 1.9519642552667444
-0.24972191958516532 1.7296685269912133
-0.22238859746726472 1.6926192389452914
-0.22238859746726472 2.0260628313585882
-0.18138861429041378 2.4706542879096505
-0.27705524170306595 2.5447528640014943
-0.26338858064411563 2.248358559634119
-0.3043885638209666 1.544422086761604
-0.23605525852621503 1.3591756465319949
-0.2087219364083144 1.544422086761604
-0.2087219364083144 1.9149149672208226
-0.26338858064411563 2.285407847680041
-0.26338858064411563 2.2113092715881972
-0.26338858064411563 1.803767103083057
-0.23605525852621503 1.4703235106697603
-0.14038863111356284 1.6926192389452914
-0.18138861429041378 2.100161407450432
-0.2087219364083144 2.359506423771885
-0.23605525852621503 2.4336049998637286
-0.24972191958516532 1.9149149672208226
-0.23605525852621503 1.5073727987156822
-0.2087219364083144 1.3962249345779167
-0.26338858064411563 1.6555699508993695
-0.23605525852621503 2.100161407450432
-0.24972191958516532 2.0260628313585882
-0.16772195323146347 1.840816391128979
-0.09938864793671191 1.803767103083057
-0.07205532581881129 1.9519642552667444
-0.05838866475986098 2.322457135725963
-0.09938864793671191 2.2113092715881972
-0.12672197005461253 1.9519642552667444
-0.05838866475986098 1.6926192389452914
-0.07205532581881129 1.7296685269912133
-0.05838866475986098 2.06311211940451
-0.04472200370091067 2.137210695496354
-0.05838866475986098 2.137210695496354
0.009944640534890572 1.6926192389452914
0.023611301593840884 1.5073727987156822
0.023611301593840884 1.8778656791749007
0.037277962652791194 2.2113092715881972
0.023611301593840884 2.4706542879096505
0.037277962652791194 2.285407847680041
0.09194460688859243 1.840816391128979
0.1876112343012446 1.5073727987156822
0.21494455641914523 1.581471374807526
0.20127789536019491 1.9519642552667444
0.24227787853704585 2.248358559634119
0.2832778617138968 2.1742599835422753
0.3652778280675987 1.9890135433126663
0.4472777944213005 1.8778656791749007
0.5292777607750023 2.285407847680041
0.5429444218339526 2.841147168368869
0.5429444218339526 3.1375414727362436
0.5019444386571018 3.1004921846903217
0.5019444386571018 2.5818021520474157
0.5019444386571018 2.285407847680041
0.4746111165392011 2.2113092715881972
0.4609444554802508 2.3965557118178067
0.3652778280675987 2.7299993042311033
0.32427784489074774 2.841147168368869
0.3106111838317974 2.5447528640014943
0.35161116700864836 2.137210695496354
0.39261115018549925 2.100161407450432
0.39261115018549925 2.5077035759555724
0.33794450594969805 2.841147168368869
0.24227787853704585 2.9152457444607127
0.21494455641914523 2.4336049998637286
0.1739445732422943 1.840816391128979
0.10561126794754275 1.4703235106697603
0.023611301593840884 1.581471374807526
-0.04472200370091067 1.9519642552667444
-0.09938864793671191 2.2113092715881972
-0.15405529217251315 2.100161407450432
-0.14038863111356284 1.803767103083057
-0.11305530899566223 1.6926192389452914
-0.0857219868777616 2.0260628313585882
-0.12672197005461253 2.322457135725963
-0.16772195323146347 2.4336049998637286
-0.1950552753493641 2.2113092715881972
-0.18138861429041378 1.8778656791749007
-0.15405529217251315 1.4703235106697603
-0.14038863111356284 1.544422086761604
-0.18138861429041378 1.840816391128979
-0.22238859746726472 2.285407847680041
-0.23605525852621503 2.100161407450432
-0.1950552753493641 1.7667178150371352
-0.16772195323146347 1.6555699508993695
-0.18138861429041378 1.7667178150371352
-0.18138861429041378 2.1742599835422753
-0.29072190276201626 2.3965557118178067
-0.3453885469978175 2.2113092715881972
-0.38638853017466845 1.803767103083057
-0.4683884965283703 1.3962249345779167
-0.632388429235774 1.322126358486073
-0.7827217008842274 1.4703235106697603
-0.8920549893558299 1.7296685269912133
-0.851055006178979 1.7296685269912133
-0.5640551239410225 1.7667178150371352
-0.14038863111356284 2.100161407450432
0.3652778280675987 2.989344320552556
0.9802775757203627 3.9526258097465243
1.567944001255226 4.434266554343508
2.141943765731139 4.434266554343508
2.661276885971251 4.434266554343508
3.207943328329263 4.47131584238943
3.645276482215673 4.6195129945731175
3.93227636445363 4.582463706527196
4.2329429077505365 3.9896750977924462
4.38327617939899 2.841147168368869
4.519942789988493 1.7296685269912133
4.533609451047443 0.9516334780268545
4.4516094846937415 0.8775349019350108
4.260276229868437 1.2109784943483075
3.9596096865715302 1.581471374807526
3.50860987162617 1.803767103083057
2.8252768186786548 2.100161407450432
1.9916104940826855 2.359506423771885
1.1852774916046174 2.6188514400933376
0.4472777944213005 2.5077035759555724
-0.04472200370091067 2.0260628313585882
-0.18138861429041378 1.4332742226238386
-0.07205532581881129 1.0257320541186983
0.07827794582964212 1.0998306302105418
0.20127789536019491 1.581471374807526
0.2832778617138968 1.9890135433126663
0.24227787853704585 2.06311211940451
0.13294459006544337 1.7296685269912133
0.06461128477069182 1.3591756465319949
-0.0857219868777616 1.322126358486073
-0.23605525852621503 1.581471374807526
-0.3317218859388672 1.9149149672208226
-0.45472183546941997 1.9890135433126663
-0.4410551744104697 1.6555699508993695
-0.40005519123361877 1.5073727987156822
-0.3453885469978175 1.322126358486073
-0.24972191958516532 1.7296685269912133
-0.27705524170306595 2.322457135725963
-0.3590552080567678 2.6188514400933376
-0.37272186911571814 2.3965557118178067
-0.37272186911571814 1.9149149672208226
-0.3180552248799169 1.581471374807526
-0.29072190276201626 1.6926192389452914
-0.3180552248799169 2.0260628313585882
-0.3590552080567678 2.322457135725963
-0.4410551744104697 2.3965557118178067
-0.4273885133515194 2.2113092715881972
-0.27705524170306595 1.840816391128979
-0.2087219364083144 1.9519642552667444
-0.23605525852621503 2.248358559634119
-0.2087219364083144 2.5818021520474157
-0.29072190276201626 2.6559007281392595
-0.24972191958516532 2.359506423771885
-0.22238859746726472 1.8778656791749007
-0.1950552753493641 1.7296685269912133
-0.18138861429041378 1.840816391128979
-0.26338858064411563 2.3965557118178067
-0.3180552248799169 2.6929500161851814
-0.3180552248799169 2.5818021520474157
-0.24972191958516532 2.359506423771885
-0.1950552753493641 2.248358559634119
-0.15405529217251315 2.1742599835422753
-0.14038863111356284 2.5447528640014943
-0.29072190276201626 2.7299993042311033
-0.3317218859388672 2.7299993042311033
-0.3590552080567678 2.4336049998637286
-0.38638853017466845 2.06311211940451
-0.3453885469978175 2.100161407450432
-0.3317218859388672 2.3965557118178067
-0.3043885638209666 2.6559007281392595
-0.29072190276201626 2.6188514400933376
-0.1950552753493641 2.3965557118178067
-0.16772195323146347 2.5818021520474157
-0.22238859746726472 2.9522950325066346
-0.26338858064411563 3.1375414727362436
-0.3180552248799169 3.0634428966444
-0.24972191958516532 2.767048592277025
-0.18138861429041378 2.6188514400933376
-0.16772195323146347 2.6929500161851814
-0.18138861429041378 3.1004921846903217
-0.2087219364083144 3.359837201011775
-0.18138861429041378 3.2486893368740093
-0.12672197005461253 2.9152457444607127
-0.09938864793671191 2.5818021520474157
-0.04472200370091067 2.767048592277025
-0.04472200370091067 3.0634428966444
-0.09938864793671191 3.2116400488280874
-0.0857219868777616 3.1745907607821655
-0.05838866475986098 2.804097880322947
-0.01738868158301005 2.5077035759555724
-0.03105534264196036 2.5077035759555724
-0.05838866475986098 2.804097880322947
-0.12672197005461253 3.1375414727362436
-0.11305530899566223 3.0634428966444
-0.07205532581881129 2.7299993042311033
-0.04472200370091067 2.767048592277025
-0.04472200370091067 2.9522950325066346
-0.03105534264196036 3.1375414727362436
-0.09938864793671191 3.2486893368740093
-0.09938864793671191 2.878196456414791
-0.07205532581881129 2.248358559634119
-0.01738868158301005 1.9890135433126663
-0.04472200370091067 2.0260628313585882
-0.04472200370091067 2.359506423771885
-0.04472200370091067 2.6188514400933376
-0.04472200370091067 2.5077035759555724
0.009944640534890572 2.1742599835422753
0.07827794582964212 1.8778656791749007
0.09194460688859243 2.0260628313585882
0.06461128477069182 2.3965557118178067
-0.01738868158301005 2.6929500161851814
-0.04472200370091067 2.5077035759555724
-0.04472200370091067 2.137210695496354
-0.0037220205240597382 1.803767103083057
-0.0037220205240597382 1.6926192389452914
-0.07205532581881129 2.0260628313585882
-0.09938864793671191 2.285407847680041
-0.07205532581881129 2.2113092715881972
-0.04472200370091067 1.8778656791749007
0.037277962652791194 1.6926192389452914
0.037277962652791194 1.803767103083057
0.05094462371174151 2.2113092715881972
-0.01738868158301005 2.4336049998637286
-0.07205532581881129 2.3965557118178067
-0.04472200370091067 2.06311211940451
-0.03105534264196036 1.581471374807526
-0.04472200370091067 1.4703235106697603
-0.0037220205240597382 1.6185206628534479
-0.07205532581881129 2.06311211940451
-0.0857219868777616 2.2113092715881972
-0.04472200370091067 2.0260628313585882
0.009944640534890572 1.803767103083057
0.023611301593840884 1.7296685269912133
0.06461128477069182 1.8778656791749007
-0.0037220205240597382 2.1742599835422753
-0.03105534264196036 2.06311211940451
-0.09938864793671191 1.803767103083057
-0.11305530899566223 1.322126358486073
-0.07205532581881129 1.3962249345779167
-0.05838866475986098 1.581471374807526
-0.12672197005461253 1.9149149672208226
-0.0857219868777616 1.803767103083057
-0.12672197005461253 1.6555699508993695
-0.05838866475986098 1.6185206628534479
-0.03105534264196036 1.840816391128979
-0.05838866475986098 2.100161407450432
-0.12672197005461253 1.9890135433126663
-0.15405529217251315 1.7667178150371352
-0.14038863111356284 1.285077070440151
-0.15405529217251315 1.5073727987156822
-0.16772195323146347 1.6185206628534479
-0.2087219364083144 1.7667178150371352
-0.26338858064411563 1.7296685269912133
-0.22238859746726472 1.4332742226238386
-0.1950552753493641 1.285077070440151
-0.14038863111356284 1.322126358486073
-0.12672197005461253 1.7667178150371352
-0.15405529217251315 2.100161407450432
-0.2087219364083144 2.1742599835422753
-0.24972191958516532 1.6926192389452914
-0.2087219364083144 1.3591756465319949
-0.26338858064411563 1.2480277823942292
-0.24972191958516532 1.3591756465319949
-0.22238859746726472 1.7296685269912133
-0.26338858064411563 1.840816391128979
-0.29072190276201626 1.5073727987156822
-0.22238859746726472 1.3962249345779167
-0.15405529217251315 1.285077070440151
-0.14038863111356284 1.544422086761604
-0.12672197005461253 1.9149149672208226
-0.15405529217251315 1.8778656791749007
-0.16772195323146347 1.7667178150371352
-0.18138861429041378 1.1368799182564637
-0.16772195323146347 1.1739292063023856
-0.15405529217251315 1.3591756465319949
-0.22238859746726472 1.6926192389452914
-0.1950552753493641 1.7296685269912133
-0.18138861429041378 1.544422086761604
-0.05838866475986098 1.1739292063023856
0.037277962652791194 0.9886827660727763
0.06461128477069182 1.4703235106697603
0.09194460688859243 1.9149149672208226
-0.01738868158301005 2.06311211940451
0.023611301593840884 1.7296685269912133
0.009944640534890572 1.2480277823942292
0.023611301593840884 1.0257320541186983
0.10561126794754275 1.1368799182564637
0.1739445732422943 1.544422086761604
0.160277912183344 1.7667178150371352
0.1876112343012446 1.803767103083057
0.2696112006549465 1.3591756465319949
0.3652778280675987 1.285077070440151
0.48827777759815144 1.4332742226238386
0.4746111165392011 1.9149149672208226
0.4199444723033999 2.3965557118178067
0.40627781124444956 2.3965557118178067
0.39261115018549925 2.06311211940451
0.4199444723033999 1.4703235106697603
0.4609444554802508 1.4703235106697603
0.4746111165392011 1.7667178150371352
0.4336111333623502 2.1742599835422753
0.4336111333623502 2.3965557118178067
0.4336111333623502 2.322457135725963
0.4609444554802508 1.7667178150371352
0.4199444723033999 1.6926192389452914
0.39261115018549925 1.9149149672208226
0.378944489126549 2.2113092715881972
0.2832778617138968 2.248358559634119
0.1739445732422943 1.9519642552667444
0.20127789536019491 1.4332742226238386
0.22861121747809554 1.2109784943483075
0.21494455641914523 1.285077070440151
0.1466112511243937 1.6555699508993695
0.037277962652791194 1.6555699508993695
-0.0037220205240597382 1.4332742226238386
-0.03105534264196036 1.06278134216462
-0.01738868158301005 1.1368799182564637
-0.05838866475986098 1.285077070440151
-0.12672197005461253 1.6555699508993695
-0.16772195323146347 1.3591756465319949
-0.1950552753493641 1.0998306302105418
-0.2087219364083144 0.9145841899809326
-0.24972191958516532 1.0998306302105418
-0.26338858064411563 1.322126358486073
-0.3043885638209666 1.3962249345779167
-0.27705524170306595 1.0998306302105418
-0.23605525852621503 0.7293377497513234
-0.18138861429041378 0.803436325843167
-0.16772195323146347 1.2109784943483075
-0.23605525852621503 1.6926192389452914
-0.26338858064411563 1.6185206628534479
-0.3043885638209666 1.2480277823942292
-0.3043885638209666 0.803436325843167
-0.3317218859388672 0.5811405975676359
-0.4410551744104697 0.8404856138890889
-0.5503884628820722 0.9886827660727763
-0.7553883787663268 1.2109784943483075
-0.8783883282968796 0.9886827660727763
-0.8647216672379293 0.6552391736594797
-0.7963883619431777 0.803436325843167
-0.632388429235774 1.322126358486073
-0.3180552248799169 2.0260628313585882
0.09194460688859243 2.5818021520474157
0.6932776934824061 2.804097880322947
1.3219441021941205 2.804097880322947
1.8822772056110832 3.1375414727362436
2.3742770037332943 3.6562315053791496
2.797943496560754 4.100822961930212
3.1806100062113627 4.286069402159821
3.590609837979872 3.8785272336546806
3.9732763476304807 3.2486893368740093
4.219276246691586 2.6559007281392595
4.314942874104238 2.2113092715881972
4.314942874104238 1.7667178150371352
4.260276229868437 0.9886827660727763
4.137276280337884 0.13654914101657376
4.027942991866282 -0.3450916035804103
3.809276414923077 -0.27099302748856663
3.3856099220956173 0.6552391736594797
2.702276869148102 1.6555699508993695
1.8549438834931826 2.248358559634119
1.0759442031330149 2.285407847680041
0.39261115018549925 1.5073727987156822
0.037277962652791194 0.8775349019350108
-0.14038863111356284 0.5811405975676359
-0.11305530899566223 0.7663870377972453
-0.03105534264196036 1.1368799182564637
0.11927792900649306 1.1368799182564637
0.160277912183344 0.9516334780268545
0.20127789536019491 0.8404856138890889
0.11927792900649306 0.8775349019350108
-0.07205532581881129 1.1368799182564637
-0.23605525852621503 1.4703235106697603
-0.3590552080567678 1.5073727987156822
-0.40005519123361877 1.1739292063023856
-0.4137218522925691 0.9886827660727763
-0.3590552080567678 0.803436325843167
-0.3453885469978175 1.1739292063023856
-0.40005519123361877 1.6555699508993695
-0.4273885133515194 1.840816391128979
-0.4273885133515194 1.3962249345779167
-0.4137218522925691 1.1739292063023856
-0.4137218522925691 0.9516334780268545
-0.45472183546941997 1.1368799182564637
-0.4820551575873206 1.544422086761604
-0.4683884965283703 1.6185206628534479
-0.4273885133515194 1.4703235106697603
-0.37272186911571814 1.3591756465319949
-0.3043885638209666 1.3591756465319949
-0.3043885638209666 1.7296685269912133
-0.37272186911571814 1.9519642552667444
-0.3590552080567678 1.6926192389452914
-0.3590552080567678 1.4703235106697603
-0.3453885469978175 1.322126358486073
-0.3453885469978175 1.544422086761604
-0.4410551744104697 1.9149149672208226
-0.4820551575873206 1.8778656791749007
-0.45472183546941997 1.544422086761604
-0.38638853017466845 1.5073727987156822
-0.3590552080567678 1.544422086761604
-0.37272186911571814 1.9149149672208226
-0.40005519123361877 2.285407847680041
-0.40005519123361877 2.322457135725963
-0.4137218522925691 1.9149149672208226
-0.3043885638209666 1.6555699508993695
-0.3043885638209666 1.5073727987156822
-0.3453885469978175 1.8778656791749007
-0.37272186911571814 2.06311211940451
-0.40005519123361877 2.285407847680041
-0.3317218859388672 1.9890135433126663
-0.29072190276201626 1.7667178150371352
-0.27705524170306595 1.9890135433126663
-0.22238859746726472 2.359506423771885
-0.26338858064411563 2.7299993042311033
-0.23605525852621503 2.6559007281392595
-0.23605525852621503 2.2113092715881972
-0.1950552753493641 2.0260628313585882
-0.18138861429041378 2.2113092715881972
-0.22238859746726472 2.3965557118178067
-0.26338858064411563 2.6929500161851814
-0.26338858064411563 2.5077035759555724
-0.2087219364083144 2.1742599835422753
-0.14038863111356284 2.100161407450432
-0.11305530899566223 2.5818021520474157
-0.09938864793671191 2.804097880322947
-0.14038863111356284 2.9152457444607127
-0.12672197005461253 2.7299993042311033
-0.0857219868777616 2.285407847680041
-0.05838866475986098 1.9890135433126663
-0.11305530899566223 2.2113092715881972
-0.11305530899566223 2.4706542879096505
-0.18138861429041378 2.6559007281392595
-0.16772195323146347 2.5077035759555724
-0.15405529217251315 2.137210695496354
-0.07205532581881129 2.06311211940451
-0.05838866475986098 2.248358559634119
-0.03105534264196036 2.7299993042311033
-0.0857219868777616 2.9522950325066346
-0.07205532581881129 2.6929500161851814
-0.04472200370091067 2.06311211940451
-0.03105534264196036 1.7667178150371352
-0.01738868158301005 1.840816391128979
-0.0857219868777616 2.137210695496354
-0.11305530899566223 2.3965557118178067
-0.14038863111356284 2.137210695496354
-0.12672197005461253 1.7667178150371352
-0.03105534264196036 1.3962249345779167
-0.0037220205240597382 1.4332742226238386
0.009944640534890572 1.7667178150371352
-0.0037220205240597382 2.100161407450432
-0.0037220205240597382 2.06311211940451
-0.04472200370091067 1.6926192389452914
-0.03105534264196036 1.3591756465319949
-0.04472200370091067 1.2109784943483075
-0.0857219868777616 1.4332742226238386
-0.11305530899566223 1.6185206628534479
-0.15405529217251315 1.4703235106697603
-0.09938864793671191 1.2480277823942292
-0.07205532581881129 0.9886827660727763
-0.0857219868777616 1.2109784943483075
-0.07205532581881129 1.581471374807526
-0.09938864793671191 1.7667178150371352
-0.0857219868777616 1.4332742226238386
-0.05838866475986098 1.1368799182564637
-0.05838866475986098 1.06278134216462
-0.12672197005461253 1.2109784943483075
-0.14038863111356284 1.3591756465319949
-0.18138861429041378 1.1739292063023856
-0.22238859746726472 0.803436325843167
-0.12672197005461253 0.7663870377972453
-0.18138861429041378 1.0257320541186983
-0.12672197005461253 1.4703235106697603
-0.14038863111356284 1.6926192389452914
-0.14038863111356284 1.581471374807526
-0.14038863111356284 1.06278134216462
-0.0857219868777616 0.8404856138890889
-0.11305530899566223 1.0257320541186983
-0.16772195323146347 1.4703235106697603
-0.23605525852621503 1.4703235106697603
-0.26338858064411563 1.285077070440151
-0.24972191958516532 1.0257320541186983
-0.22238859746726472 0.6552391736594797
-0.18138861429041378 0.8775349019350108
-0.18138861429041378 1.2480277823942292
-0.2087219364083144 1.6185206628534479
-0.22238859746726472 1.5073727987156822
-0.2087219364083144 1.0998306302105418
-0.23605525852621503 0.8404856138890889
-0.22238859746726472 0.8404856138890889
-0.27705524170306595 1.1739292063023856
-0.3453885469978175 1.285077070440151
-0.3590552080567678 1.06278134216462
-0.3317218859388672 0.7663870377972453
-0.3453885469978175 0.4329434453839486
-0.3317218859388672 0.6552391736594797
-0.3317218859388672 1.1739292063023856
-0.3453885469978175 1.5073727987156822
-0.3317218859388672 1.544422086761604
-0.3180552248799169 0.9145841899809326
-0.3043885638209666 0.5811405975676359
-0.27705524170306595 0.5440913095217141
-0.3317218859388672 0.803436325843167
-0.38638853017466845 1.06278134216462
-0.38638853017466845 1.0998306302105418
-0.40005519123361877 0.6181898856135578
-0.3590552080567678 0.4699927334298704
-0.3453885469978175 0.5440913095217141
-0.3043885638209666 0.9516334780268545
-0.3180552248799169 1.3962249345779167
-0.3180552248799169 1.3591756465319949
-0.3043885638209666 0.8404856138890889
-0.23605525852621503 0.5440913095217141
-0.23605525852621503 0.4699927334298704
-0.29072190276201626 0.7663870377972453
-0.3453885469978175 1.0257320541186983
-0.37272186911571814 0.9886827660727763
-0.38638853017466845 0.6552391736594797
-0.3453885469978175 0.35884486929210485
-0.3317218859388672 0.35884486929210485
-0.24972191958516532 0.8775349019350108
-0.27705524170306595 1.2109784943483075
-0.26338858064411563 1.3591756465319949
-0.29072190276201626 0.9516334780268545
-0.22238859746726472 0.6181898856135578
-0.2087219364083144 0.5440913095217141
-0.24972191958516532 0.8404856138890889
-0.27705524170306595 0.9145841899809326
-0.22238859746726472 0.8775349019350108
-0.2087219364083144 0.4329434453839486
-0.16772195323146347 0.35884486929210485
-0.14038863111356284 0.5440913095217141
-0.11305530899566223 0.9516334780268545
-0.12672197005461253 1.1368799182564637
-0.07205532581881129 0.9516334780268545
-0.01738868158301005 0.5070420214757922
0.023611301593840884 0.6181898856135578
0.05094462371174151 0.803436325843167
0.06461128477069182 0.9516334780268545
0.07827794582964212 0.803436325843167
0.1466112511243937 0.4329434453839486
0.24227787853704585 0.4699927334298704
0.2696112006549465 0.8404856138890889
0.2969445227728471 1.2480277823942292
0.2832778617138968 1.322126358486073
0.33794450594969805 1.2480277823942292
0.39261115018549925 0.9886827660727763
0.40627781124444956 1.0257320541186983
0.39261115018549925 1.322126358486073
0.33794450594969805 1.6555699508993695
0.2832778617138968 1.5073727987156822
0.25594453959599617 1.06278134216462
0.2832778617138968 0.6552391736594797
0.22861121747809554 0.6552391736594797
0.20127789536019491 1.0998306302105418
0.160277912183344 1.5073727987156822
0.13294459006544337 1.4703235106697603
0.11927792900649306 1.2109784943483075
0.13294459006544337 0.9145841899809326
0.10561126794754275 0.8775349019350108
0.05094462371174151 0.9516334780268545
-0.09938864793671191 1.0257320541186983
-0.16772195323146347 0.7663870377972453
-0.26338858064411563 0.21064771710841745
-0.22238859746726472 0.06245056492473005
-0.27705524170306595 0.17359842906249562
-0.3590552080567678 0.6552391736594797
-0.37272186911571814 0.9886827660727763
-0.40005519123361877 0.9145841899809326
-0.3453885469978175 0.5070420214757922
-0.3180552248799169 0.4329434453839486
-0.27705524170306595 0.5070420214757922
-0.3317218859388672 0.803436325843167
-0.4137218522925691 0.9886827660727763
-0.4683884965283703 0.6922884617054015
-0.4683884965283703 0.24769700515433932
-0.4957218186462709 -0.08574658725895735
-0.4683884965283703 -0.1227958753048792
-0.4683884965283703 0.5440913095217141
-0.4957218186462709 0.6552391736594797
-0.4820551575873206 0.7663870377972453
-0.4683884965283703 0.4329434453839486
-0.4820551575873206 0.3958941573380267
-0.5640551239410225 0.3958941573380267
-0.632388429235774 0.7663870377972453
-0.8237216840610784 0.6922884617054015
-0.9877216167684821 0.4329434453839486
-1.0150549388863828 -0.011648011167113649
-0.9330549725326809 0.17359842906249562
-0.7143883955894759 0.6922884617054015
-0.38638853017466845 1.4703235106697603
0.07827794582964212 2.248358559634119
0.5976110660697539 2.4706542879096505
1.1579441694867167 2.3965557118178067
1.704610611844729 2.322457135725963
2.2102770710258905 2.6559007281392595
2.63394356385335 3.1745907607821655
3.07127671773976 3.3968864890576964
3.4676098884493194 2.9522950325066346
3.7956097538641265 2.285407847680041
4.041609652925232 1.3591756465319949
4.164609602455785 0.5440913095217141
4.123609619278934 -0.011648011167113649
4.0142763308073315 -0.7155844840396288
3.93227636445363 -0.9749295003610817
3.7956097538641265 -0.93788021231516
3.5222765326851206 -0.30804231553448846
2.975610090327108 0.803436325843167
2.19661040996694 1.544422086761604
1.2672774579583193 1.6185206628534479
0.4472777944213005 0.8404856138890889
-0.11305530899566223 -0.1227958753048792
-0.38638853017466845 -0.38214089162633214
-0.4683884965283703 -0.419190179672254
-0.37272186911571814 -0.011648011167113649
-0.2087219364083144 0.13654914101657376
-0.05838866475986098 -0.011648011167113649
-0.05838866475986098 0.06245056492473005
-0.0857219868777616 0.35884486929210485
-0.23605525852621503 0.6552391736594797
-0.40005519123361877 0.7293377497513234
-0.5093884797052213 0.7293377497513234
-0.632388429235774 0.17359842906249562
-0.6460550902947243 -0.27099302748856663
-0.6187217681768237 -0.0486972992130355
-0.6733884124126249 0.321795581246183
-0.6870550734715752 0.6552391736594797
-0.6733884124126249 0.6922884617054015
-0.6460550902947243 0.4699927334298704
-0.6187217681768237 0.2847462932002612
-0.5230551407641716 0.17359842906249562
-0.5230551407641716 0.6552391736594797
-0.5503884628820722 0.8404856138890889
-0.591388446058923 0.8775349019350108
-0.5640551239410225 0.3958941573380267
-0.6050551071178734 0.06245056492473005
-0.5777217849999728 0.06245056492473005
-0.5503884628820722 0.35884486929210485
-0.591388446058923 0.7663870377972453
-0.632388429235774 0.9516334780268545
-0.591388446058923 0.6181898856135578
-0.5093884797052213 0.321795581246183
-0.4683884965283703 0.4329434453839486
-0.45472183546941997 0.6922884617054015
-0.5230551407641716 1.0998306302105418
-0.5367218018231219 1.1739292063023856
-0.5777217849999728 0.6922884617054015
-0.5503884628820722 0.2847462932002612
-0.5230551407641716 0.35884486929210485
-0.4957218186462709 0.4699927334298704
-0.5367218018231219 0.8775349019350108
-0.5777217849999728 1.2109784943483075
-0.5503884628820722 1.0257320541186983
-0.5230551407641716 0.8404856138890889
-0.4957218186462709 0.9886827660727763
-0.4410551744104697 1.0257320541186983
-0.5093884797052213 1.4332742226238386
-0.5367218018231219 1.3962249345779167
-0.5230551407641716 0.9886827660727763
-0.4820551575873206 0.6922884617054015
-0.4820551575873206 0.803436325843167
-0.4820551575873206 1.0998306302105418
-0.4957218186462709 1.581471374807526
-0.4683884965283703 1.7296685269912133
-0.4273885133515194 1.3962249345779167
-0.38638853017466845 1.0998306302105418
-0.37272186911571814 1.2480277823942292
-0.3590552080567678 1.6926192389452914
-0.37272186911571814 1.9519642552667444
-0.4273885133515194 1.9149149672208226
-0.4273885133515194 1.544422086761604
-0.40005519123361877 1.06278134216462
-0.38638853017466845 0.9886827660727763
-0.4137218522925691 1.285077070440151
-0.4137218522925691 1.6185206628534479
-0.4137218522925691 1.8778656791749007
-0.38638853017466845 1.5073727987156822
-0.27705524170306595 1.322126358486073
-0.24972191958516532 1.4332742226238386
-0.24972191958516532 1.544422086761604
-0.27705524170306595 1.803767103083057
-0.3043885638209666 1.6555699508993695
-0.29072190276201626 1.2480277823942292
-0.29072190276201626 0.9886827660727763
-0.29072190276201626 1.06278134216462
-0.3180552248799169 1.2480277823942292
-0.3453885469978175 1.3962249345779167
-0.3180552248799169 1.285077070440151
-0.3043885638209666 0.9886827660727763
-0.22238859746726472 0.8404856138890889
-0.1950552753493641 0.9145841899809326
-0.1950552753493641 1.1739292063023856
-0.26338858064411563 1.322126358486073
-0.29072190276201626 1.0998306302105418
-0.3317218859388672 0.5811405975676359
-0.23605525852621503 0.0994998529706519
-0.24972191958516532 0.06245056492473005
-0.27705524170306595 0.5070420214757922
-0.3180552248799169 0.7663870377972453
-0.3317218859388672 0.7663870377972453
-0.29072190276201626 0.5440913095217141
-0.24972191958516532 0.21064771710841745
-0.22238859746726472 0.0254012768788082
-0.16772195323146347 0.2847462932002612
-0.2087219364083144 0.5811405975676359
-0.29072190276201626 0.4699927334298704
-0.3453885469978175 0.21064771710841745
-0.3043885638209666 -0.23394373944264477
-0.3317218859388672 -0.4932887557640977
-0.3180552248799169 -0.3450916035804103
-0.3590552080567678 0.06245056492473005
-0.37272186911571814 0.24769700515433932
-0.38638853017466845 0.13654914101657376
-0.37272186911571814 -0.1968944513967229
-0.26338858064411563 -0.45623946771817586
-0.29072190276201626 -0.30804231553448846
-0.3317218859388672 0.0994998529706519
-0.38638853017466845 0.321795581246183
-0.4273885133515194 0.0254012768788082
-0.45472183546941997 -0.38214089162633214
-0.40005519123361877 -0.8637816362233163
-0.37272186911571814 -0.8267323481773944
-0.38638853017466845 -0.27099302748856663
-0.38638853017466845 0.17359842906249562
-0.4273885133515194 0.24769700515433932
-0.4137218522925691 -0.0486972992130355
-0.3590552080567678 -0.45623946771817586
-0.3453885469978175 -0.6044366199018633
-0.3180552248799169 -0.27099302748856663
-0.37272186911571814 0.0994998529706519
-0.5093884797052213 0.13654914101657376
-0.5093884797052213 -0.23394373944264477
-0.4957218186462709 -0.7526337720855507
-0.4683884965283703 -0.900830924269238
-0.4820551575873206 -0.6785351959937069
-0.4957218186462709 -0.1968944513967229
-0.5093884797052213 0.17359842906249562
-0.5230551407641716 0.06245056492473005
-0.5093884797052213 -0.1968944513967229
-0.4683884965283703 -0.6785351959937069
-0.4410551744104697 -0.8267323481773944
-0.4957218186462709 -0.5673873318559414
-0.5503884628820722 -0.15984516335080104
-0.6050551071178734 -0.0486972992130355
-0.6460550902947243 -0.38214089162633214
-0.6460550902947243 -0.7526337720855507
-0.6187217681768237 -0.7896830601314725
-0.6187217681768237 -0.6414859079477852
-0.6050551071178734 -0.1968944513967229
-0.6597217513536746 0.17359842906249562
-0.6870550734715752 -0.08574658725895735
-0.6597217513536746 -0.5303380438100196
-0.591388446058923 -0.7155844840396288
-0.6050551071178734 -0.6414859079477852
-0.6460550902947243 -0.419190179672254
-0.6733884124126249 -0.30804231553448846
-0.6733884124126249 -0.5673873318559414
-0.6460550902947243 -0.900830924269238
-0.6597217513536746 -0.93788021231516
-0.6733884124126249 -0.6044366199018633
-0.6870550734715752 -0.0486972992130355
-0.632388429235774 -0.08574658725895735
-0.5777217849999728 -0.3450916035804103
-0.5777217849999728 -0.6414859079477852
-0.5367218018231219 -0.7155844840396288
-0.5367218018231219 -0.38214089162633214
-0.6050551071178734 -0.1227958753048792
-0.6187217681768237 -0.08574658725895735
-0.6187217681768237 -0.5303380438100196
-0.591388446058923 -1.1231266525447692
-0.5503884628820722 -1.160175940590691
-0.5093884797052213 -0.7155844840396288
-0.5230551407641716 -0.1227958753048792
-0.5230551407641716 0.17359842906249562
-0.5503884628820722 0.0994998529706519
-0.5367218018231219 -0.5303380438100196
-0.4683884965283703 -0.7896830601314725
-0.38638853017466845 -0.7896830601314725
-0.45472183546941997 -0.6044366199018633
-0.4820551575873206 -0.1968944513967229
-0.4957218186462709 -0.45623946771817586
-0.4957218186462709 -0.7526337720855507
-0.4273885133515194 -1.0119787884070037
-0.4137218522925691 -0.900830924269238
-0.3590552080567678 -0.419190179672254
-0.3317218859388672 -0.15984516335080104
-0.26338858064411563 -0.1227958753048792
-0.16772195323146347 -0.6414859079477852
-0.05838866475986098 -0.8267323481773944
-0.07205532581881129 -0.7526337720855507
-0.0857219868777616 -0.30804231553448846
-0.04472200370091067 -0.08574658725895735
-0.07205532581881129 -0.15984516335080104
-0.01738868158301005 -0.45623946771817586
-0.0037220205240597382 -0.6785351959937069
0.05094462371174151 -0.45623946771817586
0.09194460688859243 0.06245056492473005
0.05094462371174151 0.5440913095217141
0.023611301593840884 0.5811405975676359
0.037277962652791194 0.321795581246183
0.05094462371174151 -0.38214089162633214
0.009944640534890572 -0.45623946771817586
-0.0037220205240597382 -0.38214089162633214
-0.05838866475986098 0.0254012768788082
-0.14038863111356284 0.17359842906249562
-0.16772195323146347 -0.0486972992130355
-0.18138861429041378 -0.4932887557640977
-0.14038863111356284 -0.5673873318559414
-0.09938864793671191 -0.38214089162633214
-0.14038863111356284 -0.0486972992130355
-0.22238859746726472 0.0994998529706519
-0.27705524170306595 -0.15984516335080104
-0.38638853017466845 -0.7526337720855507
-0.4137218522925691 -1.0860773644988473
-0.4410551744104697 -1.160175940590691
-0.4820551575873206 -0.8637816362233163
-0.591388446058923 -0.5303380438100196
-0.6460550902947243 -0.5673873318559414
-0.6597217513536746 -0.8637816362233163
-0.6187217681768237 -1.160175940590691
-0.5640551239410225 -1.0490280764529254
-0.5230551407641716 -0.5673873318559414
-0.5640551239410225 -0.23394373944264477
-0.5777217849999728 -0.30804231553448846
-0.6187217681768237 -0.7155844840396288
-0.6597217513536746 -1.0119787884070037
-0.6597217513536746 -1.1231266525447692
-0.6597217513536746 -0.7896830601314725
-0.7143883955894759 -0.5673873318559414
-0.7553883787663268 -0.5673873318559414
-0.7417217177073765 -0.900830924269238
-0.6733884124126249 -1.197225228636613
-0.632388429235774 -1.0119787884070037
-0.6870550734715752 -0.6785351959937069
-0.7553883787663268 -0.3450916035804103
-0.9330549725326809 -0.5673873318559414
-1.028721599945333 -0.900830924269238
-1.1243882273579853 -1.3454223808203003
-1.1243882273579853 -1.2342745166825346
-1.165388210534836 -0.8267323481773944
-1.0423882610042834 -0.23394373944264477
-0.8783883282968796 -0.15984516335080104
-0.45472183546941997 -0.011648011167113649
-0.03105534264196036 0.13654914101657376
0.556611082892903 0.3958941573380267
1.0622775420740644 1.0257320541186983
1.5542773401962757 1.7667178150371352
1.9506105109058347 2.137210695496354
2.346943681615394 1.9890135433126663
2.756943513383903 1.7296685269912133
3.1669433451524123 1.0257320541186983
3.50860987162617 0.7663870377972453
3.713609787510425 0.6922884617054015
3.8366097370409777 0.17359842906249562
3.863943059158878 -0.6785351959937069
3.8366097370409777 -1.864112413463206
3.740943109628325 -2.4939503102438776
3.645276482215673 -2.3087038700142686
3.4676098884493194 -1.419520956912144
3.1259433619755614 -0.38214089162633214
2.5656102585585985 0.13654914101657376
1.827610561375282 0.24769700515433932
0.993944236779313 -0.27099302748856663
0.2832778617138968 -1.0119787884070037
-0.23605525852621503 -1.197225228636613
-0.5503884628820722 -1.2342745166825346
-0.6733884124126249 -1.1231266525447692
-0.6050551071178734 -1.2342745166825346
-0.4410551744104697 -1.419520956912144
-0.26338858064411563 -1.6047673971417533
-0.14038863111356284 -1.4565702449580658
-0.1950552753493641 -1.0860773644988473
-0.3180552248799169 -0.5303380438100196
-0.5230551407641716 -0.45623946771817586
-0.6870550734715752 -0.7155844840396288
-0.7690550398252771 -1.160175940590691
-0.7963883619431777 -1.4565702449580658
-0.851055006178979 -1.3083730927743784
-0.851055006178979 -0.8267323481773944
-0.8920549893558299 -0.4932887557640977
-0.8920549893558299 -0.5673873318559414
-0.8647216672379293 -0.93788021231516
-0.7963883619431777 -1.0860773644988473
-0.7963883619431777 -0.9749295003610817
-0.8100550230021281 -0.6044366199018633
-0.851055006178979 -0.15984516335080104
-0.8920549893558299 -0.30804231553448846
-0.8920549893558299 -0.6044366199018633
-0.9057216504147803 -1.0860773644988473
-0.8100550230021281 -1.160175940590691
-0.8100550230021281 -0.93788021231516
-0.8373883451200287 -0.45623946771817586
-0.8237216840610784 -0.0486972992130355
-0.8647216672379293 -0.1227958753048792
-0.8237216840610784 -0.5673873318559414
-0.7280550566484262 -0.9749295003610817
-0.6870550734715752 -0.8637816362233163
-0.7280550566484262 -0.419190179672254
-0.8237216840610784 -0.23394373944264477
-0.8237216840610784 -0.27099302748856663
-0.8237216840610784 -0.5303380438100196
-0.8237216840610784 -0.8267323481773944
-0.851055006178979 -0.900830924269238
-0.7963883619431777 -0.419190179672254
-0.8100550230021281 -0.08574658725895735
-0.8237216840610784 -0.08574658725895735
-0.8237216840610784 -0.23394373944264477
-0.7007217345305256 -0.38214089162633214
-0.7143883955894759 -0.23394373944264477
-0.7553883787663268 0.0254012768788082
-0.7553883787663268 0.06245056492473005
-0.7690550398252771 -0.27099302748856663
-0.7827217008842274 -0.5673873318559414
-0.7417217177073765 -0.45623946771817586
-0.7417217177073765 -0.08574658725895735
-0.7280550566484262 0.24769700515433932
-0.7143883955894759 0.24769700515433932
-0.6870550734715752 -0.0486972992130355
-0.6050551071178734 -0.15984516335080104
-0.6050551071178734 -0.011648011167113649
-0.6187217681768237 0.3958941573380267
-0.632388429235774 0.7663870377972453
-0.7007217345305256 0.5070420214757922
-0.6733884124126249 -0.011648011167113649
-0.6597217513536746 -0.27099302748856663
-0.591388446058923 -0.1968944513967229
-0.632388429235774 0.2847462932002612
-0.6733884124126249 0.5440913095217141
-0.632388429235774 0.5811405975676359
-0.6187217681768237 0.321795581246183
-0.591388446058923 0.17359842906249562
-0.5093884797052213 0.17359842906249562
-0.5503884628820722 0.4329434453839486
-0.591388446058923 0.7293377497513234
-0.591388446058923 0.5811405975676359
-0.6050551071178734 0.21064771710841745
-0.5503884628820722 -0.27099302748856663
-0.5093884797052213 -0.27099302748856663
-0.5777217849999728 0.13654914101657376
-0.5503884628820722 0.3958941573380267
-0.5640551239410225 0.5070420214757922
-0.5503884628820722 0.24769700515433932
-0.4820551575873206 -0.1968944513967229
-0.4273885133515194 -0.1968944513967229
-0.4273885133515194 -0.0486972992130355
-0.4820551575873206 0.0994998529706519
-0.4957218186462709 -0.011648011167113649
-0.4957218186462709 -0.419190179672254
-0.4820551575873206 -0.8267323481773944
-0.4957218186462709 -0.8637816362233163
-0.5367218018231219 -0.5673873318559414
-0.5367218018231219 -0.27099302748856663
-0.5230551407641716 -0.23394373944264477
-0.5230551407641716 -0.6044366199018633
-0.4410551744104697 -0.7896830601314725
-0.40005519123361877 -0.8637816362233163
-0.4683884965283703 -0.6785351959937069
-0.5230551407641716 -0.419190179672254
-0.5640551239410225 -0.6414859079477852
-0.5230551407641716 -1.0490280764529254
-0.5503884628820722 -1.4565702449580658
-0.5230551407641716 -1.5306688210499095
-0.5640551239410225 -1.1231266525447692
-0.591388446058923 -0.7896830601314725
-0.6050551071178734 -0.7526337720855507
-0.5367218018231219 -1.0490280764529254
-0.5093884797052213 -1.3083730927743784
-0.4683884965283703 -1.3824716688662222
-0.5093884797052213 -1.1231266525447692
-0.5640551239410225 -0.7155844840396288
-0.5640551239410225 -0.6785351959937069
-0.6460550902947243 -1.2342745166825346
-0.6050551071178734 -1.6047673971417533
-0.5640551239410225 -1.7900138373713625
-0.5777217849999728 -1.4936195330039876
-0.6050551071178734 -0.93788021231516
-0.6187217681768237 -0.7155844840396288
-0.6050551071178734 -0.900830924269238
-0.5777217849999728 -1.160175940590691
-0.5640551239410225 -1.197225228636613
-0.5503884628820722 -0.8267323481773944
-0.6187217681768237 -0.7526337720855507
-0.6460550902947243 -0.7896830601314725
-0.6460550902947243 -1.2342745166825346
-0.6597217513536746 -1.4565702449580658
-0.6870550734715752 -1.3083730927743784
-0.7007217345305256 -0.9749295003610817
-0.7553883787663268 -0.9749295003610817
-0.7007217345305256 -1.197225228636613
-0.632388429235774 -1.4565702449580658
-0.6187217681768237 -1.2342745166825346
-0.632388429235774 -0.8637816362233163
-0.6597217513536746 -0.6785351959937069
-0.7280550566484262 -0.7526337720855507
-0.7553883787663268 -1.160175940590691
-0.7280550566484262 -1.7159152612795188
-0.7690550398252771 -1.6047673971417533
-0.7553883787663268 -1.419520956912144
-0.8373883451200287 -0.900830924269238
-0.8647216672379293 -1.0119787884070037
-0.8237216840610784 -1.2713238047284565
-0.7827217008842274 -1.4936195330039876
-0.7417217177073765 -1.4936195330039876
-0.7417217177073765 -1.160175940590691
-0.7690550398252771 -0.93788021231516
-0.7963883619431777 -1.0119787884070037
-0.8100550230021281 -1.5677181090958314
-0.8100550230021281 -1.7900138373713625
-0.7690550398252771 -1.7529645493254407
-0.8237216840610784 -1.3454223808203003
-0.8647216672379293 -1.0490280764529254
-0.8783883282968796 -0.9749295003610817
-0.851055006178979 -1.197225228636613
-0.8237216840610784 -1.5306688210499095
-0.7690550398252771 -1.419520956912144
-0.7417217177073765 -1.419520956912144
-0.7827217008842274 -0.9749295003610817
-0.7827217008842274 -0.9749295003610817
-0.7963883619431777 -1.160175940590691
-0.7827217008842274 -1.7159152612795188
-0.7280550566484262 -1.7529645493254407
-0.7417217177073765 -1.6047673971417533
-0.7827217008842274 -1.0119787884070037
-0.8100550230021281 -0.8267323481773944
-0.7827217008842274 -0.900830924269238
-0.7280550566484262 -1.419520956912144
-0.6870550734715752 -1.6788659732335969
-0.632388429235774 -1.3083730927743784
-0.6597217513536746 -0.93788021231516
-0.7143883955894759 -0.8637816362233163
-0.6870550734715752 -1.0490280764529254
-0.7007217345305256 -1.6047673971417533
-0.6187217681768237 -1.9752602776009718
-0.5640551239410225 -1.864112413463206
-0.6050551071178734 -1.3824716688662222
-0.6187217681768237 -1.0490280764529254
-0.591388446058923 -0.93788021231516
-0.5777217849999728 -1.3083730927743784
-0.4410551744104697 -1.4936195330039876
-0.3590552080567678 -1.3454223808203003
-0.3317218859388672 -1.0860773644988473
-0.3453885469978175 -0.6785351959937069
-0.38638853017466845 -0.8267323481773944
-0.3317218859388672 -1.2713238047284565
-0.29072190276201626 -1.7900138373713625
-0.23605525852621503 -1.6047673971417533
-0.14038863111356284 -1.2713238047284565
-0.15405529217251315 -0.8267323481773944
-0.18138861429041378 -0.4932887557640977
-0.11305530899566223 -0.7155844840396288
-0.0857219868777616 -0.9749295003610817
-0.07205532581881129 -0.7896830601314725
-0.0857219868777616 -0.7155844840396288
-0.15405529217251315 -0.6785351959937069
-0.2087219364083144 -1.0119787884070037
-0.2087219364083144 -1.3454223808203003
-0.22238859746726472 -1.160175940590691
-0.3180552248799169 -0.7896830601314725
-0.40005519123361877 -0.6785351959937069
-0.4273885133515194 -0.8267323481773944
-0.38638853017466845 -1.0860773644988473
-0.3043885638209666 -1.3083730927743784
-0.37272186911571814 -1.160175940590691
-0.45472183546941997 -0.8637816362233163
-0.5230551407641716 -0.900830924269238
-0.6050551071178734 -1.1231266525447692
-0.6597217513536746 -1.641816685187675
-0.6597217513536746 -1.93821098955505
-0.6870550734715752 -1.7900138373713625
-0.7280550566484262 -1.4936195330039876
-0.7827217008842274 -0.9749295003610817
-0.8100550230021281 -0.9749295003610817
-0.7553883787663268 -1.3454223808203003
-0.7417217177073765 -1.5306688210499095
-0.7143883955894759 -1.6047673971417533
-0.7143883955894759 -1.2342745166825346
-0.7827217008842274 -1.0490280764529254
-0.8647216672379293 -1.0860773644988473
-0.8373883451200287 -1.4936195330039876
-0.8237216840610784 -1.864112413463206
-0.7690550398252771 -1.8270631254172844
-0.7963883619431777 -1.3824716688662222
-0.8373883451200287 -1.0860773644988473
-0.8783883282968796 -1.2342745166825346
-0.9057216504147803 -1.4936195330039876
-0.8373883451200287 -1.7900138373713625
-0.9330549725326809 -1.8270631254172844
-0.9877216167684821 -1.4565702449580658
-1.2063881937116872 -1.160175940590691
-1.370388126419091 -1.0490280764529254
-1.4387214317138424 -1.3454223808203003
-1.3567214653601405 -1.864112413463206
-1.1380548884169355 -1.7900138373713625
-0.8647216672379293 -1.2713238047284565
-0.45472183546941997 -0.1968944513967229
-0.0037220205240597382 0.4329434453839486
0.5702777439518533 0.5811405975676359
1.1579441694867167 0.6552391736594797
1.704610611844729 0.7663870377972453
2.1692770878490397 1.2109784943483075
2.5929435806764993 1.581471374807526
3.0302767345629094 1.6185206628534479
3.371943261036667 0.9886827660727763
3.6179431600977727 0.13654914101657376
3.7546097706872756 -0.6785351959937069
3.809276414923077 -1.419520956912144
3.7956097538641265 -1.901161701509128
3.6589431432746236 -2.123457429784659
3.5359431937440706 -2.197556005876503
3.358276599977717 -2.234605293922425
3.0986100398576606 -1.7529645493254407
2.6202769027943997 -1.0860773644988473
1.9096105277289837 -0.27099302748856663
0.9802775757203627 0.21064771710841745
0.1876112343012446 -0.38214089162633214
-0.3590552080567678 -1.1231266525447692
-0.6460550902947243 -2.0864081417387372
-0.7143883955894759 -2.5309995982897995
-0.6870550734715752 -2.160506717830581
-0.5640551239410225 -1.6047673971417533
-0.45472183546941997 -1.3083730927743784
-0.40005519123361877 -1.2713238047284565
-0.40005519123361877 -1.419520956912144
-0.4957218186462709 -1.3083730927743784
-0.6733884124126249 -1.0119787884070037
-0.851055006178979 -0.9749295003610817
-0.9740549557095318 -1.2713238047284565
-1.028721599945333 -1.641816685187675
-1.028721599945333 -1.7159152612795188
-1.0150549388863828 -1.3824716688662222
-1.0560549220632336 -1.0490280764529254
-1.0423882610042834 -1.0490280764529254
-0.9877216167684821 -1.3083730927743784
-0.9467216335916312 -1.3824716688662222
-0.8920549893558299 -1.2342745166825346
-0.9057216504147803 -0.900830924269238
-0.9330549725326809 -0.6785351959937069
-0.9057216504147803 -0.8267323481773944
-0.9057216504147803 -1.3454223808203003
-0.8783883282968796 -1.4936195330039876
-0.9193883114737306 -1.419520956912144
-0.9467216335916312 -0.9749295003610817
-0.9877216167684821 -0.7896830601314725
-1.0013882778274323 -0.8267323481773944
-0.9330549725326809 -1.0490280764529254
-0.8920549893558299 -1.2713238047284565
-0.9057216504147803 -0.93788021231516
-0.8920549893558299 -0.6044366199018633
-0.9603882946505815 -0.38214089162633214
-0.9467216335916312 -0.6044366199018633
-0.9057216504147803 -0.9749295003610817
-0.8647216672379293 -1.0860773644988473
-0.8783883282968796 -0.8267323481773944
-0.9057216504147803 -0.45623946771817586
-0.9467216335916312 -0.38214089162633214
-0.9330549725326809 -0.6414859079477852
-0.8920549893558299 -0.900830924269238
-0.7963883619431777 -0.8267323481773944
-0.8100550230021281 -0.4932887557640977
-0.7690550398252771 -0.08574658725895735
-0.851055006178979 0.21064771710841745
-0.8783883282968796 0.0254012768788082
-0.8373883451200287 -0.5303380438100196
-0.8373883451200287 -0.900830924269238
-0.8237216840610784 -0.900830924269238
-0.7963883619431777 -0.3450916035804103
-0.8373883451200287 -0.011648011167113649
-0.851055006178979 0.17359842906249562
-0.8237216840610784 -0.011648011167113649
-0.7690550398252771 -0.30804231553448846
-0.7143883955894759 -0.30804231553448846
-0.6870550734715752 0.06245056492473005
-0.7143883955894759 0.3958941573380267
-0.7553883787663268 0.4699927334298704
-0.7417217177073765 0.13654914101657376
-0.7280550566484262 -0.23394373944264477
-0.7143883955894759 -0.419190179672254
-0.6870550734715752 -0.1968944513967229
-0.7553883787663268 0.35884486929210485
-0.7827217008842274 0.5070420214757922
-0.7553883787663268 0.4329434453839486
-0.7280550566484262 -0.011648011167113649
-0.6733884124126249 -0.15984516335080104
-0.5640551239410225 -0.1227958753048792
-0.6050551071178734 0.2847462932002612
-0.6597217513536746 0.5811405975676359
-0.6870550734715752 0.4699927334298704
-0.6597217513536746 -0.0486972992130355
-0.6597217513536746 -0.4932887557640977
-0.6597217513536746 -0.6044366199018633
-0.6597217513536746 -0.23394373944264477
-0.6733884124126249 -0.011648011167113649
-0.6733884124126249 0.06245056492473005
-0.6050551071178734 -0.1968944513967229
-0.5640551239410225 -0.38214089162633214
-0.4957218186462709 -0.419190179672254
-0.5503884628820722 -0.1227958753048792
-0.5640551239410225 -0.011648011167113649
-0.6050551071178734 -0.3450916035804103
-0.632388429235774 -0.93788021231516
-0.6187217681768237 -1.160175940590691
-0.6050551071178734 -1.0119787884070037
-0.6733884124126249 -0.7155844840396288
-0.6733884124126249 -0.6044366199018633
-0.632388429235774 -0.7896830601314725
-0.591388446058923 -1.2342745166825346
-0.5640551239410225 -1.160175940590691
-0.5093884797052213 -0.9749295003610817
-0.5777217849999728 -0.6044366199018633
-0.632388429235774 -0.6414859079477852
-0.632388429235774 -0.8637816362233163
-0.632388429235774 -1.4565702449580658
-0.6050551071178734 -1.641816685187675
-0.591388446058923 -1.5306688210499095
-0.6460550902947243 -1.1231266525447692
-0.6733884124126249 -0.6785351959937069
-0.6870550734715752 -0.8637816362233163
-0.632388429235774 -1.3083730927743784
-0.5777217849999728 -1.6788659732335969
-0.632388429235774 -1.5677181090958314
-0.591388446058923 -1.197225228636613
-0.632388429235774 -0.9749295003610817
-0.6597217513536746 -1.0490280764529254
-0.6733884124126249 -1.3824716688662222
-0.6460550902947243 -1.7900138373713625
-0.6733884124126249 -1.7159152612795188
-0.7690550398252771 -1.3083730927743784
-0.7690550398252771 -0.93788021231516
-0.7963883619431777 -0.9749295003610817
-0.7553883787663268 -1.3083730927743784
-0.7280550566484262 -1.641816685187675
-0.6460550902947243 -1.5306688210499095
-0.6597217513536746 -1.3083730927743784
-0.7143883955894759 -0.8267323481773944
-0.7553883787663268 -0.9749295003610817
-0.7553883787663268 -1.3454223808203003
-0.7690550398252771 -1.8270631254172844
-0.7280550566484262 -2.0864081417387372
-0.7827217008842274 -1.6047673971417533
-0.8100550230021281 -1.197225228636613
-0.851055006178979 -0.6785351959937069
-0.8373883451200287 -0.7896830601314725
-0.7690550398252771 -1.160175940590691
-0.7007217345305256 -1.3824716688662222
-0.7417217177073765 -1.2713238047284565
-0.8100550230021281 -0.9749295003610817
-0.8373883451200287 -0.8267323481773944
-0.9057216504147803 -1.0490280764529254
-0.8920549893558299 -1.4936195330039876
-0.9057216504147803 -1.7900138373713625
-0.851055006178979 -1.7529645493254407
-0.9193883114737306 -1.2342745166825346
-0.9603882946505815 -0.8267323481773944
-0.9603882946505815 -0.6044366199018633
-0.9330549725326809 -1.1231266525447692
-0.8920549893558299 -1.3454223808203003
-0.8783883282968796 -1.4936195330039876
-0.8920549893558299 -1.160175940590691
-0.8920549893558299 -1.0119787884070037
-0.9330549725326809 -0.8637816362233163
-0.9467216335916312 -1.197225228636613
-0.9057216504147803 -1.6788659732335969
-0.9330549725326809 -1.7529645493254407
-0.9057216504147803 -1.3824716688662222
-0.8920549893558299 -0.93788021231516
-0.8920549893558299 -0.7896830601314725
-0.8920549893558299 -0.93788021231516
-0.8100550230021281 -1.2342745166825346
-0.7553883787663268 -1.3824716688662222
-0.7553883787663268 -1.197225228636613
-0.7690550398252771 -0.9749295003610817
-0.7963883619431777 -0.93788021231516
-0.8237216840610784 -1.2342745166825346
-0.7417217177073765 -1.4936195330039876
-0.7963883619431777 -1.419520956912144
-0.7827217008842274 -1.160175940590691
-0.7690550398252771 -0.93788021231516
-0.7963883619431777 -1.1231266525447692
-0.7280550566484262 -1.3454223808203003
-0.6597217513536746 -1.2713238047284565
-0.6187217681768237 -1.0119787884070037
-0.632388429235774 -0.7526337720855507
-0.7007217345305256 -0.7526337720855507
-0.6870550734715752 -1.0860773644988473
-0.7007217345305256 -1.5306688210499095
-0.6733884124126249 -1.641816685187675
-0.6733884124126249 -1.197225228636613
-0.6460550902947243 -0.7896830601314725
-0.6050551071178734 -0.38214089162633214
-0.5093884797052213 -0.6785351959937069
-0.37272186911571814 -0.93788021231516
-0.23605525852621503 -1.3083730927743784
-0.18138861429041378 -1.0860773644988473
-0.15405529217251315 -0.7155844840396288
-0.16772195323146347 -0.6414859079477852
-0.15405529217251315 -0.93788021231516
-0.0857219868777616 -1.160175940590691
-0.07205532581881129 -1.160175940590691
-0.09938864793671191 -0.7896830601314725
-0.16772195323146347 -0.38214089162633214
-0.16772195323146347 -0.1968944513967229
-0.12672197005461253 -0.419190179672254
-0.11305530899566223 -0.7155844840396288
-0.07205532581881129 -0.900830924269238
-0.09938864793671191 -0.6785351959937069
-0.14038863111356284 -0.15984516335080104
-0.22238859746726472 -0.15984516335080104
-0.3043885638209666 -0.30804231553448846
-0.29072190276201626 -0.8637816362233163
-0.23605525852621503 -1.197225228636613
-0.23605525852621503 -1.0860773644988473
-0.26338858064411563 -0.6785351959937069
-0.3043885638209666 -0.27099302748856663
-0.38638853017466845 -0.45623946771817586
-0.4137218522925691 -0.6785351959937069
-0.45472183546941997 -1.0860773644988473
-0.4820551575873206 -1.2342745166825346
-0.5503884628820722 -1.0119787884070037
-0.632388429235774 -0.7526337720855507
-0.6733884124126249 -0.6785351959937069
-0.7143883955894759 -1.0860773644988473
-0.7280550566484262 -1.3454223808203003
-0.7143883955894759 -1.3824716688662222
-0.7280550566484262 -0.9749295003610817
-0.7417217177073765 -0.5303380438100196
-0.7553883787663268 -0.30804231553448846
-0.8100550230021281 -0.6044366199018633
-0.7007217345305256 -0.900830924269238
-0.7143883955894759 -1.0860773644988473
-0.7143883955894759 -0.7896830601314725
-0.7963883619431777 -0.5303380438100196
-0.8100550230021281 -0.5303380438100196
-0.8373883451200287 -0.8637816362233163
-0.851055006178979 -1.3454223808203003
-0.8373883451200287 -1.4565702449580658
-0.8237216840610784 -0.9749295003610817
-0.8373883451200287 -0.5303380438100196
-0.8920549893558299 -0.3450916035804103
-0.9330549725326809 -0.5673873318559414
-1.0013882778274323 -1.0490280764529254
-1.0970549052400846 -1.2713238047284565
-1.247388176888538 -1.197225228636613
-1.3157214821832897 -0.7526337720855507
-1.3157214821832897 -0.4932887557640977
-1.028721599945333 -0.5673873318559414
-0.7007217345305256 -0.45623946771817586
-0.15405529217251315 0.0254012768788082
0.4199444723033999 0.8775349019350108
1.0349442199561638 1.7296685269912133
1.608943984432077 2.100161407450432
2.2102770710258905 2.322457135725963
2.7296101912660022 2.248358559634119
3.2216099893882135 2.2113092715881972
3.590609837979872 2.248358559634119
3.809276414923077 1.8778656791749007
3.9732763476304807 0.8775349019350108
4.0142763308073315 -0.4932887557640977
4.027942991866282 -1.5306688210499095
3.9186097033946794 -1.7159152612795188
3.7546097706872756 -1.197225228636613
3.426609905272468 -0.419190179672254
3.07127671773976 0.2847462932002612
2.5109436143227972 0.5070420214757922
1.786610578198431 0.321795581246183
0.9802775757203627 0.24769700515433932
0.24227787853704585 0.17359842906249562
-0.3180552248799169 -0.011648011167113649
-0.632388429235774 -0.7896830601314725
-0.6733884124126249 -1.4565702449580658
-0.5503884628820722 -1.6788659732335969
-0.3317218859388672 -1.3824716688662222
-0.22238859746726472 -0.7526337720855507
-0.2087219364083144 -0.15984516335080104
-0.27705524170306595 -0.15984516335080104
-0.4137218522925691 -0.5673873318559414
-0.4683884965283703 -0.7155844840396288
-0.6050551071178734 -0.8637816362233163
-0.7417217177073765 -0.5303380438100196
-0.8373883451200287 -0.23394373944264477
-0.9057216504147803 -0.30804231553448846
-0.9330549725326809 -0.6785351959937069
-0.8647216672379293 -0.93788021231516
-0.851055006178979 -1.0119787884070037
-0.8783883282968796 -0.6414859079477852
-0.8783883282968796 -0.1227958753048792
-0.8920549893558299 -0.08574658725895735
-0.8783883282968796 -0.27099302748856663
-0.8373883451200287 -0.45623946771817586
-0.8100550230021281 -0.5303380438100196
-0.8237216840610784 -0.1968944513967229
-0.8647216672379293 0.06245056492473005
-0.9193883114737306 0.06245056492473005
-0.9057216504147803 -0.38214089162633214
-0.851055006178979 -0.7896830601314725
-0.8100550230021281 -0.6785351959937069
-0.8100550230021281 -0.30804231553448846
-0.8237216840610784 0.13654914101657376
-0.8647216672379293 0.321795581246183
-0.8100550230021281 -0.0486972992130355
-0.7553883787663268 -0.30804231553448846
-0.7143883955894759 -0.419190179672254
-0.7280550566484262 -0.08574658725895735
-0.7963883619431777 0.24769700515433932
-0.7827217008842274 0.21064771710841745
-0.8237216840610784 -0.0486972992130355
-0.8100550230021281 -0.419190179672254
-0.8100550230021281 -0.4932887557640977
-0.7963883619431777 -0.011648011167113649
-0.8237216840610784 0.4699927334298704
-0.8237216840610784 0.6552391736594797
-0.7690550398252771 0.35884486929210485
-0.7143883955894759 -0.0486972992130355
-0.6870550734715752 0.0994998529706519
-0.7007217345305256 0.321795581246183
-0.7280550566484262 0.6922884617054015
-0.8373883451200287 0.6922884617054015
-0.8373883451200287 0.35884486929210485
-0.8647216672379293 -0.0486972992130355
-0.8237216840610784 0.06245056492473005
-0.8237216840610784 0.4699927334298704
-0.7690550398252771 0.803436325843167
-0.7690550398252771 0.8404856138890889
-0.7417217177073765 0.6552391736594797
-0.6733884124126249 0.4329434453839486
-0.591388446058923 0.6922884617054015
-0.6597217513536746 0.8775349019350108
-0.6597217513536746 0.9145841899809326
-0.6597217513536746 0.5440913095217141
-0.6460550902947243 0.321795581246183
-0.632388429235774 0.35884486929210485
-0.6460550902947243 0.6181898856135578
-0.632388429235774 0.9145841899809326
-0.6187217681768237 0.9145841899809326
-0.6050551071178734 0.7293377497513234
-0.5367218018231219 0.4329434453839486
-0.5093884797052213 0.6181898856135578
-0.4957218186462709 0.9145841899809326
-0.5093884797052213 1.2109784943483075
-0.5367218018231219 0.9516334780268545
-0.4957218186462709 0.5440913095217141
-0.5093884797052213 0.24769700515433932
-0.4683884965283703 0.21064771710841745
-0.5093884797052213 0.5440913095217141
-0.5503884628820722 0.7663870377972453
-0.6050551071178734 0.8775349019350108
-0.5230551407641716 0.4699927334298704
-0.45472183546941997 0.13654914101657376
-0.4137218522925691 0.13654914101657376
-0.37272186911571814 0.35884486929210485
-0.45472183546941997 0.803436325843167
-0.4957218186462709 0.6922884617054015
-0.4957218186462709 0.3958941573380267
-0.4683884965283703 -0.011648011167113649
-0.4820551575873206 -0.45623946771817586
-0.4273885133515194 -0.419190179672254
-0.4820551575873206 0.0994998529706519
-0.4957218186462709 0.321795581246183
-0.4957218186462709 0.24769700515433932
-0.4410551744104697 0.06245056492473005
-0.37272186911571814 -0.08574658725895735
-0.37272186911571814 -0.011648011167113649
-0.40005519123361877 0.35884486929210485
-0.4820551575873206 0.3958941573380267
-0.4957218186462709 -0.011648011167113649
-0.5093884797052213 -0.6044366199018633
-0.5093884797052213 -0.900830924269238
-0.5093884797052213 -0.6414859079477852
-0.5093884797052213 -0.1227958753048792
-0.5230551407641716 0.13654914101657376
-0.4957218186462709 0.0994998529706519
-0.4683884965283703 -0.38214089162633214
-0.38638853017466845 -0.6414859079477852
-0.37272186911571814 -0.5673873318559414
-0.4410551744104697 -0.1968944513967229
-0.5367218018231219 0.17359842906249562
-0.5367218018231219 0.13654914101657376
-0.5503884628820722 -0.27099302748856663
-0.5230551407641716 -0.7526337720855507
-0.5503884628820722 -0.7896830601314725
-0.5503884628820722 -0.30804231553448846
-0.591388446058923 0.06245056492473005
-0.591388446058923 -0.1227958753048792
-0.5777217849999728 -0.23394373944264477
-0.4957218186462709 -0.5673873318559414
-0.4137218522925691 -0.4932887557640977
-0.4137218522925691 -0.08574658725895735
-0.4683884965283703 0.13654914101657376
-0.5093884797052213 -0.08574658725895735
-0.5093884797052213 -0.5303380438100196
-0.5367218018231219 -0.6414859079477852
-0.6050551071178734 -0.419190179672254
-0.632388429235774 -0.23394373944264477
-0.6460550902947243 -0.15984516335080104
-0.6050551071178734 -0.3450916035804103
-0.5640551239410225 -0.4932887557640977
-0.6187217681768237 -0.419190179672254
-0.6460550902947243 -0.08574658725895735
-0.7007217345305256 -0.27099302748856663
-0.6733884124126249 -0.7155844840396288
-0.6597217513536746 -0.900830924269238
-0.6187217681768237 -0.6785351959937069
-0.7007217345305256 -0.45623946771817586
-0.7417217177073765 -0.38214089162633214
-0.7007217345305256 -0.6414859079477852
-0.6733884124126249 -0.8267323481773944
-0.632388429235774 -0.7526337720855507
-0.632388429235774 -0.38214089162633214
-0.6597217513536746 -0.15984516335080104
-0.6733884124126249 -0.27099302748856663
-0.6733884124126249 -0.7526337720855507
-0.6050551071178734 -0.93788021231516
-0.591388446058923 -0.7526337720855507
-0.6050551071178734 -0.3450916035804103
-0.632388429235774 -0.1227958753048792
-0.6460550902947243 -0.30804231553448846
-0.6187217681768237 -0.5303380438100196
-0.6050551071178734 -0.45623946771817586
-0.5777217849999728 -0.1968944513967229
-0.5367218018231219 -0.011648011167113649
-0.5367218018231219 0.0994998529706519
-0.4957218186462709 -0.38214089162633214
-0.40005519123361877 -0.6414859079477852
-0.40005519123361877 -0.5303380438100196
-0.4273885133515194 -0.1227958753048792
-0.4273885133515194 -0.011648011167113649
-0.4410551744104697 -0.1968944513967229
-0.37272186911571814 -0.4932887557640977
-0.3043885638209666 -0.5303380438100196
-0.22238859746726472 -0.08574658725895735
-0.12672197005461253 0.17359842906249562
-0.0857219868777616 0.4699927334298704
-0.04472200370091067 0.4699927334298704
0.009944640534890572 0.0994998529706519
0.10561126794754275 0.06245056492473005
0.07827794582964212 0.3958941573380267
0.009944640534890572 0.6552391736594797
-0.04472200370091067 0.6922884617054015
-0.09938864793671191 0.6552391736594797
-0.05838866475986098 0.24769700515433932
-0.03105534264196036 0.24769700515433932
0.009944640534890572 0.4329434453839486
0.023611301593840884 0.8404856138890889
0.009944640534890572 1.06278134216462
0.023611301593840884 0.9145841899809326
0.05094462371174151 0.5440913095217141
0.009944640534890572 0.24769700515433932
-0.0037220205240597382 0.3958941573380267
-0.09938864793671191 0.7663870377972453
-0.15405529217251315 0.7293377497513234
-0.24972191958516532 0.6181898856135578
-0.26338858064411563 0.0254012768788082
-0.3043885638209666 -0.15984516335080104
-0.3317218859388672 -0.15984516335080104
-0.38638853017466845 0.2847462932002612
-0.4137218522925691 0.5070420214757922
-0.4410551744104697 0.321795581246183
-0.4410551744104697 -0.1227958753048792
-0.4820551575873206 -0.1968944513967229
-0.5093884797052213 -0.011648011167113649
-0.5777217849999728 0.2847462932002612
-0.591388446058923 0.24769700515433932
-0.6597217513536746 0.06245056492473005
-0.6187217681768237 -0.23394373944264477
-0.5640551239410225 -0.011648011167113649
-0.5230551407641716 0.24769700515433932
-0.5093884797052213 0.2847462932002612
-0.4820551575873206 0.0994998529706519
-0.4683884965283703 -0.1968944513967229
-0.4957218186462709 -0.08574658725895735
-0.5640551239410225 0.0994998529706519
-0.6870550734715752 0.35884486929210485
-0.7553883787663268 0.0994998529706519
-0.7963883619431777 -0.30804231553448846
-0.8237216840610784 -0.5673873318559414
-0.9057216504147803 -0.5303380438100196
-1.0150549388863828 -0.08574658725895735
-1.1927215326527367 0.321795581246183
-1.2063881937116872 0.35884486929210485
-1.1380548884169355 0.13654914101657376
-0.9740549557095318 -0.08574658725895735
-0.6050551071178734 0.24769700515433932
-0.1950552753493641 0.9886827660727763
0.2832778617138968 1.840816391128979
0.8026109819540086 2.4336049998637286
1.3766107464299215 2.359506423771885
1.9369438498468843 2.322457135725963
2.3742770037332943 2.5447528640014943
2.8252768186786548 2.878196456414791
3.2216099893882135 3.026393608598478
3.5359431937440706 2.4336049998637286
3.740943109628325 1.6185206628534479
3.904943042335729 0.4329434453839486
3.9596096865715302 -0.5673873318559414
3.9186097033946794 -0.93788021231516
3.8366097370409777 -1.0860773644988473
3.590609837979872 -1.0119787884070037
3.358276599977717 -1.0490280764529254
2.975610090327108 -0.6044366199018633
2.3879436647922447 -0.23394373944264477
1.5952773233731266 0.5811405975676359
0.7479443377182073 1.2109784943483075
0.009944640534890572 1.0998306302105418
-0.4273885133515194 0.5440913095217141
-0.5640551239410225 -0.0486972992130355
-0.4683884965283703 -0.6785351959937069
-0.3317218859388672 -0.5673873318559414
-0.1950552753493641 -0.15984516335080104
-0.15405529217251315 0.21064771710841745
-0.18138861429041378 -0.011648011167113649
-0.27705524170306595 -0.1968944513967229
-0.38638853017466845 -0.23394373944264477
-0.5093884797052213 0.13654914101657376
-0.6460550902947243 0.5440913095217141
-0.7417217177073765 0.6181898856135578
-0.7690550398252771 0.3958941573380267
-0.7007217345305256 0.21064771710841745
-0.6460550902947243 0.0994998529706519
-0.6187217681768237 0.4699927334298704
-0.6733884124126249 0.8404856138890889
-0.6870550734715752 0.9145841899809326
-0.7280550566484262 0.35884486929210485
-0.6870550734715752 0.06245056492473005
-0.6870550734715752 -0.011648011167113649
-0.6733884124126249 0.4329434453839486
-0.6733884124126249 0.7663870377972453
-0.632388429235774 0.9145841899809326
-0.591388446058923 0.4699927334298704
-0.5367218018231219 0.321795581246183
-0.4683884965283703 0.24769700515433932
-0.5230551407641716 0.6552391736594797
-0.6050551071178734 0.8404856138890889
-0.7143883955894759 0.6922884617054015
-0.7280550566484262 0.24769700515433932
-0.7280550566484262 0.13654914101657376
-0.7007217345305256 0.2847462932002612
-0.6870550734715752 0.6552391736594797
-0.6187217681768237 0.8404856138890889
-0.6050551071178734 0.7663870377972453
-0.5640551239410225 0.5440913095217141
-0.5093884797052213 0.7663870377972453
-0.5367218018231219 1.0257320541186983
-0.5640551239410225 1.2109784943483075
-0.591388446058923 1.06278134216462
-0.591388446058923 0.6922884617054015
-0.5777217849999728 0.4699927334298704
-0.5230551407641716 0.6181898856135578
-0.5777217849999728 1.06278134216462
-0.591388446058923 1.4703235106697603
-0.591388446058923 1.544422086761604
-0.5503884628820722 1.285077070440151
-0.4820551575873206 1.06278134216462
-0.45472183546941997 1.1368799182564637
-0.4683884965283703 1.5073727987156822
-0.5640551239410225 1.6926192389452914
-0.591388446058923 1.544422086761604
-0.632388429235774 1.1368799182564637
-0.5777217849999728 0.7663870377972453
-0.5367218018231219 0.6552391736594797
-0.4820551575873206 1.06278134216462
-0.4957218186462709 1.581471374807526
-0.4957218186462709 1.7296685269912133
-0.4273885133515194 1.4332742226238386
-0.40005519123361877 1.2109784943483075
-0.3043885638209666 1.3962249345779167
-0.29072190276201626 1.840816391128979
-0.3043885638209666 2.137210695496354
-0.3317218859388672 2.06311211940451
-0.37272186911571814 1.6555699508993695
-0.37272186911571814 1.0998306302105418
-0.4273885133515194 0.9516334780268545
-0.3590552080567678 1.06278134216462
-0.4273885133515194 1.4703235106697603
-0.37272186911571814 1.544422086761604
-0.3590552080567678 1.5073727987156822
-0.3453885469978175 1.1368799182564637
-0.27705524170306595 1.0257320541186983
-0.22238859746726472 1.2480277823942292
-0.29072190276201626 1.4332742226238386
-0.3180552248799169 1.3962249345779167
-0.38638853017466845 0.9516334780268545
-0.3180552248799169 0.6552391736594797
-0.3180552248799169 0.5440913095217141
-0.3043885638209666 0.7663870377972453
-0.3317218859388672 1.1739292063023856
-0.3317218859388672 1.2109784943483075
-0.3590552080567678 0.9516334780268545
-0.3180552248799169 0.5811405975676359
-0.29072190276201626 0.5070420214757922
-0.29072190276201626 0.7663870377972453
-0.3590552080567678 0.9886827660727763
-0.3590552080567678 1.0257320541186983
-0.3317218859388672 0.5440913095217141
-0.3180552248799169 0.17359842906249562
-0.27705524170306595 0.0254012768788082
-0.24972191958516532 0.13654914101657376
-0.3043885638209666 0.4329434453839486
-0.3180552248799169 0.6922884617054015
-0.3453885469978175 0.6552391736594797
-0.29072190276201626 0.24769700515433932
-0.3453885469978175 0.21064771710841745
-0.3453885469978175 0.321795581246183
-0.3453885469978175 0.6552391736594797
-0.37272186911571814 0.8404856138890889
-0.3317218859388672 0.5811405975676359
-0.3317218859388672 0.13654914101657376
-0.3590552080567678 -0.011648011167113649
-0.3590552080567678 0.0994998529706519
-0.38638853017466845 0.5440913095217141
-0.40005519123361877 0.4699927334298704
-0.40005519123361877 0.321795581246183
-0.3590552080567678 -0.1227958753048792
-0.3590552080567678 0.0254012768788082
-0.37272186911571814 0.21064771710841745
-0.37272186911571814 0.4329434453839486
-0.4410551744104697 0.4699927334298704
-0.45472183546941997 0.0994998529706519
-0.4137218522925691 -0.15984516335080104
-0.40005519123361877 -0.38214089162633214
-0.45472183546941997 -0.0486972992130355
-0.45472183546941997 0.2847462932002612
-0.4683884965283703 0.5070420214757922
-0.4683884965283703 0.4329434453839486
-0.4137218522925691 0.0254012768788082
-0.3453885469978175 -0.0486972992130355
-0.3317218859388672 -0.011648011167113649
-0.38638853017466845 0.5070420214757922
-0.4273885133515194 0.6922884617054015
-0.5093884797052213 0.6922884617054015
-0.4820551575873206 -0.011648011167113649
-0.5230551407641716 -0.419190179672254
-0.4820551575873206 -0.419190179672254
-0.4957218186462709 -0.15984516335080104
-0.4683884965283703 0.4699927334298704
-0.5230551407641716 0.5811405975676359
-0.4820551575873206 0.321795581246183
-0.4410551744104697 0.0994998529706519
-0.4137218522925691 0.0254012768788082
-0.4957218186462709 0.17359842906249562
-0.5777217849999728 0.35884486929210485
-0.6187217681768237 0.3958941573380267
-0.6187217681768237 0.13654914101657376
-0.5640551239410225 -0.23394373944264477
-0.5503884628820722 -0.419190179672254
-0.5503884628820722 -0.1227958753048792
-0.5503884628820722 0.3958941573380267
-0.5640551239410225 0.7293377497513234
-0.5640551239410225 0.5070420214757922
-0.4820551575873206 0.2847462932002612
-0.4273885133515194 -0.1227958753048792
-0.4137218522925691 -0.08574658725895735
-0.4410551744104697 0.321795581246183
-0.4820551575873206 0.5070420214757922
-0.4957218186462709 0.4329434453839486
-0.4957218186462709 -0.011648011167113649
-0.4683884965283703 -0.27099302748856663
-0.4683884965283703 -0.23394373944264477
-0.4273885133515194 0.21064771710841745
-0.40005519123361877 0.5811405975676359
-0.4273885133515194 0.6181898856135578
-0.3453885469978175 0.21064771710841745
-0.3453885469978175 -0.08574658725895735
-0.27705524170306595 -0.27099302748856663
-0.27705524170306595 0.0254012768788082
-0.3317218859388672 0.24769700515433932
-0.3317218859388672 0.4699927334298704
-0.40005519123361877 0.2847462932002612
-0.37272186911571814 -0.23394373944264477
-0.29072190276201626 -0.45623946771817586
-0.24972191958516532 -0.08574658725895735
-0.22238859746726472 0.3958941573380267
-0.1950552753493641 0.6181898856135578
-0.14038863111356284 0.4699927334298704
-0.01738868158301005 0.17359842906249562
0.05094462371174151 -0.1968944513967229
0.10561126794754275 0.06245056492473005
0.13294459006544337 0.4329434453839486
0.10561126794754275 0.5811405975676359
0.07827794582964212 0.4699927334298704
0.06461128477069182 0.17359842906249562
0.1466112511243937 0.06245056492473005
0.09194460688859243 0.5070420214757922
0.160277912183344 0.9886827660727763
0.1466112511243937 1.0998306302105418
0.160277912183344 0.803436325843167
0.1876112343012446 0.6552391736594797
0.1876112343012446 0.6181898856135578
0.160277912183344 0.9145841899809326
0.10561126794754275 0.9886827660727763
-0.01738868158301005 0.7663870377972453
-0.03105534264196036 0.4329434453839486
0.023611301593840884 0.13654914101657376
0.037277962652791194 0.06245056492473005
-0.0037220205240597382 0.4699927334298704
-0.04472200370091067 0.8404856138890889
-0.12672197005461253 0.9145841899809326
-0.12672197005461253 0.5440913095217141
-0.14038863111356284 -0.011648011167113649
-0.18138861429041378 -0.23394373944264477
-0.16772195323146347 -0.23394373944264477
-0.24972191958516532 0.17359842906249562
-0.3590552080567678 0.4329434453839486
-0.4273885133515194 0.321795581246183
-0.38638853017466845 -0.1227958753048792
-0.37272186911571814 -0.3450916035804103
-0.40005519123361877 -0.1227958753048792
-0.4137218522925691 0.21064771710841745
-0.4273885133515194 0.5070420214757922
-0.4137218522925691 0.35884486929210485
-0.4273885133515194 0.0254012768788082
-0.38638853017466845 -0.27099302748856663
-0.3590552080567678 -0.15984516335080104
-0.38638853017466845 0.0994998529706519
-0.4410551744104697 0.21064771710841745
-0.45472183546941997 0.0994998529706519
-0.4683884965283703 -0.30804231553448846
-0.4410551744104697 -0.6044366199018633
-0.4273885133515194 -0.45623946771817586
-0.4273885133515194 0.0994998529706519
-0.5230551407641716 0.5070420214757922
-0.6187217681768237 0.5070420214757922
-0.7143883955894759 0.0994998529706519
-0.8100550230021281 -0.27099302748856663
-0.8783883282968796 -0.5673873318559414
-0.9467216335916312 -0.27099302748856663
-0.8783883282968796 0.21064771710841745
-0.6597217513536746 0.7293377497513234
-0.3180552248799169 0.9145841899809326
0.13294459006544337 0.9886827660727763
0.7069443545413564 1.4332742226238386
1.2809441190172695 1.9149149672208226
1.7592772560805303 2.6559007281392595
2.19661040996694 3.1745907607821655
2.579276919617549 3.1375414727362436
2.9482767682092073 2.6559007281392595
3.358276599977717 1.9890135433126663
3.672609804333574 1.6185206628534479
3.8776097202178286 1.3591756465319949
3.8776097202178286 0.803436325843167
3.891276381276779 0.06245056492473005
3.809276414923077 -1.1231266525447692
3.809276414923077 -2.382802446106112
3.7819430928051765 -2.864443190703096
3.6589431432746236 -2.3087038700142686
3.3856099220956173 -1.197225228636613
2.920943446091307 -0.0486972992130355
2.223943732084841 0.6552391736594797
1.390277407488872 0.6552391736594797
0.6112777271287042 0.2847462932002612
-0.0037220205240597382 -0.08574658725895735
-0.38638853017466845 -0.15984516335080104
-0.5367218018231219 -0.1968944513967229
-0.37272186911571814 -0.38214089162633214
-0.18138861429041378 -0.419190179672254
0.06461128477069182 -0.27099302748856663
0.10561126794754275 0.24769700515433932
0.037277962652791194 0.803436325843167
-0.09938864793671191 0.8404856138890889
-0.1950552753493641 0.3958941573380267
-0.3453885469978175 0.0994998529706519
-0.4273885133515194 0.06245056492473005
-0.4957218186462709 0.4329434453839486
-0.5640551239410225 0.6181898856135578
-0.6050551071178734 0.3958941573380267
-0.5503884628820722 0.2847462932002612
-0.4957218186462709 0.0254012768788082
-0.4273885133515194 0.21064771710841745
-0.40005519123361877 0.7293377497513234
-0.4273885133515194 1.1368799182564637
-0.40005519123361877 1.1739292063023856
-0.37272186911571814 0.7293377497513234
-0.3453885469978175 0.24769700515433932
-0.38638853017466845 0.24769700515433932
-0.3590552080567678 0.4699927334298704
-0.40005519123361877 0.803436325843167
-0.4273885133515194 1.06278134216462
-0.45472183546941997 0.7663870377972453
-0.4137218522925691 0.5070420214757922
-0.37272186911571814 0.4699927334298704
-0.3317218859388672 0.8404856138890889
-0.3453885469978175 1.2480277823942292
-0.37272186911571814 1.3591756465319949
-0.3590552080567678 1.0257320541186983
-0.38638853017466845 0.6922884617054015
-0.3590552080567678 0.5070420214757922
-0.3590552080567678 0.8775349019350108
-0.4410551744104697 1.1739292063023856
-0.4273885133515194 1.2480277823942292
-0.4137218522925691 1.0257320541186983
-0.3590552080567678 0.8775349019350108
-0.27705524170306595 0.8775349019350108
-0.24972191958516532 1.1739292063023856
-0.24972191958516532 1.7296685269912133
-0.22238859746726472 1.9149149672208226
-0.26338858064411563 1.5073727987156822
-0.1950552753493641 1.0257320541186983
-0.22238859746726472 0.9516334780268545
-0.22238859746726472 1.1739292063023856
-0.26338858064411563 1.581471374807526
-0.3043885638209666 1.803767103083057
-0.3043885638209666 1.6926192389452914
-0.23605525852621503 1.4332742226238386
-0.22238859746726472 1.3962249345779167
-0.18138861429041378 1.7296685269912133
-0.18138861429041378 2.100161407450432
-0.2087219364083144 2.137210695496354
-0.1950552753493641 2.0260628313585882
-0.16772195323146347 1.6555699508993695
-0.11305530899566223 1.4703235106697603
-0.11305530899566223 1.581471374807526
-0.11305530899566223 1.9890135433126663
-0.16772195323146347 2.2113092715881972
-0.1950552753493641 2.2113092715881972
-0.16772195323146347 1.8778656791749007
-0.14038863111356284 1.6185206628534479
-0.07205532581881129 1.581471374807526
-0.05838866475986098 2.1742599835422753
-0.04472200370091067 2.4336049998637286
-0.09938864793671191 2.248358559634119
-0.07205532581881129 1.8778656791749007
-0.0857219868777616 1.4332742226238386
-0.03105534264196036 1.3591756465319949
-0.04472200370091067 1.6555699508993695
-0.09938864793671191 1.803767103083057
-0.0857219868777616 1.840816391128979
-0.0857219868777616 1.5073727987156822
-0.03105534264196036 1.285077070440151
0.05094462371174151 1.4332742226238386
0.023611301593840884 1.6555699508993695
0.023611301593840884 1.7296685269912133
-0.01738868158301005 1.4703235106697603
0.023611301593840884 1.0257320541186983
0.05094462371174151 0.8404856138890889
0.023611301593840884 0.9145841899809326
-0.01738868158301005 1.285077070440151
-0.11305530899566223 1.2109784943483075
-0.12672197005461253 0.8404856138890889
-0.05838866475986098 0.6181898856135578
-0.04472200370091067 0.6922884617054015
-0.03105534264196036 0.9145841899809326
-0.05838866475986098 1.285077070440151
-0.05838866475986098 1.2109784943483075
-0.0857219868777616 0.803436325843167
-0.07205532581881129 0.2847462932002612
-0.03105534264196036 0.13654914101657376
-0.05838866475986098 0.35884486929210485
-0.11305530899566223 0.7663870377972453
-0.15405529217251315 0.7663870377972453
-0.15405529217251315 0.3958941573380267
-0.12672197005461253 0.17359842906249562
-0.04472200370091067 0.2847462932002612
-0.07205532581881129 0.5070420214757922
-0.11305530899566223 0.9516334780268545
-0.11305530899566223 0.803436325843167
-0.0857219868777616 0.4699927334298704
-0.09938864793671191 0.17359842906249562
-0.0857219868777616 0.321795581246183
-0.14038863111356284 0.4329434453839486
-0.18138861429041378 0.5811405975676359
-0.22238859746726472 0.6552391736594797
-0.1950552753493641 0.21064771710841745
-0.16772195323146347 0.0254012768788082
-0.12672197005461253 0.06245056492473005
-0.12672197005461253 0.5070420214757922
-0.12672197005461253 0.8775349019350108
-0.12672197005461253 0.8775349019350108
-0.12672197005461253 0.35884486929210485
-0.15405529217251315 0.06245056492473005
-0.18138861429041378 -0.1227958753048792
-0.22238859746726472 0.21064771710841745
-0.3180552248799169 0.5070420214757922
-0.26338858064411563 0.4329434453839486
-0.3043885638209666 0.0994998529706519
-0.27705524170306595 -0.1968944513967229
-0.27705524170306595 0.06245056492473005
-0.27705524170306595 0.24769700515433932
-0.3180552248799169 0.7293377497513234
-0.3180552248799169 0.6552391736594797
-0.3453885469978175 0.2847462932002612
-0.3043885638209666 -0.1227958753048792
-0.26338858064411563 -0.3450916035804103
-0.27705524170306595 -0.011648011167113649
-0.38638853017466845 0.3958941573380267
-0.4137218522925691 0.35884486929210485
-0.4410551744104697 0.17359842906249562
-0.4137218522925691 -0.27099302748856663
-0.3453885469978175 -0.3450916035804103
-0.3043885638209666 -0.08574658725895735
-0.3453885469978175 0.4329434453839486
-0.3317218859388672 0.6552391736594797
-0.3590552080567678 0.4699927334298704
-0.3590552080567678 0.0254012768788082
-0.3317218859388672 -0.27099302748856663
-0.3317218859388672 -0.27099302748856663
-0.40005519123361877 0.0994998529706519
-0.4137218522925691 0.2847462932002612
-0.4410551744104697 0.06245056492473005
-0.4273885133515194 -0.1227958753048792
-0.3590552080567678 -0.011648011167113649
-0.38638853017466845 0.21064771710841745
-0.37272186911571814 0.5070420214757922
-0.3317218859388672 0.3958941573380267
-0.3043885638209666 -0.0486972992130355
-0.3043885638209666 -0.23394373944264477
-0.40005519123361877 -0.08574658725895735
-0.4273885133515194 0.06245056492473005
-0.38638853017466845 0.06245056492473005
-0.40005519123361877 -0.1968944513967229
-0.38638853017466845 -0.38214089162633214
-0.3317218859388672 -0.15984516335080104
-0.3317218859388672 0.13654914101657376
-0.3453885469978175 0.5070420214757922
-0.3180552248799169 0.4329434453839486
-0.27705524170306595 -0.0486972992130355
-0.27705524170306595 -0.30804231553448846
-0.23605525852621503 -0.1968944513967229
-0.26338858064411563 0.06245056492473005
-0.29072190276201626 0.24769700515433932
-0.3590552080567678 0.24769700515433932
-0.3043885638209666 -0.30804231553448846
-0.23605525852621503 -0.6414859079477852
-0.2087219364083144 -0.5303380438100196
-0.18138861429041378 -0.08574658725895735
-0.16772195323146347 0.3958941573380267
-0.15405529217251315 0.5070420214757922
-0.09938864793671191 0.21064771710841745
-0.05838866475986098 -0.1968944513967229
-0.0037220205240597382 -0.27099302748856663
0.023611301593840884 -0.08574658725895735
0.05094462371174151 0.21064771710841745
0.037277962652791194 0.321795581246183
0.07827794582964212 -0.08574658725895735
0.1739445732422943 -0.38214089162633214
0.2696112006549465 -0.15984516335080104
0.2832778617138968 0.06245056492473005
0.2969445227728471 0.803436325843167
0.21494455641914523 0.8775349019350108
0.24227787853704585 0.803436325843167
0.2832778617138968 0.35884486929210485
0.2832778617138968 0.0994998529706519
0.3106111838317974 0.321795581246183
0.2832778617138968 0.5440913095217141
0.22861121747809554 0.7663870377972453
0.160277912183344 0.4329434453839486
0.11927792900649306 0.17359842906249562
0.13294459006544337 -0.1968944513967229
0.1466112511243937 0.13654914101657376
0.1466112511243937 0.5440913095217141
0.11927792900649306 0.7293377497513234
0.09194460688859243 0.5811405975676359
0.037277962652791194 0.13654914101657376
0.023611301593840884 -0.30804231553448846
-0.11305530899566223 -0.3450916035804103
-0.16772195323146347 -0.0486972992130355
-0.3180552248799169 -0.011648011167113649
-0.3180552248799169 -0.15984516335080104
-0.3590552080567678 -0.7526337720855507
-0.3590552080567678 -0.900830924269238
-0.3180552248799169 -0.4932887557640977
-0.3453885469978175 -0.1227958753048792
-0.3590552080567678 0.24769700515433932
-0.40005519123361877 0.2847462932002612
-0.38638853017466845 -0.23394373944264477
-0.4137218522925691 -0.6414859079477852
-0.3590552080567678 -0.6414859079477852
-0.40005519123361877 -0.45623946771817586
-0.5093884797052213 -0.15984516335080104
-0.5230551407641716 -0.15984516335080104
-0.5093884797052213 -0.6414859079477852
-0.4410551744104697 -0.7896830601314725
-0.4137218522925691 -0.6785351959937069
-0.40005519123361877 -0.27099302748856663
-0.4683884965283703 -0.011648011167113649
-0.4683884965283703 -0.1227958753048792
-0.5230551407641716 -0.4932887557640977
-0.591388446058923 -0.7896830601314725
-0.7143883955894759 -0.7155844840396288
-0.9057216504147803 -0.5303380438100196
-1.028721599945333 -0.4932887557640977
-1.0560549220632336 -0.7155844840396288
-0.8783883282968796 -0.7155844840396288
-0.6187217681768237 -0.1968944513967229
-0.1950552753493641 0.6922884617054015
0.3106111838317974 1.285077070440151
0.8572776261898098 1.581471374807526
1.485944034901524 1.4703235106697603
2.005277155141636 1.1739292063023856
2.5109436143227972 1.1739292063023856
2.879943462914456 1.5073727987156822
3.2489433115061144 1.581471374807526
3.5222765326851206 1.1739292063023856
3.740943109628325 0.17359842906249562
3.8776097202178286 -0.93788021231516
3.986943008689431 -1.7900138373713625
3.9186097033946794 -2.419851734152034
3.7956097538641265 -2.5309995982897995
3.6179431600977727 -2.4939503102438776
3.4812765495082694 -2.3457531580601905
3.207943328329263 -1.641816685187675
2.674943547030201 -0.7526337720855507
1.8412772224342322 0.13654914101657376
0.9256109314845614 0.13654914101657376
0.11927792900649306 -0.30804231553448846
-0.37272186911571814 -1.2342745166825346
-0.5777217849999728 -1.7529645493254407
-0.6050551071178734 -1.641816685187675
-0.4273885133515194 -1.160175940590691
-0.26338858064411563 -0.6414859079477852
-0.2087219364083144 -0.38214089162633214
-0.09938864793671191 -0.6785351959937069
-0.18138861429041378 -0.900830924269238
-0.23605525852621503 -0.900830924269238
-0.4273885133515194 -0.6414859079477852
-0.6187217681768237 -0.27099302748856663
-0.6733884124126249 -0.3450916035804103
-0.7553883787663268 -0.7155844840396288
-0.7417217177073765 -1.0490280764529254
-0.6870550734715752 -1.0119787884070037
-0.6733884124126249 -0.5673873318559414
-0.6870550734715752 -0.011648011167113649
-0.6870550734715752 0.13654914101657376
-0.6460550902947243 -0.1968944513967229
-0.6187217681768237 -0.4932887557640977
-0.591388446058923 -0.7155844840396288
-0.5777217849999728 -0.419190179672254
-0.6870550734715752 -0.15984516335080104
-0.7007217345305256 -0.08574658725895735
-0.6597217513536746 -0.3450916035804103
-0.6460550902947243 -0.6414859079477852
-0.6187217681768237 -0.7526337720855507
-0.6187217681768237 -0.27099302748856663
-0.6460550902947243 0.13654914101657376
-0.6733884124126249 0.35884486929210485
-0.6460550902947243 0.13654914101657376
-0.6187217681768237 -0.27099302748856663
-0.5777217849999728 -0.6414859079477852
-0.591388446058923 -0.3450916035804103
-0.6050551071178734 -0.0486972992130355
-0.6870550734715752 0.21064771710841745
-0.6597217513536746 -0.1227958753048792
-0.6460550902947243 -0.38214089162633214
-0.6050551071178734 -0.419190179672254
-0.5777217849999728 -0.0486972992130355
-0.5503884628820722 0.35884486929210485
-0.5640551239410225 0.5440913095217141
-0.5367218018231219 0.3958941573380267
-0.5367218018231219 0.06245056492473005
-0.4683884965283703 0.0994998529706519
-0.4820551575873206 0.2847462932002612
-0.5503884628820722 0.6181898856135578
-0.5777217849999728 0.6181898856135578
-0.591388446058923 0.17359842906249562
-0.6187217681768237 0.0254012768788082
-0.5503884628820722 0.24769700515433932
-0.5367218018231219 0.7293377497513234
-0.4957218186462709 1.0998306302105418
-0.4683884965283703 1.0998306302105418
-0.4273885133515194 0.7293377497513234
-0.38638853017466845 0.5811405975676359
-0.4137218522925691 0.6181898856135578
-0.4273885133515194 0.8775349019350108
-0.4820551575873206 1.1739292063023856
-0.5093884797052213 1.06278134216462
-0.4683884965283703 0.7293377497513234
-0.4273885133515194 0.4329434453839486
-0.40005519123361877 0.4329434453839486
-0.37272186911571814 0.7293377497513234
-0.4137218522925691 1.2109784943483075
-0.40005519123361877 1.1739292063023856
-0.37272186911571814 0.9145841899809326
-0.3590552080567678 0.4329434453839486
-0.3317218859388672 0.321795581246183
-0.3180552248799169 0.5440913095217141
-0.40005519123361877 0.8775349019350108
-0.4137218522925691 0.8404856138890889
-0.4683884965283703 0.5070420214757922
-0.4273885133515194 -0.011648011167113649
-0.3590552080567678 0.0254012768788082
-0.3453885469978175 0.24769700515433932
-0.3453885469978175 0.6922884617054015
-0.3180552248799169 0.9145841899809326
-0.29072190276201626 0.6181898856135578
-0.27705524170306595 0.17359842906249562
-0.24972191958516532 -0.23394373944264477
-0.27705524170306595 -0.3450916035804103
-0.3043885638209666 0.0254012768788082
-0.3590552080567678 0.13654914101657376
-0.3590552080567678 0.06245056492473005
-0.37272186911571814 -0.4932887557640977
-0.3180552248799169 -0.7155844840396288
-0.29072190276201626 -0.45623946771817586
-0.3180552248799169 -0.1227958753048792
-0.3453885469978175 -0.011648011167113649
-0.3453885469978175 -0.30804231553448846
-0.3590552080567678 -0.7526337720855507
-0.3317218859388672 -1.0119787884070037
-0.3453885469978175 -0.9749295003610817
-0.4273885133515194 -0.5303380438100196
-0.4957218186462709 -0.4932887557640977
-0.4410551744104697 -0.7896830601314725
-0.45472183546941997 -1.160175940590691
-0.45472183546941997 -1.2342745166825346
-0.37272186911571814 -0.900830924269238
-0.4273885133515194 -0.4932887557640977
-0.45472183546941997 -0.30804231553448846
-0.40005519123361877 -0.5673873318559414
-0.4137218522925691 -1.0490280764529254
-0.38638853017466845 -1.197225228636613
-0.4273885133515194 -1.0490280764529254
-0.4820551575873206 -0.8267323481773944
-0.5093884797052213 -0.6785351959937069
-0.5367218018231219 -0.8267323481773944
-0.5230551407641716 -1.2342745166825346
-0.4820551575873206 -1.3824716688662222
-0.4820551575873206 -1.0490280764529254
-0.4683884965283703 -0.6785351959937069
-0.4957218186462709 -0.4932887557640977
-0.45472183546941997 -0.6785351959937069
-0.4137218522925691 -1.0860773644988473
-0.4410551744104697 -1.0119787884070037
-0.4957218186462709 -0.93788021231516
-0.5367218018231219 -0.7526337720855507
-0.5777217849999728 -0.93788021231516
-0.5503884628820722 -1.3083730927743784
-0.5640551239410225 -1.4565702449580658
-0.5503884628820722 -1.0490280764529254
-0.591388446058923 -0.7526337720855507
-0.591388446058923 -0.5673873318559414
-0.6050551071178734 -0.8267323481773944
-0.5093884797052213 -1.0490280764529254
-0.5367218018231219 -1.160175940590691
-0.6050551071178734 -0.93788021231516
-0.6597217513536746 -0.8267323481773944
-0.7280550566484262 -1.0860773644988473
-0.7690550398252771 -1.4936195330039876
-0.7143883955894759 -1.7900138373713625
-0.7417217177073765 -1.7900138373713625
-0.7417217177073765 -1.2342745166825346
-0.7690550398252771 -0.8637816362233163
-0.7827217008842274 -0.900830924269238
-0.7690550398252771 -1.1231266525447692
-0.7690550398252771 -1.3454223808203003
-0.7280550566484262 -1.2713238047284565
-0.7553883787663268 -0.9749295003610817
-0.7827217008842274 -0.900830924269238
-0.851055006178979 -1.0119787884070037
-0.8237216840610784 -1.419520956912144
-0.7827217008842274 -1.6047673971417533
-0.7827217008842274 -1.4565702449580658
-0.7553883787663268 -0.9749295003610817
-0.7827217008842274 -0.8267323481773944
-0.7143883955894759 -0.8267323481773944
-0.6733884124126249 -1.3454223808203003
-0.6050551071178734 -1.3454223808203003
-0.632388429235774 -1.160175940590691
-0.7007217345305256 -0.900830924269238
-0.6733884124126249 -0.900830924269238
-0.7007217345305256 -1.197225228636613
-0.7007217345305256 -1.5677181090958314
-0.6597217513536746 -1.641816685187675
-0.6733884124126249 -1.3454223808203003
-0.6733884124126249 -0.9749295003610817
-0.6870550734715752 -0.7526337720855507
-0.6050551071178734 -1.160175940590691
-0.5503884628820722 -1.3824716688662222
-0.4957218186462709 -1.4565702449580658
-0.5093884797052213 -1.0860773644988473
-0.5230551407641716 -0.8637816362233163
-0.5230551407641716 -1.0860773644988473
-0.5093884797052213 -1.3083730927743784
-0.5093884797052213 -1.6788659732335969
-0.5230551407641716 -1.641816685187675
-0.4820551575873206 -1.2713238047284565
-0.5093884797052213 -0.900830924269238
-0.4683884965283703 -0.7155844840396288
-0.37272186911571814 -1.0119787884070037
-0.3043885638209666 -1.2713238047284565
-0.16772195323146347 -1.3824716688662222
-0.12672197005461253 -1.0860773644988473
-0.12672197005461253 -0.6044366199018633
-0.11305530899566223 -0.6414859079477852
-0.11305530899566223 -0.900830924269238
-0.05838866475986098 -1.2713238047284565
-0.04472200370091067 -1.160175940590691
-0.05838866475986098 -0.900830924269238
-0.0857219868777616 -0.419190179672254
-0.0857219868777616 -0.23394373944264477
-0.04472200370091067 -0.4932887557640977
0.009944640534890572 -0.6785351959937069
-0.01738868158301005 -0.7155844840396288
-0.05838866475986098 -0.5303380438100196
-0.0857219868777616 -0.38214089162633214
-0.22238859746726472 -0.419190179672254
-0.2087219364083144 -0.8267323481773944
-0.22238859746726472 -1.0860773644988473
-0.22238859746726472 -0.9749295003610817
-0.3317218859388672 -0.5673873318559414
-0.38638853017466845 -0.5303380438100196
-0.4137218522925691 -0.7896830601314725
-0.4273885133515194 -1.2342745166825346
-0.4410551744104697 -1.4565702449580658
-0.45472183546941997 -1.2713238047284565
-0.5503884628820722 -1.0860773644988473
-0.6187217681768237 -0.8637816362233163
-0.6597217513536746 -1.197225228636613
-0.6870550734715752 -1.5677181090958314
-0.6733884124126249 -1.93821098955505
-0.6733884124126249 -1.7529645493254407
-0.7553883787663268 -1.197225228636613
-0.8100550230021281 -0.6785351959937069
-0.8237216840610784 -0.7526337720855507
-0.7690550398252771 -1.0860773644988473
-0.7553883787663268 -1.5677181090958314
-0.7007217345305256 -1.641816685187675
-0.6870550734715752 -1.2713238047284565
-0.7417217177073765 -1.0119787884070037
-0.7690550398252771 -0.900830924269238
-0.8237216840610784 -1.160175940590691
-0.7553883787663268 -1.6788659732335969
-0.7553883787663268 -1.7529645493254407
-0.7963883619431777 -1.5677181090958314
-0.8647216672379293 -1.197225228636613
-0.9057216504147803 -1.0860773644988473
-0.9740549557095318 -1.419520956912144
-0.9740549557095318 -1.7159152612795188
-1.1107215662990348 -1.641816685187675
-1.2200548547706374 -1.3454223808203003
-1.2610548379474884 -1.0119787884070037
-1.165388210534836 -0.8267323481773944
-0.9740549557095318 -0.7155844840396288
-0.6597217513536746 -0.8637816362233163
-0.16772195323146347 -0.7896830601314725
0.3652778280675987 -0.08574658725895735
0.8709442872487602 0.6552391736594797
1.4039440685478222 1.1368799182564637
1.8686105445521328 1.06278134216462
2.3332770205564435 0.8775349019350108
2.852610140796555 0.5440913095217141
3.2489433115061144 0.4699927334298704
3.549609854803021 0.321795581246183
3.740943109628325 -0.30804231553448846
3.8229430759820273 -1.3824716688662222
3.8229430759820273 -2.827393902657174
3.768276431746226 -3.7906753918511424
3.672609804333574 -3.7165768157592987
3.453943227390369 -2.9755910548408617
3.139610023034512 -2.0123095656468935
2.7706101744428535 -1.3454223808203003
2.100943782554288 -0.9749295003610817
1.2672774579583193 -0.8637816362233163
0.4336111333623502 -0.900830924269238
-0.24972191958516532 -1.0119787884070037
-0.6460550902947243 -1.3454223808203003
-0.7963883619431777 -1.7900138373713625
-0.7417217177073765 -2.419851734152034
-0.591388446058923 -2.4939503102438776
-0.5093884797052213 -2.0493588536928153
-0.45472183546941997 -1.4565702449580658
-0.4820551575873206 -0.93788021231516
-0.5640551239410225 -1.0490280764529254
-0.6733884124126249 -1.3083730927743784
-0.7417217177073765 -1.4936195330039876
-0.8237216840610784 -1.3083730927743784
-0.9330549725326809 -0.900830924269238
-0.9603882946505815 -1.0490280764529254
-0.9740549557095318 -1.3083730927743784
-1.0013882778274323 -1.5677181090958314
-0.9740549557095318 -1.419520956912144
-1.0013882778274323 -1.0860773644988473
-1.0013882778274323 -0.8267323481773944
-0.9330549725326809 -0.93788021231516
-0.8783883282968796 -1.160175940590691
-0.8783883282968796 -1.0860773644988473
-0.8237216840610784 -0.7526337720855507
-0.8647216672379293 -0.419190179672254
-0.9193883114737306 -0.6044366199018633
-0.8647216672379293 -0.7896830601314725
-0.8647216672379293 -1.3083730927743784
-0.8373883451200287 -1.2713238047284565
-0.9193883114737306 -0.8267323481773944
-0.9330549725326809 -0.4932887557640977
-0.9740549557095318 -0.419190179672254
-0.9193883114737306 -0.7155844840396288
-0.8237216840610784 -0.9749295003610817
-0.8100550230021281 -0.900830924269238
-0.7553883787663268 -0.6785351959937069
-0.7827217008842274 -0.23394373944264477
-0.8373883451200287 -0.15984516335080104
-0.9057216504147803 -0.5303380438100196
-0.8237216840610784 -0.9749295003610817
-0.8783883282968796 -1.1231266525447692
-0.851055006178979 -0.93788021231516
-0.9057216504147803 -0.4932887557640977
-0.9193883114737306 -0.23394373944264477
-0.851055006178979 -0.38214089162633214
-0.8373883451200287 -0.6785351959937069
-0.7690550398252771 -0.6414859079477852
-0.7280550566484262 -0.3450916035804103
-0.7553883787663268 0.21064771710841745
-0.7690550398252771 0.4329434453839486
-0.7553883787663268 0.21064771710841745
-0.7417217177073765 -0.1968944513967229
-0.7417217177073765 -0.419190179672254
-0.7417217177073765 -0.23394373944264477
-0.7417217177073765 0.21064771710841745
-0.7827217008842274 0.4329434453839486
-0.7827217008842274 0.5440913095217141
-0.7007217345305256 0.24769700515433932
-0.6460550902947243 0.0254012768788082
-0.632388429235774 0.13654914101657376
-0.6597217513536746 0.4699927334298704
-0.6733884124126249 0.803436325843167
-0.6870550734715752 0.6922884617054015
-0.6460550902947243 0.13654914101657376
-0.5777217849999728 -0.15984516335080104
-0.591388446058923 -0.011648011167113649
-0.632388429235774 0.4699927334298704
-0.632388429235774 0.7293377497513234
-0.6187217681768237 0.5440913095217141
-0.5230551407641716 0.24769700515433932
-0.5230551407641716 -0.011648011167113649
-0.4957218186462709 0.0994998529706519
-0.5367218018231219 0.5440913095217141
-0.6050551071178734 0.6922884617054015
-0.6733884124126249 0.5070420214757922
-0.6187217681768237 0.0254012768788082
-0.5640551239410225 -0.419190179672254
-0.5367218018231219 -0.419190179672254
-0.5503884628820722 -0.08574658725895735
-0.6187217681768237 0.21064771710841745
-0.6050551071178734 0.13654914101657376
-0.5367218018231219 -0.23394373944264477
-0.5093884797052213 -0.4932887557640977
-0.4273885133515194 -0.419190179672254
-0.4683884965283703 -0.0486972992130355
-0.5367218018231219 -0.011648011167113649
-0.5777217849999728 -0.30804231553448846
-0.5640551239410225 -0.8267323481773944
-0.5230551407641716 -1.1231266525447692
-0.5640551239410225 -1.0119787884070037
-0.5777217849999728 -0.7896830601314725
-0.632388429235774 -0.6414859079477852
-0.6187217681768237 -0.8267323481773944
-0.591388446058923 -1.1231266525447692
-0.5640551239410225 -1.197225228636613
-0.5367218018231219 -0.9749295003610817
-0.5503884628820722 -0.6785351959937069
-0.6460550902947243 -0.7526337720855507
-0.6733884124126249 -1.1231266525447692
-0.6187217681768237 -1.5306688210499095
-0.632388429235774 -1.6047673971417533
-0.6870550734715752 -1.3454223808203003
-0.6870550734715752 -1.0860773644988473
-0.7143883955894759 -0.900830924269238
-0.7280550566484262 -1.197225228636613
-0.6597217513536746 -1.4565702449580658
-0.5777217849999728 -1.641816685187675
-0.6050551071178734 -1.3824716688662222
-0.6050551071178734 -1.0490280764529254
-0.6597217513536746 -0.7526337720855507
-0.7007217345305256 -0.900830924269238
-0.7143883955894759 -1.4565702449580658
-0.6733884124126249 -1.8270631254172844
-0.7007217345305256 -1.7529645493254407
-0.7143883955894759 -1.419520956912144
-0.7553883787663268 -1.0490280764529254
-0.7417217177073765 -1.0860773644988473
-0.7143883955894759 -1.3824716688662222
-0.6870550734715752 -1.4936195330039876
-0.6187217681768237 -1.4936195330039876
-0.6870550734715752 -1.0860773644988473
-0.7143883955894759 -0.93788021231516
-0.7690550398252771 -1.0490280764529254
-0.8237216840610784 -1.5306688210499095
-0.7417217177073765 -1.901161701509128
-0.7690550398252771 -1.93821098955505
-0.8100550230021281 -1.4936195330039876
-0.8783883282968796 -1.0490280764529254
-0.851055006178979 -1.0119787884070037
-0.8373883451200287 -1.419520956912144
-0.7963883619431777 -1.7900138373713625
-0.7827217008842274 -1.641816685187675
-0.8100550230021281 -1.3454223808203003
-0.8100550230021281 -0.93788021231516
-0.8647216672379293 -0.93788021231516
-0.8920549893558299 -1.3824716688662222
-0.8920549893558299 -1.7159152612795188
-0.8647216672379293 -1.93821098955505
-0.8783883282968796 -1.5306688210499095
-0.9057216504147803 -1.160175940590691
-0.9330549725326809 -1.0490280764529254
-0.9193883114737306 -1.0860773644988473
