4.7350613120233795 -4.221222259339541
4.639346231597966 -4.146544355911871
4.390487022491891 -3.922510645628859
3.9310546364499075 -3.6237990319181774
3.3376211378123446 -3.175731611352154
2.552757478323955 -2.6156473356446255
1.7104647705803173 -2.2049188667924375
1.0213161915173412 -1.9062072530817558
0.6001698376455225 -1.7568514462264149
0.44702570896486105 -1.644834591084909
0.3130245963692823 -1.5328177359434032
0.1215944355184556 -1.2341061222327212
0.04502237117812491 -1.1220892670912155
-0.050692709247288456 -1.0474113636635451
-0.06983572533237113 -1.0100724119497098
-0.0889787414174538 -1.0100724119497098
-0.14640778967270182 -0.9727334602358746
-0.24212287009811517 -0.8233776533805336
-0.20383683792794982 -0.6740218465251926
-0.18469382184286717 -0.7113607982390278
-0.2229798540130325 -0.8233776533805336
-0.3186949344384459 -0.8233776533805336
-0.41441001486385926 -0.7860387016666983
-0.41441001486385926 -0.6366828948113573
-0.3952669987787766 -0.5620049913836868
-0.3761239826936939 -0.44998813624218104
-0.45269604703402455 -0.5620049913836868
-0.5101250952892726 -0.599343943097522
-0.605840175714686 -0.599343943097522
-0.6249831917997686 -0.5246660396698516
-0.6441262078848513 -0.44998813624218104
-0.5866971596296033 -0.6740218465251926
-0.6441262078848513 -0.8233776533805336
-0.7015552561400993 -0.9727334602358746
-0.720698272225182 -1.0100724119497098
-0.6824122400550167 -0.9353945085220393
-0.6249831917997686 -0.898055556808204
-0.6249831917997686 -0.898055556808204
-0.5675541435445206 -0.9353945085220393
-0.605840175714686 -1.0100724119497098
-0.6441262078848513 -1.0474113636635451
-0.7015552561400993 -0.9727334602358746
-0.605840175714686 -0.8607166050943688
-0.548411127459438 -0.8233776533805336
-0.548411127459438 -0.8607166050943688
-0.5292681113743553 -1.0100724119497098
-0.605840175714686 -1.0474113636635451
-0.605840175714686 -1.1220892670912155
-0.5675541435445206 -1.0100724119497098
-0.5292681113743553 -0.8607166050943688
-0.548411127459438 -0.8607166050943688
-0.548411127459438 -0.898055556808204
-0.5675541435445206 -0.8607166050943688
-0.5675541435445206 -0.8233776533805336
-0.5292681113743553 -0.7113607982390278
-0.45269604703402455 -0.6740218465251926
-0.4718390631191072 -0.748699749952863
-0.4718390631191072 -0.8233776533805336
-0.5101250952892726 -0.9353945085220393
-0.4909820792041899 -0.8233776533805336
-0.4335530309489419 -0.6366828948113573
-0.3569809666086112 -0.6740218465251926
-0.45269604703402455 -0.7113607982390278
-0.4335530309489419 -0.7860387016666983
-0.3952669987787766 -0.8233776533805336
-0.3952669987787766 -0.6366828948113573
-0.3761239826936939 -0.5620049913836868
-0.2804089022682805 -0.6366828948113573
-0.3186949344384459 -0.599343943097522
-0.3569809666086112 -0.6740218465251926
-0.41441001486385926 -0.599343943097522
-0.4335530309489419 -0.5620049913836868
-0.41441001486385926 -0.44998813624218104
-0.3186949344384459 -0.3379712811006753
-0.3569809666086112 -0.3006323293868401
-0.3952669987787766 -0.4873270879560163
-0.4335530309489419 -0.5620049913836868
-0.4335530309489419 -0.6740218465251926
-0.3186949344384459 -0.6366828948113573
-0.24212287009811517 -0.7113607982390278
-0.1655508057577845 -0.898055556808204
-0.2229798540130325 -1.0100724119497098
-0.2804089022682805 -1.0474113636635451
-0.2804089022682805 -0.9353945085220393
-0.2229798540130325 -0.8607166050943688
-0.10812175750253647 -0.8233776533805336
-0.12726477358761915 -0.8607166050943688
-0.1655508057577845 -0.8607166050943688
-0.14640778967270182 -0.8233776533805336
-0.10812175750253647 -0.6740218465251926
-0.050692709247288456 -0.5620049913836868
0.06416538726320759 -0.5620049913836868
0.04502237117812491 -0.6366828948113573
0.04502237117812491 -0.7113607982390278
-0.012406677077123108 -0.748699749952863
0.04502237117812491 -0.748699749952863
0.06416538726320759 -0.6366828948113573
0.06416538726320759 -0.6366828948113573
0.1215944355184556 -0.7113607982390278
0.10245141943337292 -0.7860387016666983
0.08330840334829026 -0.7860387016666983
0.06416538726320759 -0.748699749952863
0.1215944355184556 -0.6366828948113573
0.14073745160353826 -0.5246660396698516
0.14073745160353826 -0.5620049913836868
0.15988046768862094 -0.599343943097522
0.10245141943337292 -0.599343943097522
0.1215944355184556 -0.4873270879560163
0.23645253202895164 -0.44998813624218104
0.27473856419911696 -0.3379712811006753
0.21730951594386896 -0.37531023281451054
0.15988046768862094 -0.44998813624218104
0.1981664998587863 -0.4873270879560163
0.1790234837737036 -0.37531023281451054
0.2555955481140343 -0.3006323293868401
0.3130245963692823 -0.2632933776730048
0.29388158028419964 -0.3006323293868401
0.2555955481140343 -0.4126491845283458
0.1790234837737036 -0.44998813624218104
0.15988046768862094 -0.4126491845283458
0.23645253202895164 -0.2632933776730048
0.2555955481140343 -0.22595442595916956
0.2555955481140343 -0.22595442595916956
0.23645253202895164 -0.22595442595916956
0.15988046768862094 -0.2632933776730048
0.10245141943337292 -0.2632933776730048
0.15988046768862094 -0.2632933776730048
0.14073745160353826 -0.3006323293868401
0.14073745160353826 -0.4126491845283458
0.1215944355184556 -0.4873270879560163
0.06416538726320759 -0.6740218465251926
0.04502237117812491 -0.599343943097522
0.08330840334829026 -0.6740218465251926
0.1215944355184556 -0.6366828948113573
0.06416538726320759 -0.6740218465251926
0.04502237117812491 -0.8607166050943688
-0.012406677077123108 -0.7860387016666983
-0.012406677077123108 -0.7113607982390278
0.06416538726320759 -0.6740218465251926
0.06416538726320759 -0.4873270879560163
0.0067363390079595645 -0.5620049913836868
-0.012406677077123108 -0.5620049913836868
0.0067363390079595645 -0.5620049913836868
-0.03154969316220578 -0.4873270879560163
0.1215944355184556 -0.3379712811006753
0.1790234837737036 -0.3379712811006753
0.1790234837737036 -0.4126491845283458
0.1215944355184556 -0.4873270879560163
0.10245141943337292 -0.4873270879560163
0.025879355093042237 -0.44998813624218104
0.1790234837737036 -0.4873270879560163
0.1790234837737036 -0.44998813624218104
0.1981664998587863 -0.5620049913836868
0.1981664998587863 -0.6366828948113573
0.1215944355184556 -0.7113607982390278
0.08330840334829026 -0.4873270879560163
0.10245141943337292 -0.37531023281451054
0.1981664998587863 -0.37531023281451054
0.21730951594386896 -0.4126491845283458
0.15988046768862094 -0.4873270879560163
0.14073745160353826 -0.44998813624218104
0.15988046768862094 -0.4126491845283458
0.21730951594386896 -0.3006323293868401
0.21730951594386896 -0.3379712811006753
0.29388158028419964 -0.3379712811006753
0.2555955481140343 -0.44998813624218104
0.1790234837737036 -0.4873270879560163
0.1981664998587863 -0.3379712811006753
0.15988046768862094 -0.3006323293868401
0.21730951594386896 -0.3006323293868401
0.21730951594386896 -0.44998813624218104
0.2555955481140343 -0.44998813624218104
0.1790234837737036 -0.4873270879560163
0.1981664998587863 -0.3006323293868401
0.23645253202895164 -0.3379712811006753
0.2555955481140343 -0.2632933776730048
0.23645253202895164 -0.3379712811006753
0.21730951594386896 -0.4873270879560163
0.21730951594386896 -0.4873270879560163
0.1790234837737036 -0.44998813624218104
0.1790234837737036 -0.3379712811006753
0.21730951594386896 -0.37531023281451054
0.1981664998587863 -0.37531023281451054
0.08330840334829026 -0.5246660396698516
0.06416538726320759 -0.599343943097522
0.0067363390079595645 -0.5246660396698516
-0.06983572533237113 -0.599343943097522
-0.012406677077123108 -0.599343943097522
0.025879355093042237 -0.7113607982390278
0.0067363390079595645 -0.7860387016666983
-0.06983572533237113 -0.748699749952863
-0.050692709247288456 -0.6740218465251926
0.0067363390079595645 -0.6366828948113573
0.08330840334829026 -0.5620049913836868
0.10245141943337292 -0.5620049913836868
0.08330840334829026 -0.5620049913836868
0.10245141943337292 -0.6366828948113573
0.1215944355184556 -0.5246660396698516
0.14073745160353826 -0.44998813624218104
0.1981664998587863 -0.2632933776730048
0.23645253202895164 -0.4126491845283458
0.1981664998587863 -0.4873270879560163
0.1981664998587863 -0.4873270879560163
0.15988046768862094 -0.44998813624218104
0.1981664998587863 -0.3379712811006753
0.29388158028419964 -0.2632933776730048
0.21730951594386896 -0.37531023281451054
0.2555955481140343 -0.599343943097522
0.35131062853944767 -0.8607166050943688
0.6193128537306051 -1.0100724119497098
1.0213161915173412 -1.0474113636635451
1.5190346097294907 -1.2341061222327212
1.9401809636013094 -1.5328177359434032
2.3613273174731284 -1.8315293496540852
2.7633306552598644 -2.1675799150786026
3.2227630413018487 -2.055563059937097
3.797053523854329 -2.242257818506273
4.294771942066478 -2.690325239072296
4.658489247683049 -3.2130705630659895
4.830776392448793 -3.5491211284905066
4.715918295938297 -3.5491211284905066
4.409630038576974 -3.3997653216351655
4.045912732960404 -2.9516979010691426
3.66305241125875 -2.4289525770754494
2.916474783940526 -2.0182241082232615
1.9401809636013094 -1.6074956393710738
1.1170312719427546 -1.3834619290880623
0.5427407893902744 -1.1220892670912155
0.44702570896486105 -0.9353945085220393
0.35131062853944767 -0.6740218465251926
0.15988046768862094 -0.5620049913836868
0.025879355093042237 -0.4873270879560163
-0.06983572533237113 -0.44998813624218104
-0.1655508057577845 -0.3379712811006753
-0.2229798540130325 -0.37531023281451054
-0.20383683792794982 -0.22595442595916956
-0.26126588618319785 -0.22595442595916956
-0.3761239826936939 -0.2632933776730048
-0.4335530309489419 -0.44998813624218104
-0.548411127459438 -0.5246660396698516
-0.5292681113743553 -0.5620049913836868
-0.5101250952892726 -0.599343943097522
-0.5101250952892726 -0.7860387016666983
-0.548411127459438 -0.748699749952863
-0.6441262078848513 -0.898055556808204
-0.6441262078848513 -0.748699749952863
-0.605840175714686 -0.6740218465251926
-0.5675541435445206 -0.4126491845283458
-0.5675541435445206 -0.3379712811006753
-0.605840175714686 -0.4126491845283458
-0.605840175714686 -0.37531023281451054
-0.6249831917997686 -0.3006323293868401
-0.5675541435445206 -0.11393757081766383
-0.5101250952892726 -0.11393757081766383
-0.5101250952892726 -0.15127652253149906
-0.5675541435445206 -0.11393757081766383
-0.5866971596296033 -0.11393757081766383
-0.605840175714686 -0.11393757081766383
-0.5675541435445206 -0.07659861910382858
-0.4909820792041899 -0.0019207156761580741
-0.5101250952892726 -0.07659861910382858
-0.548411127459438 -0.0019207156761580741
-0.5866971596296033 -0.0019207156761580741
-0.5675541435445206 -0.0019207156761580741
-0.5292681113743553 0.07275718775151242
-0.5101250952892726 0.2967908980345239
-0.45269604703402455 0.2221129946068534
-0.4718390631191072 0.1474350911791829
-0.4909820792041899 0.03541823603767717
-0.5292681113743553 0.11009613946534767
-0.4909820792041899 0.2221129946068534
-0.41441001486385926 0.18477404289301816
-0.41441001486385926 0.1474350911791829
-0.45269604703402455 0.1474350911791829
-0.5101250952892726 0.1474350911791829
-0.4909820792041899 0.2594519463206887
-0.4718390631191072 0.2594519463206887
-0.41441001486385926 0.2967908980345239
-0.4335530309489419 0.1474350911791829
-0.4718390631191072 0.11009613946534767
-0.4909820792041899 0.07275718775151242
-0.45269604703402455 0.1474350911791829
-0.41441001486385926 0.2221129946068534
-0.3569809666086112 0.2594519463206887
-0.4335530309489419 0.18477404289301816
-0.4909820792041899 0.18477404289301816
-0.4909820792041899 0.11009613946534767
-0.4718390631191072 0.03541823603767717
-0.5292681113743553 -0.03925966738999332
-0.5101250952892726 -0.15127652253149906
-0.4909820792041899 -0.22595442595916956
-0.5292681113743553 -0.44998813624218104
-0.4909820792041899 -0.6740218465251926
-0.4909820792041899 -0.7113607982390278
-0.4718390631191072 -0.6740218465251926
-0.41441001486385926 -0.5620049913836868
-0.3952669987787766 -0.4873270879560163
-0.3761239826936939 -0.4873270879560163
-0.3761239826936939 -0.4126491845283458
-0.3186949344384459 -0.3006323293868401
-0.2229798540130325 -0.11393757081766383
-0.14640778967270182 -0.15127652253149906
-0.0889787414174538 -0.07659861910382858
-0.03154969316220578 -0.1886154742453343
-0.06983572533237113 -0.22595442595916956
-0.03154969316220578 -0.22595442595916956
0.025879355093042237 -0.07659861910382858
0.08330840334829026 -0.0019207156761580741
0.04502237117812491 -0.0019207156761580741
0.04502237117812491 -0.15127652253149906
0.0067363390079595645 -0.15127652253149906
0.025879355093042237 -0.15127652253149906
0.1215944355184556 -0.03925966738999332
0.1790234837737036 0.07275718775151242
0.1981664998587863 -0.0019207156761580741
0.14073745160353826 0.03541823603767717
0.1215944355184556 0.03541823603767717
0.14073745160353826 0.11009613946534767
0.21730951594386896 0.18477404289301816
0.2555955481140343 0.3341298497483592
0.21730951594386896 0.18477404289301816
0.21730951594386896 0.2594519463206887
0.15988046768862094 0.2221129946068534
0.15988046768862094 0.3341298497483592
0.21730951594386896 0.2594519463206887
0.21730951594386896 0.3341298497483592
0.2555955481140343 0.2594519463206887
0.2555955481140343 0.2594519463206887
0.1981664998587863 0.2594519463206887
0.1215944355184556 0.2594519463206887
0.08330840334829026 0.3714688014621944
0.14073745160353826 0.3714688014621944
0.14073745160353826 0.2967908980345239
0.10245141943337292 0.2594519463206887
0.06416538726320759 0.1474350911791829
0.025879355093042237 0.1474350911791829
0.0067363390079595645 0.11009613946534767
0.0067363390079595645 -0.07659861910382858
0.025879355093042237 -0.22595442595916956
0.04502237117812491 -0.3379712811006753
-0.012406677077123108 -0.37531023281451054
-0.06983572533237113 -0.1886154742453343
-0.06983572533237113 -0.22595442595916956
0.0067363390079595645 -0.07659861910382858
-0.012406677077123108 -0.0019207156761580741
-0.14640778967270182 -0.07659861910382858
-0.12726477358761915 -0.03925966738999332
-0.06983572533237113 0.1474350911791829
-0.03154969316220578 0.2967908980345239
0.04502237117812491 0.3714688014621944
0.04502237117812491 0.5208246083175354
0.04502237117812491 0.4834856566037002
0.08330840334829026 0.4461467048898649
0.04502237117812491 0.4834856566037002
0.025879355093042237 0.5955025117452059
0.08330840334829026 0.6328414634590411
0.08330840334829026 0.5208246083175354
0.1215944355184556 0.4834856566037002
0.10245141943337292 0.4461467048898649
0.06416538726320759 0.4088077531760297
0.15988046768862094 0.4088077531760297
0.27473856419911696 0.4088077531760297
0.23645253202895164 0.5208246083175354
0.1215944355184556 0.4088077531760297
0.08330840334829026 0.4834856566037002
0.08330840334829026 0.4834856566037002
0.23645253202895164 0.5955025117452059
0.27473856419911696 0.6701804151728764
0.3130245963692823 0.5955025117452059
0.3130245963692823 0.5581635600313707
0.2555955481140343 0.4834856566037002
0.23645253202895164 0.6701804151728764
0.29388158028419964 0.6701804151728764
0.3130245963692823 0.6328414634590411
0.332167612454365 0.6328414634590411
0.29388158028419964 0.5208246083175354
0.27473856419911696 0.4461467048898649
0.27473856419911696 0.5208246083175354
0.332167612454365 0.5955025117452059
0.3130245963692823 0.5955025117452059
0.3130245963692823 0.6328414634590411
0.2555955481140343 0.3714688014621944
0.1981664998587863 0.3714688014621944
0.1790234837737036 0.2594519463206887
0.1790234837737036 0.3714688014621944
0.1981664998587863 0.11009613946534767
0.1981664998587863 -0.0019207156761580741
0.1790234837737036 -0.3006323293868401
0.14073745160353826 -0.4126491845283458
0.1215944355184556 -0.44998813624218104
0.1981664998587863 -0.4126491845283458
0.1981664998587863 -0.3006323293868401
0.14073745160353826 -0.2632933776730048
0.08330840334829026 -0.22595442595916956
0.04502237117812491 -0.22595442595916956
0.08330840334829026 -0.22595442595916956
0.08330840334829026 -0.11393757081766383
0.1215944355184556 -0.0019207156761580741
0.14073745160353826 0.03541823603767717
0.08330840334829026 -0.0019207156761580741
0.10245141943337292 -0.03925966738999332
0.10245141943337292 0.07275718775151242
0.15988046768862094 0.11009613946534767
0.1790234837737036 0.2221129946068534
0.21730951594386896 0.2967908980345239
0.08330840334829026 0.1474350911791829
0.08330840334829026 -0.0019207156761580741
0.1981664998587863 -0.11393757081766383
0.5427407893902744 -0.15127652253149906
0.9638871432620932 -0.37531023281451054
1.385033497133912 -0.8233776533805336
1.7678938188355655 -1.0847503153773803
2.150754140537219 -1.3834619290880623
2.6484725587493685 -1.644834591084909
3.184477009131683 -1.6821735427987443
3.777910507769246 -1.7195124945125795
4.275628925981396 -2.092902011650932
4.52448813508747 -2.5036304805031198
4.620203215512884 -2.8770199976414723
4.52448813508747 -2.8023420942138015
4.352200990321726 -2.6156473356446255
4.026769716875321 -2.3542746736477786
3.6247663790885847 -2.092902011650932
3.012189864365939 -1.7568514462264149
2.1698971566223015 -1.346122977374227
1.3084614327935813 -0.8607166050943688
0.7341709502411011 -0.5620049913836868
0.5235977733051917 -0.22595442595916956
0.37045364462453034 0.03541823603767717
0.21730951594386896 0.07275718775151242
0.10245141943337292 0.1474350911791829
0.0067363390079595645 0.2967908980345239
0.0067363390079595645 0.4834856566037002
0.025879355093042237 0.5208246083175354
-0.03154969316220578 0.5208246083175354
-0.10812175750253647 0.5208246083175354
-0.18469382184286717 0.4834856566037002
-0.24212287009811517 0.5581635600313707
-0.24212287009811517 0.5955025117452059
-0.20383683792794982 0.7448583186005469
-0.2804089022682805 0.6328414634590411
-0.3186949344384459 0.4834856566037002
-0.3952669987787766 0.2967908980345239
-0.3952669987787766 0.07275718775151242
-0.4335530309489419 0.1474350911791829
-0.3952669987787766 0.2594519463206887
-0.45269604703402455 0.2967908980345239
-0.5101250952892726 0.18477404289301816
-0.5675541435445206 0.2221129946068534
-0.5866971596296033 0.2967908980345239
-0.5101250952892726 0.4088077531760297
-0.4909820792041899 0.5208246083175354
-0.5101250952892726 0.5208246083175354
-0.4909820792041899 0.4834856566037002
-0.4718390631191072 0.4461467048898649
-0.4718390631191072 0.5581635600313707
-0.4718390631191072 0.6328414634590411
-0.45269604703402455 0.5955025117452059
-0.4335530309489419 0.6328414634590411
-0.4909820792041899 0.5208246083175354
-0.4909820792041899 0.5208246083175354
-0.4718390631191072 0.5955025117452059
-0.4718390631191072 0.6328414634590411
-0.4335530309489419 0.6328414634590411
-0.45269604703402455 0.5955025117452059
-0.4909820792041899 0.4834856566037002
-0.4718390631191072 0.5581635600313707
-0.548411127459438 0.5581635600313707
-0.5101250952892726 0.7075193668867117
-0.4335530309489419 0.8195362220282174
-0.3952669987787766 0.8568751737420527
-0.4335530309489419 0.7821972703143821
-0.4335530309489419 0.7448583186005469
-0.4335530309489419 0.7448583186005469
-0.3952669987787766 0.8195362220282174
-0.3761239826936939 0.8942141254558879
-0.3761239826936939 0.8942141254558879
-0.3761239826936939 0.6701804151728764
-0.3761239826936939 0.6701804151728764
-0.3569809666086112 0.7075193668867117
-0.33783795052352855 0.8195362220282174
-0.2804089022682805 0.8942141254558879
-0.2804089022682805 0.8942141254558879
-0.2804089022682805 0.7448583186005469
-0.3186949344384459 0.7448583186005469
-0.3186949344384459 0.7821972703143821
-0.26126588618319785 0.7821972703143821
-0.24212287009811517 0.8568751737420527
-0.2229798540130325 0.8942141254558879
-0.2804089022682805 0.8568751737420527
-0.3186949344384459 0.7821972703143821
-0.3952669987787766 0.8195362220282174
-0.33783795052352855 0.8195362220282174
-0.2995519183533632 0.8942141254558879
-0.3186949344384459 0.8568751737420527
-0.3186949344384459 0.5581635600313707
-0.3186949344384459 0.4461467048898649
-0.2995519183533632 0.2594519463206887
-0.3186949344384459 0.18477404289301816
-0.26126588618319785 0.2967908980345239
-0.2229798540130325 0.2594519463206887
-0.18469382184286717 0.18477404289301816
-0.14640778967270182 0.18477404289301816
-0.14640778967270182 0.2967908980345239
-0.0889787414174538 0.4461467048898649
-0.03154969316220578 0.6328414634590411
0.025879355093042237 0.5955025117452059
0.04502237117812491 0.5955025117452059
0.06416538726320759 0.4834856566037002
0.06416538726320759 0.5955025117452059
0.1215944355184556 0.6328414634590411
0.14073745160353826 0.7448583186005469
0.15988046768862094 0.7448583186005469
0.15988046768862094 0.5955025117452059
0.1790234837737036 0.5208246083175354
0.1790234837737036 0.5955025117452059
0.1790234837737036 0.5955025117452059
0.21730951594386896 0.5955025117452059
0.1981664998587863 0.5955025117452059
0.1790234837737036 0.7075193668867117
0.14073745160353826 0.5955025117452059
0.15988046768862094 0.6701804151728764
0.1981664998587863 0.8568751737420527
0.3130245963692823 0.9315530771697231
0.29388158028419964 0.8195362220282174
0.2555955481140343 0.8195362220282174
0.1981664998587863 0.7448583186005469
0.21730951594386896 0.8568751737420527
0.21730951594386896 0.8568751737420527
0.3130245963692823 1.0062309805973937
0.332167612454365 0.9688920288835584
0.29388158028419964 0.9315530771697231
0.3130245963692823 0.9315530771697231
0.29388158028419964 0.9688920288835584
0.3130245963692823 1.0809088840250642
0.35131062853944767 1.19292573916657
0.37045364462453034 1.2302646908804051
0.3130245963692823 1.1182478357388994
0.27473856419911696 1.0809088840250642
0.2555955481140343 1.1555867874527346
0.21730951594386896 1.19292573916657
0.27473856419911696 1.2302646908804051
0.2555955481140343 1.3796204977357462
0.23645253202895164 1.2302646908804051
0.10245141943337292 1.2302646908804051
0.1215944355184556 1.0809088840250642
0.1215944355184556 0.9688920288835584
0.1215944355184556 0.8195362220282174
0.1215944355184556 0.5955025117452059
0.06416538726320759 0.4461467048898649
0.04502237117812491 0.4834856566037002
0.06416538726320759 0.4834856566037002
0.06416538726320759 0.5955025117452059
0.10245141943337292 0.7075193668867117
0.10245141943337292 0.7448583186005469
0.10245141943337292 0.7821972703143821
0.06416538726320759 0.7448583186005469
0.14073745160353826 0.8195362220282174
0.1981664998587863 0.9315530771697231
0.23645253202895164 0.9688920288835584
0.2555955481140343 1.0062309805973937
0.1981664998587863 0.8942141254558879
0.1981664998587863 0.7821972703143821
0.21730951594386896 0.8942141254558879
0.29388158028419964 0.9688920288835584
0.29388158028419964 0.8568751737420527
0.29388158028419964 0.7448583186005469
0.27473856419911696 0.7448583186005469
0.23645253202895164 0.8195362220282174
0.27473856419911696 0.8568751737420527
0.3130245963692823 0.9688920288835584
0.332167612454365 1.1182478357388994
0.3130245963692823 1.0809088840250642
0.29388158028419964 1.0062309805973937
0.27473856419911696 0.9315530771697231
0.27473856419911696 0.9688920288835584
0.27473856419911696 1.0435699323112289
0.4087396767946957 1.2302646908804051
0.35131062853944767 1.0809088840250642
0.29388158028419964 0.9688920288835584
0.29388158028419964 0.9315530771697231
0.3130245963692823 0.9315530771697231
0.37045364462453034 1.0435699323112289
0.389596660709613 1.0809088840250642
0.389596660709613 1.0809088840250642
0.332167612454365 1.0435699323112289
0.29388158028419964 0.8568751737420527
0.332167612454365 1.0062309805973937
0.35131062853944767 1.0809088840250642
0.37045364462453034 1.19292573916657
0.332167612454365 1.1182478357388994
0.3130245963692823 1.0809088840250642
0.23645253202895164 1.1182478357388994
0.21730951594386896 1.2302646908804051
0.21730951594386896 1.2676036425942403
0.2555955481140343 1.3049425943080757
0.23645253202895164 1.3049425943080757
0.23645253202895164 1.1555867874527346
0.10245141943337292 1.0062309805973937
0.06416538726320759 0.9688920288835584
0.1215944355184556 0.8568751737420527
0.1215944355184556 0.7821972703143821
0.1215944355184556 0.7448583186005469
0.15988046768862094 0.7075193668867117
0.1215944355184556 0.6701804151728764
0.10245141943337292 0.7821972703143821
0.14073745160353826 0.9315530771697231
0.1981664998587863 0.9688920288835584
0.23645253202895164 1.0062309805973937
0.23645253202895164 0.8942141254558879
0.23645253202895164 0.8195362220282174
0.1981664998587863 0.7448583186005469
0.23645253202895164 0.8568751737420527
0.29388158028419964 1.0062309805973937
0.29388158028419964 0.9315530771697231
0.3130245963692823 0.7075193668867117
0.23645253202895164 0.6701804151728764
0.2555955481140343 0.7075193668867117
0.27473856419911696 0.8568751737420527
0.3130245963692823 0.9315530771697231
0.332167612454365 0.8942141254558879
0.37045364462453034 0.8942141254558879
0.29388158028419964 0.8942141254558879
0.29388158028419964 0.8195362220282174
0.37045364462453034 0.9315530771697231
0.389596660709613 1.0062309805973937
0.4087396767946957 0.8942141254558879
0.35131062853944767 0.9315530771697231
0.3130245963692823 0.8942141254558879
0.3130245963692823 0.9688920288835584
0.29388158028419964 0.9688920288835584
0.4087396767946957 1.0435699323112289
0.4087396767946957 1.0435699323112289
0.35131062853944767 0.9315530771697231
0.332167612454365 0.9688920288835584
0.27473856419911696 1.0435699323112289
0.3130245963692823 1.19292573916657
0.37045364462453034 1.2676036425942403
0.37045364462453034 1.1555867874527346
0.332167612454365 1.1555867874527346
0.23645253202895164 1.0809088840250642
0.21730951594386896 1.19292573916657
0.35131062853944767 1.3049425943080757
0.35131062853944767 1.4169594494495814
0.35131062853944767 1.3422815460219109
0.29388158028419964 1.3049425943080757
0.21730951594386896 1.3796204977357462
0.1981664998587863 1.4542984011634166
0.21730951594386896 1.6036542080187577
0.23645253202895164 1.790348966587934
0.1981664998587863 1.8276879183017691
0.14073745160353826 1.678332111446428
0.04502237117812491 1.5289763045910871
0.23645253202895164 1.3796204977357462
0.5810268215604397 1.1182478357388994
1.040459207602424 0.8942141254558879
1.6338927062399868 0.4461467048898649
2.093325092281971 -0.03925966738999332
2.495328430068707 -0.4873270879560163
2.9547608161106913 -0.4873270879560163
3.5290512986631715 -0.5246660396698516
4.122484797300734 -1.0847503153773803
4.639346231597966 -1.7568514462264149
4.830776392448793 -2.2049188667924375
4.601060199427801 -2.391613625361614
4.3330579742366435 -2.055563059937097
3.797053523854329 -1.3087840256603918
2.9547608161106913 -0.599343943097522
1.7104647705803173 -0.11393757081766383
0.7724569824112665 0.18477404289301816
0.4087396767946957 0.3341298497483592
0.2555955481140343 0.5208246083175354
0.15988046768862094 0.8195362220282174
0.1215944355184556 0.9688920288835584
0.025879355093042237 1.0809088840250642
-0.012406677077123108 0.9315530771697231
-0.12726477358761915 1.0809088840250642
-0.12726477358761915 1.0435699323112289
-0.12726477358761915 1.19292573916657
-0.12726477358761915 1.3049425943080757
-0.14640778967270182 1.2302646908804051
-0.20383683792794982 1.2302646908804051
-0.24212287009811517 1.1555867874527346
-0.2804089022682805 1.19292573916657
-0.26126588618319785 1.2676036425942403
-0.2804089022682805 1.3796204977357462
-0.26126588618319785 1.3422815460219109
-0.33783795052352855 1.3422815460219109
-0.3761239826936939 1.2302646908804051
-0.41441001486385926 1.3049425943080757
-0.4335530309489419 1.4169594494495814
-0.4335530309489419 1.5289763045910871
-0.5101250952892726 1.5289763045910871
-0.605840175714686 1.491637352877252
-0.6249831917997686 1.3796204977357462
-0.6632692239699339 1.4169594494495814
-0.6824122400550167 1.491637352877252
-0.6441262078848513 1.678332111446428
-0.6441262078848513 1.6036542080187577
-0.6632692239699339 1.4542984011634166
-0.720698272225182 1.2676036425942403
-0.7015552561400993 1.3049425943080757
-0.6824122400550167 1.3422815460219109
-0.6441262078848513 1.3796204977357462
-0.6249831917997686 1.2676036425942403
-0.605840175714686 1.1555867874527346
-0.5866971596296033 1.0435699323112289
-0.6249831917997686 1.0435699323112289
-0.548411127459438 1.0809088840250642
-0.5101250952892726 1.1555867874527346
-0.4335530309489419 1.19292573916657
-0.45269604703402455 1.2302646908804051
-0.4909820792041899 1.1555867874527346
-0.4909820792041899 1.19292573916657
-0.4335530309489419 1.3049425943080757
-0.3761239826936939 1.3422815460219109
-0.33783795052352855 1.3796204977357462
-0.3569809666086112 1.3422815460219109
-0.3761239826936939 1.2676036425942403
-0.3952669987787766 1.2676036425942403
-0.33783795052352855 1.4542984011634166
-0.26126588618319785 1.491637352877252
-0.24212287009811517 1.4542984011634166
-0.2804089022682805 1.3422815460219109
-0.24212287009811517 1.3049425943080757
-0.2804089022682805 1.3049425943080757
-0.24212287009811517 1.491637352877252
-0.1655508057577845 1.5289763045910871
-0.10812175750253647 1.5289763045910871
-0.14640778967270182 1.3796204977357462
-0.18469382184286717 1.3049425943080757
-0.14640778967270182 1.3422815460219109
-0.10812175750253647 1.4542984011634166
-0.06983572533237113 1.491637352877252
-0.012406677077123108 1.4542984011634166
-0.0889787414174538 1.4169594494495814
-0.06983572533237113 1.4169594494495814
-0.0889787414174538 1.3796204977357462
-0.03154969316220578 1.4542984011634166
0.06416538726320759 1.491637352877252
0.06416538726320759 1.491637352877252
-0.03154969316220578 1.4542984011634166
-0.12726477358761915 1.3049425943080757
-0.10812175750253647 1.3796204977357462
-0.03154969316220578 1.5289763045910871
-0.06983572533237113 1.5663152563049223
-0.012406677077123108 1.6409931597325929
-0.06983572533237113 1.5663152563049223
-0.0889787414174538 1.491637352877252
-0.1655508057577845 1.5663152563049223
-0.12726477358761915 1.678332111446428
-0.03154969316220578 1.6036542080187577
0.025879355093042237 1.491637352877252
0.025879355093042237 1.2676036425942403
-0.03154969316220578 1.1555867874527346
-0.012406677077123108 1.1555867874527346
-0.012406677077123108 1.0809088840250642
0.04502237117812491 1.0435699323112289
0.025879355093042237 1.0062309805973937
0.04502237117812491 0.7821972703143821
0.06416538726320759 0.5955025117452059
0.0067363390079595645 0.6701804151728764
-0.012406677077123108 0.7448583186005469
0.06416538726320759 0.8195362220282174
0.06416538726320759 0.9315530771697231
0.08330840334829026 0.8195362220282174
0.1215944355184556 0.9688920288835584
0.04502237117812491 1.0809088840250642
0.10245141943337292 1.2676036425942403
0.1981664998587863 1.3049425943080757
0.23645253202895164 1.3422815460219109
0.21730951594386896 1.2676036425942403
0.15988046768862094 1.2676036425942403
0.1981664998587863 1.3049425943080757
0.2555955481140343 1.491637352877252
0.2555955481140343 1.5289763045910871
0.23645253202895164 1.5289763045910871
0.1981664998587863 1.3796204977357462
0.1981664998587863 1.4542984011634166
0.1981664998587863 1.5663152563049223
0.1981664998587863 1.5289763045910871
0.21730951594386896 1.678332111446428
0.23645253202895164 1.5663152563049223
0.1981664998587863 1.5663152563049223
0.1790234837737036 1.4542984011634166
0.14073745160353826 1.5663152563049223
0.1981664998587863 1.6409931597325929
0.23645253202895164 1.7530100148740986
0.2555955481140343 1.7156710631602634
0.15988046768862094 1.6036542080187577
0.10245141943337292 1.5289763045910871
0.0067363390079595645 1.6036542080187577
0.08330840334829026 1.6409931597325929
0.08330840334829026 1.7530100148740986
-0.012406677077123108 1.678332111446428
0.0067363390079595645 1.678332111446428
-0.050692709247288456 1.6036542080187577
-0.050692709247288456 1.6409931597325929
-0.050692709247288456 1.7156710631602634
-0.050692709247288456 1.790348966587934
-0.03154969316220578 1.7156710631602634
-0.10812175750253647 1.790348966587934
-0.14640778967270182 1.6409931597325929
-0.10812175750253647 1.6409931597325929
-0.0889787414174538 1.6036542080187577
-0.06983572533237113 1.5663152563049223
-0.050692709247288456 1.4169594494495814
-0.10812175750253647 1.2676036425942403
-0.1655508057577845 1.0809088840250642
-0.12726477358761915 1.0435699323112289
-0.050692709247288456 1.0435699323112289
-0.012406677077123108 1.0435699323112289
0.0067363390079595645 0.8942141254558879
-0.0889787414174538 0.7448583186005469
-0.050692709247288456 0.6328414634590411
-0.0889787414174538 0.8195362220282174
0.025879355093042237 0.9688920288835584
0.08330840334829026 1.1182478357388994
0.08330840334829026 1.19292573916657
0.1215944355184556 1.19292573916657
0.1215944355184556 1.19292573916657
0.10245141943337292 1.1555867874527346
0.1790234837737036 1.2676036425942403
0.1790234837737036 1.3049425943080757
0.21730951594386896 1.3796204977357462
0.1981664998587863 1.3422815460219109
0.10245141943337292 1.2676036425942403
0.10245141943337292 1.2676036425942403
0.1790234837737036 1.3049425943080757
0.2555955481140343 1.4169594494495814
0.23645253202895164 1.3796204977357462
0.1981664998587863 1.3796204977357462
0.1790234837737036 1.2302646908804051
0.1790234837737036 1.3049425943080757
0.14073745160353826 1.4169594494495814
0.1790234837737036 1.5289763045910871
0.15988046768862094 1.4542984011634166
0.14073745160353826 1.4542984011634166
0.10245141943337292 1.3049425943080757
0.08330840334829026 1.3049425943080757
0.10245141943337292 1.3796204977357462
0.14073745160353826 1.5289763045910871
0.1215944355184556 1.491637352877252
0.06416538726320759 1.4169594494495814
0.0067363390079595645 1.3049425943080757
0.0067363390079595645 1.4169594494495814
0.0067363390079595645 1.4542984011634166
0.0067363390079595645 1.5663152563049223
0.0067363390079595645 1.4542984011634166
-0.0889787414174538 1.491637352877252
-0.14640778967270182 1.3796204977357462
-0.1655508057577845 1.3422815460219109
-0.12726477358761915 1.4542984011634166
-0.14640778967270182 1.5663152563049223
-0.14640778967270182 1.6409931597325929
-0.10812175750253647 1.5289763045910871
-0.18469382184286717 1.3422815460219109
-0.14640778967270182 1.3422815460219109
-0.12726477358761915 1.3422815460219109
-0.0889787414174538 1.2676036425942403
-0.050692709247288456 1.2302646908804051
-0.050692709247288456 1.0435699323112289
-0.0889787414174538 0.8942141254558879
-0.0889787414174538 0.7821972703143821
0.04502237117812491 0.6328414634590411
0.29388158028419964 0.6328414634590411
0.6958849180709358 0.2594519463206887
1.097888255857672 -0.15127652253149906
1.4807485775593254 -0.4873270879560163
1.921037947516227 -0.6740218465251926
2.380470333558211 -0.6740218465251926
2.916474783940526 -0.7113607982390278
3.395050186067593 -0.599343943097522
3.8161965399394115 -0.8233776533805336
4.1799138455559826 -1.2714450739465566
4.467059086832222 -1.6821735427987443
4.581917183342719 -1.79419039794025
4.562774167257635 -1.79419039794025
4.313914958151561 -1.6821735427987443
3.969340668620073 -1.4581398325157329
3.433336218237758 -1.1594282188050509
2.8781887517703604 -0.7113607982390278
2.093325092281971 -0.2632933776730048
1.327604448878664 0.1474350911791829
0.7341709502411011 0.4461467048898649
0.42788269287977837 0.5208246083175354
0.27473856419911696 0.7075193668867117
0.08330840334829026 0.9688920288835584
-0.0889787414174538 1.0809088840250642
-0.1655508057577845 1.3049425943080757
-0.18469382184286717 1.3422815460219109
-0.2229798540130325 1.3049425943080757
-0.2804089022682805 1.2676036425942403
-0.3569809666086112 1.3422815460219109
-0.3761239826936939 1.5289763045910871
-0.3761239826936939 1.5289763045910871
-0.3952669987787766 1.5289763045910871
-0.45269604703402455 1.5289763045910871
-0.5292681113743553 1.491637352877252
-0.605840175714686 1.4542984011634166
-0.605840175714686 1.5663152563049223
-0.6249831917997686 1.678332111446428
-0.6632692239699339 1.6036542080187577
-0.7398412883102646 1.491637352877252
-0.8164133526505953 1.5289763045910871
-0.8738424009058434 1.5663152563049223
-0.8546993848207607 1.5289763045910871
-0.8546993848207607 1.491637352877252
-0.9121284330760088 1.3796204977357462
-0.892985416990926 1.1555867874527346
-1.0269865295865048 1.1182478357388994
-0.950414465246174 1.1182478357388994
-0.950414465246174 1.1555867874527346
-0.892985416990926 1.0809088840250642
-0.8738424009058434 0.9688920288835584
-0.9121284330760088 0.8195362220282174
-0.9695574813312567 0.7448583186005469
-0.9695574813312567 0.8942141254558879
-0.9312714491610914 0.8568751737420527
-0.9312714491610914 1.0062309805973937
-0.892985416990926 1.0435699323112289
-0.8738424009058434 0.9688920288835584
-0.9312714491610914 0.8195362220282174
-0.9887004974163394 0.9315530771697231
-0.9312714491610914 1.0809088840250642
-0.892985416990926 1.2676036425942403
-0.8546993848207607 1.2676036425942403
-0.8738424009058434 1.2302646908804051
-0.9312714491610914 1.2676036425942403
-0.9121284330760088 1.3049425943080757
-0.8546993848207607 1.4169594494495814
-0.8355563687356781 1.491637352877252
-0.7589843043953474 1.491637352877252
-0.7972703365655127 1.3796204977357462
-0.8738424009058434 1.4169594494495814
-0.8164133526505953 1.4169594494495814
-0.77812732048043 1.491637352877252
-0.720698272225182 1.6409931597325929
-0.7015552561400993 1.6409931597325929
-0.720698272225182 1.5289763045910871
-0.7589843043953474 1.4169594494495814
-0.7398412883102646 1.4169594494495814
-0.720698272225182 1.5289763045910871
-0.6632692239699339 1.6409931597325929
-0.6441262078848513 1.678332111446428
-0.6824122400550167 1.6036542080187577
-0.7015552561400993 1.5289763045910871
-0.720698272225182 1.491637352877252
-0.7015552561400993 1.5663152563049223
-0.6632692239699339 1.6036542080187577
-0.605840175714686 1.5663152563049223
-0.6441262078848513 1.491637352877252
-0.720698272225182 1.4169594494495814
-0.6824122400550167 1.491637352877252
-0.605840175714686 1.5663152563049223
-0.605840175714686 1.5289763045910871
-0.6249831917997686 1.491637352877252
-0.6441262078848513 1.4542984011634166
-0.6441262078848513 1.3796204977357462
-0.6824122400550167 1.4169594494495814
-0.6824122400550167 1.4169594494495814
-0.605840175714686 1.491637352877252
-0.6441262078848513 1.4169594494495814
-0.6249831917997686 1.19292573916657
-0.6441262078848513 0.8568751737420527
-0.6249831917997686 0.7448583186005469
-0.5292681113743553 0.6701804151728764
-0.4909820792041899 0.7448583186005469
-0.4909820792041899 0.7448583186005469
-0.5101250952892726 0.7448583186005469
-0.4909820792041899 0.7821972703143821
-0.4718390631191072 0.7075193668867117
-0.4909820792041899 0.8195362220282174
-0.3952669987787766 0.9315530771697231
-0.33783795052352855 0.8942141254558879
-0.33783795052352855 0.8942141254558879
-0.3761239826936939 0.8568751737420527
-0.3761239826936939 0.9315530771697231
-0.2804089022682805 1.0809088840250642
-0.24212287009811517 1.19292573916657
-0.20383683792794982 1.1555867874527346
-0.18469382184286717 1.19292573916657
-0.26126588618319785 1.0809088840250642
-0.26126588618319785 1.1555867874527346
-0.20383683792794982 1.2302646908804051
-0.1655508057577845 1.4542984011634166
-0.12726477358761915 1.3796204977357462
-0.20383683792794982 1.3796204977357462
-0.24212287009811517 1.3796204977357462
-0.20383683792794982 1.3796204977357462
-0.14640778967270182 1.5663152563049223
-0.10812175750253647 1.678332111446428
-0.0889787414174538 1.7156710631602634
-0.1655508057577845 1.5663152563049223
-0.18469382184286717 1.6036542080187577
-0.20383683792794982 1.6409931597325929
-0.12726477358761915 1.678332111446428
-0.0889787414174538 1.7156710631602634
-0.050692709247288456 1.6409931597325929
-0.06983572533237113 1.678332111446428
-0.14640778967270182 1.4542984011634166
-0.20383683792794982 1.4169594494495814
-0.20383683792794982 1.5663152563049223
-0.18469382184286717 1.5663152563049223
-0.14640778967270182 1.5663152563049223
-0.2229798540130325 1.491637352877252
-0.2229798540130325 1.4542984011634166
-0.2804089022682805 1.4542984011634166
-0.2804089022682805 1.491637352877252
-0.2804089022682805 1.6409931597325929
-0.2229798540130325 1.678332111446428
-0.26126588618319785 1.4542984011634166
-0.3186949344384459 1.4542984011634166
-0.3569809666086112 1.4169594494495814
-0.2804089022682805 1.491637352877252
-0.3186949344384459 1.6036542080187577
-0.2995519183533632 1.4542984011634166
-0.4335530309489419 1.3049425943080757
-0.4335530309489419 1.19292573916657
-0.4909820792041899 1.19292573916657
-0.4909820792041899 1.19292573916657
-0.45269604703402455 1.1182478357388994
-0.45269604703402455 1.0062309805973937
-0.5101250952892726 0.8942141254558879
-0.5101250952892726 0.8568751737420527
-0.5675541435445206 0.8942141254558879
-0.4909820792041899 1.1182478357388994
-0.3952669987787766 1.19292573916657
-0.3952669987787766 1.2302646908804051
-0.3952669987787766 1.1555867874527346
-0.41441001486385926 1.1182478357388994
-0.3952669987787766 1.0809088840250642
-0.3761239826936939 1.2302646908804051
-0.33783795052352855 1.3049425943080757
-0.33783795052352855 1.2676036425942403
-0.3186949344384459 1.2302646908804051
-0.3569809666086112 1.1555867874527346
-0.2995519183533632 1.0809088840250642
-0.26126588618319785 1.1555867874527346
-0.20383683792794982 1.19292573916657
-0.20383683792794982 1.3796204977357462
-0.2229798540130325 1.2676036425942403
-0.26126588618319785 1.2302646908804051
-0.26126588618319785 1.2676036425942403
-0.24212287009811517 1.4169594494495814
-0.14640778967270182 1.491637352877252
-0.12726477358761915 1.5289763045910871
-0.14640778967270182 1.3796204977357462
-0.2229798540130325 1.2302646908804051
-0.26126588618319785 1.3422815460219109
-0.18469382184286717 1.4169594494495814
-0.18469382184286717 1.5289763045910871
-0.0889787414174538 1.5663152563049223
-0.12726477358761915 1.4542984011634166
-0.1655508057577845 1.3796204977357462
-0.18469382184286717 1.3796204977357462
-0.12726477358761915 1.4169594494495814
-0.10812175750253647 1.491637352877252
-0.10812175750253647 1.5663152563049223
-0.18469382184286717 1.4169594494495814
-0.18469382184286717 1.3422815460219109
-0.2229798540130325 1.3422815460219109
-0.14640778967270182 1.491637352877252
-0.18469382184286717 1.5289763045910871
-0.20383683792794982 1.491637352877252
-0.18469382184286717 1.3796204977357462
-0.26126588618319785 1.3422815460219109
-0.26126588618319785 1.3422815460219109
-0.24212287009811517 1.5289763045910871
-0.1655508057577845 1.491637352877252
-0.1655508057577845 1.4542984011634166
-0.24212287009811517 1.4169594494495814
-0.2995519183533632 1.2676036425942403
-0.33783795052352855 1.2676036425942403
-0.33783795052352855 1.3796204977357462
-0.2995519183533632 1.4542984011634166
-0.3761239826936939 1.2676036425942403
-0.33783795052352855 1.3049425943080757
-0.45269604703402455 1.0435699323112289
-0.4335530309489419 1.0062309805973937
-0.41441001486385926 0.9315530771697231
-0.45269604703402455 0.8568751737420527
-0.3569809666086112 0.7075193668867117
-0.33783795052352855 0.5955025117452059
-0.3761239826936939 0.4834856566037002
-0.3952669987787766 0.5208246083175354
-0.3761239826936939 0.6328414634590411
-0.3186949344384459 0.8195362220282174
-0.2804089022682805 0.8942141254558879
-0.33783795052352855 0.8568751737420527
-0.3569809666086112 0.6701804151728764
-0.2229798540130325 0.6328414634590411
0.0067363390079595645 0.5208246083175354
0.42788269287977837 0.4461467048898649
0.7915999984963491 0.2594519463206887
1.1936033362830853 -0.1886154742453343
1.44246254538916 -0.5246660396698516
1.8061798510057308 -0.748699749952863
2.2464692209626325 -0.9353945085220393
2.725044623089699 -0.8233776533805336
3.2227630413018487 -0.8607166050943688
3.6247663790885847 -1.196767170518886
3.9501976525349902 -1.79419039794025
4.199056861641065 -2.130240963364767
4.313914958151561 -2.130240963364767
4.294771942066478 -2.055563059937097
4.0841987651305685 -2.1675799150786026
3.7587674916841634 -1.9062072530817558
3.299335105642179 -1.6074956393710738
2.782473671344947 -1.1594282188050509
2.1124681083670533 -0.748699749952863
1.2893184167084986 -0.3006323293868401
0.6384558698156878 -0.03925966738999332
0.27473856419911696 0.1474350911791829
0.08330840334829026 0.2967908980345239
-0.06983572533237113 0.4461467048898649
-0.18469382184286717 0.6328414634590411
-0.2804089022682805 0.9315530771697231
-0.33783795052352855 0.9688920288835584
-0.4718390631191072 0.9315530771697231
-0.548411127459438 0.8568751737420527
-0.605840175714686 0.8568751737420527
-0.6249831917997686 1.0809088840250642
-0.5675541435445206 1.2302646908804051
-0.5675541435445206 1.2676036425942403
-0.6441262078848513 1.1555867874527346
-0.7589843043953474 1.1555867874527346
-0.8164133526505953 1.1555867874527346
-0.7972703365655127 1.2676036425942403
-0.77812732048043 1.3796204977357462
-0.7972703365655127 1.4542984011634166
-0.8546993848207607 1.3796204977357462
-0.9695574813312567 1.3049425943080757
-1.0269865295865048 1.2676036425942403
-1.0269865295865048 1.4542984011634166
-1.007843513501422 1.5663152563049223
-0.9887004974163394 1.4542984011634166
-1.0269865295865048 1.4542984011634166
-1.1035585939268355 1.19292573916657
-1.1418446260970008 1.19292573916657
-1.1035585939268355 1.19292573916657
-1.0844155778417528 1.1555867874527346
-1.06527256175667 1.0809088840250642
-1.122701610011918 0.8568751737420527
-1.1609876421820835 0.7075193668867117
-1.2184166904373315 0.6328414634590411
-1.1418446260970008 0.7448583186005469
-1.122701610011918 0.8942141254558879
-1.1801306582671662 0.8942141254558879
-1.1801306582671662 0.8195362220282174
-1.1992736743522487 0.7448583186005469
-1.1801306582671662 0.8195362220282174
-1.1801306582671662 0.8942141254558879
-1.1035585939268355 0.9315530771697231
-1.06527256175667 0.9315530771697231
-1.1609876421820835 0.8942141254558879
-1.1418446260970008 0.7821972703143821
-1.0844155778417528 0.8942141254558879
-1.122701610011918 0.8942141254558879
-1.1035585939268355 1.0435699323112289
-1.122701610011918 1.0809088840250642
-1.122701610011918 1.1555867874527346
-1.1035585939268355 1.0435699323112289
-1.122701610011918 1.0809088840250642
-1.06527256175667 1.2302646908804051
-1.007843513501422 1.3422815460219109
-1.007843513501422 1.3049425943080757
-1.0461295456715873 1.2302646908804051
-1.0461295456715873 1.19292573916657
-1.06527256175667 1.2676036425942403
-0.9887004974163394 1.3422815460219109
-0.9887004974163394 1.3796204977357462
-0.9695574813312567 1.3422815460219109
-0.9312714491610914 1.2302646908804051
-0.950414465246174 1.1555867874527346
-0.9695574813312567 1.2302646908804051
-0.9312714491610914 1.2676036425942403
-0.9121284330760088 1.3049425943080757
-0.8738424009058434 1.2302646908804051
-0.8164133526505953 1.1555867874527346
-0.892985416990926 1.1555867874527346
-0.892985416990926 1.19292573916657
-0.8738424009058434 1.3049425943080757
-0.8355563687356781 1.3422815460219109
-0.8355563687356781 1.3422815460219109
-0.8355563687356781 1.3422815460219109
-0.8546993848207607 1.2676036425942403
-0.8546993848207607 1.3049425943080757
-0.8355563687356781 1.5663152563049223
-0.8164133526505953 1.6036542080187577
-0.7398412883102646 1.491637352877252
-0.720698272225182 1.4169594494495814
-0.7398412883102646 1.3049425943080757
-0.7589843043953474 1.1555867874527346
-0.720698272225182 1.1555867874527346
-0.7015552561400993 1.1555867874527346
-0.6441262078848513 1.0062309805973937
-0.5866971596296033 0.8195362220282174
-0.6632692239699339 0.6328414634590411
-0.6824122400550167 0.6328414634590411
-0.6249831917997686 0.5955025117452059
-0.605840175714686 0.7075193668867117
-0.5675541435445206 0.6701804151728764
-0.548411127459438 0.6328414634590411
-0.5675541435445206 0.5581635600313707
-0.5866971596296033 0.6328414634590411
-0.5675541435445206 0.7448583186005469
-0.5292681113743553 0.8195362220282174
-0.4335530309489419 0.7821972703143821
-0.45269604703402455 0.7821972703143821
-0.45269604703402455 0.6701804151728764
-0.4718390631191072 0.8195362220282174
-0.3761239826936939 0.7448583186005469
-0.3952669987787766 0.7821972703143821
-0.33783795052352855 0.8195362220282174
-0.3952669987787766 0.7075193668867117
-0.4335530309489419 0.6701804151728764
-0.4718390631191072 0.7448583186005469
-0.3952669987787766 0.7821972703143821
-0.3569809666086112 1.0435699323112289
-0.3186949344384459 1.0435699323112289
-0.3761239826936939 0.9688920288835584
-0.4335530309489419 0.9315530771697231
-0.41441001486385926 0.9688920288835584
-0.33783795052352855 1.0062309805973937
-0.2995519183533632 1.1182478357388994
-0.24212287009811517 1.1182478357388994
-0.2995519183533632 1.0809088840250642
-0.3186949344384459 0.9688920288835584
-0.41441001486385926 1.0809088840250642
-0.3761239826936939 1.0809088840250642
-0.33783795052352855 1.2302646908804051
-0.2804089022682805 1.19292573916657
-0.33783795052352855 1.1182478357388994
-0.33783795052352855 1.0809088840250642
-0.3952669987787766 1.1182478357388994
-0.41441001486385926 1.2302646908804051
-0.3569809666086112 1.3049425943080757
-0.3186949344384459 1.3422815460219109
-0.33783795052352855 1.3422815460219109
-0.3761239826936939 1.2302646908804051
-0.4718390631191072 1.19292573916657
-0.41441001486385926 1.3422815460219109
-0.41441001486385926 1.491637352877252
-0.41441001486385926 1.491637352877252
-0.4909820792041899 1.491637352877252
-0.5292681113743553 1.4542984011634166
-0.5101250952892726 1.5663152563049223
-0.5292681113743553 1.6409931597325929
-0.4909820792041899 1.7530100148740986
-0.5101250952892726 1.6409931597325929
-0.5101250952892726 1.6036542080187577
-0.5675541435445206 1.3796204977357462
-0.5866971596296033 1.3422815460219109
-0.5675541435445206 1.2302646908804051
-0.548411127459438 1.1555867874527346
-0.5101250952892726 1.1555867874527346
-0.5101250952892726 0.9315530771697231
-0.548411127459438 0.7448583186005469
-0.548411127459438 0.7448583186005469
-0.4718390631191072 0.8195362220282174
-0.41441001486385926 0.9315530771697231
-0.3761239826936939 0.8942141254558879
-0.3952669987787766 0.8942141254558879
-0.4335530309489419 0.8195362220282174
-0.4335530309489419 0.7821972703143821
-0.3761239826936939 0.8942141254558879
-0.33783795052352855 0.9688920288835584
-0.33783795052352855 0.8942141254558879
-0.41441001486385926 0.8195362220282174
-0.41441001486385926 0.7821972703143821
-0.45269604703402455 0.8568751737420527
-0.41441001486385926 0.8942141254558879
-0.3761239826936939 1.1182478357388994
-0.3761239826936939 1.0062309805973937
-0.3761239826936939 0.9315530771697231
-0.4335530309489419 0.8942141254558879
-0.3761239826936939 0.9688920288835584
-0.3569809666086112 1.1182478357388994
-0.26126588618319785 1.19292573916657
-0.2995519183533632 1.1555867874527346
-0.3569809666086112 1.0062309805973937
-0.41441001486385926 0.8942141254558879
-0.3761239826936939 1.0435699323112289
-0.3569809666086112 1.19292573916657
-0.2804089022682805 1.3049425943080757
-0.26126588618319785 1.2302646908804051
-0.3569809666086112 1.1555867874527346
-0.4335530309489419 1.0435699323112289
-0.4335530309489419 1.0435699323112289
-0.4718390631191072 1.1555867874527346
-0.3952669987787766 1.3049425943080757
-0.3569809666086112 1.19292573916657
-0.33783795052352855 1.1182478357388994
-0.4335530309489419 1.0435699323112289
-0.4718390631191072 1.0809088840250642
-0.45269604703402455 1.19292573916657
-0.3569809666086112 1.2676036425942403
-0.3569809666086112 1.2302646908804051
-0.4718390631191072 1.19292573916657
-0.4909820792041899 0.9688920288835584
-0.5101250952892726 0.9688920288835584
-0.5101250952892726 1.0435699323112289
-0.5292681113743553 1.1182478357388994
-0.5675541435445206 1.0809088840250642
-0.605840175714686 1.0062309805973937
-0.6632692239699339 0.8942141254558879
-0.6824122400550167 1.0062309805973937
-0.7015552561400993 1.0809088840250642
-0.6632692239699339 1.1182478357388994
-0.6632692239699339 1.19292573916657
-0.6441262078848513 1.1555867874527346
-0.720698272225182 1.2302646908804051
-0.7398412883102646 1.3049425943080757
-0.6632692239699339 1.2676036425942403
-0.5675541435445206 1.3049425943080757
-0.5292681113743553 1.1555867874527346
-0.5675541435445206 0.9315530771697231
-0.5675541435445206 0.8568751737420527
-0.6441262078848513 0.7448583186005469
-0.5866971596296033 0.7448583186005469
-0.4335530309489419 0.7075193668867117
-0.3952669987787766 0.6328414634590411
-0.45269604703402455 0.5208246083175354
-0.5101250952892726 0.4461467048898649
-0.5675541435445206 0.5208246083175354
-0.4909820792041899 0.6701804151728764
-0.45269604703402455 0.7448583186005469
-0.4335530309489419 0.7821972703143821
-0.41441001486385926 0.7075193668867117
-0.41441001486385926 0.6701804151728764
-0.4335530309489419 0.7075193668867117
-0.41441001486385926 0.6701804151728764
-0.4335530309489419 0.8568751737420527
-0.3761239826936939 0.9688920288835584
-0.3952669987787766 0.8195362220282174
-0.41441001486385926 0.8195362220282174
-0.41441001486385926 0.7448583186005469
-0.3761239826936939 0.7075193668867117
-0.3569809666086112 0.8942141254558879
-0.3952669987787766 1.0435699323112289
-0.4335530309489419 0.8942141254558879
-0.45269604703402455 0.7821972703143821
-0.4909820792041899 0.7821972703143821
-0.4718390631191072 0.8568751737420527
-0.3761239826936939 0.9315530771697231
-0.4335530309489419 0.9688920288835584
-0.45269604703402455 0.8942141254558879
-0.5101250952892726 0.8195362220282174
-0.5292681113743553 0.8195362220282174
-0.4718390631191072 0.8942141254558879
-0.4335530309489419 1.0062309805973937
-0.4335530309489419 1.0062309805973937
-0.45269604703402455 0.8942141254558879
-0.5101250952892726 0.8195362220282174
-0.548411127459438 0.7448583186005469
-0.5292681113743553 0.8568751737420527
-0.5101250952892726 0.8568751737420527
-0.5675541435445206 0.9688920288835584
-0.6249831917997686 0.9315530771697231
-0.6824122400550167 0.6701804151728764
-0.6824122400550167 0.8195362220282174
-0.7015552561400993 0.8942141254558879
-0.6632692239699339 0.8568751737420527
-0.6824122400550167 0.8942141254558879
-0.6824122400550167 0.7821972703143821
-0.6824122400550167 0.6328414634590411
-0.7015552561400993 0.6701804151728764
-0.720698272225182 0.7075193668867117
-0.6249831917997686 0.8195362220282174
-0.6441262078848513 0.7448583186005469
-0.6249831917997686 0.5208246083175354
-0.5101250952892726 0.3341298497483592
-0.26126588618319785 0.1474350911791829
0.15988046768862094 0.03541823603767717
0.6193128537306051 -0.03925966738999332
1.0213161915173412 -0.4126491845283458
1.4041765132189947 -0.748699749952863
1.7104647705803173 -1.0847503153773803
2.1124681083670533 -1.196767170518886
2.610186526579203 -1.196767170518886
3.1079049447913527 -1.2341061222327212
3.5673373308333365 -1.644834591084909
3.777910507769246 -2.092902011650932
3.8353395560244943 -2.3542746736477786
3.66305241125875 -2.3542746736477786
3.5673373308333365 -2.2049188667924375
3.414193202152675 -1.9062072530817558
3.127047960876435 -1.6074956393710738
2.5910435104941203 -1.196767170518886
1.8444658831758962 -0.8607166050943688
1.0596022236875065 -0.5620049913836868
0.44702570896486105 -0.15127652253149906
0.1215944355184556 0.1474350911791829
0.0067363390079595645 0.3341298497483592
-0.20383683792794982 0.5208246083175354
-0.3952669987787766 0.5955025117452059
-0.548411127459438 0.7448583186005469
-0.5675541435445206 0.8568751737420527
-0.605840175714686 1.0435699323112289
-0.5866971596296033 1.0062309805973937
-0.7589843043953474 0.8942141254558879
-0.7589843043953474 0.9688920288835584
-0.720698272225182 1.0435699323112289
-0.7398412883102646 1.0809088840250642
-0.7589843043953474 1.1182478357388994
-0.77812732048043 1.1182478357388994
-0.8738424009058434 1.0809088840250642
-0.950414465246174 1.0435699323112289
-0.950414465246174 1.0062309805973937
-0.9695574813312567 1.0809088840250642
-0.950414465246174 1.3049425943080757
-1.007843513501422 1.2302646908804051
-1.007843513501422 1.19292573916657
-1.0844155778417528 1.0809088840250642
-1.1418446260970008 1.0435699323112289
-1.1418446260970008 1.1555867874527346
-1.1609876421820835 1.2302646908804051
-1.1609876421820835 1.2302646908804051
-1.2184166904373315 1.1555867874527346
-1.2949887547776622 1.1182478357388994
-1.2949887547776622 1.19292573916657
-1.314131770862745 1.3422815460219109
-1.2758457386925794 1.3422815460219109
-1.2567027226074967 1.3422815460219109
-1.2949887547776622 1.2302646908804051
-1.3332747869478274 1.19292573916657
-1.3715608191179929 1.0435699323112289
-1.3524178030329101 1.1555867874527346
-1.2949887547776622 1.0809088840250642
-1.314131770862745 1.0062309805973937
-1.314131770862745 0.8195362220282174
-1.3524178030329101 0.7075193668867117
-1.3332747869478274 0.6328414634590411
-1.2949887547776622 0.5581635600313707
-1.2949887547776622 0.4834856566037002
-1.3332747869478274 0.4834856566037002
-1.2949887547776622 0.4088077531760297
-1.314131770862745 0.2967908980345239
-1.2567027226074967 0.3714688014621944
-1.2375597065224142 0.6701804151728764
-1.1609876421820835 0.7075193668867117
-1.1609876421820835 0.8568751737420527
-1.1609876421820835 0.7821972703143821
-1.1609876421820835 0.7821972703143821
-1.1801306582671662 0.7448583186005469
-1.1418446260970008 0.8942141254558879
-1.06527256175667 0.9315530771697231
-1.0269865295865048 0.9688920288835584
-1.06527256175667 0.8195362220282174
-1.06527256175667 0.8195362220282174
-1.1035585939268355 0.8942141254558879
-1.06527256175667 0.8195362220282174
-1.0269865295865048 0.9688920288835584
-0.950414465246174 0.9688920288835584
-0.9695574813312567 0.9315530771697231
-1.0269865295865048 0.8568751737420527
-1.0461295456715873 0.7821972703143821
-0.9887004974163394 0.9315530771697231
-0.9312714491610914 0.9688920288835584
-0.9312714491610914 0.9315530771697231
-0.8738424009058434 0.8942141254558879
-0.9312714491610914 0.8195362220282174
-0.9695574813312567 0.8195362220282174
-0.9121284330760088 1.0062309805973937
-0.892985416990926 1.0062309805973937
-0.892985416990926 0.9315530771697231
-0.9121284330760088 0.8942141254558879
-0.9121284330760088 0.8568751737420527
-0.9121284330760088 0.8568751737420527
-0.9887004974163394 0.8568751737420527
-0.9312714491610914 1.0062309805973937
-0.892985416990926 1.0435699323112289
-0.9121284330760088 0.8942141254558879
-0.9121284330760088 0.8568751737420527
-0.9887004974163394 0.8568751737420527
-0.9887004974163394 0.9688920288835584
-0.9121284330760088 1.0435699323112289
-0.8164133526505953 0.9688920288835584
-0.892985416990926 0.9315530771697231
-0.8546993848207607 0.9688920288835584
-0.892985416990926 0.9315530771697231
-0.8164133526505953 1.0062309805973937
-0.7972703365655127 1.0809088840250642
-0.7015552561400993 0.9315530771697231
-0.6632692239699339 0.8195362220282174
-0.6824122400550167 0.6701804151728764
-0.7015552561400993 0.5581635600313707
-0.6441262078848513 0.6328414634590411
-0.6249831917997686 0.7075193668867117
-0.5675541435445206 0.5581635600313707
-0.548411127459438 0.4088077531760297
-0.5866971596296033 0.2594519463206887
-0.5866971596296033 0.2221129946068534
-0.6441262078848513 0.3341298497483592
-0.5866971596296033 0.4834856566037002
-0.5101250952892726 0.5955025117452059
-0.4909820792041899 0.4834856566037002
-0.4909820792041899 0.5208246083175354
-0.548411127459438 0.6328414634590411
-0.4718390631191072 0.7075193668867117
-0.41441001486385926 0.8568751737420527
-0.3952669987787766 0.8568751737420527
-0.3569809666086112 0.7821972703143821
-0.3569809666086112 0.7448583186005469
-0.4335530309489419 0.7821972703143821
-0.41441001486385926 0.8568751737420527
-0.3569809666086112 1.0809088840250642
-0.3569809666086112 0.9688920288835584
-0.3761239826936939 0.9688920288835584
-0.3952669987787766 0.8195362220282174
-0.45269604703402455 0.8195362220282174
-0.45269604703402455 0.9688920288835584
-0.3761239826936939 1.0809088840250642
-0.33783795052352855 0.9688920288835584
-0.3569809666086112 0.9688920288835584
-0.3952669987787766 0.9688920288835584
-0.41441001486385926 0.9688920288835584
-0.3952669987787766 1.0809088840250642
-0.41441001486385926 1.3049425943080757
-0.3952669987787766 1.19292573916657
-0.4335530309489419 1.1182478357388994
-0.45269604703402455 0.9688920288835584
-0.4909820792041899 1.0062309805973937
-0.5101250952892726 1.0435699323112289
-0.5101250952892726 1.19292573916657
-0.5101250952892726 1.1555867874527346
-0.5292681113743553 1.2302646908804051
-0.605840175714686 1.0809088840250642
-0.6824122400550167 1.1555867874527346
-0.6824122400550167 1.19292573916657
-0.6632692239699339 1.3796204977357462
-0.6824122400550167 1.3422815460219109
-0.6632692239699339 1.2302646908804051
-0.6824122400550167 1.0435699323112289
-0.7015552561400993 1.0809088840250642
-0.7015552561400993 1.0062309805973937
-0.6441262078848513 1.0062309805973937
-0.6441262078848513 0.7448583186005469
-0.605840175714686 0.6701804151728764
-0.6632692239699339 0.5208246083175354
-0.6249831917997686 0.4834856566037002
-0.605840175714686 0.3714688014621944
-0.5675541435445206 0.4834856566037002
-0.5292681113743553 0.3341298497483592
-0.548411127459438 0.18477404289301816
-0.5675541435445206 0.1474350911791829
-0.548411127459438 0.18477404289301816
-0.548411127459438 0.2221129946068534
-0.4718390631191072 0.4834856566037002
-0.4335530309489419 0.6701804151728764
-0.4335530309489419 0.7075193668867117
-0.4718390631191072 0.5955025117452059
-0.4718390631191072 0.7075193668867117
-0.3952669987787766 0.7821972703143821
-0.33783795052352855 0.8195362220282174
-0.3186949344384459 0.8195362220282174
-0.3186949344384459 0.7821972703143821
-0.3569809666086112 0.7075193668867117
-0.3952669987787766 0.7448583186005469
-0.3761239826936939 0.7821972703143821
-0.2804089022682805 0.9315530771697231
-0.2804089022682805 0.8195362220282174
-0.2804089022682805 0.6701804151728764
-0.3186949344384459 0.7448583186005469
-0.33783795052352855 0.7821972703143821
-0.33783795052352855 0.8942141254558879
-0.3186949344384459 0.8195362220282174
-0.26126588618319785 1.0062309805973937
-0.3569809666086112 0.9315530771697231
-0.3569809666086112 0.8568751737420527
-0.3761239826936939 0.8195362220282174
-0.41441001486385926 0.8942141254558879
-0.3952669987787766 1.0062309805973937
-0.3569809666086112 1.0062309805973937
-0.3761239826936939 0.8568751737420527
-0.45269604703402455 0.7821972703143821
-0.4909820792041899 0.8195362220282174
-0.4718390631191072 0.8568751737420527
-0.4909820792041899 0.9315530771697231
-0.4718390631191072 0.8942141254558879
-0.5292681113743553 0.7448583186005469
-0.5866971596296033 0.7075193668867117
-0.6632692239699339 0.6328414634590411
-0.6824122400550167 0.7075193668867117
-0.605840175714686 0.8568751737420527
-0.5866971596296033 0.7821972703143821
-0.5675541435445206 0.6701804151728764
-0.605840175714686 0.4834856566037002
-0.605840175714686 0.4461467048898649
-0.5675541435445206 0.4461467048898649
-0.5101250952892726 0.5208246083175354
-0.4909820792041899 0.4834856566037002
-0.5101250952892726 0.2594519463206887
-0.5292681113743553 0.1474350911791829
-0.548411127459438 0.11009613946534767
-0.4909820792041899 0.11009613946534767
-0.4909820792041899 0.18477404289301816
-0.45269604703402455 0.1474350911791829
-0.4335530309489419 0.11009613946534767
-0.4909820792041899 0.1474350911791829
-0.45269604703402455 0.2594519463206887
-0.41441001486385926 0.4461467048898649
-0.3569809666086112 0.4834856566037002
-0.2804089022682805 0.5208246083175354
-0.2804089022682805 0.5581635600313707
-0.2995519183533632 0.4834856566037002
-0.3761239826936939 0.4834856566037002
-0.33783795052352855 0.5955025117452059
-0.3186949344384459 0.5955025117452059
-0.2804089022682805 0.6328414634590411
-0.3186949344384459 0.6328414634590411
-0.3186949344384459 0.5955025117452059
-0.3761239826936939 0.5208246083175354
-0.2995519183533632 0.5581635600313707
-0.24212287009811517 0.7075193668867117
-0.18469382184286717 0.7448583186005469
-0.24212287009811517 0.6701804151728764
-0.3186949344384459 0.5955025117452059
-0.3186949344384459 0.5581635600313707
-0.2995519183533632 0.6701804151728764
-0.24212287009811517 0.8568751737420527
-0.2804089022682805 0.7448583186005469
-0.2995519183533632 0.5955025117452059
-0.3569809666086112 0.6328414634590411
-0.3952669987787766 0.6328414634590411
-0.3761239826936939 0.7075193668867117
-0.33783795052352855 0.8195362220282174
-0.33783795052352855 0.7075193668867117
-0.3952669987787766 0.7075193668867117
-0.41441001486385926 0.6328414634590411
-0.5292681113743553 0.5955025117452059
-0.548411127459438 0.7075193668867117
-0.5101250952892726 0.7448583186005469
-0.4909820792041899 0.5955025117452059
-0.548411127459438 0.5581635600313707
-0.605840175714686 0.2967908980345239
-0.605840175714686 0.2221129946068534
-0.548411127459438 0.2967908980345239
-0.4909820792041899 0.2594519463206887
-0.41441001486385926 0.18477404289301816
-0.45269604703402455 -0.07659861910382858
-0.5101250952892726 -0.03925966738999332
-0.5866971596296033 -0.07659861910382858
-0.5866971596296033 -0.11393757081766383
-0.4909820792041899 -0.07659861910382858
-0.45269604703402455 -0.03925966738999332
-0.45269604703402455 -0.15127652253149906
-0.5101250952892726 -0.22595442595916956
-0.548411127459438 -0.1886154742453343
-0.4909820792041899 -0.07659861910382858
-0.41441001486385926 0.1474350911791829
-0.2995519183533632 0.2221129946068534
-0.2804089022682805 0.2221129946068534
-0.33783795052352855 0.1474350911791829
-0.3569809666086112 0.2221129946068534
-0.2804089022682805 0.3714688014621944
-0.20383683792794982 0.4834856566037002
-0.20383683792794982 0.5208246083175354
-0.2229798540130325 0.4834856566037002
-0.2804089022682805 0.4461467048898649
-0.2229798540130325 0.3341298497483592
0.04502237117812491 0.2594519463206887
0.4661687250499437 0.18477404289301816
0.9638871432620932 -0.07659861910382858
1.4233195293040772 -0.37531023281451054
1.7487508027504828 -0.748699749952863
2.093325092281971 -0.898055556808204
2.51447144615379 -0.9727334602358746
3.0504758965361045 -0.898055556808204
3.4524792343228405 -1.3087840256603918
3.797053523854329 -1.79419039794025
3.8353395560244943 -2.2795967702201083
3.777910507769246 -2.4289525770754494
3.586480346918419 -2.2795967702201083
3.37590716998251 -2.0182241082232615
3.1079049447913527 -1.5328177359434032
2.5336144622388725 -1.2714450739465566
1.7487508027504828 -0.8233776533805336
0.8681720628366798 -0.599343943097522
0.23645253202895164 -0.3006323293868401
0.025879355093042237 0.1474350911791829
-0.12726477358761915 0.2594519463206887
-0.2804089022682805 0.3714688014621944
-0.5101250952892726 0.4461467048898649
-0.720698272225182 0.5581635600313707
-0.7398412883102646 0.6701804151728764
-0.720698272225182 0.6328414634590411
-0.7398412883102646 0.6328414634590411
-0.7972703365655127 0.4088077531760297
-0.9121284330760088 0.2221129946068534
-0.9887004974163394 0.1474350911791829
-1.007843513501422 0.1474350911791829
-0.9887004974163394 0.2221129946068534
-0.9312714491610914 0.11009613946534767
-0.950414465246174 0.03541823603767717
-1.007843513501422 -0.03925966738999332
-1.0269865295865048 0.07275718775151242
-1.06527256175667 0.07275718775151242
-1.0269865295865048 0.18477404289301816
-1.0269865295865048 0.18477404289301816
-0.9887004974163394 0.07275718775151242
-1.0844155778417528 -0.07659861910382858
-1.1035585939268355 -0.07659861910382858
-1.0844155778417528 -0.03925966738999332
-1.1035585939268355 0.11009613946534767
-1.06527256175667 0.18477404289301816
-1.06527256175667 0.2221129946068534
-1.0461295456715873 0.2221129946068534
-1.1609876421820835 0.2967908980345239
-1.06527256175667 0.4834856566037002
-1.007843513501422 0.5955025117452059
-0.950414465246174 0.6328414634590411
-0.950414465246174 0.7075193668867117
-1.007843513501422 0.5955025117452059
-0.9887004974163394 0.5955025117452059
-0.9695574813312567 0.7448583186005469
-0.950414465246174 0.8195362220282174
-0.892985416990926 0.8942141254558879
-0.8546993848207607 0.7448583186005469
-0.8738424009058434 0.7821972703143821
-0.9312714491610914 0.7821972703143821
-0.9695574813312567 0.8942141254558879
-0.8738424009058434 0.9688920288835584
-0.8355563687356781 0.9315530771697231
-0.892985416990926 0.9315530771697231
-0.9121284330760088 0.8942141254558879
-0.950414465246174 0.8195362220282174
-1.007843513501422 0.8942141254558879
-0.9695574813312567 0.9315530771697231
-0.9121284330760088 0.8195362220282174
-0.9121284330760088 0.7075193668867117
-0.950414465246174 0.5208246083175354
-1.007843513501422 0.4461467048898649
-1.06527256175667 0.4834856566037002
-1.007843513501422 0.4834856566037002
-1.0269865295865048 0.5581635600313707
-1.0269865295865048 0.4461467048898649
-1.06527256175667 0.3341298497483592
-1.1609876421820835 0.2594519463206887
-1.1418446260970008 0.2594519463206887
-1.1418446260970008 0.4088077531760297
-1.1035585939268355 0.3341298497483592
-1.1035585939268355 0.2221129946068534
-1.1609876421820835 0.2221129946068534
-1.1801306582671662 0.2221129946068534
-1.1801306582671662 0.2967908980345239
-1.06527256175667 0.4834856566037002
-1.007843513501422 0.4834856566037002
-1.007843513501422 0.4834856566037002
-1.007843513501422 0.3714688014621944
-1.1035585939268355 0.4088077531760297
-1.0844155778417528 0.4088077531760297
-0.9695574813312567 0.5208246083175354
-0.892985416990926 0.4834856566037002
-0.8738424009058434 0.4088077531760297
-0.8546993848207607 0.2221129946068534
-0.950414465246174 0.1474350911791829
-0.892985416990926 0.2594519463206887
-0.77812732048043 0.4088077531760297
-0.7398412883102646 0.4834856566037002
-0.7015552561400993 0.4088077531760297
-0.6632692239699339 0.4088077531760297
-0.6824122400550167 0.4834856566037002
-0.605840175714686 0.6701804151728764
-0.5101250952892726 0.6701804151728764
-0.4335530309489419 0.6701804151728764
-0.45269604703402455 0.8195362220282174
-0.4909820792041899 0.6701804151728764
-0.4335530309489419 0.7448583186005469
-0.3952669987787766 0.9315530771697231
-0.33783795052352855 1.0809088840250642
-0.26126588618319785 1.0435699323112289
-0.2995519183533632 1.0062309805973937
-0.3569809666086112 0.8195362220282174
-0.3952669987787766 0.7821972703143821
-0.33783795052352855 0.8195362220282174
-0.33783795052352855 0.8942141254558879
-0.2804089022682805 0.7821972703143821
-0.26126588618319785 0.5955025117452059
-0.3761239826936939 0.3714688014621944
-0.33783795052352855 0.3341298497483592
-0.3761239826936939 0.2967908980345239
-0.33783795052352855 0.3714688014621944
-0.33783795052352855 0.1474350911791829
-0.3761239826936939 -0.0019207156761580741
-0.4909820792041899 -0.03925966738999332
-0.548411127459438 -0.15127652253149906
-0.5866971596296033 -0.11393757081766383
-0.5675541435445206 0.03541823603767717
-0.5675541435445206 -0.0019207156761580741
-0.605840175714686 -0.0019207156761580741
-0.6824122400550167 -0.03925966738999332
-0.7398412883102646 0.03541823603767717
-0.7398412883102646 0.03541823603767717
-0.6249831917997686 0.2594519463206887
-0.6249831917997686 0.2967908980345239
-0.6632692239699339 0.2967908980345239
-0.6632692239699339 0.2594519463206887
-0.6824122400550167 0.3341298497483592
-0.605840175714686 0.4461467048898649
-0.5866971596296033 0.5955025117452059
-0.5866971596296033 0.5955025117452059
-0.5292681113743553 0.4834856566037002
-0.605840175714686 0.4461467048898649
-0.5866971596296033 0.4461467048898649
-0.5292681113743553 0.4088077531760297
-0.4909820792041899 0.4834856566037002
-0.4335530309489419 0.5208246083175354
-0.4718390631191072 0.3714688014621944
-0.5101250952892726 0.4088077531760297
-0.4909820792041899 0.3714688014621944
-0.45269604703402455 0.4834856566037002
-0.4335530309489419 0.5955025117452059
-0.3952669987787766 0.6328414634590411
-0.41441001486385926 0.7075193668867117
-0.45269604703402455 0.5208246083175354
-0.4718390631191072 0.5955025117452059
-0.4718390631191072 0.7075193668867117
-0.33783795052352855 0.8568751737420527
-0.3186949344384459 0.8568751737420527
-0.3569809666086112 0.8568751737420527
-0.33783795052352855 0.8195362220282174
-0.3569809666086112 0.9315530771697231
-0.3186949344384459 0.9688920288835584
-0.2995519183533632 1.1182478357388994
-0.2995519183533632 1.1555867874527346
-0.3569809666086112 1.1182478357388994
-0.33783795052352855 1.1182478357388994
-0.4335530309489419 1.0809088840250642
-0.3569809666086112 1.0435699323112289
-0.3186949344384459 1.0435699323112289
-0.3952669987787766 0.8568751737420527
-0.3952669987787766 0.5208246083175354
-0.45269604703402455 0.2967908980345239
-0.4718390631191072 0.03541823603767717
-0.45269604703402455 0.07275718775151242
-0.4909820792041899 0.03541823603767717
-0.4335530309489419 -0.03925966738999332
-0.5101250952892726 -0.07659861910382858
-0.6441262078848513 -0.15127652253149906
-0.6441262078848513 -0.1886154742453343
-0.6632692239699339 -0.11393757081766383
-0.605840175714686 0.07275718775151242
-0.605840175714686 0.11009613946534767
-0.5866971596296033 0.11009613946534767
-0.6441262078848513 0.11009613946534767
-0.6249831917997686 0.11009613946534767
-0.605840175714686 0.18477404289301816
-0.605840175714686 0.2221129946068534
-0.548411127459438 0.2594519463206887
-0.548411127459438 0.1474350911791829
-0.5675541435445206 0.07275718775151242
-0.605840175714686 0.03541823603767717
-0.5866971596296033 0.1474350911791829
-0.4909820792041899 0.1474350911791829
-0.4909820792041899 0.03541823603767717
-0.4909820792041899 -0.0019207156761580741
-0.5675541435445206 0.03541823603767717
-0.5675541435445206 0.03541823603767717
-0.548411127459438 0.2221129946068534
-0.5101250952892726 0.2221129946068534
-0.4718390631191072 0.2594519463206887
-0.4335530309489419 0.3341298497483592
-0.4909820792041899 0.2221129946068534
-0.4335530309489419 0.18477404289301816
-0.4909820792041899 0.2594519463206887
-0.45269604703402455 0.3714688014621944
-0.3952669987787766 0.5208246083175354
-0.3569809666086112 0.4834856566037002
-0.3952669987787766 0.3341298497483592
-0.45269604703402455 0.4461467048898649
-0.3952669987787766 0.5208246083175354
-0.3952669987787766 0.5581635600313707
-0.33783795052352855 0.6701804151728764
-0.3569809666086112 0.5955025117452059
-0.33783795052352855 0.5581635600313707
-0.4335530309489419 0.5208246083175354
-0.45269604703402455 0.7075193668867117
-0.3952669987787766 0.7821972703143821
-0.3186949344384459 0.6701804151728764
-0.3569809666086112 0.5955025117452059
-0.4335530309489419 0.4461467048898649
-0.4335530309489419 0.3341298497483592
-0.45269604703402455 0.3341298497483592
-0.3761239826936939 0.1474350911791829
-0.33783795052352855 -0.0019207156761580741
-0.3761239826936939 -0.11393757081766383
-0.4718390631191072 -0.1886154742453343
-0.548411127459438 -0.15127652253149906
-0.5675541435445206 -0.3379712811006753
-0.3761239826936939 -0.3006323293868401
-0.12726477358761915 -0.5246660396698516
0.2555955481140343 -0.8607166050943688
0.6575988859007704 -1.2341061222327212
1.0787452397725892 -1.4581398325157329
1.44246254538916 -1.644834591084909
1.9018949314311442 -1.7568514462264149
2.3996133496432934 -1.6821735427987443
2.8590457356852776 -1.7568514462264149
3.2419060573869314 -2.0182241082232615
3.605623363003502 -2.57830838393079
3.8544825721095766 -2.8023420942138015
3.8544825721095766 -2.9516979010691426
3.7587674916841634 -2.9143589493553077
3.5099082825780887 -2.9516979010691426
3.1461909769615177 -2.727664190786131
2.667615574834451 -2.3542746736477786
1.8827519153460615 -1.7195124945125795
1.097888255857672 -1.3087840256603918
0.389596660709613 -1.196767170518886
-0.0889787414174538 -0.9727334602358746
-0.2995519183533632 -0.7860387016666983
-0.45269604703402455 -0.4873270879560163
-0.6632692239699339 -0.03925966738999332
-0.7972703365655127 0.1474350911791829
-0.8164133526505953 0.3714688014621944
-0.8355563687356781 0.4461467048898649
-0.8738424009058434 0.2594519463206887
-0.9312714491610914 0.2594519463206887
-1.007843513501422 0.4088077531760297
-1.007843513501422 0.4088077531760297
-0.9695574813312567 0.4834856566037002
-0.9887004974163394 0.4461467048898649
-1.0461295456715873 0.5208246083175354
-1.0844155778417528 0.5581635600313707
-1.1035585939268355 0.4834856566037002
-1.0461295456715873 0.5955025117452059
-0.9887004974163394 0.6328414634590411
-0.9695574813312567 0.5208246083175354
-1.0461295456715873 0.4834856566037002
-1.1035585939268355 0.3714688014621944
-1.1418446260970008 0.4088077531760297
-1.1035585939268355 0.4461467048898649
-1.0844155778417528 0.4834856566037002
-1.0269865295865048 0.3341298497483592
-1.1035585939268355 0.2594519463206887
-1.1418446260970008 0.2967908980345239
-1.1418446260970008 0.2221129946068534
-1.122701610011918 0.2594519463206887
-1.1418446260970008 0.2967908980345239
-1.1418446260970008 0.18477404289301816
-1.1801306582671662 0.1474350911791829
-1.2758457386925794 0.07275718775151242
-1.2758457386925794 0.1474350911791829
-1.2949887547776622 0.2594519463206887
-1.2949887547776622 0.2221129946068534
-1.314131770862745 0.1474350911791829
-1.3715608191179929 0.07275718775151242
-1.3907038352030756 0.07275718775151242
-1.4289898673732409 0.2221129946068534
-1.4289898673732409 0.3714688014621944
-1.4098468512881581 0.4461467048898649
-1.4289898673732409 0.4088077531760297
-1.4672758995434063 0.4088077531760297
-1.4864189156284888 0.4088077531760297
-1.4289898673732409 0.5208246083175354
-1.3907038352030756 0.5955025117452059
-1.314131770862745 0.5208246083175354
-1.314131770862745 0.4088077531760297
-1.3332747869478274 0.2221129946068534
-1.3524178030329101 0.18477404289301816
-1.3524178030329101 0.2594519463206887
-1.2949887547776622 0.3341298497483592
-1.2758457386925794 0.18477404289301816
-1.2375597065224142 0.1474350911791829
-1.2949887547776622 0.11009613946534767
-1.314131770862745 0.2221129946068534
-1.3332747869478274 0.3341298497483592
-1.2758457386925794 0.4088077531760297
-1.2184166904373315 0.4834856566037002
-1.2184166904373315 0.4834856566037002
-1.2567027226074967 0.3341298497483592
-1.1801306582671662 0.18477404289301816
-1.1609876421820835 0.3341298497483592
-1.1418446260970008 0.3714688014621944
-1.0844155778417528 0.2967908980345239
-1.06527256175667 0.2221129946068534
-1.0461295456715873 0.1474350911791829
-1.0461295456715873 0.1474350911791829
-0.9887004974163394 0.2594519463206887
-0.9887004974163394 0.3341298497483592
-0.9121284330760088 0.2594519463206887
-0.9121284330760088 0.2967908980345239
-0.892985416990926 0.18477404289301816
-0.9121284330760088 0.18477404289301816
-0.9121284330760088 0.2594519463206887
-0.7972703365655127 0.2967908980345239
-0.720698272225182 0.2594519463206887
-0.7398412883102646 0.2594519463206887
-0.720698272225182 0.2594519463206887
-0.77812732048043 0.18477404289301816
-0.7398412883102646 0.18477404289301816
-0.6632692239699339 0.3341298497483592
-0.548411127459438 0.2594519463206887
-0.605840175714686 0.1474350911791829
-0.6824122400550167 0.2221129946068534
-0.6824122400550167 0.1474350911791829
-0.6249831917997686 0.2594519463206887
-0.605840175714686 0.2594519463206887
-0.605840175714686 0.2594519463206887
-0.6632692239699339 0.2967908980345239
-0.7015552561400993 0.18477404289301816
-0.7589843043953474 0.18477404289301816
-0.7398412883102646 0.2594519463206887
-0.7398412883102646 0.3714688014621944
-0.720698272225182 0.2221129946068534
-0.7015552561400993 0.2967908980345239
-0.77812732048043 0.2221129946068534
-0.7972703365655127 0.2594519463206887
-0.77812732048043 0.3714688014621944
-0.7589843043953474 0.6328414634590411
-0.6824122400550167 0.5208246083175354
-0.6632692239699339 0.4834856566037002
-0.7015552561400993 0.2967908980345239
-0.7589843043953474 0.2594519463206887
-0.7589843043953474 0.2594519463206887
-0.7398412883102646 0.2221129946068534
-0.605840175714686 0.2221129946068534
-0.605840175714686 0.03541823603767717
-0.6824122400550167 -0.07659861910382858
-0.6824122400550167 -0.22595442595916956
-0.7015552561400993 -0.15127652253149906
-0.6632692239699339 -0.07659861910382858
-0.6824122400550167 -0.07659861910382858
-0.6441262078848513 -0.11393757081766383
-0.6632692239699339 -0.15127652253149906
-0.6824122400550167 -0.07659861910382858
-0.6441262078848513 0.11009613946534767
-0.6632692239699339 0.2221129946068534
-0.5675541435445206 0.2594519463206887
-0.5101250952892726 0.2221129946068534
-0.5675541435445206 0.07275718775151242
-0.605840175714686 0.1474350911791829
-0.6249831917997686 0.2594519463206887
-0.548411127459438 0.4461467048898649
-0.548411127459438 0.2967908980345239
-0.4909820792041899 0.2967908980345239
-0.5866971596296033 0.2594519463206887
-0.6249831917997686 0.2221129946068534
-0.5866971596296033 0.3714688014621944
-0.5866971596296033 0.4461467048898649
-0.548411127459438 0.3714688014621944
-0.6249831917997686 0.3341298497483592
-0.548411127459438 0.2594519463206887
-0.6249831917997686 0.2594519463206887
-0.605840175714686 0.3341298497483592
-0.5866971596296033 0.4088077531760297
-0.4909820792041899 0.5208246083175354
-0.5101250952892726 0.4461467048898649
-0.5866971596296033 0.2967908980345239
-0.6249831917997686 0.3341298497483592
-0.6441262078848513 0.4461467048898649
-0.605840175714686 0.4834856566037002
-0.6249831917997686 0.4461467048898649
-0.6441262078848513 0.3714688014621944
-0.720698272225182 0.4088077531760297
-0.7972703365655127 0.3714688014621944
-0.7972703365655127 0.3714688014621944
-0.720698272225182 0.4088077531760297
-0.6824122400550167 0.4088077531760297
-0.720698272225182 0.4461467048898649
-0.7589843043953474 0.4461467048898649
-0.7972703365655127 0.4088077531760297
-0.7398412883102646 0.5581635600313707
-0.7015552561400993 0.5581635600313707
-0.605840175714686 0.4834856566037002
-0.605840175714686 0.3714688014621944
-0.6824122400550167 0.2967908980345239
-0.6824122400550167 0.2221129946068534
-0.720698272225182 0.11009613946534767
-0.5866971596296033 0.18477404289301816
-0.5866971596296033 0.07275718775151242
-0.6441262078848513 -0.11393757081766383
-0.6824122400550167 -0.1886154742453343
-0.6824122400550167 -0.15127652253149906
-0.6824122400550167 -0.0019207156761580741
-0.6249831917997686 0.11009613946534767
-0.5866971596296033 0.03541823603767717
-0.5866971596296033 -0.11393757081766383
-0.5866971596296033 -0.07659861910382858
-0.6249831917997686 -0.15127652253149906
-0.5675541435445206 -0.1886154742453343
-0.548411127459438 -0.0019207156761580741
-0.5292681113743553 -0.0019207156761580741
-0.5866971596296033 -0.07659861910382858
-0.5866971596296033 -0.15127652253149906
-0.6441262078848513 -0.07659861910382858
-0.7015552561400993 -0.03925966738999332
-0.605840175714686 0.1474350911791829
-0.605840175714686 0.07275718775151242
-0.5101250952892726 0.03541823603767717
-0.5866971596296033 -0.07659861910382858
-0.605840175714686 -0.03925966738999332
-0.6249831917997686 0.07275718775151242
-0.6249831917997686 0.18477404289301816
-0.5675541435445206 0.18477404289301816
-0.5866971596296033 0.18477404289301816
-0.7015552561400993 0.1474350911791829
-0.7015552561400993 0.03541823603767717
-0.6824122400550167 0.18477404289301816
-0.605840175714686 0.2594519463206887
-0.605840175714686 0.1474350911791829
-0.5866971596296033 0.1474350911791829
-0.7015552561400993 0.11009613946534767
-0.7015552561400993 -0.0019207156761580741
-0.7398412883102646 0.18477404289301816
-0.7398412883102646 0.2967908980345239
-0.6632692239699339 0.2594519463206887
-0.7015552561400993 0.18477404289301816
-0.7398412883102646 0.11009613946534767
-0.7972703365655127 0.11009613946534767
-0.7972703365655127 0.3341298497483592
-0.77812732048043 0.5208246083175354
-0.77812732048043 0.5581635600313707
-0.7398412883102646 0.5208246083175354
-0.7398412883102646 0.2967908980345239
-0.7398412883102646 0.4461467048898649
-0.77812732048043 0.4834856566037002
-0.7589843043953474 0.4088077531760297
-0.6632692239699339 0.3341298497483592
-0.605840175714686 0.2594519463206887
-0.5866971596296033 0.1474350911791829
-0.6632692239699339 -0.11393757081766383
-0.6441262078848513 -0.22595442595916956
-0.6632692239699339 -0.1886154742453343
-0.6824122400550167 -0.07659861910382858
-0.6441262078848513 -0.15127652253149906
-0.6632692239699339 -0.3006323293868401
-0.6824122400550167 -0.3379712811006753
-0.6632692239699339 -0.22595442595916956
-0.6441262078848513 -0.11393757081766383
-0.5866971596296033 -0.11393757081766383
-0.605840175714686 -0.2632933776730048
-0.6632692239699339 -0.3379712811006753
-0.7015552561400993 -0.4126491845283458
-0.6249831917997686 -0.3006323293868401
-0.6249831917997686 -0.15127652253149906
-0.605840175714686 -0.3006323293868401
-0.5866971596296033 -0.22595442595916956
-0.6441262078848513 -0.2632933776730048
-0.6632692239699339 -0.22595442595916956
-0.6632692239699339 -0.1886154742453343
-0.6249831917997686 -0.03925966738999332
-0.605840175714686 -0.03925966738999332
-0.5675541435445206 -0.11393757081766383
-0.5101250952892726 -0.4126491845283458
-0.2229798540130325 -0.44998813624218104
0.1981664998587863 -0.599343943097522
0.7150279341560184 -0.748699749952863
1.2318893684532506 -0.9353945085220393
1.5956066740698214 -1.196767170518886
1.9976100118565574 -1.3834619290880623
2.4761854139836244 -1.495478784229568
2.9356178000256086 -1.6074956393710738
3.395050186067593 -1.943546204795591
3.605623363003502 -2.3169357219339437
3.586480346918419 -2.652986287358461
3.37590716998251 -2.7650031424999666
3.08876192870627 -2.652986287358461
2.7441876391747817 -2.3542746736477786
2.30389826921788 -1.79419039794025
1.672178738410152 -1.3087840256603918
0.7724569824112665 -0.8233776533805336
-0.012406677077123108 -0.6366828948113573
-0.45269604703402455 -0.44998813624218104
-0.605840175714686 -0.22595442595916956
-0.6824122400550167 0.03541823603767717
-0.8546993848207607 0.07275718775151242
-0.9887004974163394 0.07275718775151242
-1.06527256175667 -0.0019207156761580741
-1.1609876421820835 -0.11393757081766383
-1.1418446260970008 -0.0019207156761580741
-1.1418446260970008 -0.1886154742453343
-1.1609876421820835 -0.3006323293868401
-1.1801306582671662 -0.5246660396698516
-1.2567027226074967 -0.44998813624218104
-1.314131770862745 -0.4126491845283458
-1.3332747869478274 -0.3006323293868401
-1.3524178030329101 -0.15127652253149906
-1.2758457386925794 -0.07659861910382858
-1.1992736743522487 -0.11393757081766383
-1.314131770862745 -0.1886154742453343
-1.3332747869478274 -0.1886154742453343
-1.2758457386925794 -0.15127652253149906
-1.2567027226074967 -0.0019207156761580741
-1.2567027226074967 -0.03925966738999332
-1.2949887547776622 -0.03925966738999332
-1.4098468512881581 -0.0019207156761580741
-1.3715608191179929 -0.03925966738999332
-1.3332747869478274 -0.03925966738999332
-1.3524178030329101 0.11009613946534767
-1.3332747869478274 0.07275718775151242
-1.3332747869478274 0.07275718775151242
-1.3715608191179929 0.07275718775151242
-1.4864189156284888 0.07275718775151242
-1.4481328834583236 0.2221129946068534
-1.4098468512881581 0.2221129946068534
-1.3332747869478274 0.3714688014621944
-1.3332747869478274 0.3714688014621944
-1.4098468512881581 0.2221129946068534
-1.5247049477986543 0.3341298497483592
-1.5055619317135716 0.4834856566037002
-1.4864189156284888 0.5955025117452059
-1.4481328834583236 0.6328414634590411
-1.4481328834583236 0.5208246083175354
-1.5629909799688195 0.4834856566037002
-1.5629909799688195 0.5208246083175354
-1.5629909799688195 0.5955025117452059
-1.543847963883737 0.6328414634590411
-1.4864189156284888 0.5581635600313707
-1.5055619317135716 0.4461467048898649
-1.5821339960539023 0.3341298497483592
-1.658706060394233 0.1474350911791829
-1.601277012138985 0.2221129946068534
-1.5629909799688195 0.3341298497483592
-1.543847963883737 0.4088077531760297
-1.543847963883737 0.3714688014621944
-1.543847963883737 0.3341298497483592
-1.5821339960539023 0.2594519463206887
-1.5055619317135716 0.3341298497483592
-1.4864189156284888 0.2594519463206887
-1.4098468512881581 0.2967908980345239
-1.4672758995434063 0.2221129946068534
-1.4289898673732409 0.1474350911791829
-1.4481328834583236 0.07275718775151242
-1.4864189156284888 0.07275718775151242
-1.3907038352030756 0.1474350911791829
-1.3715608191179929 0.2221129946068534
-1.314131770862745 0.2594519463206887
-1.3524178030329101 0.11009613946534767
-1.3524178030329101 0.18477404289301816
-1.3715608191179929 0.1474350911791829
-1.2949887547776622 0.18477404289301816
-1.1992736743522487 0.2221129946068534
-1.1992736743522487 0.1474350911791829
-1.1418446260970008 0.11009613946534767
-1.1992736743522487 0.1474350911791829
-1.1418446260970008 0.1474350911791829
-1.1035585939268355 0.18477404289301816
-1.007843513501422 0.2967908980345239
-0.9887004974163394 0.2594519463206887
-0.9312714491610914 0.18477404289301816
-0.9887004974163394 0.2221129946068534
-0.9312714491610914 0.2221129946068534
-0.8738424009058434 0.4461467048898649
-0.8355563687356781 0.3341298497483592
-0.8355563687356781 0.4088077531760297
-0.8164133526505953 0.2967908980345239
-0.8164133526505953 0.2594519463206887
-0.8355563687356781 0.4088077531760297
-0.77812732048043 0.4834856566037002
-0.7589843043953474 0.5208246083175354
-0.7589843043953474 0.4834856566037002
-0.8546993848207607 0.3714688014621944
-0.8738424009058434 0.5208246083175354
-0.8738424009058434 0.6701804151728764
-0.8738424009058434 0.5581635600313707
-0.77812732048043 0.3714688014621944
-0.8164133526505953 0.1474350911791829
-0.9312714491610914 -0.0019207156761580741
-0.9887004974163394 -0.03925966738999332
-0.9121284330760088 -0.03925966738999332
-0.9312714491610914 -0.11393757081766383
-0.9121284330760088 -0.11393757081766383
-0.9695574813312567 -0.22595442595916956
-0.9887004974163394 -0.22595442595916956
-1.06527256175667 -0.15127652253149906
-1.0269865295865048 0.03541823603767717
-1.007843513501422 0.11009613946534767
-0.9695574813312567 0.2221129946068534
-0.892985416990926 0.2594519463206887
-0.9312714491610914 0.1474350911791829
-0.9312714491610914 0.18477404289301816
-1.007843513501422 0.2967908980345239
-0.9312714491610914 0.3341298497483592
-0.892985416990926 0.2967908980345239
-0.9121284330760088 0.2594519463206887
-0.9121284330760088 0.2594519463206887
-0.9695574813312567 0.18477404289301816
-0.950414465246174 0.2594519463206887
-0.892985416990926 0.2221129946068534
-0.9121284330760088 0.2594519463206887
-0.8164133526505953 0.1474350911791829
-0.892985416990926 0.2221129946068534
-0.9312714491610914 0.2221129946068534
-0.8546993848207607 0.2594519463206887
-0.8164133526505953 0.3341298497483592
-0.77812732048043 0.4461467048898649
-0.7972703365655127 0.4461467048898649
-0.8546993848207607 0.4088077531760297
-0.9121284330760088 0.4088077531760297
-0.8738424009058434 0.4461467048898649
-0.7972703365655127 0.5208246083175354
-0.7398412883102646 0.5581635600313707
-0.7589843043953474 0.4834856566037002
-0.7972703365655127 0.4461467048898649
-0.8164133526505953 0.4461467048898649
-0.7972703365655127 0.4461467048898649
-0.7589843043953474 0.5581635600313707
-0.720698272225182 0.5581635600313707
-0.7589843043953474 0.4834856566037002
-0.8164133526505953 0.3714688014621944
-0.8546993848207607 0.18477404289301816
-0.8738424009058434 0.2967908980345239
-0.8355563687356781 0.3341298497483592
-0.7015552561400993 0.1474350911791829
-0.720698272225182 -0.0019207156761580741
-0.7972703365655127 -0.11393757081766383
-0.8546993848207607 -0.15127652253149906
-0.8546993848207607 -0.11393757081766383
-0.8546993848207607 -0.07659861910382858
-0.8355563687356781 -0.03925966738999332
-0.8738424009058434 -0.07659861910382858
-0.8546993848207607 -0.07659861910382858
-0.9312714491610914 -0.07659861910382858
-0.9887004974163394 -0.0019207156761580741
-0.9312714491610914 0.11009613946534767
-0.8738424009058434 0.1474350911791829
-0.8738424009058434 0.11009613946534767
-0.9312714491610914 0.11009613946534767
-0.950414465246174 0.2594519463206887
-0.9312714491610914 0.4834856566037002
-0.8738424009058434 0.5208246083175354
-0.8164133526505953 0.5955025117452059
-0.7972703365655127 0.4461467048898649
-0.8546993848207607 0.4834856566037002
-0.9121284330760088 0.4461467048898649
-0.892985416990926 0.4088077531760297
-0.8546993848207607 0.5581635600313707
-0.8355563687356781 0.5581635600313707
-0.7972703365655127 0.4834856566037002
-0.8164133526505953 0.3714688014621944
-0.8546993848207607 0.2221129946068534
-0.892985416990926 0.2594519463206887
-0.7972703365655127 0.5208246083175354
-0.7589843043953474 0.4834856566037002
-0.7398412883102646 0.4461467048898649
-0.77812732048043 0.3341298497483592
-0.7972703365655127 0.3341298497483592
-0.8164133526505953 0.4461467048898649
-0.7398412883102646 0.5581635600313707
-0.6824122400550167 0.5208246083175354
-0.6441262078848513 0.4088077531760297
-0.7589843043953474 0.3341298497483592
-0.77812732048043 0.3341298497483592
-0.77812732048043 0.4088077531760297
-0.7398412883102646 0.5208246083175354
-0.6632692239699339 0.5208246083175354
-0.6824122400550167 0.3714688014621944
-0.7589843043953474 0.2221129946068534
-0.8164133526505953 -0.07659861910382858
-0.7589843043953474 -0.1886154742453343
-0.6824122400550167 -0.22595442595916956
-0.5675541435445206 -0.3006323293868401
-0.605840175714686 -0.44998813624218104
-0.6824122400550167 -0.4873270879560163
-0.7398412883102646 -0.5620049913836868
-0.7398412883102646 -0.4873270879560163
-0.720698272225182 -0.4873270879560163
-0.7015552561400993 -0.4126491845283458
-0.7398412883102646 -0.4873270879560163
-0.7589843043953474 -0.4873270879560163
-0.720698272225182 -0.5620049913836868
-0.7589843043953474 -0.4873270879560163
-0.7015552561400993 -0.37531023281451054
-0.7015552561400993 -0.4126491845283458
-0.7398412883102646 -0.44998813624218104
-0.8164133526505953 -0.4873270879560163
-0.8546993848207607 -0.44998813624218104
-0.892985416990926 -0.44998813624218104
-0.8355563687356781 -0.2632933776730048
-0.7589843043953474 -0.11393757081766383
-0.7398412883102646 -0.03925966738999332
-0.77812732048043 -0.15127652253149906
-0.7972703365655127 -0.0019207156761580741
-0.7398412883102646 0.11009613946534767
-0.7015552561400993 0.2221129946068534
-0.6441262078848513 0.2967908980345239
-0.6249831917997686 0.1474350911791829
-0.6441262078848513 0.07275718775151242
-0.6824122400550167 0.11009613946534767
-0.6632692239699339 0.2221129946068534
-0.6249831917997686 0.2967908980345239
-0.6441262078848513 0.3714688014621944
-0.6632692239699339 0.1474350911791829
-0.6824122400550167 -0.0019207156761580741
-0.5866971596296033 -0.03925966738999332
-0.18469382184286717 -0.07659861910382858
0.27473856419911696 -0.3006323293868401
0.7724569824112665 -0.5246660396698516
1.1936033362830853 -0.9353945085220393
1.5573206418996561 -1.2341061222327212
2.035896044026723 -1.5328177359434032
2.5910435104941203 -1.6821735427987443
3.1461909769615177 -1.79419039794025
3.586480346918419 -2.1675799150786026
3.7587674916841634 -2.57830838393079
3.797053523854329 -2.9516979010691426
3.586480346918419 -3.0637147562106484
3.37590716998251 -2.9143589493553077
3.012189864365939 -2.57830838393079
2.495328430068707 -2.130240963364767
1.672178738410152 -1.8315293496540852
0.7150279341560184 -1.4208008808018975
0.04502237117812491 -1.1220892670912155
-0.24212287009811517 -0.898055556808204
-0.33783795052352855 -0.5620049913836868
-0.4718390631191072 -0.44998813624218104
-0.7015552561400993 -0.37531023281451054
-0.8546993848207607 -0.3379712811006753
-0.9312714491610914 -0.3379712811006753
-0.8738424009058434 -0.15127652253149906
-0.892985416990926 -0.11393757081766383
-0.9312714491610914 -0.07659861910382858
-0.9695574813312567 -0.03925966738999332
-1.0461295456715873 -0.1886154742453343
-1.1418446260970008 -0.11393757081766383
-1.2567027226074967 0.03541823603767717
-1.1992736743522487 0.1474350911791829
-1.1992736743522487 0.1474350911791829
-1.2567027226074967 0.2967908980345239
-1.314131770862745 0.2594519463206887
-1.3524178030329101 0.3341298497483592
-1.3524178030329101 0.5581635600313707
-1.3332747869478274 0.6701804151728764
-1.2758457386925794 0.7821972703143821
-1.314131770862745 0.8195362220282174
-1.2949887547776622 0.7448583186005469
-1.2758457386925794 0.8195362220282174
-1.2949887547776622 0.8568751737420527
-1.3332747869478274 0.8568751737420527
-1.2375597065224142 0.8942141254558879
-1.314131770862745 0.8942141254558879
-1.314131770862745 0.8195362220282174
-1.2949887547776622 0.6701804151728764
-1.2949887547776622 0.5955025117452059
-1.2949887547776622 0.7075193668867117
-1.314131770862745 0.7448583186005469
-1.2567027226074967 0.6701804151728764
-1.2949887547776622 0.5955025117452059
-1.3332747869478274 0.5208246083175354
-1.3332747869478274 0.5581635600313707
-1.2758457386925794 0.5955025117452059
-1.2184166904373315 0.4834856566037002
-1.1992736743522487 0.1474350911791829
-1.2375597065224142 -0.0019207156761580741
-1.2567027226074967 -0.11393757081766383
-1.2375597065224142 -0.1886154742453343
-1.1992736743522487 -0.15127652253149906
-1.1418446260970008 -0.22595442595916956
-1.1418446260970008 -0.2632933776730048
-1.1609876421820835 -0.3379712811006753
-1.122701610011918 -0.37531023281451054
-1.1801306582671662 -0.3006323293868401
-1.122701610011918 -0.1886154742453343
-1.06527256175667 -0.11393757081766383
-1.007843513501422 -0.22595442595916956
-1.06527256175667 -0.3379712811006753
-1.06527256175667 -0.3379712811006753
-1.1035585939268355 -0.3379712811006753
-1.0461295456715873 -0.15127652253149906
-1.0269865295865048 -0.15127652253149906
-1.007843513501422 -0.22595442595916956
-0.9887004974163394 -0.2632933776730048
-1.06527256175667 -0.2632933776730048
-1.06527256175667 -0.15127652253149906
-1.0269865295865048 -0.11393757081766383
-1.007843513501422 -0.07659861910382858
-1.0269865295865048 -0.11393757081766383
-1.06527256175667 -0.11393757081766383
-1.1418446260970008 -0.07659861910382858
-1.122701610011918 0.11009613946534767
-1.1035585939268355 0.18477404289301816
-1.06527256175667 0.1474350911791829
-1.0269865295865048 0.2221129946068534
-1.06527256175667 0.2594519463206887
-1.1035585939268355 0.2594519463206887
-1.06527256175667 0.4834856566037002
-1.007843513501422 0.5955025117452059
-0.950414465246174 0.7075193668867117
-0.8738424009058434 0.7075193668867117
-0.892985416990926 0.6328414634590411
-0.8164133526505953 0.8568751737420527
-0.7972703365655127 0.9688920288835584
-0.77812732048043 1.1182478357388994
-0.6824122400550167 1.0435699323112289
-0.6441262078848513 1.0435699323112289
-0.6249831917997686 1.0062309805973937
-0.6824122400550167 0.9315530771697231
-0.6632692239699339 1.0062309805973937
-0.6441262078848513 1.0435699323112289
-0.5866971596296033 0.9688920288835584
-0.6249831917997686 0.8942141254558879
-0.605840175714686 0.7075193668867117
-0.6249831917997686 0.5955025117452059
-0.6249831917997686 0.5208246083175354
-0.605840175714686 0.5955025117452059
-0.605840175714686 0.5208246083175354
-0.548411127459438 0.4834856566037002
-0.5101250952892726 0.3714688014621944
-0.5101250952892726 0.2967908980345239
-0.5675541435445206 0.3714688014621944
-0.5292681113743553 0.3341298497483592
-0.4718390631191072 0.4088077531760297
-0.4335530309489419 0.3714688014621944
-0.4718390631191072 0.3714688014621944
-0.5866971596296033 0.3714688014621944
-0.5101250952892726 0.4834856566037002
-0.45269604703402455 0.5581635600313707
-0.4335530309489419 0.5581635600313707
-0.45269604703402455 0.5955025117452059
-0.4909820792041899 0.5208246083175354
-0.5101250952892726 0.5581635600313707
-0.548411127459438 0.5955025117452059
-0.5101250952892726 0.7448583186005469
-0.5292681113743553 0.8195362220282174
-0.5675541435445206 0.7448583186005469
-0.605840175714686 0.6328414634590411
-0.605840175714686 0.6328414634590411
-0.5866971596296033 0.7448583186005469
-0.548411127459438 0.7075193668867117
-0.5866971596296033 0.7821972703143821
-0.5675541435445206 0.7448583186005469
-0.605840175714686 0.6328414634590411
-0.6632692239699339 0.6701804151728764
-0.7015552561400993 0.8195362220282174
-0.7015552561400993 0.8568751737420527
-0.6632692239699339 1.0062309805973937
-0.6824122400550167 0.8942141254558879
-0.720698272225182 0.8568751737420527
-0.7398412883102646 0.8568751737420527
-0.7398412883102646 0.9688920288835584
-0.720698272225182 1.19292573916657
-0.6249831917997686 1.19292573916657
-0.5866971596296033 1.1555867874527346
-0.5866971596296033 1.0435699323112289
-0.6824122400550167 1.0062309805973937
-0.6249831917997686 0.9315530771697231
-0.5101250952892726 0.8568751737420527
-0.45269604703402455 0.8942141254558879
-0.4335530309489419 0.7448583186005469
-0.4718390631191072 0.6328414634590411
-0.5292681113743553 0.5955025117452059
-0.548411127459438 0.7075193668867117
-0.4909820792041899 0.7821972703143821
-0.5292681113743553 0.7821972703143821
-0.4909820792041899 0.7821972703143821
-0.4909820792041899 0.6328414634590411
-0.548411127459438 0.6328414634590411
-0.5292681113743553 0.8195362220282174
-0.4909820792041899 0.8195362220282174
-0.3761239826936939 0.8568751737420527
-0.4335530309489419 0.8568751737420527
-0.4909820792041899 0.7448583186005469
-0.4718390631191072 0.7448583186005469
-0.4909820792041899 0.8568751737420527
-0.41441001486385926 0.8942141254558879
-0.41441001486385926 0.8942141254558879
-0.45269604703402455 0.8568751737420527
-0.3761239826936939 0.8568751737420527
-0.45269604703402455 0.7821972703143821
-0.41441001486385926 0.8568751737420527
-0.3952669987787766 0.9315530771697231
-0.3952669987787766 0.9688920288835584
-0.45269604703402455 0.8942141254558879
-0.4335530309489419 0.8195362220282174
-0.4335530309489419 0.7448583186005469
-0.4335530309489419 0.8568751737420527
-0.4335530309489419 0.8942141254558879
-0.3952669987787766 0.9315530771697231
-0.4335530309489419 0.8195362220282174
-0.41441001486385926 0.7821972703143821
-0.5292681113743553 0.8195362220282174
-0.5101250952892726 0.7821972703143821
-0.4718390631191072 0.8942141254558879
-0.45269604703402455 0.8942141254558879
-0.548411127459438 0.8568751737420527
-0.5675541435445206 0.7821972703143821
-0.5866971596296033 0.7075193668867117
-0.5292681113743553 0.6328414634590411
-0.5675541435445206 0.7821972703143821
-0.548411127459438 0.7448583186005469
-0.548411127459438 0.7075193668867117
-0.548411127459438 0.5581635600313707
-0.605840175714686 0.5208246083175354
-0.605840175714686 0.5955025117452059
-0.548411127459438 0.5581635600313707
-0.5675541435445206 0.4834856566037002
-0.5101250952892726 0.3341298497483592
-0.5866971596296033 0.2594519463206887
-0.6249831917997686 0.2221129946068534
-0.548411127459438 0.18477404289301816
-0.5101250952892726 0.2967908980345239
-0.45269604703402455 0.2967908980345239
-0.5101250952892726 0.18477404289301816
-0.5101250952892726 0.11009613946534767
-0.548411127459438 0.03541823603767717
-0.5675541435445206 0.1474350911791829
-0.4718390631191072 0.2967908980345239
-0.2804089022682805 0.2221129946068534
-0.012406677077123108 0.07275718775151242
0.35131062853944767 -0.1886154742453343
0.7724569824112665 -0.37531023281451054
1.327604448878664 -0.5620049913836868
1.7678938188355655 -0.898055556808204
2.3421843013880457 -1.0100724119497098
2.839902719600195 -1.1220892670912155
3.299335105642179 -1.346122977374227
3.7587674916841634 -1.8688683013679206
4.065055749045486 -2.391613625361614
4.23734289381123 -2.5036304805031198
4.122484797300734 -2.6156473356446255
3.797053523854329 -2.391613625361614
3.433336218237758 -2.2049188667924375
2.80161668743003 -1.6821735427987443
1.9401809636013094 -1.0847503153773803
1.0213161915173412 -0.7113607982390278
0.29388158028419964 -0.3379712811006753
-0.0889787414174538 -0.22595442595916956
-0.26126588618319785 -0.07659861910382858
-0.4335530309489419 0.11009613946534767
-0.6441262078848513 0.3714688014621944
-0.7015552561400993 0.5208246083175354
-0.720698272225182 0.6328414634590411
-0.720698272225182 0.5208246083175354
-0.8164133526505953 0.4461467048898649
-0.9121284330760088 0.3341298497483592
-0.950414465246174 0.4088077531760297
-1.0269865295865048 0.4461467048898649
-1.007843513501422 0.5208246083175354
-1.0269865295865048 0.4461467048898649
-1.0844155778417528 0.4461467048898649
-1.1609876421820835 0.4088077531760297
-1.1801306582671662 0.5581635600313707
-1.1609876421820835 0.5581635600313707
-1.1418446260970008 0.5581635600313707
-1.1418446260970008 0.6701804151728764
-1.1609876421820835 0.6328414634590411
-1.1418446260970008 0.6701804151728764
-1.1801306582671662 0.6701804151728764
-1.1418446260970008 0.8568751737420527
-1.1801306582671662 0.8568751737420527
-1.1609876421820835 0.6701804151728764
-1.1801306582671662 0.7448583186005469
-1.1801306582671662 0.6328414634590411
-1.1801306582671662 0.7075193668867117
-1.1418446260970008 0.7075193668867117
-1.122701610011918 0.6701804151728764
-1.1609876421820835 0.6328414634590411
-1.1992736743522487 0.5955025117452059
-1.2758457386925794 0.5581635600313707
-1.314131770862745 0.6701804151728764
-1.2949887547776622 0.7448583186005469
-1.2567027226074967 0.7075193668867117
-1.1992736743522487 0.7075193668867117
-1.2375597065224142 0.5208246083175354
-1.2375597065224142 0.4461467048898649
-1.2567027226074967 0.4461467048898649
-1.1992736743522487 0.4461467048898649
-1.1609876421820835 0.4461467048898649
-1.1418446260970008 0.4834856566037002
-1.1801306582671662 0.3714688014621944
-1.1801306582671662 0.3341298497483592
-1.1801306582671662 0.4088077531760297
-1.1418446260970008 0.5208246083175354
-1.1418446260970008 0.4088077531760297
-1.1418446260970008 0.3714688014621944
-1.1418446260970008 0.2967908980345239
-1.1609876421820835 0.2967908980345239
-1.1609876421820835 0.2967908980345239
-1.1035585939268355 0.2967908980345239
-1.0844155778417528 0.18477404289301816
-1.0269865295865048 0.11009613946534767
-1.06527256175667 -0.0019207156761580741
-1.1801306582671662 0.03541823603767717
-1.1035585939268355 -0.0019207156761580741
-1.06527256175667 -0.0019207156761580741
-1.007843513501422 0.03541823603767717
-1.0461295456715873 -0.03925966738999332
-1.1035585939268355 -0.11393757081766383
-1.1801306582671662 -0.0019207156761580741
-1.1609876421820835 -0.03925966738999332
-1.1035585939268355 -0.03925966738999332
-1.0844155778417528 0.03541823603767717
-1.0461295456715873 0.03541823603767717
-1.06527256175667 0.03541823603767717
-1.0461295456715873 0.03541823603767717
-1.007843513501422 0.1474350911791829
-0.892985416990926 0.2967908980345239
-0.8738424009058434 0.2967908980345239
-0.8355563687356781 0.2967908980345239
-0.77812732048043 0.2221129946068534
-0.8164133526505953 0.18477404289301816
-0.77812732048043 0.3714688014621944
-0.7015552561400993 0.3714688014621944
-0.6249831917997686 0.3714688014621944
-0.6441262078848513 0.2967908980345239
-0.6632692239699339 0.2221129946068534
-0.6824122400550167 0.2221129946068534
-0.6249831917997686 0.2594519463206887
-0.605840175714686 0.3714688014621944
-0.5675541435445206 0.3714688014621944
-0.5675541435445206 0.3341298497483592
-0.548411127459438 0.18477404289301816
-0.5866971596296033 0.18477404289301816
-0.548411127459438 0.18477404289301816
-0.5292681113743553 0.2594519463206887
-0.4909820792041899 0.1474350911791829
-0.5101250952892726 0.2221129946068534
-0.5292681113743553 0.07275718775151242
-0.548411127459438 -0.03925966738999332
-0.5292681113743553 0.03541823603767717
-0.5292681113743553 0.03541823603767717
-0.4718390631191072 0.07275718775151242
-0.5292681113743553 -0.0019207156761580741
-0.5292681113743553 -0.03925966738999332
-0.5292681113743553 -0.15127652253149906
-0.548411127459438 -0.03925966738999332
-0.5292681113743553 0.03541823603767717
-0.4718390631191072 0.11009613946534767
-0.5101250952892726 0.11009613946534767
-0.5101250952892726 -0.03925966738999332
-0.4909820792041899 -0.0019207156761580741
-0.548411127459438 0.07275718775151242
-0.4718390631191072 0.18477404289301816
-0.4718390631191072 0.2967908980345239
-0.5101250952892726 0.18477404289301816
-0.5675541435445206 0.18477404289301816
-0.5866971596296033 0.1474350911791829
-0.6249831917997686 0.2594519463206887
-0.605840175714686 0.3341298497483592
-0.548411127459438 0.4088077531760297
-0.6249831917997686 0.4088077531760297
-0.6249831917997686 0.4088077531760297
-0.7015552561400993 0.4834856566037002
-0.6441262078848513 0.5581635600313707
-0.6441262078848513 0.7075193668867117
-0.6249831917997686 0.7821972703143821
-0.5675541435445206 0.8195362220282174
-0.6249831917997686 0.6701804151728764
-0.6632692239699339 0.5955025117452059
-0.6824122400550167 0.5955025117452059
-0.605840175714686 0.6328414634590411
-0.5292681113743553 0.5581635600313707
-0.548411127459438 0.3714688014621944
-0.5866971596296033 0.11009613946534767
-0.5866971596296033 -0.07659861910382858
-0.5866971596296033 -0.0019207156761580741
-0.548411127459438 -0.0019207156761580741
-0.5101250952892726 0.03541823603767717
-0.5101250952892726 -0.03925966738999332
-0.5292681113743553 -0.07659861910382858
-0.6249831917997686 -0.1886154742453343
-0.6632692239699339 -0.11393757081766383
-0.5101250952892726 -0.11393757081766383
-0.4909820792041899 -0.15127652253149906
-0.45269604703402455 -0.15127652253149906
-0.4909820792041899 -0.15127652253149906
-0.5101250952892726 -0.22595442595916956
-0.5292681113743553 -0.07659861910382858
-0.4909820792041899 0.1474350911791829
-0.41441001486385926 0.03541823603767717
-0.4335530309489419 0.03541823603767717
-0.45269604703402455 -0.03925966738999332
-0.45269604703402455 -0.03925966738999332
-0.45269604703402455 0.2221129946068534
-0.4718390631191072 0.2221129946068534
-0.3761239826936939 0.18477404289301816
-0.3761239826936939 0.1474350911791829
-0.45269604703402455 -0.0019207156761580741
-0.4718390631191072 -0.03925966738999332
-0.5292681113743553 0.11009613946534767
-0.4718390631191072 0.18477404289301816
-0.41441001486385926 0.2594519463206887
-0.45269604703402455 0.07275718775151242
-0.4718390631191072 -0.03925966738999332
-0.5101250952892726 -0.11393757081766383
-0.548411127459438 -0.11393757081766383
-0.5101250952892726 0.03541823603767717
-0.548411127459438 0.11009613946534767
-0.605840175714686 -0.0019207156761580741
-0.6249831917997686 -0.0019207156761580741
-0.6824122400550167 -0.0019207156761580741
-0.6441262078848513 0.03541823603767717
-0.5866971596296033 0.18477404289301816
-0.5675541435445206 0.1474350911791829
-0.5866971596296033 0.1474350911791829
-0.6249831917997686 0.11009613946534767
-0.6249831917997686 0.03541823603767717
-0.605840175714686 0.18477404289301816
-0.5292681113743553 0.18477404289301816
-0.548411127459438 0.18477404289301816
-0.548411127459438 -0.0019207156761580741
-0.605840175714686 -0.15127652253149906
-0.5866971596296033 -0.15127652253149906
-0.5866971596296033 -0.11393757081766383
-0.5675541435445206 -0.11393757081766383
-0.5101250952892726 -0.3006323293868401
-0.5101250952892726 -0.3006323293868401
-0.5675541435445206 -0.3006323293868401
-0.5675541435445206 -0.2632933776730048
-0.605840175714686 -0.3006323293868401
-0.5101250952892726 -0.11393757081766383
-0.4718390631191072 -0.15127652253149906
-0.5101250952892726 -0.1886154742453343
-0.5675541435445206 -0.1886154742453343
-0.548411127459438 -0.2632933776730048
-0.548411127459438 -0.3006323293868401
-0.5292681113743553 -0.22595442595916956
-0.5101250952892726 -0.11393757081766383
-0.5866971596296033 -0.1886154742453343
-0.5675541435445206 -0.22595442595916956
-0.5866971596296033 -0.1886154742453343
-0.5866971596296033 -0.07659861910382858
-0.5675541435445206 -0.0019207156761580741
-0.5292681113743553 0.07275718775151242
-0.5292681113743553 -0.07659861910382858
-0.548411127459438 -0.11393757081766383
-0.5866971596296033 -0.15127652253149906
-0.605840175714686 0.03541823603767717
-0.548411127459438 -0.0019207156761580741
-0.5101250952892726 -0.03925966738999332
-0.5675541435445206 -0.07659861910382858
-0.5292681113743553 -0.11393757081766383
-0.6249831917997686 -0.1886154742453343
-0.6249831917997686 -0.11393757081766383
-0.5866971596296033 -0.07659861910382858
-0.5675541435445206 -0.11393757081766383
-0.5866971596296033 -0.22595442595916956
-0.6824122400550167 -0.2632933776730048
-0.7398412883102646 -0.22595442595916956
-0.7398412883102646 -0.15127652253149906
-0.6824122400550167 -0.0019207156761580741
-0.6441262078848513 0.03541823603767717
-0.6632692239699339 0.03541823603767717
-0.6632692239699339 -0.0019207156761580741
-0.6249831917997686 0.07275718775151242
-0.6441262078848513 0.11009613946534767
-0.605840175714686 0.07275718775151242
-0.548411127459438 0.11009613946534767
-0.5292681113743553 -0.07659861910382858
-0.5292681113743553 -0.22595442595916956
-0.5675541435445206 -0.3379712811006753
-0.605840175714686 -0.3006323293868401
-0.548411127459438 -0.2632933776730048
-0.5292681113743553 -0.15127652253149906
-0.5675541435445206 -0.11393757081766383
-0.5292681113743553 -0.22595442595916956
-0.5292681113743553 -0.1886154742453343
-0.5675541435445206 -0.11393757081766383
-0.4718390631191072 -0.15127652253149906
-0.4718390631191072 -0.15127652253149906
-0.4335530309489419 -0.15127652253149906
-0.4909820792041899 -0.3006323293868401
-0.4718390631191072 -0.22595442595916956
-0.4718390631191072 -0.1886154742453343
-0.45269604703402455 -0.11393757081766383
-0.41441001486385926 -0.11393757081766383
-0.3952669987787766 -0.15127652253149906
-0.3761239826936939 -0.3006323293868401
-0.41441001486385926 -0.3006323293868401
-0.4909820792041899 -0.1886154742453343
-0.4718390631191072 -0.1886154742453343
-0.4335530309489419 -0.07659861910382858
-0.41441001486385926 -0.11393757081766383
-0.5292681113743553 -0.3006323293868401
-0.5292681113743553 -0.3379712811006753
-0.5292681113743553 -0.3006323293868401
-0.4718390631191072 -0.1886154742453343
-0.4718390631191072 -0.11393757081766383
-0.45269604703402455 -0.15127652253149906
-0.4718390631191072 -0.2632933776730048
-0.5866971596296033 -0.22595442595916956
-0.548411127459438 -0.11393757081766383
-0.5292681113743553 0.07275718775151242
-0.5101250952892726 0.03541823603767717
-0.3952669987787766 -0.07659861910382858
-0.18469382184286717 -0.4126491845283458
0.1790234837737036 -0.6366828948113573
0.5810268215604397 -0.8607166050943688
1.1170312719427546 -1.0474113636635451
1.6530357223250693 -1.1594282188050509
2.035896044026723 -1.3834619290880623
2.552757478323955 -1.495478784229568
2.9930468482808563 -1.79419039794025
3.395050186067593 -2.2049188667924375
3.7587674916841634 -2.57830838393079
3.8544825721095766 -2.839681045927637
3.7396244755990806 -2.989036852782978
3.490765266493006 -3.0263758044968134
3.127047960876435 -2.839681045927637
2.6484725587493685 -2.3542746736477786
1.978466995771475 -1.8315293496540852
1.1170312719427546 -1.5701566876572386
0.23645253202895164 -1.3087840256603918
-0.20383683792794982 -1.196767170518886
-0.3952669987787766 -0.9727334602358746
-0.5101250952892726 -0.6740218465251926
-0.6249831917997686 -0.5620049913836868
-0.7589843043953474 -0.5246660396698516
-0.8355563687356781 -0.599343943097522
-0.7972703365655127 -0.7860387016666983
-0.8355563687356781 -0.7113607982390278
-0.892985416990926 -0.599343943097522
-0.8738424009058434 -0.4873270879560163
-0.9312714491610914 -0.4126491845283458
-0.9312714491610914 -0.4126491845283458
-0.950414465246174 -0.44998813624218104
-1.0269865295865048 -0.44998813624218104
-1.06527256175667 -0.37531023281451054
-0.9695574813312567 -0.2632933776730048
-0.9312714491610914 -0.15127652253149906
-0.9887004974163394 -0.15127652253149906
-1.0461295456715873 -0.1886154742453343
-1.0844155778417528 -0.1886154742453343
-1.1035585939268355 -0.03925966738999332
-1.0844155778417528 -0.03925966738999332
-1.0269865295865048 0.03541823603767717
-1.06527256175667 -0.03925966738999332
-1.1418446260970008 -0.07659861910382858
-1.2375597065224142 -0.03925966738999332
-1.2184166904373315 0.03541823603767717
-1.1609876421820835 -0.0019207156761580741
-1.1418446260970008 0.07275718775151242
-1.1801306582671662 0.07275718775151242
-1.2567027226074967 0.03541823603767717
-1.2949887547776622 -0.07659861910382858
-1.3524178030329101 0.03541823603767717
-1.314131770862745 0.11009613946534767
-1.314131770862745 0.1474350911791829
-1.3332747869478274 0.1474350911791829
-1.3524178030329101 0.07275718775151242
-1.3907038352030756 0.03541823603767717
-1.4672758995434063 0.2594519463206887
-1.4098468512881581 0.2967908980345239
-1.3524178030329101 0.4461467048898649
-1.3332747869478274 0.3341298497483592
-1.4098468512881581 0.2594519463206887
-1.4098468512881581 0.18477404289301816
-1.3907038352030756 0.2594519463206887
-1.3524178030329101 0.3341298497483592
-1.2949887547776622 0.2967908980345239
-1.2758457386925794 0.18477404289301816
-1.3907038352030756 0.07275718775151242
-1.3907038352030756 -0.0019207156761580741
-1.4098468512881581 -0.07659861910382858
-1.3332747869478274 -0.15127652253149906
-1.2758457386925794 -0.3006323293868401
-1.2567027226074967 -0.37531023281451054
-1.2758457386925794 -0.5620049913836868
-1.2758457386925794 -0.4873270879560163
-1.2184166904373315 -0.44998813624218104
-1.122701610011918 -0.3379712811006753
-1.0461295456715873 -0.3006323293868401
-1.007843513501422 -0.3006323293868401
-1.007843513501422 -0.3379712811006753
-1.0461295456715873 -0.3379712811006753
-1.0269865295865048 -0.4126491845283458
-0.950414465246174 -0.2632933776730048
-0.9312714491610914 -0.22595442595916956
-0.9121284330760088 -0.22595442595916956
-0.9312714491610914 -0.3379712811006753
-0.9695574813312567 -0.3379712811006753
-0.9695574813312567 -0.2632933776730048
-0.892985416990926 -0.22595442595916956
-0.8164133526505953 -0.07659861910382858
-0.8546993848207607 -0.1886154742453343
-0.892985416990926 -0.1886154742453343
-0.8738424009058434 -0.2632933776730048
-0.8546993848207607 -0.11393757081766383
-0.7972703365655127 -0.07659861910382858
-0.7972703365655127 -0.03925966738999332
-0.77812732048043 -0.03925966738999332
-0.7972703365655127 -0.1886154742453343
-0.8355563687356781 -0.22595442595916956
-0.77812732048043 -0.1886154742453343
-0.7589843043953474 -0.11393757081766383
-0.6824122400550167 -0.11393757081766383
-0.7398412883102646 -0.15127652253149906
-0.7972703365655127 -0.22595442595916956
-0.8355563687356781 -0.15127652253149906
-0.8355563687356781 -0.11393757081766383
-0.8164133526505953 -0.0019207156761580741
-0.77812732048043 0.18477404289301816
-0.8355563687356781 0.1474350911791829
-0.8355563687356781 0.11009613946534767
-0.8164133526505953 0.18477404289301816
-0.8355563687356781 0.18477404289301816
-0.77812732048043 0.3341298497483592
-0.7015552561400993 0.2967908980345239
-0.720698272225182 0.1474350911791829
-0.7589843043953474 -0.0019207156761580741
-0.7589843043953474 -0.11393757081766383
-0.720698272225182 -0.07659861910382858
-0.6632692239699339 -0.07659861910382858
-0.5866971596296033 0.03541823603767717
-0.6249831917997686 -0.15127652253149906
-0.6441262078848513 -0.3379712811006753
-0.7015552561400993 -0.44998813624218104
-0.77812732048043 -0.22595442595916956
-0.6632692239699339 -0.07659861910382858
-0.605840175714686 -0.07659861910382858
-0.5866971596296033 -0.07659861910382858
-0.6249831917997686 -0.03925966738999332
-0.6632692239699339 -0.11393757081766383
-0.6441262078848513 -0.0019207156761580741
-0.5866971596296033 -0.07659861910382858
-0.5675541435445206 -0.0019207156761580741
-0.5866971596296033 0.1474350911791829
-0.6441262078848513 -0.07659861910382858
-0.6249831917997686 0.03541823603767717
-0.6249831917997686 0.03541823603767717
-0.5866971596296033 0.18477404289301816
-0.548411127459438 0.11009613946534767
-0.5866971596296033 0.2594519463206887
-0.605840175714686 0.1474350911791829
-0.6824122400550167 -0.07659861910382858
-0.7015552561400993 -0.0019207156761580741
-0.6249831917997686 0.11009613946534767
-0.5866971596296033 0.11009613946534767
-0.5866971596296033 0.07275718775151242
-0.6632692239699339 0.03541823603767717
-0.6824122400550167 -0.03925966738999332
-0.7589843043953474 0.11009613946534767
-0.720698272225182 0.18477404289301816
-0.6824122400550167 0.07275718775151242
-0.7015552561400993 0.1474350911791829
-0.6824122400550167 0.03541823603767717
-0.7589843043953474 0.03541823603767717
-0.8355563687356781 0.11009613946534767
-0.7972703365655127 0.11009613946534767
-0.77812732048043 0.1474350911791829
-0.8355563687356781 0.11009613946534767
-0.8164133526505953 0.07275718775151242
-0.892985416990926 -0.03925966738999332
-0.892985416990926 -0.0019207156761580741
-0.8546993848207607 0.07275718775151242
-0.7972703365655127 0.1474350911791829
-0.8164133526505953 0.07275718775151242
-0.77812732048043 -0.07659861910382858
-0.7589843043953474 -0.07659861910382858
-0.7589843043953474 -0.03925966738999332
-0.7972703365655127 -0.03925966738999332
-0.7589843043953474 -0.0019207156761580741
-0.7589843043953474 -0.11393757081766383
-0.6824122400550167 -0.15127652253149906
-0.6824122400550167 -0.15127652253149906
-0.6824122400550167 -0.2632933776730048
-0.6441262078848513 -0.15127652253149906
-0.6441262078848513 -0.15127652253149906
-0.6824122400550167 -0.03925966738999332
-0.6632692239699339 -0.1886154742453343
