0.5618838054753571 -0.3379712811006753
0.3130245963692823 -0.03925966738999332
0.06416538726320759 0.18477404289301816
-0.14640778967270182 0.3341298497483592
-0.24212287009811517 0.4088077531760297
-0.3569809666086112 0.2967908980345239
-0.3569809666086112 0.2967908980345239
-0.41441001486385926 0.4088077531760297
-0.45269604703402455 0.5208246083175354
-0.4718390631191072 0.4461467048898649
-0.4909820792041899 0.4461467048898649
-0.5866971596296033 0.3341298497483592
-0.6441262078848513 0.18477404289301816
-0.7015552561400993 0.2221129946068534
-0.6632692239699339 0.2967908980345239
-0.7015552561400993 0.2967908980345239
-0.6824122400550167 0.11009613946534767
-0.8164133526505953 -0.07659861910382858
-0.8738424009058434 -0.07659861910382858
-0.9312714491610914 -0.07659861910382858
-0.9121284330760088 0.03541823603767717
-0.892985416990926 0.11009613946534767
-0.950414465246174 0.03541823603767717
-0.9695574813312567 0.03541823603767717
-1.007843513501422 -0.0019207156761580741
-1.0269865295865048 0.11009613946534767
-1.0461295456715873 0.1474350911791829
-1.007843513501422 0.4088077531760297
-0.9887004974163394 0.4834856566037002
-1.0269865295865048 0.4461467048898649
-1.0461295456715873 0.3341298497483592
-1.0844155778417528 0.4088077531760297
-1.0844155778417528 0.3714688014621944
-1.06527256175667 0.5208246083175354
-1.0461295456715873 0.3714688014621944
-1.0844155778417528 0.4088077531760297
-1.1035585939268355 0.3341298497483592
-1.1035585939268355 0.3714688014621944
-1.0844155778417528 0.4088077531760297
-1.007843513501422 0.3341298497483592
-1.0269865295865048 0.3714688014621944
-1.1418446260970008 0.2967908980345239
-1.0461295456715873 0.2967908980345239
-1.1035585939268355 0.3714688014621944
-1.007843513501422 0.3714688014621944
-0.950414465246174 0.4088077531760297
-1.007843513501422 0.3714688014621944
-1.007843513501422 0.3341298497483592
-0.9887004974163394 0.3714688014621944
-1.007843513501422 0.3714688014621944
-0.892985416990926 0.3714688014621944
-0.8546993848207607 0.4088077531760297
-0.77812732048043 0.4088077531760297
-0.7972703365655127 0.3341298497483592
-0.8546993848207607 0.2221129946068534
-0.8546993848207607 0.2967908980345239
-0.7589843043953474 0.3714688014621944
-0.720698272225182 0.4088077531760297
-0.7015552561400993 0.3341298497483592
-0.6824122400550167 0.2594519463206887
-0.720698272225182 0.2594519463206887
-0.7398412883102646 0.3341298497483592
-0.7398412883102646 0.3341298497483592
-0.6632692239699339 0.3341298497483592
-0.6632692239699339 0.2967908980345239
-0.7398412883102646 0.2594519463206887
-0.6824122400550167 0.11009613946534767
-0.7015552561400993 0.18477404289301816
-0.6441262078848513 0.2967908980345239
-0.6824122400550167 0.3714688014621944
-0.6441262078848513 0.2967908980345239
-0.6824122400550167 0.18477404289301816
-0.6824122400550167 0.11009613946534767
-0.7015552561400993 0.18477404289301816
-0.6249831917997686 0.18477404289301816
-0.5675541435445206 0.3341298497483592
-0.548411127459438 0.2221129946068534
-0.5866971596296033 0.1474350911791829
-0.5866971596296033 0.1474350911791829
-0.5292681113743553 0.2594519463206887
-0.5292681113743553 0.2594519463206887
-0.45269604703402455 0.4088077531760297
-0.41441001486385926 0.4834856566037002
-0.45269604703402455 0.3714688014621944
-0.4718390631191072 0.2594519463206887
-0.4335530309489419 0.3341298497483592
-0.3761239826936939 0.4461467048898649
-0.3569809666086112 0.4461467048898649
-0.33783795052352855 0.3714688014621944
-0.33783795052352855 0.2967908980345239
-0.41441001486385926 0.18477404289301816
-0.3952669987787766 0.2221129946068534
-0.3186949344384459 0.18477404289301816
-0.26126588618319785 0.2594519463206887
-0.2804089022682805 0.1474350911791829
-0.2995519183533632 -0.15127652253149906
-0.3761239826936939 -0.15127652253149906
-0.33783795052352855 -0.07659861910382858
-0.2995519183533632 -0.03925966738999332
-0.2229798540130325 -0.0019207156761580741
-0.2229798540130325 -0.03925966738999332
-0.20383683792794982 -0.15127652253149906
-0.20383683792794982 -0.07659861910382858
-0.18469382184286717 -0.03925966738999332
-0.14640778967270182 -0.11393757081766383
-0.0889787414174538 -0.0019207156761580741
-0.10812175750253647 -0.0019207156761580741
-0.20383683792794982 -0.11393757081766383
-0.18469382184286717 -0.15127652253149906
-0.20383683792794982 -0.03925966738999332
-0.1655508057577845 0.07275718775151242
-0.0889787414174538 0.18477404289301816
-0.10812175750253647 0.2221129946068534
-0.1655508057577845 0.07275718775151242
-0.20383683792794982 0.07275718775151242
-0.20383683792794982 0.1474350911791829
-0.20383683792794982 0.11009613946534767
-0.18469382184286717 0.2594519463206887
-0.14640778967270182 0.2967908980345239
-0.18469382184286717 0.2221129946068534
-0.24212287009811517 0.18477404289301816
-0.2995519183533632 0.2594519463206887
-0.2804089022682805 0.3341298497483592
-0.2804089022682805 0.4461467048898649
-0.24212287009811517 0.3714688014621944
-0.2804089022682805 0.3341298497483592
-0.3569809666086112 0.2594519463206887
-0.3761239826936939 0.2967908980345239
-0.3952669987787766 0.4088077531760297
-0.33783795052352855 0.4834856566037002
-0.3761239826936939 0.5581635600313707
-0.41441001486385926 0.4088077531760297
-0.5101250952892726 0.2967908980345239
-0.5292681113743553 0.2594519463206887
-0.548411127459438 0.1474350911791829
-0.5292681113743553 0.1474350911791829
-0.5866971596296033 0.07275718775151242
-0.5675541435445206 0.11009613946534767
-0.6441262078848513 0.03541823603767717
-0.6249831917997686 0.07275718775151242
-0.5675541435445206 0.1474350911791829
-0.548411127459438 0.1474350911791829
-0.5292681113743553 0.07275718775151242
-0.5866971596296033 0.07275718775151242
-0.7015552561400993 0.03541823603767717
-0.5866971596296033 0.07275718775151242
-0.5292681113743553 0.18477404289301816
-0.4909820792041899 0.11009613946534767
-0.4718390631191072 0.07275718775151242
-0.4718390631191072 0.03541823603767717
-0.5292681113743553 -0.03925966738999332
-0.6249831917997686 -0.03925966738999332
-0.548411127459438 0.07275718775151242
-0.4718390631191072 0.2594519463206887
-0.45269604703402455 0.2967908980345239
-0.5101250952892726 0.07275718775151242
-0.548411127459438 0.03541823603767717
-0.4909820792041899 0.03541823603767717
-0.41441001486385926 -0.03925966738999332
-0.3952669987787766 -0.07659861910382858
-0.41441001486385926 0.03541823603767717
-0.41441001486385926 -0.03925966738999332
-0.45269604703402455 0.03541823603767717
-0.41441001486385926 0.07275718775151242
-0.4335530309489419 0.18477404289301816
-0.4335530309489419 0.18477404289301816
-0.3952669987787766 0.2221129946068534
-0.4718390631191072 0.11009613946534767
-0.5292681113743553 0.03541823603767717
-0.5101250952892726 0.07275718775151242
-0.4909820792041899 0.1474350911791829
-0.45269604703402455 0.2594519463206887
-0.45269604703402455 0.2221129946068534
-0.548411127459438 0.11009613946534767
-0.605840175714686 -0.07659861910382858
-0.5866971596296033 0.07275718775151242
-0.5675541435445206 0.1474350911791829
-0.548411127459438 0.03541823603767717
-0.5675541435445206 -0.03925966738999332
-0.6632692239699339 -0.15127652253149906
-0.6632692239699339 -0.22595442595916956
-0.7015552561400993 -0.1886154742453343
-0.6824122400550167 -0.11393757081766383
-0.7015552561400993 -0.15127652253149906
-0.6441262078848513 -0.1886154742453343
-0.7398412883102646 -0.22595442595916956
-0.77812732048043 -0.2632933776730048
-0.7589843043953474 -0.3006323293868401
-0.7398412883102646 -0.2632933776730048
-0.7589843043953474 -0.2632933776730048
-0.720698272225182 -0.15127652253149906
-0.720698272225182 -0.2632933776730048
-0.77812732048043 -0.2632933776730048
-0.7398412883102646 -0.2632933776730048
-0.8355563687356781 -0.15127652253149906
-0.77812732048043 -0.03925966738999332
-0.720698272225182 -0.03925966738999332
-0.7589843043953474 -0.11393757081766383
-0.8355563687356781 -0.1886154742453343
-0.7972703365655127 -0.15127652253149906
-0.6824122400550167 -0.15127652253149906
-0.6632692239699339 -0.03925966738999332
-0.6249831917997686 -0.11393757081766383
-0.7015552561400993 -0.1886154742453343
-0.7589843043953474 -0.3006323293868401
-0.7015552561400993 -0.3006323293868401
-0.7015552561400993 -0.22595442595916956
-0.6632692239699339 -0.15127652253149906
-0.605840175714686 -0.2632933776730048
-0.720698272225182 -0.37531023281451054
-0.7398412883102646 -0.5246660396698516
-0.6632692239699339 -0.4126491845283458
-0.6824122400550167 -0.4126491845283458
-0.605840175714686 -0.22595442595916956
-0.605840175714686 -0.3006323293868401
-0.6249831917997686 -0.37531023281451054
-0.605840175714686 -0.4873270879560163
-0.6441262078848513 -0.4873270879560163
-0.6632692239699339 -0.5246660396698516
-0.6632692239699339 -0.37531023281451054
-0.5675541435445206 -0.37531023281451054
-0.5866971596296033 -0.4873270879560163
-0.6632692239699339 -0.5246660396698516
-0.6441262078848513 -0.5620049913836868
-0.6249831917997686 -0.44998813624218104
-0.605840175714686 -0.3379712811006753
-0.6249831917997686 -0.4873270879560163
-0.6249831917997686 -0.6366828948113573
-0.6632692239699339 -0.748699749952863
-0.6249831917997686 -0.748699749952863
-0.605840175714686 -0.6740218465251926
-0.5675541435445206 -0.7113607982390278
-0.605840175714686 -0.898055556808204
-0.6249831917997686 -1.0847503153773803
-0.6441262078848513 -1.0847503153773803
-0.6441262078848513 -1.1594282188050509
-0.7015552561400993 -1.0474113636635451
-0.6632692239699339 -1.0100724119497098
-0.6632692239699339 -0.9353945085220393
-0.6441262078848513 -1.0474113636635451
-0.6441262078848513 -1.1220892670912155
-0.7398412883102646 -1.0100724119497098
-0.720698272225182 -0.8607166050943688
-0.7398412883102646 -0.8233776533805336
-0.720698272225182 -0.8607166050943688
-0.7398412883102646 -0.9353945085220393
-0.7972703365655127 -1.0474113636635451
-0.7972703365655127 -1.0474113636635451
-0.77812732048043 -0.7860387016666983
-0.7398412883102646 -0.7113607982390278
-0.720698272225182 -0.7113607982390278
-0.7398412883102646 -0.599343943097522
-0.7589843043953474 -0.7113607982390278
-0.77812732048043 -0.8233776533805336
-0.7589843043953474 -0.7113607982390278
-0.6824122400550167 -0.7113607982390278
-0.7015552561400993 -0.6740218465251926
-0.7015552561400993 -0.748699749952863
-0.7398412883102646 -0.8233776533805336
-0.7398412883102646 -0.748699749952863
-0.6441262078848513 -0.8233776533805336
-0.5292681113743553 -0.748699749952863
-0.4909820792041899 -0.8607166050943688
-0.5292681113743553 -1.0100724119497098
-0.5866971596296033 -0.9727334602358746
-0.6249831917997686 -0.9727334602358746
-0.605840175714686 -0.8607166050943688
-0.5101250952892726 -0.8607166050943688
-0.3569809666086112 -1.0100724119497098
-0.2229798540130325 -1.196767170518886
0.1215944355184556 -1.4581398325157329
0.4853117411350264 -1.6074956393710738
0.8681720628366798 -1.6821735427987443
1.270175400623416 -1.943546204795591
1.6338927062399868 -2.3169357219339437
2.1124681083670533 -2.6156473356446255
2.5910435104941203 -2.8023420942138015
3.1079049447913527 -2.839681045927637
3.548194314748254 -3.1010537079244838
3.8736255881946593 -3.3624263699213306
3.9884836847051552 -3.586460080204342
3.969340668620073 -3.6237990319181774
3.797053523854329 -3.735815887059683
3.548194314748254 -3.5117821767766713
3.2419060573869314 -3.175731611352154
2.725044623089699 -2.652986287358461
1.9976100118565574 -2.242257818506273
1.1744603201980026 -2.0182241082232615
0.42788269287977837 -1.9062072530817558
0.0067363390079595645 -1.8315293496540852
-0.2229798540130325 -1.4581398325157329
-0.3761239826936939 -1.2341061222327212
-0.548411127459438 -1.1220892670912155
-0.7398412883102646 -1.0847503153773803
-0.8164133526505953 -1.0100724119497098
-0.892985416990926 -1.0847503153773803
-0.9695574813312567 -1.0474113636635451
-1.007843513501422 -0.898055556808204
-1.0269865295865048 -0.8233776533805336
-1.1035585939268355 -0.9727334602358746
-1.1609876421820835 -1.0100724119497098
-1.1992736743522487 -0.9353945085220393
-1.1801306582671662 -0.8607166050943688
-1.2184166904373315 -0.7860387016666983
-1.2184166904373315 -0.7113607982390278
-1.2375597065224142 -0.7113607982390278
-1.2758457386925794 -0.7113607982390278
-1.314131770862745 -0.599343943097522
-1.2567027226074967 -0.44998813624218104
-1.2375597065224142 -0.37531023281451054
-1.1992736743522487 -0.4126491845283458
-1.2184166904373315 -0.5246660396698516
-1.2758457386925794 -0.5246660396698516
-1.314131770862745 -0.4873270879560163
-1.2949887547776622 -0.44998813624218104
-1.2375597065224142 -0.5246660396698516
-1.2184166904373315 -0.3379712811006753
-1.2375597065224142 -0.5620049913836868
-1.2758457386925794 -0.6740218465251926
-1.2949887547776622 -0.599343943097522
-1.2949887547776622 -0.6366828948113573
-1.2184166904373315 -0.5620049913836868
-1.2184166904373315 -0.6366828948113573
-1.2949887547776622 -0.748699749952863
-1.2567027226074967 -0.9353945085220393
-1.3332747869478274 -0.898055556808204
-1.2758457386925794 -0.6740218465251926
-1.2184166904373315 -0.5246660396698516
-1.1609876421820835 -0.4873270879560163
-1.1801306582671662 -0.6740218465251926
-1.2375597065224142 -0.898055556808204
-1.2184166904373315 -0.8607166050943688
-1.2184166904373315 -0.8607166050943688
-1.1609876421820835 -0.7113607982390278
-1.1992736743522487 -0.599343943097522
-1.3332747869478274 -0.6740218465251926
-1.2949887547776622 -0.7860387016666983
-1.2758457386925794 -0.7113607982390278
-1.2758457386925794 -0.599343943097522
-1.2567027226074967 -0.4873270879560163
-1.2184166904373315 -0.44998813624218104
-1.2567027226074967 -0.599343943097522
-1.2567027226074967 -0.6366828948113573
-1.2567027226074967 -0.599343943097522
-1.2184166904373315 -0.6366828948113573
-1.1801306582671662 -0.37531023281451054
-1.1801306582671662 -0.4126491845283458
-1.1992736743522487 -0.4126491845283458
-1.2184166904373315 -0.5620049913836868
-1.2184166904373315 -0.4126491845283458
-1.1801306582671662 -0.3006323293868401
-1.1418446260970008 -0.1886154742453343
-1.122701610011918 -0.3379712811006753
-1.1609876421820835 -0.6366828948113573
-1.1992736743522487 -0.7860387016666983
-1.1992736743522487 -0.748699749952863
-1.1418446260970008 -0.599343943097522
-1.1418446260970008 -0.599343943097522
-1.2184166904373315 -0.6366828948113573
-1.2184166904373315 -0.9353945085220393
-1.3332747869478274 -1.0474113636635451
-1.2375597065224142 -1.1220892670912155
-1.1609876421820835 -1.0100724119497098
-1.122701610011918 -0.9353945085220393
-1.06527256175667 -1.0100724119497098
-1.0269865295865048 -1.0847503153773803
-1.007843513501422 -1.1594282188050509
-1.007843513501422 -1.1220892670912155
-0.9695574813312567 -1.0100724119497098
-0.892985416990926 -0.9727334602358746
-0.8355563687356781 -1.0474113636635451
-0.7589843043953474 -1.0847503153773803
-0.77812732048043 -1.1594282188050509
-0.8164133526505953 -1.196767170518886
-0.720698272225182 -1.0847503153773803
-0.6824122400550167 -0.898055556808204
-0.6632692239699339 -1.0100724119497098
-0.6824122400550167 -1.0847503153773803
-0.7015552561400993 -1.196767170518886
-0.6824122400550167 -1.0474113636635451
-0.605840175714686 -1.0847503153773803
-0.4718390631191072 -0.9727334602358746
-0.4718390631191072 -1.0100724119497098
-0.45269604703402455 -1.0474113636635451
-0.4909820792041899 -1.1220892670912155
-0.5101250952892726 -1.0847503153773803
-0.4909820792041899 -1.0474113636635451
-0.4718390631191072 -0.8607166050943688
-0.4335530309489419 -0.898055556808204
-0.4335530309489419 -0.7860387016666983
-0.4335530309489419 -0.7860387016666983
-0.41441001486385926 -0.7113607982390278
-0.45269604703402455 -0.6740218465251926
-0.45269604703402455 -0.599343943097522
-0.4335530309489419 -0.5620049913836868
-0.4718390631191072 -0.6366828948113573
-0.5101250952892726 -0.6366828948113573
-0.5292681113743553 -0.5620049913836868
-0.5866971596296033 -0.4873270879560163
-0.5292681113743553 -0.3006323293868401
-0.548411127459438 -0.4873270879560163
-0.5292681113743553 -0.44998813624218104
-0.5866971596296033 -0.6740218465251926
-0.720698272225182 -0.6366828948113573
-0.6632692239699339 -0.7860387016666983
-0.6249831917997686 -0.7860387016666983
-0.6249831917997686 -0.898055556808204
-0.6824122400550167 -0.8233776533805336
-0.6824122400550167 -0.8607166050943688
-0.720698272225182 -0.9353945085220393
-0.6824122400550167 -0.8233776533805336
-0.720698272225182 -0.599343943097522
-0.6824122400550167 -0.6366828948113573
-0.6824122400550167 -0.5620049913836868
-0.7398412883102646 -0.4873270879560163
-0.6632692239699339 -0.44998813624218104
-0.6632692239699339 -0.4126491845283458
-0.6632692239699339 -0.44998813624218104
-0.6249831917997686 -0.5246660396698516
-0.6441262078848513 -0.599343943097522
-0.6632692239699339 -0.6740218465251926
-0.6441262078848513 -0.6740218465251926
-0.5866971596296033 -0.599343943097522
-0.5101250952892726 -0.4126491845283458
-0.5292681113743553 -0.44998813624218104
-0.5675541435445206 -0.6366828948113573
-0.605840175714686 -0.8233776533805336
-0.5866971596296033 -0.8233776533805336
-0.5866971596296033 -0.7860387016666983
-0.4909820792041899 -0.5620049913836868
-0.4718390631191072 -0.6740218465251926
-0.45269604703402455 -0.599343943097522
-0.4909820792041899 -0.7113607982390278
-0.45269604703402455 -0.748699749952863
-0.4718390631191072 -0.6366828948113573
-0.41441001486385926 -0.5620049913836868
-0.3761239826936939 -0.5620049913836868
-0.41441001486385926 -0.748699749952863
-0.3761239826936939 -0.7113607982390278
-0.4335530309489419 -0.7113607982390278
-0.3952669987787766 -0.6366828948113573
-0.3761239826936939 -0.44998813624218104
-0.33783795052352855 -0.5246660396698516
-0.3186949344384459 -0.6740218465251926
-0.33783795052352855 -0.7860387016666983
-0.3952669987787766 -0.6366828948113573
-0.45269604703402455 -0.6366828948113573
-0.41441001486385926 -0.599343943097522
-0.33783795052352855 -0.7113607982390278
-0.33783795052352855 -0.8233776533805336
-0.4335530309489419 -1.0100724119497098
-0.3952669987787766 -1.0100724119497098
-0.3761239826936939 -0.9353945085220393
-0.3569809666086112 -0.898055556808204
-0.3186949344384459 -0.8607166050943688
-0.3761239826936939 -0.9353945085220393
-0.3952669987787766 -1.0100724119497098
-0.3952669987787766 -1.0474113636635451
-0.41441001486385926 -0.9353945085220393
-0.4909820792041899 -0.8607166050943688
-0.45269604703402455 -0.8607166050943688
-0.4718390631191072 -0.8233776533805336
-0.45269604703402455 -0.8607166050943688
-0.4909820792041899 -0.7860387016666983
-0.4335530309489419 -0.6366828948113573
-0.3569809666086112 -0.44998813624218104
-0.3569809666086112 -0.4126491845283458
-0.3952669987787766 -0.37531023281451054
-0.3761239826936939 -0.4873270879560163
-0.3569809666086112 -0.5246660396698516
-0.33783795052352855 -0.37531023281451054
-0.3186949344384459 -0.3379712811006753
-0.2995519183533632 -0.37531023281451054
-0.2804089022682805 -0.4873270879560163
-0.26126588618319785 -0.6366828948113573
-0.20383683792794982 -0.599343943097522
-0.1655508057577845 -0.6366828948113573
-0.0889787414174538 -0.599343943097522
-0.03154969316220578 -0.6366828948113573
-0.06983572533237113 -0.6366828948113573
-0.06983572533237113 -0.748699749952863
-0.0889787414174538 -0.8233776533805336
-0.03154969316220578 -0.7113607982390278
0.025879355093042237 -0.748699749952863
0.15988046768862094 -0.7113607982390278
0.1790234837737036 -0.8233776533805336
0.15988046768862094 -0.898055556808204
0.15988046768862094 -0.9353945085220393
0.21730951594386896 -0.9353945085220393
0.15988046768862094 -0.898055556808204
0.29388158028419964 -0.898055556808204
0.42788269287977837 -1.0100724119497098
0.42788269287977837 -1.1220892670912155
0.42788269287977837 -1.1220892670912155
0.4661687250499437 -1.0474113636635451
0.6001698376455225 -0.9353945085220393
0.6767419019858532 -1.0474113636635451
0.6767419019858532 -1.0100724119497098
0.6575988859007704 -1.0100724119497098
0.6001698376455225 -1.0847503153773803
0.7150279341560184 -1.0100724119497098
0.8107430145814318 -0.898055556808204
0.8107430145814318 -1.0474113636635451
0.8298860306665145 -1.0847503153773803
0.7724569824112665 -1.0847503153773803
0.7724569824112665 -1.0847503153773803
0.8873150789217625 -1.0100724119497098
0.9256011110919279 -0.8607166050943688
0.8873150789217625 -0.8233776533805336
0.8107430145814318 -0.9727334602358746
0.6958849180709358 -1.0847503153773803
0.6958849180709358 -1.0847503153773803
0.7724569824112665 -1.0474113636635451
0.8107430145814318 -0.898055556808204
0.8873150789217625 -1.0474113636635451
0.8681720628366798 -1.1220892670912155
0.7341709502411011 -1.2341061222327212
0.6384558698156878 -1.1220892670912155
0.6767419019858532 -1.0100724119497098
0.8107430145814318 -0.9727334602358746
0.8490290467515972 -1.0100724119497098
0.7915999984963491 -1.1220892670912155
0.7724569824112665 -1.2341061222327212
0.6767419019858532 -1.0847503153773803
0.6001698376455225 -0.898055556808204
0.5427407893902744 -0.8233776533805336
0.6193128537306051 -0.9727334602358746
0.8298860306665145 -1.0474113636635451
0.9447441271770105 -1.196767170518886
0.8298860306665145 -1.3087840256603918
0.6575988859007704 -1.3087840256603918
0.6958849180709358 -1.0847503153773803
0.8873150789217625 -1.1220892670912155
0.9638871432620932 -1.495478784229568
0.9256011110919279 -1.7195124945125795
0.7724569824112665 -1.5701566876572386
0.7341709502411011 -1.495478784229568
0.7341709502411011 -1.3087840256603918
0.7915999984963491 -1.3087840256603918
0.8490290467515972 -1.3834619290880623
0.9447441271770105 -1.4208008808018975
1.0213161915173412 -1.495478784229568
1.1170312719427546 -1.346122977374227
1.1170312719427546 -1.346122977374227
1.0596022236875065 -1.4581398325157329
1.0213161915173412 -1.495478784229568
0.9638871432620932 -1.5328177359434032
0.8298860306665145 -1.4208008808018975
0.6958849180709358 -1.495478784229568
0.6575988859007704 -1.644834591084909
0.6193128537306051 -1.8315293496540852
0.6384558698156878 -1.8315293496540852
0.7341709502411011 -1.7568514462264149
0.7533139663261837 -1.7568514462264149
0.7724569824112665 -1.644834591084909
0.7724569824112665 -1.6821735427987443
0.7150279341560184 -1.79419039794025
0.7150279341560184 -1.8315293496540852
0.7150279341560184 -1.9062072530817558
0.6193128537306051 -1.9062072530817558
0.5810268215604397 -1.6821735427987443
0.7341709502411011 -1.644834591084909
0.7533139663261837 -1.6074956393710738
0.7341709502411011 -1.7195124945125795
0.5618838054753571 -1.5701566876572386
0.37045364462453034 -1.5328177359434032
0.27473856419911696 -1.4581398325157329
0.332167612454365 -1.4581398325157329
0.44702570896486105 -1.5701566876572386
0.6384558698156878 -1.8315293496540852
1.1170312719427546 -2.0182241082232615
1.7104647705803173 -2.3542746736477786
2.208183188792467 -2.57830838393079
2.4761854139836244 -2.8770199976414723
2.7633306552598644 -3.138392659638319
3.2227630413018487 -3.250409514779825
3.797053523854329 -3.5491211284905066
4.313914958151561 -3.9598495973426946
4.696775279853214 -4.258561211053377
4.849919408533876 -4.333239114481047
4.869062424618958 -4.482594921336388
4.773347344193545 -4.557272824764058
4.467059086832222 -4.482594921336388
4.065055749045486 -3.9971885490565295
3.3376211378123446 -3.3624263699213306
2.2273262048775497 -2.9143589493553077
1.2127463523681679 -2.540969432216955
0.5810268215604397 -2.2795967702201083
0.27473856419911696 -2.055563059937097
0.0067363390079595645 -1.9062072530817558
-0.26126588618319785 -1.6821735427987443
-0.3952669987787766 -1.4581398325157329
-0.41441001486385926 -1.1594282188050509
-0.45269604703402455 -1.1594282188050509
-0.605840175714686 -1.1594282188050509
-0.7015552561400993 -1.0847503153773803
-0.6632692239699339 -0.9353945085220393
-0.6824122400550167 -0.8607166050943688
-0.77812732048043 -0.8233776533805336
-0.950414465246174 -0.9353945085220393
-0.9121284330760088 -0.8607166050943688
-0.8546993848207607 -0.7860387016666983
-0.720698272225182 -0.748699749952863
-0.7589843043953474 -0.6740218465251926
-0.8546993848207607 -0.748699749952863
-1.0461295456715873 -0.6366828948113573
-1.1801306582671662 -0.6740218465251926
-1.2375597065224142 -0.6366828948113573
-1.2375597065224142 -0.6740218465251926
-1.0844155778417528 -0.599343943097522
-1.0461295456715873 -0.6740218465251926
-1.1035585939268355 -0.7113607982390278
-1.1418446260970008 -0.8607166050943688
-1.2184166904373315 -0.8233776533805336
-1.2375597065224142 -0.898055556808204
-1.1418446260970008 -0.8607166050943688
-1.0844155778417528 -0.898055556808204
-1.1035585939268355 -1.1220892670912155
-1.1992736743522487 -1.1594282188050509
-1.4481328834583236 -1.196767170518886
-1.4864189156284888 -0.898055556808204
-1.3907038352030756 -0.8607166050943688
-1.2758457386925794 -0.8607166050943688
-1.1992736743522487 -0.898055556808204
-1.3524178030329101 -0.8607166050943688
-1.3715608191179929 -0.7860387016666983
-1.4289898673732409 -0.6740218465251926
-1.3907038352030756 -0.37531023281451054
-1.3524178030329101 -0.3379712811006753
-1.2949887547776622 -0.4873270879560163
-1.1801306582671662 -0.5246660396698516
-1.1992736743522487 -0.748699749952863
-1.2758457386925794 -0.5620049913836868
-1.3332747869478274 -0.6740218465251926
-1.3524178030329101 -0.599343943097522
-1.2949887547776622 -0.7113607982390278
-1.2184166904373315 -0.748699749952863
-1.1801306582671662 -0.6366828948113573
-1.1801306582671662 -0.5620049913836868
-1.1801306582671662 -0.599343943097522
-1.1035585939268355 -0.5246660396698516
-1.1035585939268355 -0.44998813624218104
-1.1992736743522487 -0.5620049913836868
-1.2375597065224142 -0.6740218465251926
-1.1992736743522487 -0.5246660396698516
-1.1035585939268355 -0.44998813624218104
-0.9695574813312567 -0.44998813624218104
-0.9887004974163394 -0.5620049913836868
-1.0269865295865048 -0.6366828948113573
-1.06527256175667 -0.6366828948113573
-1.1418446260970008 -0.599343943097522
-1.007843513501422 -0.3379712811006753
-0.9695574813312567 -0.37531023281451054
-1.0269865295865048 -0.44998813624218104
-1.0269865295865048 -0.5620049913836868
-1.007843513501422 -0.748699749952863
-0.9312714491610914 -0.6740218465251926
-0.9312714491610914 -0.6740218465251926
-0.892985416990926 -0.6366828948113573
-0.8738424009058434 -0.599343943097522
-0.8355563687356781 -0.7113607982390278
-0.7972703365655127 -0.8607166050943688
-0.8164133526505953 -0.7860387016666983
-0.8164133526505953 -0.5620049913836868
-0.6824122400550167 -0.44998813624218104
-0.605840175714686 -0.4873270879560163
-0.6249831917997686 -0.5620049913836868
-0.720698272225182 -0.599343943097522
-0.77812732048043 -0.4873270879560163
-0.6824122400550167 -0.4126491845283458
-0.5292681113743553 -0.3379712811006753
-0.548411127459438 -0.4126491845283458
-0.6441262078848513 -0.4126491845283458
-0.720698272225182 -0.4126491845283458
-0.6249831917997686 -0.3006323293868401
-0.605840175714686 -0.0019207156761580741
-0.5101250952892726 -0.03925966738999332
-0.5866971596296033 -0.03925966738999332
-0.5675541435445206 -0.07659861910382858
-0.548411127459438 -0.03925966738999332
-0.5866971596296033 -0.03925966738999332
-0.548411127459438 0.03541823603767717
-0.5101250952892726 0.1474350911791829
-0.4718390631191072 0.07275718775151242
-0.5292681113743553 -0.03925966738999332
-0.5101250952892726 -0.0019207156761580741
-0.5101250952892726 0.03541823603767717
-0.4335530309489419 0.18477404289301816
-0.3761239826936939 0.1474350911791829
-0.41441001486385926 0.1474350911791829
-0.41441001486385926 0.03541823603767717
-0.41441001486385926 0.18477404289301816
-0.3761239826936939 0.18477404289301816
-0.3186949344384459 0.4088077531760297
-0.2804089022682805 0.2967908980345239
-0.24212287009811517 0.2594519463206887
-0.26126588618319785 0.18477404289301816
-0.2804089022682805 0.18477404289301816
-0.24212287009811517 0.1474350911791829
-0.18469382184286717 0.18477404289301816
-0.14640778967270182 0.03541823603767717
-0.12726477358761915 -0.07659861910382858
-0.1655508057577845 -0.2632933776730048
-0.14640778967270182 -0.4126491845283458
-0.1655508057577845 -0.1886154742453343
-0.14640778967270182 -0.15127652253149906
-0.14640778967270182 -0.03925966738999332
-0.10812175750253647 -0.11393757081766383
-0.10812175750253647 -0.1886154742453343
-0.0889787414174538 -0.03925966738999332
-0.06983572533237113 0.1474350911791829
-0.0889787414174538 0.2594519463206887
-0.03154969316220578 0.2594519463206887
0.04502237117812491 0.2594519463206887
0.025879355093042237 0.2221129946068534
-0.03154969316220578 0.2221129946068534
-0.03154969316220578 0.2967908980345239
-0.03154969316220578 0.4461467048898649
0.025879355093042237 0.4088077531760297
-0.03154969316220578 0.4461467048898649
-0.012406677077123108 0.3341298497483592
-0.050692709247288456 0.4461467048898649
-0.0889787414174538 0.5208246083175354
-0.050692709247288456 0.5955025117452059
-0.06983572533237113 0.7075193668867117
-0.0889787414174538 0.7821972703143821
-0.12726477358761915 0.8568751737420527
-0.0889787414174538 0.8195362220282174
-0.03154969316220578 0.9688920288835584
-0.06983572533237113 1.0062309805973937
-0.012406677077123108 1.0809088840250642
-0.012406677077123108 0.9688920288835584
-0.03154969316220578 1.19292573916657
-0.050692709247288456 1.2676036425942403
-0.012406677077123108 1.2302646908804051
0.08330840334829026 1.19292573916657
0.04502237117812491 1.19292573916657
0.04502237117812491 1.2302646908804051
0.0067363390079595645 1.19292573916657
0.0067363390079595645 1.2676036425942403
0.04502237117812491 1.2676036425942403
0.08330840334829026 1.3422815460219109
0.06416538726320759 1.4542984011634166
0.06416538726320759 1.3049425943080757
0.04502237117812491 1.2302646908804051
-0.012406677077123108 1.2302646908804051
0.025879355093042237 1.2302646908804051
-0.012406677077123108 1.3049425943080757
-0.03154969316220578 1.2676036425942403
-0.06983572533237113 1.1555867874527346
-0.0889787414174538 0.9315530771697231
-0.10812175750253647 0.7821972703143821
-0.06983572533237113 0.7448583186005469
0.0067363390079595645 0.7075193668867117
0.0067363390079595645 0.6701804151728764
0.04502237117812491 0.6328414634590411
-0.03154969316220578 0.5581635600313707
-0.012406677077123108 0.7075193668867117
-0.012406677077123108 0.8195362220282174
0.0067363390079595645 0.9688920288835584
0.04502237117812491 1.0435699323112289
0.04502237117812491 1.0062309805973937
0.025879355093042237 0.8568751737420527
-0.03154969316220578 0.9688920288835584
-0.10812175750253647 1.1182478357388994
-0.050692709247288456 1.1182478357388994
-0.03154969316220578 1.0809088840250642
-0.06983572533237113 1.0062309805973937
-0.10812175750253647 0.9688920288835584
-0.1655508057577845 1.0435699323112289
-0.20383683792794982 1.0435699323112289
-0.1655508057577845 1.2676036425942403
-0.10812175750253647 1.1182478357388994
-0.18469382184286717 1.19292573916657
-0.2229798540130325 1.0809088840250642
-0.24212287009811517 1.2302646908804051
-0.24212287009811517 1.491637352877252
-0.2229798540130325 1.5289763045910871
-0.2229798540130325 1.5289763045910871
-0.24212287009811517 1.4542984011634166
-0.2804089022682805 1.3796204977357462
-0.2995519183533632 1.3796204977357462
-0.2995519183533632 1.491637352877252
-0.2995519183533632 1.5289763045910871
-0.24212287009811517 1.5289763045910871
-0.2995519183533632 1.4169594494495814
-0.3186949344384459 1.3049425943080757
-0.3569809666086112 1.2676036425942403
-0.3186949344384459 1.3049425943080757
-0.2804089022682805 1.4169594494495814
-0.2804089022682805 1.3796204977357462
-0.3186949344384459 1.2302646908804051
-0.3569809666086112 1.1555867874527346
-0.41441001486385926 1.1555867874527346
-0.3952669987787766 1.3049425943080757
-0.2804089022682805 1.3422815460219109
-0.26126588618319785 1.3422815460219109
-0.3186949344384459 1.19292573916657
-0.33783795052352855 1.0809088840250642
-0.3761239826936939 1.0062309805973937
-0.3569809666086112 0.9688920288835584
-0.3186949344384459 0.9688920288835584
-0.24212287009811517 0.8942141254558879
-0.26126588618319785 0.8568751737420527
-0.3569809666086112 0.8568751737420527
-0.33783795052352855 0.7821972703143821
-0.18469382184286717 0.7075193668867117
0.1215944355184556 0.4834856566037002
0.5427407893902744 0.3714688014621944
1.0021731754322585 0.11009613946534767
1.385033497133912 -0.2632933776730048
1.8253228670908135 -0.5246660396698516
2.2847552531327975 -0.748699749952863
2.8207597035151126 -0.748699749952863
3.3376211378123446 -0.7113607982390278
3.797053523854329 -1.0847503153773803
4.045912732960404 -1.6074956393710738
4.141627813385817 -1.8688683013679206
4.026769716875321 -1.8688683013679206
3.777910507769246 -1.7195124945125795
3.4524792343228405 -1.4581398325157329
2.9356178000256086 -1.1220892670912155
2.2464692209626325 -0.7113607982390278
1.385033497133912 -0.37531023281451054
0.6001698376455225 -0.0019207156761580741
0.15988046768862094 0.4088077531760297
-0.06983572533237113 0.6701804151728764
-0.3186949344384459 0.8568751737420527
-0.4909820792041899 0.9315530771697231
-0.6632692239699339 1.0062309805973937
-0.6824122400550167 1.1555867874527346
-0.6824122400550167 1.19292573916657
-0.7398412883102646 1.2676036425942403
-0.77812732048043 1.2676036425942403
-0.8355563687356781 1.3049425943080757
-0.8738424009058434 1.2676036425942403
-0.8355563687356781 1.2676036425942403
-0.8164133526505953 1.19292573916657
-0.8355563687356781 1.1555867874527346
-0.8738424009058434 1.0809088840250642
-0.9121284330760088 1.1555867874527346
-1.007843513501422 1.1555867874527346
-1.007843513501422 1.3049425943080757
-0.9312714491610914 1.2676036425942403
-0.892985416990926 1.3049425943080757
-0.9312714491610914 1.3049425943080757
-0.9887004974163394 1.1555867874527346
-1.0461295456715873 1.1555867874527346
-1.06527256175667 1.19292573916657
-0.950414465246174 1.2676036425942403
-0.9312714491610914 1.0809088840250642
-0.8738424009058434 0.8942141254558879
-0.9312714491610914 0.8568751737420527
-1.007843513501422 0.8568751737420527
-1.007843513501422 0.8942141254558879
-0.9695574813312567 1.0435699323112289
-0.892985416990926 1.0435699323112289
-0.8546993848207607 1.0435699323112289
-0.9121284330760088 1.0062309805973937
-0.9887004974163394 0.9688920288835584
-0.9312714491610914 1.0809088840250642
-0.950414465246174 1.1555867874527346
-0.9312714491610914 1.3796204977357462
-0.950414465246174 1.3049425943080757
-0.9121284330760088 1.19292573916657
-0.9695574813312567 1.2302646908804051
-0.9695574813312567 1.3422815460219109
-0.9312714491610914 1.3796204977357462
-0.9887004974163394 1.4542984011634166
-0.9887004974163394 1.4169594494495814
-1.0461295456715873 1.3049425943080757
-1.007843513501422 1.3049425943080757
-1.007843513501422 1.3422815460219109
-1.0461295456715873 1.491637352877252
-1.0269865295865048 1.4542984011634166
-1.1035585939268355 1.4542984011634166
-1.122701610011918 1.3049425943080757
-1.1418446260970008 1.3796204977357462
-1.1609876421820835 1.3796204977357462
-1.122701610011918 1.5289763045910871
-1.0461295456715873 1.6409931597325929
-1.007843513501422 1.5663152563049223
-1.0269865295865048 1.4542984011634166
-1.0461295456715873 1.4169594494495814
-1.0461295456715873 1.4542984011634166
-1.0269865295865048 1.5289763045910871
-0.950414465246174 1.4542984011634166
-0.950414465246174 1.3422815460219109
-0.9695574813312567 1.2676036425942403
-1.0844155778417528 1.19292573916657
-0.9695574813312567 1.3796204977357462
-0.892985416990926 1.3422815460219109
-0.8738424009058434 1.3422815460219109
-0.9121284330760088 1.2302646908804051
-0.892985416990926 1.1182478357388994
-0.9121284330760088 1.0809088840250642
-0.9121284330760088 1.0809088840250642
-0.8164133526505953 1.0435699323112289
-0.7589843043953474 1.0062309805973937
-0.6824122400550167 0.8942141254558879
-0.6632692239699339 0.4834856566037002
-0.6632692239699339 0.4461467048898649
-0.6824122400550167 0.4834856566037002
-0.6441262078848513 0.5955025117452059
-0.5866971596296033 0.6328414634590411
-0.548411127459438 0.5955025117452059
-0.548411127459438 0.5581635600313707
-0.548411127459438 0.5955025117452059
-0.4909820792041899 0.6701804151728764
-0.45269604703402455 0.8195362220282174
-0.45269604703402455 0.8195362220282174
-0.3952669987787766 0.8568751737420527
-0.41441001486385926 0.7821972703143821
-0.41441001486385926 0.7821972703143821
-0.3761239826936939 0.8942141254558879
-0.33783795052352855 0.8942141254558879
-0.3761239826936939 0.9315530771697231
-0.3952669987787766 0.9688920288835584
-0.41441001486385926 0.8568751737420527
-0.41441001486385926 1.0062309805973937
-0.41441001486385926 1.0435699323112289
-0.3952669987787766 1.1182478357388994
-0.3761239826936939 1.0435699323112289
-0.41441001486385926 1.0435699323112289
-0.5675541435445206 1.0435699323112289
-0.5866971596296033 0.9688920288835584
-0.5866971596296033 1.0809088840250642
-0.5101250952892726 1.2676036425942403
-0.5101250952892726 1.2302646908804051
-0.548411127459438 1.19292573916657
-0.605840175714686 1.3049425943080757
-0.6632692239699339 1.3796204977357462
-0.5866971596296033 1.4542984011634166
-0.548411127459438 1.4542984011634166
-0.5101250952892726 1.4542984011634166
-0.4909820792041899 1.4542984011634166
-0.5675541435445206 1.4169594494495814
-0.5866971596296033 1.3049425943080757
-0.5675541435445206 1.2676036425942403
-0.5292681113743553 1.19292573916657
-0.3952669987787766 1.0809088840250642
-0.4335530309489419 0.9315530771697231
-0.45269604703402455 0.9315530771697231
-0.5675541435445206 0.9315530771697231
-0.4909820792041899 0.9688920288835584
-0.4718390631191072 1.0435699323112289
-0.4718390631191072 0.8942141254558879
-0.4335530309489419 0.9315530771697231
-0.4718390631191072 0.7821972703143821
-0.45269604703402455 0.7075193668867117
-0.4718390631191072 0.7448583186005469
-0.45269604703402455 0.7821972703143821
-0.41441001486385926 0.7821972703143821
-0.41441001486385926 0.7448583186005469
-0.3952669987787766 0.6701804151728764
-0.41441001486385926 0.6328414634590411
-0.4909820792041899 0.7448583186005469
-0.41441001486385926 0.8942141254558879
-0.3761239826936939 0.9688920288835584
-0.33783795052352855 0.8942141254558879
-0.3186949344384459 0.8568751737420527
-0.33783795052352855 0.8568751737420527
-0.3952669987787766 1.0435699323112289
-0.2995519183533632 1.0809088840250642
-0.3186949344384459 1.1182478357388994
-0.3186949344384459 1.19292573916657
-0.3186949344384459 1.0809088840250642
-0.3569809666086112 1.0809088840250642
-0.33783795052352855 1.0809088840250642
-0.3761239826936939 1.2302646908804051
-0.3569809666086112 1.3422815460219109
-0.3761239826936939 1.2676036425942403
-0.41441001486385926 1.19292573916657
-0.45269604703402455 1.2676036425942403
-0.4909820792041899 1.3049425943080757
-0.4718390631191072 1.4542984011634166
-0.41441001486385926 1.4542984011634166
-0.4718390631191072 1.4542984011634166
-0.548411127459438 1.4169594494495814
-0.5292681113743553 1.3049425943080757
-0.5292681113743553 1.4542984011634166
-0.4909820792041899 1.491637352877252
-0.45269604703402455 1.4542984011634166
-0.3952669987787766 1.3049425943080757
-0.4718390631191072 1.0435699323112289
-0.4718390631191072 0.9688920288835584
-0.45269604703402455 0.8568751737420527
-0.41441001486385926 0.8195362220282174
-0.3569809666086112 0.6328414634590411
-0.3761239826936939 0.4088077531760297
-0.45269604703402455 0.3341298497483592
-0.4718390631191072 0.2594519463206887
-0.4335530309489419 0.3714688014621944
-0.41441001486385926 0.4461467048898649
-0.3952669987787766 0.4834856566037002
-0.41441001486385926 0.4834856566037002
-0.45269604703402455 0.2967908980345239
-0.4909820792041899 0.2221129946068534
-0.4335530309489419 0.3714688014621944
-0.3952669987787766 0.3714688014621944
-0.33783795052352855 0.4834856566037002
-0.3186949344384459 0.4461467048898649
-0.3186949344384459 0.3714688014621944
-0.3569809666086112 0.3714688014621944
-0.3569809666086112 0.5581635600313707
-0.26126588618319785 0.6328414634590411
-0.2229798540130325 0.6328414634590411
-0.24212287009811517 0.6328414634590411
-0.2804089022682805 0.5581635600313707
-0.26126588618319785 0.5955025117452059
-0.3186949344384459 0.7448583186005469
-0.2229798540130325 0.8568751737420527
-0.20383683792794982 0.9315530771697231
-0.2229798540130325 0.8568751737420527
-0.3186949344384459 0.8195362220282174
-0.3186949344384459 0.7821972703143821
-0.3186949344384459 0.8942141254558879
-0.33783795052352855 1.0062309805973937
-0.26126588618319785 0.9688920288835584
-0.2804089022682805 1.0062309805973937
-0.3186949344384459 0.9688920288835584
-0.3761239826936939 0.9688920288835584
-0.3952669987787766 0.9688920288835584
-0.3761239826936939 1.0809088840250642
-0.33783795052352855 1.0809088840250642
-0.14640778967270182 0.7448583186005469
0.14073745160353826 0.4088077531760297
0.5618838054753571 0.18477404289301816
1.0021731754322585 -0.15127652253149906
1.5190346097294907 -0.6366828948113573
2.01675302794164 -1.0474113636635451
2.552757478323955 -1.2714450739465566
3.031332880451022 -1.495478784229568
3.5673373308333365 -1.8315293496540852
3.9501976525349902 -2.242257818506273
4.275628925981396 -2.57830838393079
4.313914958151561 -2.7650031424999666
4.1799138455559826 -2.6156473356446255
3.9119116203648248 -2.57830838393079
3.5673373308333365 -2.242257818506273
3.031332880451022 -1.8315293496540852
2.3613273174731284 -1.2341061222327212
1.5764636579847386 -0.8607166050943688
0.9256011110919279 -0.5620049913836868
0.42788269287977837 -0.44998813624218104
0.15988046768862094 -0.3006323293868401
-0.06983572533237113 -0.11393757081766383
-0.26126588618319785 0.18477404289301816
-0.3952669987787766 0.3341298497483592
-0.3952669987787766 0.3341298497483592
-0.41441001486385926 0.3341298497483592
-0.4909820792041899 0.4461467048898649
-0.45269604703402455 0.4834856566037002
-0.4718390631191072 0.6328414634590411
-0.5101250952892726 0.6701804151728764
-0.5101250952892726 0.7448583186005469
-0.548411127459438 0.6701804151728764
-0.5866971596296033 0.5208246083175354
-0.5866971596296033 0.8195362220282174
-0.5866971596296033 0.8568751737420527
-0.5866971596296033 0.8942141254558879
-0.5866971596296033 0.8942141254558879
-0.6632692239699339 0.8195362220282174
-0.720698272225182 0.8568751737420527
-0.7015552561400993 0.9315530771697231
-0.6824122400550167 0.9688920288835584
-0.6249831917997686 1.0062309805973937
-0.6632692239699339 0.9688920288835584
-0.7398412883102646 0.8568751737420527
-0.77812732048043 0.7448583186005469
-0.7398412883102646 0.7075193668867117
-0.7589843043953474 0.6328414634590411
-0.6824122400550167 0.6328414634590411
-0.7398412883102646 0.5581635600313707
-0.7589843043953474 0.3714688014621944
-0.8546993848207607 0.3341298497483592
-0.8546993848207607 0.3341298497483592
-0.8738424009058434 0.4834856566037002
-0.8164133526505953 0.4088077531760297
-0.8355563687356781 0.4461467048898649
-0.8164133526505953 0.3341298497483592
-0.892985416990926 0.3341298497483592
-0.8546993848207607 0.4461467048898649
-0.9121284330760088 0.3341298497483592
-0.7972703365655127 0.4461467048898649
-0.7972703365655127 0.3341298497483592
-0.8738424009058434 0.2967908980345239
-0.77812732048043 0.2967908980345239
-0.77812732048043 0.18477404289301816
-0.720698272225182 0.2967908980345239
-0.6824122400550167 0.2594519463206887
-0.720698272225182 0.2221129946068534
-0.7398412883102646 0.1474350911791829
-0.77812732048043 0.1474350911791829
-0.7589843043953474 0.18477404289301816
-0.6824122400550167 0.3714688014621944
-0.6249831917997686 0.3341298497483592
-0.6824122400550167 0.2594519463206887
-0.7015552561400993 0.2221129946068534
-0.6249831917997686 0.2221129946068534
-0.6632692239699339 0.2594519463206887
-0.5866971596296033 0.2594519463206887
-0.5101250952892726 0.3714688014621944
-0.5101250952892726 0.4088077531760297
-0.548411127459438 0.3341298497483592
-0.5866971596296033 0.2594519463206887
-0.5101250952892726 0.2967908980345239
-0.4335530309489419 0.4088077531760297
-0.33783795052352855 0.4461467048898649
-0.33783795052352855 0.4461467048898649
-0.41441001486385926 0.4461467048898649
-0.4335530309489419 0.3341298497483592
-0.4335530309489419 0.4088077531760297
-0.33783795052352855 0.5581635600313707
-0.2995519183533632 0.5581635600313707
-0.2804089022682805 0.5208246083175354
-0.26126588618319785 0.4834856566037002
-0.2804089022682805 0.5208246083175354
-0.3186949344384459 0.5581635600313707
-0.2229798540130325 0.6701804151728764
-0.14640778967270182 0.6701804151728764
-0.1655508057577845 0.6328414634590411
-0.14640778967270182 0.5208246083175354
-0.10812175750253647 0.2967908980345239
-0.12726477358761915 0.2594519463206887
-0.10812175750253647 0.2221129946068534
-0.050692709247288456 0.11009613946534767
-0.06983572533237113 -0.0019207156761580741
-0.0889787414174538 -0.03925966738999332
-0.10812175750253647 -0.15127652253149906
-0.12726477358761915 -0.1886154742453343
-0.10812175750253647 -0.15127652253149906
-0.012406677077123108 -0.15127652253149906
-0.050692709247288456 -0.22595442595916956
-0.06983572533237113 -0.2632933776730048
-0.0889787414174538 -0.2632933776730048
-0.050692709247288456 -0.03925966738999332
-0.06983572533237113 0.07275718775151242
-0.012406677077123108 0.03541823603767717
0.0067363390079595645 -0.03925966738999332
-0.050692709247288456 -0.15127652253149906
-0.050692709247288456 -0.07659861910382858
-0.03154969316220578 -0.0019207156761580741
0.06416538726320759 -0.0019207156761580741
0.08330840334829026 0.03541823603767717
0.04502237117812491 0.07275718775151242
0.0067363390079595645 -0.22595442595916956
-0.03154969316220578 -0.1886154742453343
-0.050692709247288456 -0.03925966738999332
0.025879355093042237 0.03541823603767717
0.06416538726320759 0.11009613946534767
0.06416538726320759 0.03541823603767717
0.025879355093042237 -0.03925966738999332
0.0067363390079595645 -0.0019207156761580741
0.0067363390079595645 0.07275718775151242
0.08330840334829026 0.2221129946068534
0.14073745160353826 0.18477404289301816
0.1215944355184556 0.1474350911791829
0.10245141943337292 0.1474350911791829
0.06416538726320759 0.1474350911791829
0.08330840334829026 0.1474350911791829
0.14073745160353826 0.2594519463206887
0.21730951594386896 0.3714688014621944
0.23645253202895164 0.3341298497483592
0.15988046768862094 0.2967908980345239
0.1790234837737036 0.2221129946068534
0.1215944355184556 0.2594519463206887
0.21730951594386896 0.3714688014621944
0.2555955481140343 0.5208246083175354
0.3130245963692823 0.3714688014621944
0.2555955481140343 0.2967908980345239
0.1790234837737036 0.3341298497483592
0.1215944355184556 0.4834856566037002
0.15988046768862094 0.5581635600313707
0.21730951594386896 0.5208246083175354
0.3130245963692823 0.4088077531760297
0.29388158028419964 0.2967908980345239
0.21730951594386896 0.07275718775151242
0.15988046768862094 0.03541823603767717
0.15988046768862094 0.1474350911791829
0.23645253202895164 0.18477404289301816
0.23645253202895164 0.03541823603767717
0.15988046768862094 -0.15127652253149906
0.10245141943337292 -0.15127652253149906
0.04502237117812491 -0.22595442595916956
0.10245141943337292 -0.07659861910382858
0.15988046768862094 -0.0019207156761580741
0.1215944355184556 -0.11393757081766383
0.06416538726320759 -0.11393757081766383
0.08330840334829026 -0.11393757081766383
0.08330840334829026 -0.07659861910382858
0.1215944355184556 -0.03925966738999332
0.15988046768862094 0.03541823603767717
0.08330840334829026 -0.11393757081766383
0.1215944355184556 -0.15127652253149906
0.14073745160353826 -0.22595442595916956
0.14073745160353826 -0.15127652253149906
0.1790234837737036 -0.11393757081766383
0.21730951594386896 -0.15127652253149906
0.21730951594386896 -0.1886154742453343
0.14073745160353826 -0.22595442595916956
0.14073745160353826 -0.22595442595916956
0.08330840334829026 -0.1886154742453343
0.14073745160353826 -0.07659861910382858
0.21730951594386896 -0.03925966738999332
0.21730951594386896 0.07275718775151242
0.21730951594386896 -0.07659861910382858
0.1981664998587863 -0.07659861910382858
0.1790234837737036 -0.03925966738999332
0.21730951594386896 0.07275718775151242
0.29388158028419964 0.11009613946534767
0.1981664998587863 -0.0019207156761580741
0.21730951594386896 -0.0019207156761580741
0.1981664998587863 0.03541823603767717
0.1790234837737036 0.2221129946068534
0.27473856419911696 0.18477404289301816
0.3130245963692823 0.2221129946068534
0.3130245963692823 0.2221129946068534
0.27473856419911696 0.18477404289301816
0.2555955481140343 0.2221129946068534
0.21730951594386896 0.3341298497483592
0.27473856419911696 0.4088077531760297
0.332167612454365 0.4088077531760297
0.29388158028419964 0.4461467048898649
0.29388158028419964 0.3341298497483592
0.2555955481140343 0.2967908980345239
0.15988046768862094 0.3341298497483592
0.2555955481140343 0.3341298497483592
0.2555955481140343 0.2221129946068534
0.29388158028419964 0.07275718775151242
0.2555955481140343 -0.1886154742453343
0.21730951594386896 -0.15127652253149906
0.15988046768862094 -0.22595442595916956
0.1215944355184556 -0.1886154742453343
0.1790234837737036 -0.22595442595916956
0.1981664998587863 -0.22595442595916956
0.1215944355184556 -0.3379712811006753
0.10245141943337292 -0.3006323293868401
0.04502237117812491 -0.15127652253149906
0.1215944355184556 -0.11393757081766383
0.1981664998587863 -0.15127652253149906
0.42788269287977837 -0.3006323293868401
0.8107430145814318 -0.599343943097522
1.2510323845383333 -0.9353945085220393
1.787036834920648 -1.346122977374227
2.30389826921788 -1.644834591084909
2.916474783940526 -1.7195124945125795
3.5673373308333365 -1.9062072530817558
4.141627813385817 -2.055563059937097
4.620203215512884 -2.652986287358461
4.983920521129455 -3.2130705630659895
5.347637826746025 -3.3624263699213306
5.462495923256522 -3.3997653216351655
5.30935179457586 -3.3624263699213306
4.869062424618958 -3.138392659638319
4.275628925981396 -2.690325239072296
3.548194314748254 -2.055563059937097
2.6484725587493685 -1.5328177359434032
1.8061798510057308 -1.2714450739465566
1.2127463523681679 -1.0100724119497098
0.7915999984963491 -0.8607166050943688
0.504454757220109 -0.7113607982390278
0.23645253202895164 -0.44998813624218104
0.08330840334829026 -0.3006323293868401
0.06416538726320759 -0.07659861910382858
0.025879355093042237 -0.07659861910382858
-0.050692709247288456 -0.03925966738999332
-0.10812175750253647 -0.03925966738999332
-0.14640778967270182 0.07275718775151242
-0.18469382184286717 0.11009613946534767
-0.14640778967270182 0.2967908980345239
-0.1655508057577845 0.2594519463206887
-0.20383683792794982 0.1474350911791829
-0.26126588618319785 0.11009613946534767
-0.2804089022682805 0.18477404289301816
-0.2804089022682805 0.2221129946068534
-0.3186949344384459 0.3714688014621944
-0.2995519183533632 0.3714688014621944
-0.3952669987787766 0.2221129946068534
-0.41441001486385926 0.2221129946068534
-0.4335530309489419 0.2967908980345239
-0.4335530309489419 0.3341298497483592
-0.41441001486385926 0.3714688014621944
-0.4718390631191072 0.1474350911791829
-0.4909820792041899 -0.0019207156761580741
-0.5675541435445206 -0.11393757081766383
-0.605840175714686 -0.07659861910382858
-0.5866971596296033 -0.0019207156761580741
-0.5675541435445206 0.03541823603767717
-0.605840175714686 -0.03925966738999332
-0.6824122400550167 -0.0019207156761580741
-0.7015552561400993 -0.03925966738999332
-0.6824122400550167 0.07275718775151242
-0.6249831917997686 0.2221129946068534
-0.6441262078848513 0.18477404289301816
-0.605840175714686 0.3341298497483592
-0.6632692239699339 0.18477404289301816
-0.7015552561400993 0.11009613946534767
-0.7015552561400993 0.1474350911791829
-0.6632692239699339 0.1474350911791829
-0.5866971596296033 0.18477404289301816
-0.6441262078848513 0.07275718775151242
-0.6441262078848513 -0.07659861910382858
-0.6824122400550167 -0.15127652253149906
-0.6441262078848513 -0.03925966738999332
-0.6632692239699339 0.03541823603767717
-0.5866971596296033 0.11009613946534767
-0.5675541435445206 -0.0019207156761580741
-0.605840175714686 0.07275718775151242
-0.6632692239699339 -0.03925966738999332
-0.6632692239699339 0.11009613946534767
-0.605840175714686 0.2594519463206887
-0.4718390631191072 0.2594519463206887
-0.5292681113743553 0.1474350911791829
-0.5101250952892726 -0.0019207156761580741
-0.5292681113743553 -0.07659861910382858
-0.548411127459438 0.1474350911791829
-0.5101250952892726 0.11009613946534767
-0.4335530309489419 0.11009613946534767
-0.4718390631191072 0.07275718775151242
-0.41441001486385926 -0.03925966738999332
-0.4335530309489419 -0.07659861910382858
-0.41441001486385926 -0.07659861910382858
-0.33783795052352855 0.07275718775151242
-0.3186949344384459 0.18477404289301816
-0.2804089022682805 0.18477404289301816
-0.33783795052352855 0.07275718775151242
-0.3569809666086112 -0.03925966738999332
-0.3186949344384459 -0.0019207156761580741
-0.26126588618319785 0.11009613946534767
-0.1655508057577845 0.11009613946534767
-0.1655508057577845 0.07275718775151242
-0.18469382184286717 -0.03925966738999332
-0.18469382184286717 -0.15127652253149906
-0.20383683792794982 -0.1886154742453343
-0.12726477358761915 -0.11393757081766383
-0.0889787414174538 -0.07659861910382858
-0.0889787414174538 -0.11393757081766383
-0.14640778967270182 -0.15127652253149906
-0.050692709247288456 -0.2632933776730048
-0.0889787414174538 -0.2632933776730048
0.0067363390079595645 -0.11393757081766383
0.0067363390079595645 -0.03925966738999332
-0.012406677077123108 -0.11393757081766383
-0.012406677077123108 -0.03925966738999332
0.025879355093042237 -0.07659861910382858
0.0067363390079595645 -0.0019207156761580741
0.04502237117812491 -0.0019207156761580741
0.10245141943337292 0.18477404289301816
0.10245141943337292 0.03541823603767717
0.1215944355184556 0.11009613946534767
0.10245141943337292 0.03541823603767717
0.06416538726320759 0.1474350911791829
0.10245141943337292 0.2221129946068534
0.1790234837737036 0.18477404289301816
0.1981664998587863 0.2221129946068534
0.15988046768862094 0.1474350911791829
0.15988046768862094 0.07275718775151242
0.15988046768862094 0.03541823603767717
0.23645253202895164 0.11009613946534767
0.27473856419911696 0.2221129946068534
0.2555955481140343 0.1474350911791829
0.21730951594386896 0.07275718775151242
0.1981664998587863 0.07275718775151242
0.1790234837737036 0.11009613946534767
0.23645253202895164 0.1474350911791829
0.21730951594386896 0.07275718775151242
0.27473856419911696 0.03541823603767717
0.23645253202895164 -0.07659861910382858
0.21730951594386896 -0.2632933776730048
0.1981664998587863 -0.3379712811006753
0.27473856419911696 -0.22595442595916956
0.332167612454365 -0.22595442595916956
0.332167612454365 -0.1886154742453343
0.332167612454365 -0.22595442595916956
0.29388158028419964 -0.11393757081766383
0.332167612454365 0.03541823603767717
0.3130245963692823 0.11009613946534767
0.389596660709613 0.2221129946068534
0.332167612454365 0.18477404289301816
0.3130245963692823 0.2221129946068534
0.27473856419911696 0.2594519463206887
0.23645253202895164 0.3341298497483592
0.2555955481140343 0.3714688014621944
0.332167612454365 0.4088077531760297
0.2555955481140343 0.3341298497483592
0.1981664998587863 0.2967908980345239
0.15988046768862094 0.2594519463206887
0.1981664998587863 0.2967908980345239
0.1981664998587863 0.3714688014621944
0.29388158028419964 0.3341298497483592
0.21730951594386896 0.4461467048898649
0.1790234837737036 0.2967908980345239
0.14073745160353826 0.2594519463206887
0.1215944355184556 0.2594519463206887
0.1215944355184556 0.4088077531760297
0.14073745160353826 0.3714688014621944
0.15988046768862094 0.4088077531760297
0.10245141943337292 0.2221129946068534
0.0067363390079595645 0.18477404289301816
0.04502237117812491 0.2594519463206887
0.06416538726320759 0.2967908980345239
0.04502237117812491 0.4461467048898649
0.06416538726320759 0.4088077531760297
0.0067363390079595645 0.4088077531760297
0.04502237117812491 0.3341298497483592
0.10245141943337292 0.4088077531760297
0.06416538726320759 0.4088077531760297
0.10245141943337292 0.5581635600313707
0.06416538726320759 0.4461467048898649
0.08330840334829026 0.3341298497483592
0.1215944355184556 0.2594519463206887
0.14073745160353826 0.3341298497483592
0.1981664998587863 0.3714688014621944
0.21730951594386896 0.4461467048898649
0.23645253202895164 0.4088077531760297
0.1790234837737036 0.2221129946068534
0.14073745160353826 0.18477404289301816
0.06416538726320759 0.2221129946068534
0.10245141943337292 0.4088077531760297
0.1215944355184556 0.5955025117452059
0.1790234837737036 0.4088077531760297
0.14073745160353826 0.4834856566037002
0.10245141943337292 0.4461467048898649
0.14073745160353826 0.4461467048898649
0.1790234837737036 0.4461467048898649
0.21730951594386896 0.4834856566037002
0.23645253202895164 0.4088077531760297
0.21730951594386896 0.2594519463206887
0.1790234837737036 0.07275718775151242
0.1981664998587863 -0.03925966738999332
0.23645253202895164 -0.03925966738999332
0.29388158028419964 -0.07659861910382858
0.29388158028419964 -0.22595442595916956
0.27473856419911696 -0.3006323293868401
0.2555955481140343 -0.44998813624218104
0.27473856419911696 -0.44998813624218104
0.35131062853944767 -0.4126491845283458
0.35131062853944767 -0.37531023281451054
0.332167612454365 -0.3006323293868401
0.3130245963692823 -0.3379712811006753
0.21730951594386896 -0.3006323293868401
0.27473856419911696 -0.2632933776730048
0.29388158028419964 -0.3379712811006753
0.332167612454365 -0.2632933776730048
0.332167612454365 -0.22595442595916956
0.29388158028419964 -0.3006323293868401
0.1981664998587863 -0.3379712811006753
0.1790234837737036 -0.2632933776730048
0.1981664998587863 -0.07659861910382858
0.23645253202895164 -0.07659861910382858
0.2555955481140343 -0.15127652253149906
0.1981664998587863 -0.1886154742453343
0.10245141943337292 -0.3006323293868401
0.04502237117812491 -0.15127652253149906
0.025879355093042237 -0.22595442595916956
0.04502237117812491 -0.03925966738999332
0.04502237117812491 -0.15127652253149906
-0.012406677077123108 -0.11393757081766383
-0.0889787414174538 -0.15127652253149906
-0.03154969316220578 -0.11393757081766383
-0.012406677077123108 -0.03925966738999332
-0.012406677077123108 0.1474350911791829
0.04502237117812491 0.07275718775151242
-0.012406677077123108 0.07275718775151242
-0.012406677077123108 0.11009613946534767
-0.012406677077123108 0.1474350911791829
-0.03154969316220578 0.2221129946068534
0.06416538726320759 0.2221129946068534
0.10245141943337292 0.1474350911791829
0.1215944355184556 0.11009613946534767
0.04502237117812491 0.07275718775151242
0.025879355093042237 0.03541823603767717
0.10245141943337292 0.11009613946534767
0.15988046768862094 0.2221129946068534
0.14073745160353826 0.2594519463206887
0.14073745160353826 0.2594519463206887
0.08330840334829026 0.2221129946068534
-0.012406677077123108 0.3341298497483592
0.10245141943337292 0.3714688014621944
0.14073745160353826 0.4088077531760297
0.1981664998587863 0.3714688014621944
0.21730951594386896 0.2221129946068534
0.1215944355184556 0.1474350911791829
0.14073745160353826 0.11009613946534767
0.21730951594386896 0.07275718775151242
0.23645253202895164 0.11009613946534767
0.23645253202895164 -0.07659861910382858
0.27473856419911696 -0.11393757081766383
0.27473856419911696 -0.22595442595916956
0.21730951594386896 -0.22595442595916956
0.332167612454365 -0.07659861910382858
0.3130245963692823 -0.03925966738999332
0.37045364462453034 -0.03925966738999332
0.27473856419911696 -0.1886154742453343
0.23645253202895164 -0.3006323293868401
0.23645253202895164 -0.2632933776730048
0.29388158028419964 -0.15127652253149906
0.35131062853944767 -0.15127652253149906
0.332167612454365 -0.15127652253149906
0.2555955481140343 -0.22595442595916956
0.2555955481140343 -0.3379712811006753
0.21730951594386896 -0.3006323293868401
0.23645253202895164 -0.2632933776730048
0.2555955481140343 -0.15127652253149906
0.2555955481140343 -0.11393757081766383
0.21730951594386896 -0.1886154742453343
0.1981664998587863 -0.22595442595916956
0.1981664998587863 -0.2632933776730048
0.23645253202895164 -0.22595442595916956
0.23645253202895164 -0.11393757081766383
0.1790234837737036 -0.07659861910382858
0.15988046768862094 -0.22595442595916956
0.14073745160353826 -0.2632933776730048
0.10245141943337292 -0.15127652253149906
0.14073745160353826 -0.11393757081766383
0.14073745160353826 -0.07659861910382858
0.15988046768862094 -0.03925966738999332
0.1215944355184556 0.11009613946534767
0.08330840334829026 0.03541823603767717
0.1215944355184556 0.18477404289301816
0.1215944355184556 0.2594519463206887
0.1790234837737036 0.2221129946068534
0.35131062853944767 0.1474350911791829
0.6001698376455225 -0.07659861910382858
1.0021731754322585 -0.3006323293868401
1.4233195293040772 -0.4873270879560163
1.9018949314311442 -0.6740218465251926
2.3613273174731284 -1.0100724119497098
2.8590457356852776 -1.2714450739465566
3.395050186067593 -1.5328177359434032
3.8161965399394115 -1.644834591084909
4.275628925981396 -1.9808851565094263
4.658489247683049 -2.4662915287892844
4.945634488959289 -2.8023420942138015
4.926491472874206 -3.0637147562106484
4.8116333763637105 -3.2130705630659895
4.620203215512884 -3.175731611352154
4.218199877726147 -3.0263758044968134
3.701338443428915 -2.391613625361614
2.9930468482808563 -1.9808851565094263
2.208183188792467 -1.5701566876572386
1.4616055614742427 -1.346122977374227
1.0213161915173412 -1.196767170518886
0.8107430145814318 -1.0100724119497098
0.6384558698156878 -0.8607166050943688
0.4853117411350264 -0.599343943097522
0.3130245963692823 -0.599343943097522
0.1790234837737036 -0.5246660396698516
0.1215944355184556 -0.4126491845283458
0.04502237117812491 -0.3379712811006753
0.08330840334829026 -0.2632933776730048
0.08330840334829026 -0.15127652253149906
0.06416538726320759 -0.07659861910382858
-0.10812175750253647 -0.11393757081766383
-0.10812175750253647 -0.15127652253149906
-0.10812175750253647 -0.11393757081766383
-0.12726477358761915 -0.07659861910382858
-0.0889787414174538 -0.0019207156761580741
-0.14640778967270182 -0.0019207156761580741
-0.24212287009811517 0.07275718775151242
-0.24212287009811517 -0.07659861910382858
-0.2995519183533632 -0.03925966738999332
-0.2804089022682805 0.07275718775151242
-0.2804089022682805 0.18477404289301816
-0.26126588618319785 0.11009613946534767
-0.3569809666086112 0.03541823603767717
-0.41441001486385926 -0.0019207156761580741
-0.4335530309489419 0.11009613946534767
-0.3761239826936939 0.1474350911791829
-0.3761239826936939 0.2967908980345239
-0.41441001486385926 0.2221129946068534
-0.4335530309489419 0.2594519463206887
-0.45269604703402455 0.2967908980345239
-0.4718390631191072 0.3341298497483592
-0.45269604703402455 0.4834856566037002
-0.4335530309489419 0.5581635600313707
-0.45269604703402455 0.7075193668867117
-0.5292681113743553 0.5955025117452059
-0.5101250952892726 0.5581635600313707
-0.5101250952892726 0.6701804151728764
-0.548411127459438 0.7448583186005469
-0.4909820792041899 0.8568751737420527
-0.41441001486385926 0.8195362220282174
-0.45269604703402455 0.7448583186005469
-0.4335530309489419 0.7448583186005469
-0.4718390631191072 0.6701804151728764
-0.4335530309489419 0.7075193668867117
-0.41441001486385926 0.7075193668867117
-0.4335530309489419 0.7075193668867117
-0.41441001486385926 0.5581635600313707
-0.45269604703402455 0.3341298497483592
-0.41441001486385926 0.2967908980345239
-0.3761239826936939 0.2221129946068534
-0.2804089022682805 0.18477404289301816
-0.20383683792794982 0.18477404289301816
-0.20383683792794982 0.07275718775151242
-0.24212287009811517 -0.07659861910382858
-0.24212287009811517 -0.11393757081766383
-0.20383683792794982 -0.0019207156761580741
-0.14640778967270182 0.11009613946534767
-0.18469382184286717 0.07275718775151242
-0.18469382184286717 -0.03925966738999332
-0.1655508057577845 -0.0019207156761580741
-0.14640778967270182 -0.0019207156761580741
-0.06983572533237113 0.07275718775151242
-0.012406677077123108 0.11009613946534767
-0.03154969316220578 0.07275718775151242
0.025879355093042237 -0.0019207156761580741
-0.03154969316220578 -0.11393757081766383
-0.06983572533237113 0.03541823603767717
0.025879355093042237 -0.0019207156761580741
0.08330840334829026 0.11009613946534767
0.08330840334829026 0.11009613946534767
0.06416538726320759 0.03541823603767717
0.025879355093042237 -0.03925966738999332
0.06416538726320759 -0.07659861910382858
0.10245141943337292 -0.03925966738999332
0.10245141943337292 0.1474350911791829
0.14073745160353826 0.11009613946534767
0.08330840334829026 0.07275718775151242
0.06416538726320759 0.07275718775151242
-0.012406677077123108 -0.0019207156761580741
0.04502237117812491 0.11009613946534767
0.1790234837737036 0.1474350911791829
0.1981664998587863 0.1474350911791829
0.21730951594386896 0.11009613946534767
0.1790234837737036 -0.0019207156761580741
0.14073745160353826 0.07275718775151242
0.15988046768862094 0.2221129946068534
0.23645253202895164 0.3714688014621944
0.27473856419911696 0.4088077531760297
0.21730951594386896 0.3341298497483592
0.27473856419911696 0.3341298497483592
0.27473856419911696 0.4088077531760297
0.332167612454365 0.5208246083175354
0.35131062853944767 0.7075193668867117
0.4087396767946957 0.6328414634590411
0.389596660709613 0.5955025117452059
0.389596660709613 0.6701804151728764
0.389596660709613 0.7448583186005469
0.4853117411350264 0.9315530771697231
0.4853117411350264 0.9315530771697231
0.5427407893902744 0.9315530771697231
0.4853117411350264 0.8568751737420527
0.389596660709613 0.7821972703143821
0.4087396767946957 0.8195362220282174
0.44702570896486105 0.9688920288835584
0.504454757220109 0.9688920288835584
0.5427407893902744 0.8568751737420527
0.5427407893902744 0.6328414634590411
0.504454757220109 0.4834856566037002
0.5427407893902744 0.2967908980345239
0.6001698376455225 0.1474350911791829
0.6575988859007704 0.11009613946534767
0.6575988859007704 0.07275718775151242
0.6193128537306051 0.03541823603767717
0.6001698376455225 -0.07659861910382858
0.6384558698156878 -0.0019207156761580741
0.6384558698156878 0.1474350911791829
0.7150279341560184 0.2221129946068534
0.6575988859007704 0.07275718775151242
0.6958849180709358 0.11009613946534767
0.6575988859007704 -0.03925966738999332
0.6384558698156878 0.03541823603767717
0.6958849180709358 0.11009613946534767
0.7724569824112665 0.18477404289301816
0.7533139663261837 0.2221129946068534
0.7150279341560184 0.11009613946534767
0.6958849180709358 0.07275718775151242
0.6193128537306051 0.07275718775151242
0.6767419019858532 0.2221129946068534
0.7150279341560184 0.2221129946068534
0.7150279341560184 0.2967908980345239
0.6767419019858532 0.18477404289301816
0.6575988859007704 0.1474350911791829
0.5427407893902744 0.2967908980345239
0.6384558698156878 0.3341298497483592
0.6575988859007704 0.4088077531760297
0.6384558698156878 0.3714688014621944
0.6001698376455225 0.4088077531760297
0.5810268215604397 0.3341298497483592
0.6001698376455225 0.3714688014621944
0.5618838054753571 0.4461467048898649
0.5810268215604397 0.4461467048898649
0.5618838054753571 0.5581635600313707
0.5235977733051917 0.4461467048898649
0.4661687250499437 0.3714688014621944
0.4087396767946957 0.5208246083175354
0.44702570896486105 0.5955025117452059
0.5427407893902744 0.7075193668867117
0.5235977733051917 0.8195362220282174
0.5427407893902744 0.7075193668867117
0.5427407893902744 0.7448583186005469
0.5427407893902744 0.7821972703143821
0.5235977733051917 0.9315530771697231
0.6001698376455225 0.9688920288835584
0.6193128537306051 1.0062309805973937
0.5810268215604397 1.0062309805973937
0.5618838054753571 0.9688920288835584
0.6193128537306051 1.0809088840250642
0.6384558698156878 1.2302646908804051
0.6575988859007704 1.2302646908804051
0.6767419019858532 1.1182478357388994
0.6384558698156878 1.0435699323112289
0.6575988859007704 1.0062309805973937
0.6193128537306051 1.0809088840250642
0.6767419019858532 1.1182478357388994
0.7341709502411011 1.0435699323112289
0.7724569824112665 0.8195362220282174
0.7915999984963491 0.5581635600313707
0.7915999984963491 0.4834856566037002
0.8298860306665145 0.4088077531760297
0.8873150789217625 0.4088077531760297
0.9638871432620932 0.5208246083175354
0.8873150789217625 0.4461467048898649
0.9256011110919279 0.2967908980345239
0.8873150789217625 0.2594519463206887
0.8681720628366798 0.3341298497483592
0.8873150789217625 0.4834856566037002
0.9256011110919279 0.4461467048898649
0.9830301593471759 0.4461467048898649
0.9064580950068452 0.3714688014621944
0.9256011110919279 0.18477404289301816
0.9256011110919279 0.2967908980345239
1.0021731754322585 0.3341298497483592
1.0021731754322585 0.5208246083175354
0.9638871432620932 0.3714688014621944
0.9447441271770105 0.3341298497483592
0.8873150789217625 0.2594519463206887
0.8873150789217625 0.2594519463206887
0.9256011110919279 0.4088077531760297
0.9638871432620932 0.4834856566037002
0.9447441271770105 0.5208246083175354
0.8873150789217625 0.4461467048898649
0.8681720628366798 0.2967908980345239
0.8490290467515972 0.3714688014621944
0.8681720628366798 0.4461467048898649
0.8873150789217625 0.4834856566037002
0.8873150789217625 0.4834856566037002
0.8873150789217625 0.3341298497483592
0.7915999984963491 0.3341298497483592
0.7724569824112665 0.3714688014621944
0.7341709502411011 0.5208246083175354
0.7724569824112665 0.4834856566037002
0.7915999984963491 0.5581635600313707
0.7150279341560184 0.4461467048898649
0.6575988859007704 0.4461467048898649
0.6958849180709358 0.5208246083175354
0.7341709502411011 0.6328414634590411
0.7533139663261837 0.8195362220282174
0.7150279341560184 0.8195362220282174
0.8107430145814318 0.8195362220282174
0.7724569824112665 0.7448583186005469
0.7915999984963491 0.7448583186005469
0.8298860306665145 0.8568751737420527
0.8107430145814318 0.8942141254558879
0.8107430145814318 0.9688920288835584
0.7724569824112665 0.8942141254558879
0.7150279341560184 0.8568751737420527
0.7150279341560184 1.0062309805973937
0.7533139663261837 1.1182478357388994
0.7915999984963491 1.0435699323112289
0.7915999984963491 1.0062309805973937
0.8107430145814318 0.9688920288835584
0.7341709502411011 0.7821972703143821
0.8107430145814318 0.7075193668867117
0.8873150789217625 0.5581635600313707
0.9447441271770105 0.5581635600313707
0.9638871432620932 0.4834856566037002
0.9830301593471759 0.3714688014621944
0.9638871432620932 0.2967908980345239
1.0021731754322585 0.2967908980345239
1.040459207602424 0.3341298497483592
1.0787452397725892 0.2967908980345239
1.1170312719427546 0.3341298497483592
1.0787452397725892 0.3341298497483592
1.0596022236875065 0.2967908980345239
1.0021731754322585 0.2967908980345239
1.040459207602424 0.3714688014621944
1.097888255857672 0.4834856566037002
1.097888255857672 0.4088077531760297
1.1936033362830853 0.2221129946068534
1.3084614327935813 0.1474350911791829
1.614749690154904 -0.0019207156761580741
2.035896044026723 -0.1886154742453343
2.3996133496432934 -0.3379712811006753
2.839902719600195 -0.599343943097522
3.203620025216766 -1.0474113636635451
3.5290512986631715 -1.346122977374227
3.9884836847051552 -1.3834619290880623
4.44791607074714 -1.3834619290880623
4.888205440704041 -1.5701566876572386
5.156207665895199 -1.943546204795591
5.30935179457586 -2.2049188667924375
5.30935179457586 -2.4289525770754494
5.137064649810116 -2.391613625361614
4.926491472874206 -2.2049188667924375
4.601060199427801 -1.8688683013679206
4.103341781215652 -1.4581398325157329
3.414193202152675 -1.196767170518886
2.4761854139836244 -0.748699749952863
1.787036834920648 -0.4873270879560163
1.4041765132189947 -0.22595442595916956
1.1744603201980026 0.11009613946534767
0.9638871432620932 0.2967908980345239
0.7341709502411011 0.3714688014621944
0.5427407893902744 0.3714688014621944
0.504454757220109 0.5581635600313707
0.5235977733051917 0.6701804151728764
0.5618838054753571 0.8568751737420527
0.5618838054753571 0.8568751737420527
0.4853117411350264 0.8568751737420527
0.42788269287977837 0.8195362220282174
0.35131062853944767 0.8942141254558879
0.37045364462453034 0.9688920288835584
0.35131062853944767 1.0435699323112289
0.37045364462453034 0.9688920288835584
0.3130245963692823 0.8942141254558879
0.23645253202895164 0.6701804151728764
0.21730951594386896 0.5581635600313707
0.1981664998587863 0.5208246083175354
0.29388158028419964 0.4834856566037002
0.332167612454365 0.4461467048898649
0.27473856419911696 0.2594519463206887
0.21730951594386896 0.1474350911791829
0.23645253202895164 0.2967908980345239
0.2555955481140343 0.3714688014621944
0.29388158028419964 0.5208246083175354
0.4087396767946957 0.5955025117452059
0.4087396767946957 0.5955025117452059
0.389596660709613 0.5208246083175354
0.389596660709613 0.6328414634590411
0.4087396767946957 0.7075193668867117
0.4087396767946957 0.7821972703143821
0.44702570896486105 0.8942141254558879
0.42788269287977837 0.7075193668867117
0.4661687250499437 0.6701804151728764
0.37045364462453034 0.7075193668867117
0.389596660709613 0.7821972703143821
0.42788269287977837 0.8942141254558879
0.4661687250499437 0.8942141254558879
0.42788269287977837 0.7821972703143821
0.389596660709613 0.7075193668867117
0.389596660709613 0.8942141254558879
0.35131062853944767 0.9315530771697231
0.4087396767946957 1.0435699323112289
0.389596660709613 1.0062309805973937
0.37045364462453034 0.8568751737420527
0.332167612454365 0.8942141254558879
0.29388158028419964 0.8942141254558879
0.332167612454365 0.9688920288835584
0.37045364462453034 1.0062309805973937
0.332167612454365 1.0435699323112289
0.3130245963692823 0.8568751737420527
0.2555955481140343 0.8568751737420527
0.1981664998587863 0.9315530771697231
0.2555955481140343 1.0062309805973937
0.3130245963692823 1.0435699323112289
0.2555955481140343 1.0809088840250642
0.21730951594386896 1.0435699323112289
0.21730951594386896 0.8942141254558879
0.23645253202895164 1.0062309805973937
0.2555955481140343 1.0809088840250642
0.332167612454365 1.1555867874527346
0.35131062853944767 1.19292573916657
0.37045364462453034 1.0809088840250642
0.332167612454365 1.0062309805973937
0.37045364462453034 0.8942141254558879
0.37045364462453034 1.1182478357388994
0.4661687250499437 1.1555867874527346
0.5427407893902744 1.0809088840250642
0.5427407893902744 0.9688920288835584
0.504454757220109 0.9315530771697231
0.4661687250499437 0.9315530771697231
0.504454757220109 0.9688920288835584
0.5618838054753571 1.1182478357388994
0.5810268215604397 1.1555867874527346
0.6001698376455225 1.0062309805973937
0.5618838054753571 0.8568751737420527
0.6384558698156878 0.7075193668867117
0.7341709502411011 0.7448583186005469
0.8490290467515972 0.5581635600313707
0.8873150789217625 0.3341298497483592
0.8681720628366798 0.2594519463206887
0.8490290467515972 0.2594519463206887
0.8681720628366798 0.2221129946068534
0.9830301593471759 0.3341298497483592
1.0596022236875065 0.4461467048898649
1.0787452397725892 0.5208246083175354
1.097888255857672 0.4088077531760297
1.0596022236875065 0.4461467048898649
1.0213161915173412 0.4834856566037002
1.040459207602424 0.6328414634590411
1.097888255857672 0.7448583186005469
1.097888255857672 0.6701804151728764
1.040459207602424 0.6328414634590411
1.0021731754322585 0.5581635600313707
1.0213161915173412 0.5955025117452059
1.0213161915173412 0.5955025117452059
1.040459207602424 0.7821972703143821
1.1170312719427546 0.7448583186005469
1.0787452397725892 0.7448583186005469
0.9447441271770105 0.5955025117452059
0.9064580950068452 0.5581635600313707
0.8873150789217625 0.7821972703143821
0.9256011110919279 0.8195362220282174
0.8873150789217625 0.8568751737420527
0.9064580950068452 0.7821972703143821
0.8107430145814318 0.6701804151728764
0.7533139663261837 0.6701804151728764
0.7533139663261837 0.7821972703143821
0.7724569824112665 1.0062309805973937
0.8107430145814318 0.9688920288835584
0.7341709502411011 0.8942141254558879
0.6958849180709358 0.9688920288835584
0.6767419019858532 1.0809088840250642
0.7150279341560184 1.2302646908804051
0.7533139663261837 1.3049425943080757
0.7341709502411011 1.2302646908804051
0.7150279341560184 1.2676036425942403
0.6767419019858532 1.1555867874527346
0.6958849180709358 1.0062309805973937
0.7341709502411011 1.1555867874527346
0.7724569824112665 1.2676036425942403
0.8107430145814318 1.2302646908804051
0.8298860306665145 1.1182478357388994
0.7915999984963491 0.9688920288835584
0.7150279341560184 0.9688920288835584
0.7724569824112665 1.0809088840250642
0.8490290467515972 1.2302646908804051
0.8873150789217625 1.3049425943080757
0.8490290467515972 1.1182478357388994
0.8107430145814318 1.0809088840250642
0.7150279341560184 1.0809088840250642
0.8490290467515972 1.2302646908804051
0.8873150789217625 1.3049425943080757
0.9638871432620932 1.3049425943080757
0.9638871432620932 1.2676036425942403
0.9064580950068452 1.3422815460219109
0.8107430145814318 1.3422815460219109
0.8873150789217625 1.491637352877252
0.9064580950068452 1.491637352877252
0.9830301593471759 1.491637352877252
0.9064580950068452 1.4542984011634166
0.8681720628366798 1.3796204977357462
0.8298860306665145 1.3422815460219109
0.8298860306665145 1.3049425943080757
0.8681720628366798 1.2676036425942403
0.8681720628366798 0.9688920288835584
0.9064580950068452 0.8942141254558879
0.8681720628366798 0.7821972703143821
0.8681720628366798 0.7075193668867117
0.8490290467515972 0.7075193668867117
0.9256011110919279 0.8942141254558879
0.9256011110919279 0.9315530771697231
0.8490290467515972 0.8195362220282174
0.8490290467515972 0.7075193668867117
0.8107430145814318 0.6701804151728764
0.8107430145814318 0.7821972703143821
0.7533139663261837 0.8942141254558879
0.8490290467515972 0.8942141254558879
0.7724569824112665 0.7075193668867117
0.7150279341560184 0.7448583186005469
0.6001698376455225 0.7075193668867117
0.6193128537306051 0.8195362220282174
0.6958849180709358 1.0062309805973937
0.6767419019858532 0.9688920288835584
0.6575988859007704 0.8942141254558879
0.6575988859007704 0.9315530771697231
0.6193128537306051 0.9315530771697231
0.5810268215604397 1.0809088840250642
0.6767419019858532 1.19292573916657
0.6767419019858532 1.1182478357388994
0.6384558698156878 1.0435699323112289
0.6193128537306051 0.9315530771697231
0.6001698376455225 0.9688920288835584
0.6001698376455225 1.0809088840250642
0.6575988859007704 1.1555867874527346
0.6958849180709358 1.0809088840250642
0.6575988859007704 1.0062309805973937
0.6767419019858532 1.0062309805973937
0.6767419019858532 0.9688920288835584
0.6767419019858532 1.0062309805973937
0.7341709502411011 1.1182478357388994
0.6767419019858532 1.1182478357388994
0.6575988859007704 1.1182478357388994
0.6575988859007704 1.0062309805973937
0.6193128537306051 1.0062309805973937
0.6384558698156878 1.2302646908804051
0.7533139663261837 1.2676036425942403
0.7915999984963491 1.1555867874527346
0.7533139663261837 1.1555867874527346
0.7150279341560184 1.0062309805973937
0.7150279341560184 1.1555867874527346
0.7533139663261837 1.1555867874527346
0.7533139663261837 1.2302646908804051
0.7533139663261837 1.2676036425942403
0.7150279341560184 1.1555867874527346
0.7341709502411011 1.1555867874527346
0.7150279341560184 1.1182478357388994
0.7724569824112665 1.2676036425942403
0.7724569824112665 1.3422815460219109
0.8107430145814318 1.3422815460219109
0.7533139663261837 1.3796204977357462
0.7150279341560184 1.4542984011634166
0.6575988859007704 1.491637352877252
0.6767419019858532 1.491637352877252
0.7533139663261837 1.7530100148740986
0.7341709502411011 1.6036542080187577
0.6958849180709358 1.678332111446428
0.6384558698156878 1.678332111446428
0.6001698376455225 1.6036542080187577
0.6767419019858532 1.6409931597325929
0.7150279341560184 1.5663152563049223
0.6767419019858532 1.2676036425942403
0.6384558698156878 0.9315530771697231
0.6384558698156878 0.8568751737420527
0.5810268215604397 0.7821972703143821
0.6001698376455225 0.8942141254558879
0.6384558698156878 1.0062309805973937
0.5810268215604397 0.9688920288835584
0.5618838054753571 0.8195362220282174
0.4661687250499437 0.8195362220282174
0.44702570896486105 0.7821972703143821
0.4853117411350264 0.9315530771697231
0.5235977733051917 0.9688920288835584
0.5618838054753571 1.0809088840250642
0.5235977733051917 1.1182478357388994
0.504454757220109 0.9688920288835584
0.4853117411350264 1.1182478357388994
0.5618838054753571 1.1182478357388994
0.5235977733051917 1.2676036425942403
0.504454757220109 1.3422815460219109
0.504454757220109 1.19292573916657
0.504454757220109 1.0435699323112289
0.6384558698156878 1.0062309805973937
0.8873150789217625 0.8942141254558879
1.327604448878664 0.6701804151728764
1.7487508027504828 0.2967908980345239
2.131611124452136 -0.07659861910382858
2.4761854139836244 -0.37531023281451054
2.9356178000256086 -0.5620049913836868
3.5290512986631715 -0.599343943097522
4.141627813385817 -0.748699749952863
4.696775279853214 -1.196767170518886
5.156207665895199 -1.9062072530817558
5.385923858916191 -2.3169357219339437
5.347637826746025 -2.2795967702201083
5.2136367141504465 -2.092902011650932
4.945634488959289 -1.7568514462264149
4.486202102917305 -1.1594282188050509
3.701338443428915 -0.6366828948113573
2.782473671344947 -0.3379712811006753
1.9401809636013094 -0.03925966738999332
1.385033497133912 0.2967908980345239
1.1936033362830853 0.6328414634590411
0.9830301593471759 0.7821972703143821
0.7533139663261837 0.8195362220282174
0.4853117411350264 0.8568751737420527
0.3130245963692823 1.0435699323112289
0.29388158028419964 1.19292573916657
0.3130245963692823 1.491637352877252
0.3130245963692823 1.5289763045910871
0.1790234837737036 1.5289763045910871
0.1215944355184556 1.491637352877252
0.04502237117812491 1.5663152563049223
0.025879355093042237 1.6036542080187577
-0.03154969316220578 1.678332111446428
-0.050692709247288456 1.6036542080187577
-0.050692709247288456 1.491637352877252
-0.14640778967270182 1.19292573916657
-0.20383683792794982 1.2302646908804051
-0.2229798540130325 1.2302646908804051
-0.1655508057577845 1.19292573916657
-0.18469382184286717 1.19292573916657
-0.24212287009811517 1.1182478357388994
-0.2995519183533632 1.0435699323112289
-0.3952669987787766 1.0435699323112289
-0.3952669987787766 1.0809088840250642
-0.33783795052352855 1.2676036425942403
-0.3186949344384459 1.3049425943080757
-0.33783795052352855 1.19292573916657
-0.3761239826936939 1.19292573916657
-0.3952669987787766 1.2676036425942403
-0.3569809666086112 1.3049425943080757
-0.3569809666086112 1.4542984011634166
-0.33783795052352855 1.4169594494495814
-0.3761239826936939 1.3422815460219109
-0.4335530309489419 1.2302646908804051
-0.4718390631191072 1.3049425943080757
-0.4909820792041899 1.3049425943080757
-0.4335530309489419 1.3422815460219109
-0.3952669987787766 1.3049425943080757
-0.3761239826936939 1.2302646908804051
-0.4718390631191072 1.2302646908804051
-0.5101250952892726 1.2676036425942403
-0.5101250952892726 1.3422815460219109
-0.41441001486385926 1.4542984011634166
-0.4335530309489419 1.4169594494495814
-0.41441001486385926 1.3796204977357462
-0.45269604703402455 1.3422815460219109
-0.41441001486385926 1.3796204977357462
-0.4718390631191072 1.4169594494495814
-0.45269604703402455 1.6036542080187577
-0.33783795052352855 1.6036542080187577
-0.3761239826936939 1.5289763045910871
-0.4335530309489419 1.3796204977357462
-0.41441001486385926 1.4169594494495814
-0.33783795052352855 1.4542984011634166
-0.2995519183533632 1.5289763045910871
-0.26126588618319785 1.5663152563049223
-0.26126588618319785 1.4169594494495814
-0.3186949344384459 1.3422815460219109
-0.2995519183533632 1.3422815460219109
-0.24212287009811517 1.3796204977357462
-0.18469382184286717 1.5663152563049223
-0.12726477358761915 1.491637352877252
-0.18469382184286717 1.5289763045910871
-0.20383683792794982 1.6036542080187577
-0.26126588618319785 1.6036542080187577
-0.20383683792794982 1.6036542080187577
-0.14640778967270182 1.7530100148740986
-0.10812175750253647 1.6409931597325929
-0.14640778967270182 1.4542984011634166
-0.18469382184286717 1.3422815460219109
-0.2229798540130325 1.3422815460219109
-0.20383683792794982 1.19292573916657
-0.1655508057577845 1.1182478357388994
-0.12726477358761915 0.9315530771697231
-0.14640778967270182 0.8568751737420527
-0.2229798540130325 0.8195362220282174
-0.24212287009811517 0.8568751737420527
-0.20383683792794982 0.9688920288835584
-0.12726477358761915 1.1182478357388994
-0.050692709247288456 1.1182478357388994
-0.03154969316220578 1.0809088840250642
0.0067363390079595645 1.0809088840250642
-0.012406677077123108 1.0435699323112289
0.025879355093042237 1.19292573916657
0.04502237117812491 1.19292573916657
0.04502237117812491 1.1555867874527346
0.08330840334829026 1.1555867874527346
0.04502237117812491 1.0809088840250642
0.1215944355184556 0.9315530771697231
0.14073745160353826 0.9688920288835584
0.23645253202895164 1.0809088840250642
0.1981664998587863 1.1182478357388994
0.10245141943337292 1.0809088840250642
0.10245141943337292 1.0435699323112289
0.08330840334829026 0.9688920288835584
0.10245141943337292 1.19292573916657
0.1790234837737036 1.3049425943080757
0.23645253202895164 1.3049425943080757
0.1981664998587863 1.19292573916657
0.1790234837737036 1.1182478357388994
0.1981664998587863 1.1182478357388994
0.23645253202895164 1.19292573916657
0.29388158028419964 1.2676036425942403
0.2555955481140343 1.3422815460219109
0.1981664998587863 1.2302646908804051
0.21730951594386896 1.19292573916657
0.15988046768862094 1.19292573916657
0.1981664998587863 1.19292573916657
0.23645253202895164 1.3049425943080757
0.23645253202895164 1.3796204977357462
0.1790234837737036 1.3049425943080757
0.1790234837737036 1.3049425943080757
0.15988046768862094 1.3422815460219109
0.15988046768862094 1.3796204977357462
0.1790234837737036 1.491637352877252
0.1790234837737036 1.5663152563049223
0.15988046768862094 1.6036542080187577
-0.012406677077123108 1.6409931597325929
0.0067363390079595645 1.678332111446428
-0.012406677077123108 1.7156710631602634
-0.012406677077123108 1.7156710631602634
0.04502237117812491 1.678332111446428
0.025879355093042237 1.6036542080187577
-0.050692709247288456 1.3049425943080757
-0.0889787414174538 1.2302646908804051
-0.12726477358761915 1.1182478357388994
-0.050692709247288456 1.1555867874527346
-0.050692709247288456 1.2676036425942403
-0.06983572533237113 1.1555867874527346
-0.12726477358761915 1.19292573916657
-0.20383683792794982 1.19292573916657
-0.0889787414174538 1.19292573916657
-0.06983572533237113 1.3422815460219109
-0.050692709247288456 1.3796204977357462
-0.03154969316220578 1.19292573916657
-0.050692709247288456 1.1555867874527346
-0.0889787414174538 1.0435699323112289
-0.050692709247288456 1.2302646908804051
-0.050692709247288456 1.1555867874527346
0.06416538726320759 1.1182478357388994
0.04502237117812491 1.0435699323112289
0.025879355093042237 0.9688920288835584
0.0067363390079595645 1.0062309805973937
0.0067363390079595645 1.0435699323112289
0.08330840334829026 1.2302646908804051
0.10245141943337292 1.2302646908804051
0.04502237117812491 1.1555867874527346
0.08330840334829026 1.0435699323112289
0.04502237117812491 1.0435699323112289
0.1215944355184556 1.1182478357388994
0.15988046768862094 1.2302646908804051
0.1981664998587863 1.19292573916657
0.15988046768862094 1.2302646908804051
0.1215944355184556 1.1555867874527346
0.1215944355184556 1.19292573916657
0.1215944355184556 1.2676036425942403
0.1981664998587863 1.3049425943080757
0.1981664998587863 1.3049425943080757
0.21730951594386896 1.19292573916657
0.15988046768862094 1.1555867874527346
0.1215944355184556 1.19292573916657
0.15988046768862094 1.2302646908804051
0.1790234837737036 1.3049425943080757
0.21730951594386896 1.3049425943080757
0.14073745160353826 1.2302646908804051
0.10245141943337292 1.2302646908804051
0.04502237117812491 1.2302646908804051
0.04502237117812491 1.2676036425942403
0.14073745160353826 1.3049425943080757
0.1790234837737036 1.2302646908804051
0.14073745160353826 1.4169594494495814
0.04502237117812491 1.2676036425942403
-0.012406677077123108 1.2302646908804051
-0.050692709247288456 1.3422815460219109
-0.03154969316220578 1.3796204977357462
0.0067363390079595645 1.3049425943080757
-0.012406677077123108 1.1182478357388994
-0.06983572533237113 0.8568751737420527
-0.06983572533237113 0.7448583186005469
-0.0889787414174538 0.7448583186005469
-0.050692709247288456 0.9315530771697231
0.06416538726320759 1.0435699323112289
0.04502237117812491 0.9688920288835584
0.08330840334829026 0.8942141254558879
0.025879355093042237 0.8568751737420527
0.04502237117812491 0.9315530771697231
0.06416538726320759 1.0062309805973937
0.08330840334829026 0.9688920288835584
0.06416538726320759 0.8568751737420527
0.025879355093042237 0.8195362220282174
0.06416538726320759 0.7075193668867117
0.08330840334829026 0.7821972703143821
0.10245141943337292 0.8195362220282174
0.08330840334829026 0.7821972703143821
0.1215944355184556 0.8195362220282174
0.08330840334829026 0.7075193668867117
0.08330840334829026 0.7075193668867117
0.10245141943337292 0.7448583186005469
0.1215944355184556 0.8942141254558879
0.08330840334829026 0.8568751737420527
0.1790234837737036 0.7448583186005469
0.15988046768862094 0.7821972703143821
0.08330840334829026 0.7821972703143821
0.10245141943337292 0.7821972703143821
0.1790234837737036 0.9315530771697231
0.21730951594386896 0.8942141254558879
0.14073745160353826 0.8942141254558879
0.1215944355184556 0.7821972703143821
0.06416538726320759 0.7448583186005469
0.1215944355184556 0.7821972703143821
0.1790234837737036 0.9688920288835584
0.21730951594386896 1.0062309805973937
0.1790234837737036 0.9315530771697231
0.1790234837737036 0.8942141254558879
0.15988046768862094 0.8195362220282174
0.1790234837737036 0.8942141254558879
0.1981664998587863 0.9315530771697231
0.23645253202895164 1.0435699323112289
0.1790234837737036 1.0062309805973937
0.1790234837737036 0.9688920288835584
0.06416538726320759 0.9315530771697231
0.06416538726320759 1.0062309805973937
0.1215944355184556 1.1555867874527346
0.14073745160353826 1.1555867874527346
0.10245141943337292 1.19292573916657
0.025879355093042237 1.0062309805973937
0.0067363390079595645 1.0435699323112289
-0.050692709247288456 1.0435699323112289
-0.050692709247288456 1.0809088840250642
-0.012406677077123108 1.0435699323112289
-0.050692709247288456 0.9315530771697231
-0.06983572533237113 0.7448583186005469
-0.050692709247288456 0.5955025117452059
-0.03154969316220578 0.6701804151728764
0.08330840334829026 0.8195362220282174
0.1215944355184556 0.8568751737420527
0.1215944355184556 0.8195362220282174
0.08330840334829026 0.6701804151728764
0.06416538726320759 0.6701804151728764
0.1215944355184556 0.7448583186005469
0.21730951594386896 0.9688920288835584
0.1981664998587863 0.8568751737420527
0.15988046768862094 0.8942141254558879
0.14073745160353826 0.7075193668867117
0.10245141943337292 0.6701804151728764
0.23645253202895164 0.6328414634590411
0.4661687250499437 0.7821972703143821
0.8107430145814318 0.5581635600313707
1.1361742880278372 0.2594519463206887
1.499891593644408 -0.03925966738999332
1.921037947516227 -0.37531023281451054
2.380470333558211 -0.6740218465251926
2.839902719600195 -0.8233776533805336
3.414193202152675 -0.898055556808204
3.892768604279742 -1.1594282188050509
4.218199877726147 -1.644834591084909
4.409630038576974 -1.9808851565094263
4.486202102917305 -2.130240963364767
4.44791607074714 -2.092902011650932
4.3330579742366435 -1.943546204795591
4.026769716875321 -1.5701566876572386
3.5290512986631715 -1.2714450739465566
2.8207597035151126 -0.8233776533805336
1.9976100118565574 -0.3379712811006753
1.3084614327935813 0.03541823603767717
0.9256011110919279 0.2967908980345239
0.6575988859007704 0.3714688014621944
0.389596660709613 0.5955025117452059
0.15988046768862094 0.7448583186005469
-0.012406677077123108 0.7821972703143821
-0.10812175750253647 0.8942141254558879
-0.050692709247288456 1.0435699323112289
-0.06983572533237113 1.0435699323112289
-0.12726477358761915 1.0435699323112289
-0.18469382184286717 1.0062309805973937
-0.2229798540130325 1.0809088840250642
-0.2804089022682805 1.19292573916657
-0.33783795052352855 1.1555867874527346
-0.3186949344384459 0.9315530771697231
-0.3569809666086112 0.8942141254558879
-0.41441001486385926 0.8195362220282174
-0.41441001486385926 0.7448583186005469
-0.41441001486385926 0.7075193668867117
-0.4335530309489419 0.7075193668867117
-0.4335530309489419 0.5955025117452059
-0.45269604703402455 0.5581635600313707
-0.4909820792041899 0.6328414634590411
-0.4335530309489419 0.7075193668867117
-0.3761239826936939 0.8195362220282174
-0.33783795052352855 0.8942141254558879
-0.3569809666086112 0.8942141254558879
-0.4335530309489419 0.8942141254558879
-0.45269604703402455 0.7821972703143821
-0.41441001486385926 0.9315530771697231
-0.33783795052352855 1.0809088840250642
-0.2995519183533632 1.0062309805973937
-0.2995519183533632 0.8942141254558879
-0.3761239826936939 0.9315530771697231
-0.45269604703402455 0.8195362220282174
-0.3952669987787766 0.8942141254558879
-0.3761239826936939 1.0435699323112289
-0.2995519183533632 1.0062309805973937
-0.3761239826936939 1.0809088840250642
-0.3952669987787766 0.9688920288835584
-0.33783795052352855 0.9688920288835584
-0.3761239826936939 0.9688920288835584
-0.3186949344384459 1.1182478357388994
-0.2804089022682805 1.1555867874527346
-0.26126588618319785 1.1182478357388994
-0.2995519183533632 0.9688920288835584
-0.2995519183533632 1.0435699323112289
-0.3186949344384459 1.0435699323112289
-0.3569809666086112 1.2302646908804051
-0.2995519183533632 1.1182478357388994
-0.26126588618319785 1.1555867874527346
-0.24212287009811517 1.1555867874527346
-0.2804089022682805 1.0062309805973937
-0.2804089022682805 1.0809088840250642
-0.20383683792794982 1.1555867874527346
-0.20383683792794982 1.1182478357388994
-0.24212287009811517 1.19292573916657
-0.26126588618319785 1.0809088840250642
-0.2995519183533632 0.9688920288835584
-0.2995519183533632 1.1182478357388994
-0.24212287009811517 1.19292573916657
-0.20383683792794982 1.1182478357388994
-0.24212287009811517 1.1182478357388994
-0.2995519183533632 0.9688920288835584
-0.3186949344384459 0.8942141254558879
-0.3186949344384459 0.9688920288835584
-0.2804089022682805 0.9688920288835584
-0.20383683792794982 0.8942141254558879
-0.26126588618319785 0.7821972703143821
-0.3761239826936939 0.6328414634590411
-0.3761239826936939 0.6328414634590411
-0.3569809666086112 0.5955025117452059
-0.3761239826936939 0.6701804151728764
-0.26126588618319785 0.6328414634590411
-0.26126588618319785 0.5955025117452059
-0.26126588618319785 0.5581635600313707
-0.2229798540130325 0.5208246083175354
-0.20383683792794982 0.6701804151728764
-0.0889787414174538 0.7821972703143821
-0.012406677077123108 0.8195362220282174
-0.012406677077123108 0.8942141254558879
0.0067363390079595645 0.8568751737420527
0.04502237117812491 0.7821972703143821
0.08330840334829026 0.8195362220282174
0.14073745160353826 1.0435699323112289
0.1981664998587863 1.0062309805973937
0.23645253202895164 0.9688920288835584
0.23645253202895164 0.8195362220282174
0.2555955481140343 0.7075193668867117
0.2555955481140343 0.8942141254558879
0.29388158028419964 1.0435699323112289
0.37045364462453034 1.0435699323112289
0.29388158028419964 1.1182478357388994
0.332167612454365 0.9688920288835584
0.332167612454365 1.0062309805973937
0.29388158028419964 1.0809088840250642
0.389596660709613 1.19292573916657
0.44702570896486105 1.1555867874527346
0.4087396767946957 1.1182478357388994
0.3130245963692823 1.0809088840250642
0.332167612454365 1.0809088840250642
0.35131062853944767 1.1182478357388994
0.37045364462453034 1.2302646908804051
0.42788269287977837 1.2676036425942403
0.42788269287977837 1.2302646908804051
0.29388158028419964 1.1555867874527346
0.23645253202895164 1.1555867874527346
0.35131062853944767 1.3049425943080757
0.3130245963692823 1.3422815460219109
0.389596660709613 1.3422815460219109
0.35131062853944767 1.3049425943080757
0.29388158028419964 1.2302646908804051
0.27473856419911696 1.1182478357388994
0.21730951594386896 1.2676036425942403
0.2555955481140343 1.19292573916657
0.27473856419911696 1.19292573916657
0.21730951594386896 1.0809088840250642
0.1790234837737036 0.8568751737420527
0.15988046768862094 0.7821972703143821
0.14073745160353826 0.6328414634590411
0.15988046768862094 0.6328414634590411
0.1790234837737036 0.5581635600313707
0.1790234837737036 0.5581635600313707
0.08330840334829026 0.3714688014621944
0.06416538726320759 0.3714688014621944
0.06416538726320759 0.4461467048898649
0.025879355093042237 0.6328414634590411
0.08330840334829026 0.6328414634590411
0.06416538726320759 0.7075193668867117
0.06416538726320759 0.8195362220282174
0.04502237117812491 0.8942141254558879
0.1215944355184556 1.0435699323112289
0.1790234837737036 1.2302646908804051
0.1981664998587863 1.2302646908804051
0.1981664998587863 1.19292573916657
0.15988046768862094 1.0809088840250642
0.15988046768862094 1.0809088840250642
0.1981664998587863 1.0809088840250642
0.2555955481140343 1.1555867874527346
0.29388158028419964 1.0435699323112289
0.3130245963692823 1.0435699323112289
0.2555955481140343 1.0809088840250642
0.21730951594386896 1.0435699323112289
0.21730951594386896 1.0435699323112289
0.23645253202895164 1.1555867874527346
0.3130245963692823 1.0809088840250642
0.35131062853944767 1.0435699323112289
0.35131062853944767 1.0809088840250642
0.27473856419911696 0.9688920288835584
0.332167612454365 1.0435699323112289
0.35131062853944767 1.0809088840250642
0.42788269287977837 1.0435699323112289
0.389596660709613 1.1555867874527346
0.3130245963692823 1.0435699323112289
0.332167612454365 0.9688920288835584
0.27473856419911696 1.0809088840250642
0.389596660709613 1.2302646908804051
0.4661687250499437 1.1555867874527346
0.389596660709613 1.1182478357388994
0.332167612454365 1.0809088840250642
0.35131062853944767 1.0809088840250642
0.3130245963692823 1.1182478357388994
0.37045364462453034 1.1555867874527346
0.4087396767946957 1.0435699323112289
0.389596660709613 0.9688920288835584
0.3130245963692823 0.9315530771697231
0.27473856419911696 0.7448583186005469
0.332167612454365 0.7821972703143821
0.3130245963692823 0.6328414634590411
0.332167612454365 0.5955025117452059
0.3130245963692823 0.4461467048898649
0.1790234837737036 0.4834856566037002
0.15988046768862094 0.4461467048898649
0.1790234837737036 0.3714688014621944
0.15988046768862094 0.3714688014621944
0.21730951594386896 0.3341298497483592
0.21730951594386896 0.3341298497483592
0.10245141943337292 0.2221129946068534
0.025879355093042237 0.18477404289301816
0.04502237117812491 0.2221129946068534
0.1981664998587863 0.4088077531760297
0.1981664998587863 0.5581635600313707
0.1790234837737036 0.6701804151728764
0.1790234837737036 0.5581635600313707
0.1981664998587863 0.6328414634590411
0.15988046768862094 0.7075193668867117
0.21730951594386896 0.8195362220282174
0.21730951594386896 0.8568751737420527
0.2555955481140343 0.8942141254558879
0.2555955481140343 0.8195362220282174
0.1981664998587863 0.8195362220282174
0.1981664998587863 0.8195362220282174
0.21730951594386896 0.8942141254558879
0.29388158028419964 0.8195362220282174
0.21730951594386896 0.8195362220282174
0.21730951594386896 0.8195362220282174
0.21730951594386896 0.8195362220282174
0.23645253202895164 0.8568751737420527
0.27473856419911696 0.8942141254558879
0.27473856419911696 0.9315530771697231
0.2555955481140343 0.9688920288835584
0.23645253202895164 0.8568751737420527
0.23645253202895164 0.7821972703143821
0.27473856419911696 0.8942141254558879
0.332167612454365 0.9688920288835584
0.35131062853944767 0.9315530771697231
0.3130245963692823 0.9315530771697231
0.29388158028419964 0.7821972703143821
0.27473856419911696 0.8195362220282174
0.29388158028419964 0.8568751737420527
0.37045364462453034 0.9688920288835584
0.389596660709613 0.9315530771697231
0.332167612454365 0.8568751737420527
0.3130245963692823 0.6701804151728764
0.3130245963692823 0.6328414634590411
0.332167612454365 0.5955025117452059
0.37045364462453034 0.6328414634590411
0.42788269287977837 0.5208246083175354
0.44702570896486105 0.3714688014621944
0.389596660709613 0.2594519463206887
0.332167612454365 0.2221129946068534
0.35131062853944767 0.2594519463206887
0.44702570896486105 0.18477404289301816
0.37045364462453034 0.18477404289301816
0.37045364462453034 0.11009613946534767
0.332167612454365 -0.0019207156761580741
0.3130245963692823 0.03541823603767717
0.29388158028419964 0.11009613946534767
0.35131062853944767 0.1474350911791829
0.37045364462453034 0.2221129946068534
0.3130245963692823 0.1474350911791829
0.29388158028419964 0.11009613946534767
0.27473856419911696 0.18477404289301816
0.29388158028419964 0.3714688014621944
0.3130245963692823 0.4461467048898649
0.37045364462453034 0.7075193668867117
0.35131062853944767 0.7448583186005469
0.35131062853944767 0.5955025117452059
0.35131062853944767 0.5955025117452059
0.37045364462453034 0.7448583186005469
0.44702570896486105 0.7821972703143821
0.44702570896486105 0.7448583186005469
0.4087396767946957 0.7448583186005469
0.4087396767946957 0.7075193668867117
0.389596660709613 0.6328414634590411
0.389596660709613 0.7448583186005469
0.4661687250499437 0.7448583186005469
0.6384558698156878 0.6701804151728764
0.8298860306665145 0.4834856566037002
1.1553173041129199 0.2221129946068534
1.5381776258145734 -0.11393757081766383
1.978466995771475 -0.2632933776730048
2.418756365728376 -0.5246660396698516
2.9356178000256086 -0.6740218465251926
3.4716222504079233 -0.8233776533805336
3.969340668620073 -1.0847503153773803
4.409630038576974 -1.5328177359434032
4.773347344193545 -1.9062072530817558
5.02220655329962 -2.092902011650932
5.079635601554868 -2.092902011650932
4.926491472874206 -2.055563059937097
4.601060199427801 -1.9808851565094263
4.065055749045486 -1.495478784229568
3.37590716998251 -0.9353945085220393
2.51447144615379 -0.4126491845283458
1.7104647705803173 -0.2632933776730048
1.1744603201980026 -0.2632933776730048
0.8490290467515972 -0.11393757081766383
0.6384558698156878 -0.0019207156761580741
0.4661687250499437 0.2221129946068534
0.3130245963692823 0.4088077531760297
0.2555955481140343 0.5208246083175354
0.1981664998587863 0.4834856566037002
0.14073745160353826 0.3714688014621944
0.10245141943337292 0.4088077531760297
0.04502237117812491 0.5208246083175354
0.025879355093042237 0.5955025117452059
0.04502237117812491 0.6701804151728764
0.0067363390079595645 0.5581635600313707
-0.0889787414174538 0.5581635600313707
-0.18469382184286717 0.5208246083175354
-0.2229798540130325 0.5581635600313707
-0.24212287009811517 0.7075193668867117
-0.1655508057577845 0.7075193668867117
-0.2229798540130325 0.7448583186005469
-0.33783795052352855 0.7075193668867117
-0.3569809666086112 0.7075193668867117
-0.3761239826936939 0.8568751737420527
-0.33783795052352855 0.9688920288835584
-0.2995519183533632 1.0809088840250642
-0.33783795052352855 1.0809088840250642
-0.3569809666086112 1.1182478357388994
-0.4335530309489419 1.1555867874527346
-0.4335530309489419 1.19292573916657
-0.3761239826936939 1.2676036425942403
-0.3952669987787766 1.2302646908804051
-0.41441001486385926 1.2676036425942403
-0.45269604703402455 1.19292573916657
-0.4718390631191072 1.0809088840250642
-0.4909820792041899 1.1555867874527346
-0.4335530309489419 1.19292573916657
-0.3761239826936939 1.0809088840250642
-0.4335530309489419 1.0435699323112289
-0.4718390631191072 0.8942141254558879
-0.5292681113743553 0.9688920288835584
-0.548411127459438 1.0062309805973937
-0.5101250952892726 1.0809088840250642
-0.4909820792041899 1.0809088840250642
-0.45269604703402455 1.0435699323112289
-0.5292681113743553 0.9688920288835584
-0.5675541435445206 0.9315530771697231
-0.548411127459438 0.8942141254558879
-0.4909820792041899 0.8568751737420527
-0.4718390631191072 0.8942141254558879
-0.4718390631191072 0.7821972703143821
-0.5101250952892726 0.6328414634590411
-0.5292681113743553 0.5208246083175354
-0.5292681113743553 0.4461467048898649
-0.45269604703402455 0.5208246083175354
-0.4335530309489419 0.5581635600313707
-0.3952669987787766 0.4834856566037002
-0.4718390631191072 0.4461467048898649
-0.4718390631191072 0.2594519463206887
-0.41441001486385926 0.3714688014621944
-0.3952669987787766 0.4461467048898649
-0.3952669987787766 0.5955025117452059
-0.33783795052352855 0.4834856566037002
-0.3761239826936939 0.4461467048898649
-0.3761239826936939 0.4461467048898649
-0.4718390631191072 0.5208246083175354
-0.41441001486385926 0.6328414634590411
-0.3569809666086112 0.6701804151728764
-0.3761239826936939 0.6328414634590411
-0.4335530309489419 0.5208246083175354
-0.45269604703402455 0.5581635600313707
-0.4335530309489419 0.6701804151728764
-0.3952669987787766 0.6701804151728764
-0.3761239826936939 0.7448583186005469
-0.3569809666086112 0.7448583186005469
-0.4335530309489419 0.7075193668867117
-0.548411127459438 0.5581635600313707
-0.41441001486385926 0.7448583186005469
-0.3761239826936939 0.8195362220282174
-0.3186949344384459 0.9688920288835584
-0.3186949344384459 0.9315530771697231
-0.3569809666086112 0.8568751737420527
-0.3761239826936939 1.0062309805973937
-0.33783795052352855 1.0435699323112289
-0.26126588618319785 1.19292573916657
-0.10812175750253647 1.2676036425942403
-0.12726477358761915 1.2676036425942403
-0.1655508057577845 1.19292573916657
-0.20383683792794982 1.0809088840250642
-0.18469382184286717 1.1555867874527346
-0.12726477358761915 1.2676036425942403
-0.050692709247288456 1.2676036425942403
-0.050692709247288456 1.2302646908804051
-0.050692709247288456 1.0809088840250642
-0.0889787414174538 0.9315530771697231
-0.10812175750253647 1.0809088840250642
-0.06983572533237113 1.0435699323112289
-0.012406677077123108 1.1182478357388994
-0.012406677077123108 0.9315530771697231
-0.03154969316220578 0.7821972703143821
-0.06983572533237113 0.6328414634590411
-0.03154969316220578 0.5581635600313707
0.025879355093042237 0.5581635600313707
0.025879355093042237 0.6328414634590411
0.06416538726320759 0.6328414634590411
0.04502237117812491 0.5208246083175354
0.0067363390079595645 0.4461467048898649
-0.012406677077123108 0.5208246083175354
-0.012406677077123108 0.6701804151728764
0.10245141943337292 0.6328414634590411
0.08330840334829026 0.5581635600313707
0.06416538726320759 0.5208246083175354
0.025879355093042237 0.5208246083175354
-0.012406677077123108 0.7448583186005469
0.04502237117812491 0.7821972703143821
0.08330840334829026 0.8942141254558879
0.10245141943337292 0.9315530771697231
0.04502237117812491 0.8568751737420527
-0.012406677077123108 0.7821972703143821
-0.03154969316220578 0.8568751737420527
-0.012406677077123108 1.0435699323112289
0.0067363390079595645 1.0809088840250642
0.04502237117812491 1.0809088840250642
-0.050692709247288456 0.9688920288835584
-0.10812175750253647 0.9315530771697231
-0.18469382184286717 1.0435699323112289
-0.12726477358761915 1.3049425943080757
-0.12726477358761915 1.3049425943080757
-0.10812175750253647 1.2676036425942403
-0.20383683792794982 1.2302646908804051
-0.26126588618319785 1.2302646908804051
-0.2804089022682805 1.19292573916657
-0.3186949344384459 1.491637352877252
-0.3186949344384459 1.5289763045910871
-0.3186949344384459 1.491637352877252
-0.3761239826936939 1.5663152563049223
-0.41441001486385926 1.5289763045910871
-0.3761239826936939 1.6409931597325929
-0.2804089022682805 1.7530100148740986
-0.2229798540130325 1.7530100148740986
-0.2229798540130325 1.6409931597325929
-0.2804089022682805 1.6036542080187577
-0.3186949344384459 1.6036542080187577
-0.33783795052352855 1.6036542080187577
-0.2229798540130325 1.5663152563049223
-0.20383683792794982 1.3796204977357462
-0.1655508057577845 1.2676036425942403
-0.20383683792794982 0.9688920288835584
-0.24212287009811517 0.8568751737420527
-0.24212287009811517 0.7821972703143821
-0.12726477358761915 0.8195362220282174
-0.03154969316220578 0.8195362220282174
-0.050692709247288456 0.7075193668867117
-0.06983572533237113 0.7075193668867117
-0.18469382184286717 0.5581635600313707
-0.14640778967270182 0.6328414634590411
-0.06983572533237113 0.7448583186005469
0.025879355093042237 0.7821972703143821
0.04502237117812491 0.7448583186005469
0.0067363390079595645 0.5955025117452059
-0.012406677077123108 0.6328414634590411
-0.06983572533237113 0.7448583186005469
-0.012406677077123108 0.8942141254558879
0.025879355093042237 0.9315530771697231
0.08330840334829026 0.8942141254558879
0.08330840334829026 0.8195362220282174
-0.012406677077123108 0.8195362220282174
-0.012406677077123108 0.9315530771697231
0.04502237117812491 1.0062309805973937
0.04502237117812491 1.0062309805973937
0.06416538726320759 1.0062309805973937
-0.012406677077123108 0.8942141254558879
-0.03154969316220578 0.8195362220282174
-0.050692709247288456 0.9688920288835584
-0.06983572533237113 1.0809088840250642
-0.050692709247288456 1.0809088840250642
-0.050692709247288456 0.9688920288835584
-0.0889787414174538 0.9688920288835584
-0.1655508057577845 0.8568751737420527
-0.20383683792794982 0.9315530771697231
-0.20383683792794982 1.0062309805973937
-0.20383683792794982 1.0809088840250642
-0.2804089022682805 1.0435699323112289
-0.3186949344384459 1.0435699323112289
-0.33783795052352855 1.0062309805973937
-0.33783795052352855 1.0809088840250642
-0.3186949344384459 1.19292573916657
-0.26126588618319785 1.3049425943080757
-0.3186949344384459 1.2676036425942403
-0.3761239826936939 1.2302646908804051
-0.3952669987787766 1.3049425943080757
-0.3761239826936939 1.3049425943080757
-0.3186949344384459 1.3422815460219109
-0.2804089022682805 1.3049425943080757
-0.3186949344384459 1.3049425943080757
-0.3569809666086112 1.2302646908804051
-0.3186949344384459 1.0435699323112289
-0.2995519183533632 0.9315530771697231
-0.24212287009811517 0.8942141254558879
-0.2229798540130325 0.8942141254558879
-0.18469382184286717 0.8942141254558879
-0.24212287009811517 0.8195362220282174
-0.2995519183533632 0.8195362220282174
-0.3186949344384459 0.8195362220282174
-0.18469382184286717 0.9315530771697231
-0.18469382184286717 0.8942141254558879
-0.0889787414174538 0.8942141254558879
-0.12726477358761915 0.8568751737420527
-0.12726477358761915 0.7075193668867117
-0.10812175750253647 0.7821972703143821
-0.06983572533237113 0.8942141254558879
-0.050692709247288456 0.9688920288835584
-0.03154969316220578 1.0062309805973937
-0.03154969316220578 0.9315530771697231
-0.12726477358761915 0.8942141254558879
-0.14640778967270182 1.0062309805973937
-0.050692709247288456 1.1182478357388994
-0.10812175750253647 1.19292573916657
-0.06983572533237113 1.0435699323112289
0.025879355093042237 0.8942141254558879
0.29388158028419964 0.6701804151728764
0.6767419019858532 0.4834856566037002
1.1170312719427546 0.2967908980345239
1.5764636579847386 -0.03925966738999332
2.035896044026723 -0.37531023281451054
2.4570423978985416 -0.6740218465251926
2.9547608161106913 -0.8233776533805336
3.4524792343228405 -1.0847503153773803
3.892768604279742 -1.4581398325157329
4.160770829470899 -1.9062072530817558
4.1799138455559826 -2.0182241082232615
4.065055749045486 -2.1675799150786026
3.7587674916841634 -2.092902011650932
3.3376211378123446 -1.79419039794025
2.7633306552598644 -1.0847503153773803
1.9401809636013094 -0.6740218465251926
1.1170312719427546 -0.3379712811006753
0.4087396767946957 -0.11393757081766383
0.04502237117812491 0.07275718775151242
-0.18469382184286717 0.2594519463206887
-0.3952669987787766 0.4461467048898649
-0.605840175714686 0.7448583186005469
-0.720698272225182 0.7821972703143821
-0.7589843043953474 0.6328414634590411
-0.7972703365655127 0.6701804151728764
-0.8738424009058434 0.7821972703143821
-0.8164133526505953 0.8942141254558879
-0.8164133526505953 1.0062309805973937
-0.8355563687356781 0.8942141254558879
-0.892985416990926 0.8195362220282174
-0.9121284330760088 0.8195362220282174
-0.9695574813312567 0.8195362220282174
-1.007843513501422 0.9315530771697231
-0.9312714491610914 1.0435699323112289
-0.9312714491610914 1.1555867874527346
-0.9312714491610914 1.0435699323112289
-0.950414465246174 1.0062309805973937
-0.950414465246174 1.0062309805973937
-0.9887004974163394 1.0809088840250642
-0.950414465246174 1.1555867874527346
-0.9695574813312567 1.19292573916657
-0.9695574813312567 1.1555867874527346
-1.0844155778417528 1.19292573916657
-1.122701610011918 1.19292573916657
-1.0269865295865048 1.3049425943080757
-1.0844155778417528 1.2676036425942403
-1.007843513501422 1.2676036425942403
-1.06527256175667 1.19292573916657
-1.1035585939268355 1.1182478357388994
-1.1418446260970008 1.2302646908804051
-1.06527256175667 1.2676036425942403
-1.1035585939268355 1.3796204977357462
-1.1035585939268355 1.3049425943080757
-1.122701610011918 1.19292573916657
-1.1418446260970008 1.0062309805973937
-1.1992736743522487 0.9315530771697231
-1.1801306582671662 0.9688920288835584
-1.1992736743522487 0.8942141254558879
-1.2184166904373315 0.8568751737420527
-1.2375597065224142 0.7075193668867117
-1.3332747869478274 0.6701804151728764
-1.314131770862745 0.5955025117452059
-1.2567027226074967 0.6328414634590411
-1.2375597065224142 0.5955025117452059
-1.2758457386925794 0.5208246083175354
-1.3332747869478274 0.4461467048898649
-1.3715608191179929 0.3341298497483592
-1.3907038352030756 0.4834856566037002
-1.3715608191179929 0.5581635600313707
-1.3332747869478274 0.7448583186005469
-1.3332747869478274 0.7448583186005469
-1.3332747869478274 0.8195362220282174
-1.4098468512881581 0.7448583186005469
-1.3907038352030756 0.8568751737420527
-1.314131770862745 0.8942141254558879
-1.2567027226074967 0.9688920288835584
-1.2567027226074967 1.0435699323112289
-1.2375597065224142 0.8568751737420527
-1.2567027226074967 0.7448583186005469
-1.2184166904373315 0.7448583186005469
-1.2184166904373315 0.7821972703143821
-1.1801306582671662 0.9315530771697231
-1.1418446260970008 0.8195362220282174
-1.1801306582671662 0.8568751737420527
-1.1609876421820835 0.7448583186005469
-1.1609876421820835 0.8568751737420527
-1.1035585939268355 0.8568751737420527
-1.007843513501422 1.0062309805973937
-0.9312714491610914 0.9688920288835584
-0.9312714491610914 0.8942141254558879
-0.892985416990926 0.8568751737420527
-0.892985416990926 0.8942141254558879
-0.77812732048043 0.8942141254558879
-0.7398412883102646 0.9688920288835584
-0.6632692239699339 1.0062309805973937
-0.7015552561400993 0.8568751737420527
-0.7015552561400993 0.7821972703143821
-0.6824122400550167 0.8195362220282174
-0.5866971596296033 0.8568751737420527
-0.548411127459438 0.9688920288835584
-0.548411127459438 0.7448583186005469
-0.5675541435445206 0.8195362220282174
-0.605840175714686 0.6701804151728764
-0.6441262078848513 0.7075193668867117
-0.548411127459438 0.7821972703143821
-0.4718390631191072 0.8195362220282174
-0.5675541435445206 0.7075193668867117
-0.6249831917997686 0.6701804151728764
-0.605840175714686 0.5581635600313707
-0.6441262078848513 0.5955025117452059
-0.5866971596296033 0.6701804151728764
-0.5866971596296033 0.7821972703143821
-0.605840175714686 0.7821972703143821
-0.6632692239699339 0.6328414634590411
-0.7015552561400993 0.4834856566037002
-0.7589843043953474 0.5955025117452059
-0.77812732048043 0.7448583186005469
-0.720698272225182 0.7448583186005469
-0.720698272225182 0.8568751737420527
-0.77812732048043 0.7075193668867117
-0.8546993848207607 0.7448583186005469
-0.8546993848207607 0.8568751737420527
-0.8738424009058434 0.9688920288835584
-0.8164133526505953 1.1555867874527346
-0.8164133526505953 1.19292573916657
-0.8546993848207607 1.19292573916657
-0.8738424009058434 1.1182478357388994
-0.8738424009058434 1.1555867874527346
-0.8738424009058434 1.3049425943080757
-0.8355563687356781 1.4169594494495814
-0.7972703365655127 1.3422815460219109
-0.8164133526505953 1.19292573916657
-0.8164133526505953 1.1182478357388994
-0.8546993848207607 1.0062309805973937
-0.8355563687356781 1.0062309805973937
-0.7398412883102646 1.0809088840250642
-0.7589843043953474 1.0435699323112289
-0.8355563687356781 1.0062309805973937
-0.8738424009058434 0.8942141254558879
-0.8546993848207607 0.8195362220282174
-0.8164133526505953 0.8568751737420527
-0.7589843043953474 0.9315530771697231
-0.7398412883102646 0.7821972703143821
-0.7015552561400993 0.5581635600313707
-0.6824122400550167 0.3714688014621944
-0.6824122400550167 0.3341298497483592
-0.6632692239699339 0.4461467048898649
-0.5866971596296033 0.5208246083175354
-0.5866971596296033 0.4461467048898649
-0.7015552561400993 0.3341298497483592
-0.7015552561400993 0.2967908980345239
-0.720698272225182 0.3341298497483592
-0.605840175714686 0.4834856566037002
-0.5866971596296033 0.5208246083175354
-0.5292681113743553 0.5208246083175354
-0.5292681113743553 0.3341298497483592
-0.6249831917997686 0.3341298497483592
-0.5866971596296033 0.4461467048898649
-0.4909820792041899 0.5581635600313707
-0.45269604703402455 0.6328414634590411
-0.4335530309489419 0.5208246083175354
-0.4909820792041899 0.3341298497483592
-0.5292681113743553 0.3341298497483592
-0.5675541435445206 0.3341298497483592
-0.5675541435445206 0.5208246083175354
-0.5101250952892726 0.5581635600313707
-0.5675541435445206 0.5208246083175354
-0.605840175714686 0.4088077531760297
-0.605840175714686 0.2221129946068534
-0.6824122400550167 0.3714688014621944
-0.605840175714686 0.4461467048898649
-0.5866971596296033 0.5955025117452059
-0.5675541435445206 0.5955025117452059
-0.6249831917997686 0.5581635600313707
-0.6632692239699339 0.5208246083175354
-0.6441262078848513 0.5581635600313707
-0.6441262078848513 0.8568751737420527
-0.5866971596296033 0.8568751737420527
-0.6249831917997686 0.9688920288835584
-0.605840175714686 0.8568751737420527
-0.6441262078848513 0.8195362220282174
-0.6824122400550167 0.7821972703143821
-0.6249831917997686 0.9315530771697231
-0.5675541435445206 0.9315530771697231
-0.5292681113743553 0.8942141254558879
-0.548411127459438 0.7448583186005469
-0.6249831917997686 0.5955025117452059
-0.6249831917997686 0.5581635600313707
-0.5866971596296033 0.7075193668867117
-0.5292681113743553 0.6328414634590411
-0.548411127459438 0.7075193668867117
-0.5675541435445206 0.6328414634590411
-0.720698272225182 0.4834856566037002
-0.7015552561400993 0.5581635600313707
-0.605840175714686 0.5208246083175354
-0.5292681113743553 0.4088077531760297
-0.45269604703402455 0.11009613946534767
-0.4718390631191072 -0.0019207156761580741
-0.5101250952892726 -0.11393757081766383
-0.5101250952892726 -0.11393757081766383
-0.5101250952892726 -0.03925966738999332
-0.4909820792041899 -0.0019207156761580741
-0.4909820792041899 0.03541823603767717
-0.4909820792041899 -0.0019207156761580741
-0.5101250952892726 -0.07659861910382858
-0.4718390631191072 0.03541823603767717
-0.4909820792041899 0.07275718775151242
-0.4718390631191072 0.2594519463206887
-0.4909820792041899 0.18477404289301816
-0.4909820792041899 0.18477404289301816
-0.4909820792041899 0.2221129946068534
-0.5101250952892726 0.1474350911791829
-0.5101250952892726 0.18477404289301816
-0.3761239826936939 0.2967908980345239
-0.4335530309489419 0.2967908980345239
-0.5101250952892726 0.2594519463206887
-0.5292681113743553 0.2594519463206887
-0.5675541435445206 0.3714688014621944
-0.5675541435445206 0.4461467048898649
-0.4909820792041899 0.5208246083175354
-0.5101250952892726 0.5208246083175354
-0.548411127459438 0.4834856566037002
-0.5866971596296033 0.4834856566037002
-0.5866971596296033 0.4088077531760297
-0.548411127459438 0.5208246083175354
-0.5101250952892726 0.6328414634590411
-0.5292681113743553 0.6328414634590411
-0.548411127459438 0.5955025117452059
-0.605840175714686 0.6701804151728764
-0.6824122400550167 0.7075193668867117
-0.5675541435445206 0.7448583186005469
-0.4718390631191072 0.8568751737420527
-0.45269604703402455 0.8195362220282174
-0.45269604703402455 0.7821972703143821
-0.548411127459438 0.7448583186005469
-0.548411127459438 0.8568751737420527
-0.5292681113743553 0.8568751737420527
-0.5101250952892726 0.8942141254558879
-0.4909820792041899 0.8568751737420527
-0.45269604703402455 0.7075193668867117
-0.5292681113743553 0.6328414634590411
-0.45269604703402455 0.5955025117452059
-0.4909820792041899 0.5955025117452059
-0.45269604703402455 0.7821972703143821
-0.45269604703402455 0.7075193668867117
-0.5292681113743553 0.6328414634590411
-0.548411127459438 0.5208246083175354
-0.4909820792041899 0.3341298497483592
-0.41441001486385926 0.2221129946068534
-0.3952669987787766 0.18477404289301816
-0.3761239826936939 0.1474350911791829
-0.3761239826936939 0.03541823603767717
-0.41441001486385926 -0.0019207156761580741
-0.3569809666086112 -0.0019207156761580741
-0.3569809666086112 -0.0019207156761580741
-0.3186949344384459 0.1474350911791829
-0.26126588618319785 0.07275718775151242
-0.2995519183533632 0.03541823603767717
