-0.039716105176146085 -0.07234620923473815
-0.011479426308813899 -0.08855871442000512
0.030875591992184384 -0.05613370404947118
0.002638913124852195 -0.07234620923473815
0.016757252558518287 -0.08855871442000512
-0.025597765742479992 -0.153408735161073
-0.06795278404347828 -0.13719622997580605
-0.11030780234447655 -0.13719622997580605
-0.09618946291081046 -0.153408735161073
-0.11030780234447655 -0.21825875590214092
-0.12442614177814265 -0.31553378701374274
-0.13854448121180873 -0.4128088181253446
-0.15266282064547484 -0.4128088181253446
-0.09618946291081046 -0.44523382849587856
0.05911227085951657 -0.4938713440516795
0.25676902293084186 -0.5100838492369465
0.4826624538694994 -0.5100838492369465
0.6944375453744908 -0.5262963544222135
0.8638576185784839 -0.4614463336811455
1.0615143706498091 -0.36417130256954366
1.1885794255528042 -0.2831087766432088
1.2309344438538024 -0.18583374553160698
1.343881159323131 0.041141327062130674
1.485064553659792 0.4140289463232711
1.6827213057311174 0.9652541226223482
1.8380230395014443 1.5975418248477602
1.8662597183687766 2.0677044752205025
1.795668021200446 2.327104558184774
1.640366287430119 2.45680459966691
1.4427095353587938 2.554079630778512
1.174461086119138 2.6513546618901134
0.8497392791448178 2.7486296930017153
0.4967807933031655 2.7486296930017153
0.15794064689517923 2.6351421567048465
-0.08207112347714436 2.505442115222711
-0.2091361783801392 2.327104558184774
-0.29384621498213576 2.246042032258439
-0.35031957271680014 2.213617021887905
-0.4209112698851306 2.148767001146837
-0.5056213064871272 2.1163419907763035
-0.6044496825227899 2.0839169804057693
-0.6185680219564559 2.0514919700352356
-0.6468047008237882 2.0677044752205025
-0.5620946642217916 2.1649795063321045
-0.4632662881861289 2.2298295270731723
-0.40679293045146453 2.2784670426289733
-0.37855625158413236 2.246042032258439
-0.33620123328313406 2.2298295270731723
-0.2514911966811375 2.213617021887905
-0.18089949951280704 2.1649795063321045
-0.09618946291081046 2.100129485591036
-0.08207112347714436 1.9055794233678327
-0.11030780234447655 1.678604350774095
-0.18089949951280704 1.4354167729950904
-0.22325451781380531 1.1922291952160857
-0.2514911966811375 0.9652541226223482
-0.2514911966811375 0.7220665448433435
-0.22325451781380531 0.52751648262014
-0.22325451781380531 0.2681163996558683
-0.2656095361148036 0.18705387372953344
-0.2656095361148036 0.08977884261793159
-0.2656095361148036 0.07356633743266462
-0.2091361783801392 0.041141327062130674
-0.22325451781380531 -0.0399211988642042
-0.2091361783801392 -0.13719622997580605
-0.2656095361148036 -0.18583374553160698
-0.2797278755484697 -0.153408735161073
-0.2656095361148036 -0.12098372479053907
-0.2373728572474714 -0.12098372479053907
-0.2091361783801392 -0.153408735161073
-0.2797278755484697 -0.21825875590214092
-0.2656095361148036 -0.21825875590214092
-0.2797278755484697 -0.2344712610874079
-0.2656095361148036 -0.18583374553160698
-0.2656095361148036 -0.20204625071687393
-0.2514911966811375 -0.2344712610874079
-0.2656095361148036 -0.2668962714579418
-0.2797278755484697 -0.31553378701374274
-0.3079645544158019 -0.2831087766432088
-0.2797278755484697 -0.25068376627267486
-0.2514911966811375 -0.21825875590214092
-0.2373728572474714 -0.2344712610874079
-0.2514911966811375 -0.36417130256954366
-0.2797278755484697 -0.31553378701374274
-0.29384621498213576 -0.2993212818284758
-0.2656095361148036 -0.2993212818284758
-0.22325451781380531 -0.2344712610874079
-0.19501783894647312 -0.2668962714579418
-0.22325451781380531 -0.2993212818284758
-0.2656095361148036 -0.33174629219900975
-0.2514911966811375 -0.2993212818284758
-0.2091361783801392 -0.2831087766432088
-0.2091361783801392 -0.20204625071687393
-0.16678116007914093 -0.31553378701374274
-0.2091361783801392 -0.33174629219900975
-0.2514911966811375 -0.33174629219900975
-0.2656095361148036 -0.2668962714579418
-0.2091361783801392 -0.2668962714579418
-0.18089949951280704 -0.21825875590214092
-0.15266282064547484 -0.20204625071687393
-0.16678116007914093 -0.2831087766432088
-0.19501783894647312 -0.31553378701374274
-0.19501783894647312 -0.2668962714579418
-0.19501783894647312 -0.21825875590214092
-0.12442614177814265 -0.18583374553160698
-0.12442614177814265 -0.21825875590214092
-0.09618946291081046 -0.25068376627267486
-0.11030780234447655 -0.2668962714579418
-0.12442614177814265 -0.21825875590214092
-0.09618946291081046 -0.153408735161073
-0.06795278404347828 -0.12098372479053907
-0.025597765742479992 -0.12098372479053907
-0.039716105176146085 -0.18583374553160698
-0.06795278404347828 -0.18583374553160698
-0.08207112347714436 -0.20204625071687393
-0.039716105176146085 -0.12098372479053907
0.016757252558518287 -0.07234620923473815
0.016757252558518287 -0.0399211988642042
0.016757252558518287 -0.12098372479053907
-0.05383444460981218 -0.153408735161073
0.002638913124852195 -0.13719622997580605
-0.011479426308813899 -0.05613370404947118
0.044993931425850474 0.041141327062130674
0.08734894972684876 -0.007496188493670251
0.07323061029318266 -0.023708693678937225
0.07323061029318266 -0.0399211988642042
0.030875591992184384 -0.007496188493670251
0.08734894972684876 0.057353832247397644
0.11558562859418095 0.07356633743266462
0.18617732576251142 0.08977884261793159
0.14382230746151314 0.07356633743266462
0.11558562859418095 0.024928821876863697
0.15794064689517923 0.057353832247397644
0.1720589863288453 0.12220385298846555
0.2285323440635097 0.17084136854426646
0.2285323440635097 0.18705387372953344
0.24265068349717578 0.17084136854426646
0.2144140046298436 0.10599134780319856
0.2002956651961775 0.13841635817373252
0.2285323440635097 0.17084136854426646
0.29912404123184017 0.2681163996558683
0.31324238066550625 0.25190389447060135
0.2850057017981741 0.21947888410006738
0.270887362364508 0.2032663789148004
0.29912404123184017 0.2032663789148004
0.31324238066550625 0.28432890484113527
0.34147905953283847 0.3329664203969362
0.3838340778338367 0.3329664203969362
0.36971573840017063 0.2681163996558683
0.36971573840017063 0.23569138928533437
0.34147905953283847 0.21947888410006738
0.36971573840017063 0.3329664203969362
0.4403074355685011 0.4140289463232711
0.4544257750021672 0.36539143076747016
0.4403074355685011 0.36539143076747016
0.41207075670116894 0.31675391521166923
0.3979524172675028 0.3329664203969362
0.426189096134835 0.3978164411380041
0.4403074355685011 0.462666461879072
0.46854411443583327 0.446453956693805
0.46854411443583327 0.446453956693805
0.426189096134835 0.3978164411380041
0.4544257750021672 0.4140289463232711
0.3979524172675028 0.462666461879072
0.4544257750021672 0.47887896706433897
0.4544257750021672 0.5437289878054069
0.46854411443583327 0.5113039774348729
0.426189096134835 0.5113039774348729
0.426189096134835 0.47887896706433897
0.4403074355685011 0.5113039774348729
0.46854411443583327 0.5437289878054069
0.46854411443583327 0.5599414929906739
0.4544257750021672 0.5599414929906739
0.41207075670116894 0.5113039774348729
0.426189096134835 0.5113039774348729
0.46854411443583327 0.52751648262014
0.4544257750021672 0.5599414929906739
0.46854411443583327 0.6085790085464747
0.41207075670116894 0.5761539981759408
0.41207075670116894 0.5437289878054069
0.36971573840017063 0.4950914722496059
0.3838340778338367 0.5113039774348729
0.3979524172675028 0.5761539981759408
0.32736072009917233 0.5599414929906739
0.31324238066550625 0.52751648262014
0.29912404123184017 0.52751648262014
0.25676902293084186 0.47887896706433897
0.270887362364508 0.47887896706433897
0.2285323440635097 0.5437289878054069
0.270887362364508 0.5113039774348729
0.24265068349717578 0.5113039774348729
0.2144140046298436 0.47887896706433897
0.18617732576251142 0.462666461879072
0.1720589863288453 0.462666461879072
0.15794064689517923 0.462666461879072
0.12970396802784703 0.462666461879072
0.14382230746151314 0.4140289463232711
0.08734894972684876 0.3978164411380041
0.05911227085951657 0.3978164411380041
0.044993931425850474 0.3978164411380041
0.08734894972684876 0.446453956693805
0.030875591992184384 0.446453956693805
0.016757252558518287 0.4140289463232711
-0.011479426308813899 0.3816039359527371
-0.09618946291081046 0.3816039359527371
-0.05383444460981218 0.3816039359527371
-0.06795278404347828 0.3978164411380041
-0.13854448121180873 0.3491789255822032
-0.15266282064547484 0.3329664203969362
-0.18089949951280704 0.31675391521166923
-0.2091361783801392 0.31675391521166923
-0.22325451781380531 0.31675391521166923
-0.18089949951280704 0.3329664203969362
-0.19501783894647312 0.31675391521166923
-0.19501783894647312 0.31675391521166923
-0.2373728572474714 0.28432890484113527
-0.22325451781380531 0.2681163996558683
-0.2091361783801392 0.3329664203969362
-0.13854448121180873 0.3816039359527371
-0.16678116007914093 0.3005414100264023
-0.13854448121180873 0.28432890484113527
-0.13854448121180873 0.3005414100264023
-0.06795278404347828 0.3491789255822032
0.016757252558518287 0.3491789255822032
0.08734894972684876 0.36539143076747016
0.11558562859418095 0.31675391521166923
0.14382230746151314 0.31675391521166923
0.12970396802784703 0.25190389447060135
0.14382230746151314 0.28432890484113527
0.2285323440635097 0.28432890484113527
0.18617732576251142 0.28432890484113527
0.18617732576251142 0.2032663789148004
0.12970396802784703 0.1546288633589995
0.05911227085951657 0.13841635817373252
-0.06795278404347828 0.07356633743266462
-0.18089949951280704 0.07356633743266462
-0.3079645544158019 -0.07234620923473815
-0.477384627619795 -0.21825875590214092
-0.6468047008237882 -0.36417130256954366
-0.8303431134614473 -0.4938713440516795
-0.9856448472317744 -0.6722089010896162
-1.1268282415684354 -0.785696437386485
-1.239774957037764 -0.9316089840538878
-1.3527216725070927 -1.1261590462770914
-1.4233133696754232 -1.2396465825739602
-1.4939050668437537 -1.3044966033150283
-1.522141745711086 -1.369346624056096
-1.4797867274100878 -1.3369216136855622
-1.380958351374425 -1.369346624056096
-1.380958351374425 -1.482834160352965
-1.3668400119407589 -1.5476841810940327
-1.380958351374425 -1.5801091914645666
-1.3386033330734268 -1.499046665538232
-1.3103666542060945 -1.417984139611897
-1.3244849936397607 -1.3044966033150283
-1.3668400119407589 -1.320709108500295
-1.536260085144752 -1.320709108500295
-1.7197984977824112 -1.3369216136855622
-1.846863552685406 -1.3044966033150283
-1.9456919287210688 -1.2234340773886934
-1.988046947022067 -1.1423715514623585
-1.988046947022067 -1.1423715514623585
-2.0304019653230654 -1.1099465410918246
-2.016283625889399 -1.1747965618328924
-1.973928607588401 -1.1261590462770914
-1.8751002315527383 -1.0937340359065575
-1.7480351766497435 -1.0775215307212906
-1.6492068006140808 -1.1099465410918246
-1.536260085144752 -1.0937340359065575
-1.4515500485427555 -1.0450965203507565
-1.3386033330734268 -0.9640339944244217
-1.1268282415684354 -0.834333952942286
-1.0279998655327727 -0.7046339114601501
-0.8726981317624456 -0.6722089010896162
-0.7597514162931168 -0.5911463751632813
-0.6609230402574542 -0.4938713440516795
-0.5620946642217916 -0.36417130256954366
-0.4350296093187967 -0.2344712610874079
-0.322082893849468 -0.16962124034634
-0.2091361783801392 -0.1047712196052721
-0.15266282064547484 -0.153408735161073
-0.09618946291081046 -0.1047712196052721
-0.12442614177814265 -0.023708693678937225
-0.011479426308813899 0.041141327062130674
0.030875591992184384 0.10599134780319856
0.05911227085951657 0.12220385298846555
0.08734894972684876 0.057353832247397644
0.044993931425850474 0.07356633743266462
0.07323061029318266 0.13841635817373252
0.11558562859418095 0.2032663789148004
0.14382230746151314 0.23569138928533437
0.12970396802784703 0.17084136854426646
0.10146728916051485 0.10599134780319856
0.10146728916051485 0.07356633743266462
0.08734894972684876 0.12220385298846555
0.12970396802784703 0.17084136854426646
0.18617732576251142 0.2032663789148004
0.1720589863288453 0.13841635817373252
0.15794064689517923 0.10599134780319856
0.14382230746151314 0.057353832247397644
0.11558562859418095 0.07356633743266462
0.15794064689517923 0.13841635817373252
0.2002956651961775 0.18705387372953344
0.2144140046298436 0.1546288633589995
0.2144140046298436 0.07356633743266462
0.2002956651961775 0.024928821876863697
0.1720589863288453 0.057353832247397644
0.18617732576251142 0.10599134780319856
0.2285323440635097 0.12220385298846555
0.2285323440635097 0.10599134780319856
0.2285323440635097 0.057353832247397644
0.2144140046298436 0.041141327062130674
0.18617732576251142 0.057353832247397644
0.18617732576251142 0.13841635817373252
0.25676902293084186 0.2032663789148004
0.25676902293084186 0.1546288633589995
0.31324238066550625 0.1546288633589995
0.24265068349717578 0.13841635817373252
0.2144140046298436 0.17084136854426646
0.32736072009917233 0.23569138928533437
0.36971573840017063 0.3005414100264023
0.35559739896650455 0.28432890484113527
0.32736072009917233 0.23569138928533437
0.34147905953283847 0.21947888410006738
0.35559739896650455 0.23569138928533437
0.3979524172675028 0.31675391521166923
0.4403074355685011 0.3329664203969362
0.4544257750021672 0.3329664203969362
0.4544257750021672 0.28432890484113527
0.426189096134835 0.25190389447060135
0.4403074355685011 0.2681163996558683
0.46854411443583327 0.3491789255822032
0.4967807933031655 0.3978164411380041
0.5108991327368315 0.3978164411380041
0.46854411443583327 0.3816039359527371
0.4826624538694994 0.31675391521166923
0.4826624538694994 0.36539143076747016
0.5391358116041638 0.3978164411380041
0.567372490471496 0.4950914722496059
0.6238458482061603 0.462666461879072
0.5956091693388281 0.43024145150853804
0.581490829905162 0.3816039359527371
0.5956091693388281 0.4140289463232711
0.6238458482061603 0.5113039774348729
0.6803192059408247 0.5599414929906739
0.6803192059408247 0.5761539981759408
0.6944375453744908 0.4950914722496059
0.6803192059408247 0.43024145150853804
0.6803192059408247 0.47887896706433897
0.6662008665071586 0.5761539981759408
0.7085558848081569 0.6410040189170088
0.7509109031091552 0.6085790085464747
0.7367925636754891 0.5437289878054069
0.7226742242418229 0.5113039774348729
0.6803192059408247 0.5599414929906739
0.7367925636754891 0.5923665033612078
0.7226742242418229 0.6410040189170088
0.7367925636754891 0.6734290292875427
0.7509109031091552 0.5923665033612078
0.7367925636754891 0.5437289878054069
0.7226742242418229 0.6247915137317417
0.7367925636754891 0.6410040189170088
0.7791475819764874 0.7220665448433435
0.8073842608438195 0.6896415344728096
0.7791475819764874 0.6410040189170088
0.7367925636754891 0.6085790085464747
0.7367925636754891 0.6085790085464747
0.7650292425428212 0.6734290292875427
0.7932659214101534 0.7382790500286106
0.7791475819764874 0.7058540396580766
0.7226742242418229 0.6572165241022757
0.6944375453744908 0.6085790085464747
0.6944375453744908 0.6085790085464747
0.7085558848081569 0.6734290292875427
0.7367925636754891 0.6734290292875427
0.7367925636754891 0.6896415344728096
0.6944375453744908 0.6247915137317417
0.6238458482061603 0.5761539981759408
0.567372490471496 0.5599414929906739
0.5956091693388281 0.5923665033612078
0.5956091693388281 0.6247915137317417
0.581490829905162 0.6085790085464747
0.5956091693388281 0.5761539981759408
0.581490829905162 0.47887896706433897
0.5956091693388281 0.4950914722496059
0.581490829905162 0.47887896706433897
0.6238458482061603 0.5113039774348729
0.5532541510378298 0.47887896706433897
0.5532541510378298 0.462666461879072
0.4826624538694994 0.3816039359527371
0.4826624538694994 0.31675391521166923
0.4826624538694994 0.31675391521166923
0.4826624538694994 0.3491789255822032
0.46854411443583327 0.3329664203969362
0.4403074355685011 0.25190389447060135
0.3838340778338367 0.17084136854426646
0.35559739896650455 0.1546288633589995
0.36971573840017063 0.08977884261793159
0.36971573840017063 0.17084136854426646
0.34147905953283847 0.08977884261793159
0.32736072009917233 0.041141327062130674
0.29912404123184017 -0.007496188493670251
0.25676902293084186 -0.08855871442000512
0.270887362364508 -0.0399211988642042
0.29912404123184017 -0.0399211988642042
0.2850057017981741 -0.0399211988642042
0.2285323440635097 -0.08855871442000512
0.2002956651961775 -0.153408735161073
0.15794064689517923 -0.16962124034634
0.1720589863288453 -0.20204625071687393
0.2002956651961775 -0.16962124034634
0.18617732576251142 -0.16962124034634
0.14382230746151314 -0.20204625071687393
0.11558562859418095 -0.2831087766432088
0.10146728916051485 -0.2831087766432088
0.11558562859418095 -0.2344712610874079
0.11558562859418095 -0.2344712610874079
0.11558562859418095 -0.25068376627267486
0.08734894972684876 -0.2831087766432088
0.05911227085951657 -0.31553378701374274
0.030875591992184384 -0.36417130256954366
0.044993931425850474 -0.3479587973842767
0.07323061029318266 -0.31553378701374274
0.05911227085951657 -0.2993212818284758
0.05911227085951657 -0.33174629219900975
0.016757252558518287 -0.39659631294007763
0.016757252558518287 -0.3803838077548107
0.030875591992184384 -0.39659631294007763
0.030875591992184384 -0.3479587973842767
0.05911227085951657 -0.3479587973842767
0.05911227085951657 -0.36417130256954366
0.002638913124852195 -0.39659631294007763
-0.011479426308813899 -0.44523382849587856
0.002638913124852195 -0.4128088181253446
0.044993931425850474 -0.3803838077548107
0.030875591992184384 -0.3479587973842767
-0.039716105176146085 -0.39659631294007763
-0.039716105176146085 -0.4128088181253446
-0.039716105176146085 -0.44523382849587856
-0.039716105176146085 -0.44523382849587856
-0.011479426308813899 -0.3803838077548107
0.002638913124852195 -0.3803838077548107
-0.025597765742479992 -0.4128088181253446
-0.025597765742479992 -0.4290213233106116
-0.11030780234447655 -0.4290213233106116
-0.011479426308813899 -0.4128088181253446
0.002638913124852195 -0.44523382849587856
0.030875591992184384 -0.39659631294007763
0.030875591992184384 -0.4128088181253446
-0.025597765742479992 -0.44523382849587856
-0.025597765742479992 -0.44523382849587856
-0.011479426308813899 -0.44523382849587856
0.016757252558518287 -0.4128088181253446
-0.039716105176146085 -0.4128088181253446
0.002638913124852195 -0.44523382849587856
-0.011479426308813899 -0.44523382849587856
-0.06795278404347828 -0.5100838492369465
-0.039716105176146085 -0.4776588388664125
0.030875591992184384 -0.44523382849587856
0.030875591992184384 -0.4128088181253446
-0.011479426308813899 -0.4938713440516795
-0.039716105176146085 -0.4614463336811455
-0.039716105176146085 -0.5262963544222135
-0.025597765742479992 -0.5100838492369465
0.030875591992184384 -0.44523382849587856
0.002638913124852195 -0.4614463336811455
0.016757252558518287 -0.44523382849587856
-0.025597765742479992 -0.4938713440516795
-0.025597765742479992 -0.5262963544222135
0.016757252558518287 -0.5100838492369465
0.030875591992184384 -0.4776588388664125
0.030875591992184384 -0.4776588388664125
-0.025597765742479992 -0.5100838492369465
-0.011479426308813899 -0.5100838492369465
0.002638913124852195 -0.5100838492369465
0.002638913124852195 -0.5262963544222135
0.044993931425850474 -0.5262963544222135
0.002638913124852195 -0.5262963544222135
0.016757252558518287 -0.5425088596074804
-0.039716105176146085 -0.5100838492369465
-0.039716105176146085 -0.5587213647927474
-0.025597765742479992 -0.5587213647927474
0.016757252558518287 -0.4938713440516795
0.044993931425850474 -0.5425088596074804
-0.025597765742479992 -0.5425088596074804
0.002638913124852195 -0.5587213647927474
-0.039716105176146085 -0.5587213647927474
0.002638913124852195 -0.5425088596074804
0.030875591992184384 -0.5262963544222135
0.002638913124852195 -0.5262963544222135
-0.025597765742479992 -0.4938713440516795
-0.011479426308813899 -0.5587213647927474
-0.025597765742479992 -0.5911463751632813
0.016757252558518287 -0.5425088596074804
0.030875591992184384 -0.5425088596074804
0.044993931425850474 -0.5262963544222135
0.002638913124852195 -0.5425088596074804
-0.039716105176146085 -0.5587213647927474
-0.011479426308813899 -0.5425088596074804
0.002638913124852195 -0.5587213647927474
0.05911227085951657 -0.5425088596074804
0.044993931425850474 -0.5425088596074804
-0.011479426308813899 -0.5587213647927474
-0.039716105176146085 -0.5911463751632813
-0.011479426308813899 -0.5587213647927474
0.030875591992184384 -0.5587213647927474
0.030875591992184384 -0.5587213647927474
0.05911227085951657 -0.5587213647927474
0.08734894972684876 -0.5425088596074804
0.030875591992184384 -0.5749338699780143
0.030875591992184384 -0.6235713855338153
0.08734894972684876 -0.5749338699780143
0.05911227085951657 -0.5425088596074804
0.08734894972684876 -0.5749338699780143
0.030875591992184384 -0.5911463751632813
0.030875591992184384 -0.5749338699780143
0.05911227085951657 -0.6073588803485483
0.016757252558518287 -0.6073588803485483
0.08734894972684876 -0.5425088596074804
0.14382230746151314 -0.5587213647927474
0.05911227085951657 -0.5749338699780143
0.05911227085951657 -0.6397838907190823
0.044993931425850474 -0.6073588803485483
0.07323061029318266 -0.5911463751632813
0.08734894972684876 -0.5749338699780143
0.10146728916051485 -0.5587213647927474
0.044993931425850474 -0.5911463751632813
0.016757252558518287 -0.6559963959043492
0.044993931425850474 -0.6722089010896162
0.08734894972684876 -0.6073588803485483
0.14382230746151314 -0.5425088596074804
0.15794064689517923 -0.5587213647927474
0.08734894972684876 -0.6235713855338153
0.08734894972684876 -0.6559963959043492
0.10146728916051485 -0.6884214062748831
0.11558562859418095 -0.6235713855338153
0.15794064689517923 -0.5911463751632813
0.1720589863288453 -0.5587213647927474
0.07323061029318266 -0.6235713855338153
0.044993931425850474 -0.7046339114601501
0.002638913124852195 -0.7046339114601501
0.05911227085951657 -0.6397838907190823
0.11558562859418095 -0.5587213647927474
0.14382230746151314 -0.5587213647927474
0.10146728916051485 -0.6235713855338153
0.05911227085951657 -0.6722089010896162
0.044993931425850474 -0.6722089010896162
0.10146728916051485 -0.6073588803485483
0.1720589863288453 -0.5587213647927474
0.14382230746151314 -0.5749338699780143
0.15794064689517923 -0.6073588803485483
0.11558562859418095 -0.6884214062748831
0.10146728916051485 -0.6722089010896162
0.07323061029318266 -0.6235713855338153
0.15794064689517923 -0.5749338699780143
0.18617732576251142 -0.5749338699780143
0.11558562859418095 -0.6559963959043492
0.12970396802784703 -0.6884214062748831
0.08734894972684876 -0.6884214062748831
0.11558562859418095 -0.6235713855338153
0.12970396802784703 -0.5749338699780143
0.15794064689517923 -0.6235713855338153
0.12970396802784703 -0.7046339114601501
0.11558562859418095 -0.7208464166454172
0.11558562859418095 -0.6722089010896162
0.14382230746151314 -0.6559963959043492
0.18617732576251142 -0.5749338699780143
0.18617732576251142 -0.6559963959043492
0.1720589863288453 -0.6722089010896162
0.15794064689517923 -0.7208464166454172
0.15794064689517923 -0.6722089010896162
0.15794064689517923 -0.5911463751632813
0.15794064689517923 -0.5749338699780143
0.1720589863288453 -0.6235713855338153
0.14382230746151314 -0.6397838907190823
0.14382230746151314 -0.6884214062748831
0.08734894972684876 -0.6559963959043492
0.12970396802784703 -0.5911463751632813
0.15794064689517923 -0.5749338699780143
0.1720589863288453 -0.6397838907190823
0.15794064689517923 -0.6884214062748831
0.12970396802784703 -0.6884214062748831
0.10146728916051485 -0.6397838907190823
0.11558562859418095 -0.5911463751632813
0.18617732576251142 -0.6073588803485483
0.14382230746151314 -0.6559963959043492
0.14382230746151314 -0.7046339114601501
0.14382230746151314 -0.6884214062748831
0.12970396802784703 -0.6397838907190823
0.12970396802784703 -0.6073588803485483
0.15794064689517923 -0.6397838907190823
0.18617732576251142 -0.6073588803485483
0.18617732576251142 -0.6884214062748831
0.15794064689517923 -0.7208464166454172
0.15794064689517923 -0.6722089010896162
0.15794064689517923 -0.6073588803485483
0.1720589863288453 -0.6235713855338153
0.2285323440635097 -0.6235713855338153
0.2002956651961775 -0.6722089010896162
0.1720589863288453 -0.6884214062748831
0.15794064689517923 -0.6559963959043492
0.14382230746151314 -0.6073588803485483
0.2144140046298436 -0.5425088596074804
0.2002956651961775 -0.6073588803485483
0.1720589863288453 -0.7208464166454172
0.14382230746151314 -0.6559963959043492
0.14382230746151314 -0.6397838907190823
0.2144140046298436 -0.5911463751632813
0.24265068349717578 -0.5749338699780143
0.2144140046298436 -0.6397838907190823
0.2144140046298436 -0.6722089010896162
0.2144140046298436 -0.6722089010896162
0.18617732576251142 -0.6073588803485483
0.24265068349717578 -0.5749338699780143
0.270887362364508 -0.6073588803485483
0.2850057017981741 -0.6559963959043492
0.24265068349717578 -0.6884214062748831
0.2002956651961775 -0.6397838907190823
0.1720589863288453 -0.6073588803485483
0.1720589863288453 -0.5911463751632813
0.25676902293084186 -0.6235713855338153
0.270887362364508 -0.6397838907190823
0.2144140046298436 -0.6722089010896162
0.15794064689517923 -0.6235713855338153
0.1720589863288453 -0.6073588803485483
0.2002956651961775 -0.6073588803485483
0.2285323440635097 -0.6235713855338153
0.25676902293084186 -0.6559963959043492
0.25676902293084186 -0.6559963959043492
0.2002956651961775 -0.6559963959043492
0.2144140046298436 -0.6235713855338153
0.25676902293084186 -0.6073588803485483
0.270887362364508 -0.6235713855338153
0.25676902293084186 -0.6397838907190823
0.25676902293084186 -0.6235713855338153
0.2285323440635097 -0.5749338699780143
0.2285323440635097 -0.5911463751632813
0.25676902293084186 -0.6073588803485483
0.32736072009917233 -0.5749338699780143
0.35559739896650455 -0.5587213647927474
0.29912404123184017 -0.5262963544222135
0.270887362364508 -0.5587213647927474
0.270887362364508 -0.5262963544222135
0.29912404123184017 -0.5425088596074804
0.32736072009917233 -0.5425088596074804
0.32736072009917233 -0.5425088596074804
0.31324238066550625 -0.5425088596074804
0.29912404123184017 -0.5587213647927474
0.24265068349717578 -0.5749338699780143
0.24265068349717578 -0.5749338699780143
0.32736072009917233 -0.5911463751632813
0.32736072009917233 -0.6722089010896162
0.31324238066550625 -0.6397838907190823
0.25676902293084186 -0.6559963959043492
0.2285323440635097 -0.6559963959043492
0.25676902293084186 -0.7046339114601501
0.29912404123184017 -0.7370589218306841
0.29912404123184017 -0.7046339114601501
0.24265068349717578 -0.769483932201218
0.2144140046298436 -0.769483932201218
0.2144140046298436 -0.769483932201218
0.2144140046298436 -0.7532714270159511
0.2285323440635097 -0.7370589218306841
0.25676902293084186 -0.7532714270159511
0.2002956651961775 -0.7532714270159511
0.2144140046298436 -0.785696437386485
0.2144140046298436 -0.7046339114601501
0.24265068349717578 -0.7046339114601501
0.25676902293084186 -0.7208464166454172
0.25676902293084186 -0.6884214062748831
0.270887362364508 -0.7046339114601501
0.2285323440635097 -0.7046339114601501
0.2285323440635097 -0.6722089010896162
0.24265068349717578 -0.6884214062748831
0.2850057017981741 -0.6722089010896162
0.2144140046298436 -0.6884214062748831
0.2144140046298436 -0.6884214062748831
0.2144140046298436 -0.6559963959043492
0.18617732576251142 -0.6722089010896162
0.2285323440635097 -0.6722089010896162
0.270887362364508 -0.6559963959043492
0.270887362364508 -0.6722089010896162
0.24265068349717578 -0.6559963959043492
0.1720589863288453 -0.6722089010896162
0.1720589863288453 -0.6559963959043492
0.2285323440635097 -0.6559963959043492
0.24265068349717578 -0.6559963959043492
0.25676902293084186 -0.6559963959043492
0.25676902293084186 -0.6397838907190823
0.2002956651961775 -0.6559963959043492
0.2285323440635097 -0.6559963959043492
0.2285323440635097 -0.6559963959043492
0.2285323440635097 -0.6397838907190823
0.24265068349717578 -0.6235713855338153
0.24265068349717578 -0.6397838907190823
0.18617732576251142 -0.6235713855338153
0.18617732576251142 -0.6397838907190823
0.18617732576251142 -0.6559963959043492
0.2144140046298436 -0.6397838907190823
0.2850057017981741 -0.6235713855338153
0.24265068349717578 -0.6722089010896162
0.18617732576251142 -0.6884214062748831
0.1720589863288453 -0.6722089010896162
0.2144140046298436 -0.6722089010896162
0.2285323440635097 -0.6722089010896162
0.2002956651961775 -0.6559963959043492
0.1720589863288453 -0.6884214062748831
0.14382230746151314 -0.7532714270159511
0.10146728916051485 -0.818121447757019
0.14382230746151314 -0.9316089840538878
0.18617732576251142 -0.9964590047949556
0.24265068349717578 -1.0613090255360236
0.270887362364508 -1.1585840566476253
0.31324238066550625 -1.2396465825739602
0.4967807933031655 -1.2720715929444941
0.7085558848081569 -1.3044966033150283
0.9062126368794822 -1.2558590877592273
1.033277691782477 -1.2234340773886934
1.1603427466854719 -1.2234340773886934
1.2450527832874685 -1.1585840566476253
1.2874078015884667 -1.0937340359065575
1.4285911959251276 -0.8991839736833538
1.5838929296954547 -0.5100838492369465
1.7391946634657818 0.21947888410006738
1.78154968176678 1.06252915373395
1.7674313423331138 1.662391845588828
1.6827213057311174 1.8893669181825656
1.626247947996453 2.0190669596647015
1.499182893093458 2.100129485591036
1.315644480455799 2.262254537443706
0.9909226734814788 2.310892052999507
0.6803192059408247 2.2784670426289733
0.41207075670116894 2.1163419907763035
0.24265068349717578 1.9542169389236337
0.15794064689517923 1.8083043922562307
0.07323061029318266 1.6461793404035612
-0.011479426308813899 1.5813293196624931
-0.12442614177814265 1.4516292781803575
-0.2091361783801392 1.4354167729950904
-0.2514911966811375 1.4516292781803575
-0.2373728572474714 1.4516292781803575
-0.22325451781380531 1.4516292781803575
-0.2373728572474714 1.4678417833656243
-0.2091361783801392 1.5651168144772263
-0.2091361783801392 1.6461793404035612
-0.13854448121180873 1.678604350774095
-0.011479426308813899 1.711029361144629
0.030875591992184384 1.678604350774095
0.044993931425850474 1.629966835218294
0.07323061029318266 1.5002667937361582
0.10146728916051485 1.3705667522540226
0.14382230746151314 1.2246542055866199
0.15794064689517923 0.9328291122518142
0.10146728916051485 0.5923665033612078
0.030875591992184384 0.2032663789148004
0.030875591992184384 -0.13719622997580605
0.002638913124852195 -0.31553378701374274
0.016757252558518287 -0.4776588388664125
0.05911227085951657 -0.5587213647927474
0.05911227085951657 -0.6073588803485483
0.030875591992184384 -0.6722089010896162
0.030875591992184384 -0.7370589218306841
-0.06795278404347828 -0.785696437386485
0.030875591992184384 -0.7532714270159511
0.07323061029318266 -0.769483932201218
0.044993931425850474 -0.769483932201218
0.030875591992184384 -0.818121447757019
-0.039716105176146085 -0.8667589633128199
-0.06795278404347828 -0.8505464581275529
0.016757252558518287 -0.8505464581275529
0.016757252558518287 -0.834333952942286
0.030875591992184384 -0.834333952942286
-0.011479426308813899 -0.8667589633128199
0.016757252558518287 -0.8991839736833538
-0.025597765742479992 -0.8829714684980868
0.016757252558518287 -0.8667589633128199
0.044993931425850474 -0.834333952942286
0.05911227085951657 -0.834333952942286
0.016757252558518287 -0.8829714684980868
0.002638913124852195 -0.9478214892391548
-0.011479426308813899 -0.9153964788686209
0.030875591992184384 -0.9316089840538878
0.07323061029318266 -0.8667589633128199
0.044993931425850474 -0.8667589633128199
0.044993931425850474 -0.8829714684980868
0.002638913124852195 -0.9153964788686209
-0.011479426308813899 -0.9640339944244217
0.016757252558518287 -0.9153964788686209
0.08734894972684876 -0.818121447757019
0.10146728916051485 -0.818121447757019
0.08734894972684876 -0.8829714684980868
0.07323061029318266 -0.9316089840538878
0.05911227085951657 -0.9153964788686209
0.08734894972684876 -0.8991839736833538
0.14382230746151314 -0.8505464581275529
0.15794064689517923 -0.818121447757019
0.11558562859418095 -0.8505464581275529
0.12970396802784703 -0.8667589633128199
0.14382230746151314 -0.8667589633128199
0.1720589863288453 -0.834333952942286
0.2144140046298436 -0.8019089425717519
0.2285323440635097 -0.7532714270159511
0.2002956651961775 -0.834333952942286
0.1720589863288453 -0.834333952942286
0.1720589863288453 -0.8505464581275529
0.2002956651961775 -0.7370589218306841
0.25676902293084186 -0.7370589218306841
0.270887362364508 -0.7370589218306841
0.2285323440635097 -0.818121447757019
0.2144140046298436 -0.8019089425717519
0.2144140046298436 -0.785696437386485
0.2850057017981741 -0.6722089010896162
0.25676902293084186 -0.6559963959043492
0.31324238066550625 -0.6722089010896162
0.31324238066550625 -0.7046339114601501
0.32736072009917233 -0.7046339114601501
0.31324238066550625 -0.6884214062748831
0.35559739896650455 -0.5749338699780143
0.3979524172675028 -0.5587213647927474
0.3979524172675028 -0.5587213647927474
0.3838340778338367 -0.6397838907190823
0.36971573840017063 -0.6073588803485483
0.36971573840017063 -0.6073588803485483
0.4544257750021672 -0.5100838492369465
0.4544257750021672 -0.4614463336811455
0.46854411443583327 -0.4776588388664125
0.4544257750021672 -0.5749338699780143
0.4544257750021672 -0.5587213647927474
0.4544257750021672 -0.4938713440516795
0.4826624538694994 -0.4128088181253446
0.5108991327368315 -0.4128088181253446
0.5391358116041638 -0.4128088181253446
0.4967807933031655 -0.4938713440516795
0.5108991327368315 -0.4938713440516795
0.5108991327368315 -0.39659631294007763
0.5391358116041638 -0.3803838077548107
0.6097275087724943 -0.2993212818284758
0.581490829905162 -0.36417130256954366
0.5956091693388281 -0.44523382849587856
0.5391358116041638 -0.44523382849587856
0.567372490471496 -0.31553378701374274
0.5956091693388281 -0.31553378701374274
0.6238458482061603 -0.2668962714579418
0.6662008665071586 -0.2831087766432088
0.6097275087724943 -0.36417130256954366
0.6238458482061603 -0.3479587973842767
0.581490829905162 -0.2668962714579418
0.6379641876398264 -0.2344712610874079
0.6944375453744908 -0.20204625071687393
0.6803192059408247 -0.21825875590214092
0.6662008665071586 -0.2993212818284758
0.6662008665071586 -0.2831087766432088
0.6238458482061603 -0.2344712610874079
0.7085558848081569 -0.13719622997580605
0.7367925636754891 -0.12098372479053907
0.7650292425428212 -0.21825875590214092
0.7226742242418229 -0.21825875590214092
0.6803192059408247 -0.18583374553160698
0.6803192059408247 -0.13719622997580605
0.7367925636754891 -0.1047712196052721
0.7367925636754891 -0.07234620923473815
0.7650292425428212 -0.13719622997580605
0.7367925636754891 -0.18583374553160698
0.6662008665071586 -0.153408735161073
0.6379641876398264 -0.1047712196052721
0.6944375453744908 -0.07234620923473815
0.6944375453744908 -0.07234620923473815
0.7085558848081569 -0.153408735161073
0.6662008665071586 -0.153408735161073
0.6238458482061603 -0.08855871442000512
0.6238458482061603 -0.07234620923473815
0.5956091693388281 -0.07234620923473815
0.6662008665071586 -0.1047712196052721
0.6379641876398264 -0.13719622997580605
0.581490829905162 -0.153408735161073
0.5532541510378298 -0.16962124034634
0.5108991327368315 -0.12098372479053907
0.5391358116041638 -0.153408735161073
0.5391358116041638 -0.12098372479053907
0.5250174721704977 -0.18583374553160698
0.46854411443583327 -0.21825875590214092
0.3979524172675028 -0.18583374553160698
0.3838340778338367 -0.18583374553160698
0.3838340778338367 -0.18583374553160698
0.3838340778338367 -0.20204625071687393
0.36971573840017063 -0.21825875590214092
0.29912404123184017 -0.2344712610874079
0.2285323440635097 -0.2344712610874079
0.18617732576251142 -0.20204625071687393
0.2144140046298436 -0.25068376627267486
0.1720589863288453 -0.2668962714579418
0.14382230746151314 -0.2831087766432088
0.11558562859418095 -0.31553378701374274
0.08734894972684876 -0.2831087766432088
0.05911227085951657 -0.31553378701374274
0.05911227085951657 -0.2831087766432088
0.044993931425850474 -0.33174629219900975
0.016757252558518287 -0.33174629219900975
-0.011479426308813899 -0.31553378701374274
-0.05383444460981218 -0.3479587973842767
-0.13854448121180873 -0.36417130256954366
-0.11030780234447655 -0.3803838077548107
-0.09618946291081046 -0.3479587973842767
-0.08207112347714436 -0.3479587973842767
-0.09618946291081046 -0.3479587973842767
-0.09618946291081046 -0.39659631294007763
-0.11030780234447655 -0.3479587973842767
-0.05383444460981218 -0.3803838077548107
-0.011479426308813899 -0.2993212818284758
0.05911227085951657 -0.2668962714579418
0.05911227085951657 -0.31553378701374274
0.10146728916051485 -0.36417130256954366
0.15794064689517923 -0.36417130256954366
0.2002956651961775 -0.3803838077548107
0.25676902293084186 -0.33174629219900975
0.2850057017981741 -0.2993212818284758
0.270887362364508 -0.36417130256954366
0.18617732576251142 -0.4614463336811455
0.1720589863288453 -0.4938713440516795
0.12970396802784703 -0.44523382849587856
0.07323061029318266 -0.4776588388664125
-0.06795278404347828 -0.4938713440516795
-0.2656095361148036 -0.6073588803485483
-0.4632662881861289 -0.7370589218306841
-0.6044496825227899 -0.8991839736833538
-0.773869755726783 -0.9640339944244217
-0.8726981317624456 -1.1423715514623585
-1.0279998655327727 -1.3369216136855622
-1.1833015993030997 -1.5314716759087659
-1.3103666542060945 -1.6773842225761686
-1.3950766908080912 -1.7584467485025035
-1.4091950302417573 -1.7422342433172364
-1.3950766908080912 -1.7584467485025035
-1.3527216725070927 -1.8232967692435713
-1.3386033330734268 -1.9205718003551733
-1.3668400119407589 -2.001634326281508
-1.3103666542060945 -1.969209315910974
-1.2538932964714302 -1.8881467899846391
-1.1833015993030997 -1.8232967692435713
-1.2680116359050964 -1.7422342433172364
-1.3950766908080912 -1.8070842640583045
-1.4939050668437537 -1.8232967692435713
-1.522141745711086 -1.7422342433172364
-1.522141745711086 -1.6125342018351008
-1.522141745711086 -1.40177163442663
-1.5786151034457503 -1.3369216136855622
-1.6350884611804146 -1.3369216136855622
-1.6492068006140808 -1.369346624056096
-1.6209701217467487 -1.3044966033150283
-1.5644967640120842 -1.2396465825739602
-1.4374317091090894 -1.1910090670181595
-1.3244849936397607 -1.2072215722034263
-1.225656617604098 -1.2072215722034263
-1.056236544400105 -1.2072215722034263
-0.9009348106297778 -1.1423715514623585
-0.7315147374257847 -1.0450965203507565
-0.5056213064871272 -0.9964590047949556
-0.3644379121504662 -0.9316089840538878
-0.29384621498213576 -0.8667589633128199
-0.22325451781380531 -0.7370589218306841
-0.13854448121180873 -0.6235713855338153
-0.025597765742479992 -0.5262963544222135
0.08734894972684876 -0.4938713440516795
0.1720589863288453 -0.4938713440516795
0.2144140046298436 -0.4776588388664125
0.270887362364508 -0.4290213233106116
0.29912404123184017 -0.33174629219900975
0.36971573840017063 -0.2993212818284758
0.4403074355685011 -0.2668962714579418
0.4544257750021672 -0.2668962714579418
0.46854411443583327 -0.2831087766432088
0.4403074355685011 -0.25068376627267486
0.46854411443583327 -0.16962124034634
0.5108991327368315 -0.16962124034634
0.5532541510378298 -0.21825875590214092
0.567372490471496 -0.2344712610874079
0.5391358116041638 -0.2668962714579418
0.4967807933031655 -0.25068376627267486
0.5108991327368315 -0.21825875590214092
0.5250174721704977 -0.2344712610874079
0.5250174721704977 -0.25068376627267486
0.5391358116041638 -0.2668962714579418
0.5391358116041638 -0.2831087766432088
0.5108991327368315 -0.2668962714579418
0.4967807933031655 -0.25068376627267486
0.5108991327368315 -0.31553378701374274
0.5108991327368315 -0.2831087766432088
0.567372490471496 -0.2668962714579418
0.5391358116041638 -0.2668962714579418
0.5391358116041638 -0.31553378701374274
0.5532541510378298 -0.2668962714579418
0.5956091693388281 -0.2344712610874079
0.6520825270734925 -0.21825875590214092
0.6520825270734925 -0.18583374553160698
0.6379641876398264 -0.18583374553160698
0.6238458482061603 -0.16962124034634
0.6520825270734925 -0.16962124034634
0.6520825270734925 -0.12098372479053907
0.6944375453744908 -0.1047712196052721
0.7085558848081569 -0.1047712196052721
0.6944375453744908 -0.08855871442000512
0.6803192059408247 -0.13719622997580605
0.6803192059408247 -0.1047712196052721
0.6944375453744908 -0.0399211988642042
0.7085558848081569 -0.0399211988642042
0.7509109031091552 0.008716316691596723
0.7509109031091552 -0.0399211988642042
0.7367925636754891 -0.05613370404947118
0.7509109031091552 -0.023708693678937225
0.7932659214101534 0.024928821876863697
0.8356209397111517 0.041141327062130674
0.8356209397111517 0.08977884261793159
0.7932659214101534 0.041141327062130674
0.7791475819764874 0.008716316691596723
0.7791475819764874 0.008716316691596723
0.8215026002774857 0.08977884261793159
0.8920942974458161 0.12220385298846555
0.9485676551804805 0.1546288633589995
0.8638576185784839 0.08977884261793159
0.8356209397111517 0.10599134780319856
0.8356209397111517 0.13841635817373252
0.9062126368794822 0.17084136854426646
0.9485676551804805 0.18705387372953344
0.9626859946141466 0.21947888410006738
0.8920942974458161 0.2032663789148004
0.9203309763131483 0.18705387372953344
0.9062126368794822 0.1546288633589995
0.9768043340478126 0.2681163996558683
0.9626859946141466 0.31675391521166923
1.0050410129151448 0.28432890484113527
0.9768043340478126 0.2032663789148004
0.9485676551804805 0.23569138928533437
0.9909226734814788 0.28432890484113527
1.033277691782477 0.3816039359527371
1.0615143706498091 0.3816039359527371
1.0615143706498091 0.3491789255822032
1.019159352348811 0.31675391521166923
0.9909226734814788 0.3005414100264023
1.0050410129151448 0.36539143076747016
1.0050410129151448 0.43024145150853804
1.019159352348811 0.47887896706433897
1.0473960312161432 0.43024145150853804
1.033277691782477 0.3816039359527371
0.9909226734814788 0.3491789255822032
0.9485676551804805 0.3816039359527371
0.9626859946141466 0.462666461879072
0.9768043340478126 0.47887896706433897
0.9626859946141466 0.462666461879072
0.9626859946141466 0.4140289463232711
0.9203309763131483 0.3491789255822032
0.9626859946141466 0.4140289463232711
0.9485676551804805 0.5113039774348729
1.0050410129151448 0.4950914722496059
0.9485676551804805 0.462666461879072
0.9203309763131483 0.3816039359527371
0.87797595801215 0.3978164411380041
0.87797595801215 0.4140289463232711
0.8497392791448178 0.446453956693805
0.87797595801215 0.4140289463232711
0.8638576185784839 0.36539143076747016
0.8215026002774857 0.3329664203969362
0.7650292425428212 0.2681163996558683
0.7509109031091552 0.3491789255822032
0.7650292425428212 0.3491789255822032
0.7791475819764874 0.28432890484113527
0.7650292425428212 0.2681163996558683
0.7085558848081569 0.2032663789148004
0.6520825270734925 0.17084136854426646
0.6379641876398264 0.21947888410006738
0.6520825270734925 0.2032663789148004
0.6662008665071586 0.18705387372953344
0.6238458482061603 0.07356633743266462
0.567372490471496 0.008716316691596723
0.5108991327368315 0.041141327062130674
0.4967807933031655 0.057353832247397644
0.5250174721704977 0.07356633743266462
0.5250174721704977 0.008716316691596723
0.5108991327368315 -0.0399211988642042
0.426189096134835 -0.07234620923473815
0.41207075670116894 -0.12098372479053907
0.36971573840017063 -0.07234620923473815
0.3838340778338367 -0.1047712196052721
0.35559739896650455 -0.13719622997580605
0.32736072009917233 -0.16962124034634
0.31324238066550625 -0.21825875590214092
0.29912404123184017 -0.20204625071687393
0.270887362364508 -0.16962124034634
0.29912404123184017 -0.16962124034634
0.2850057017981741 -0.2344712610874079
0.2850057017981741 -0.2344712610874079
0.25676902293084186 -0.25068376627267486
0.24265068349717578 -0.2668962714579418
0.2002956651961775 -0.2344712610874079
0.2002956651961775 -0.25068376627267486
0.2144140046298436 -0.2344712610874079
0.2285323440635097 -0.2668962714579418
0.2144140046298436 -0.31553378701374274
0.15794064689517923 -0.3479587973842767
0.14382230746151314 -0.2668962714579418
0.1720589863288453 -0.25068376627267486
0.18617732576251142 -0.2831087766432088
0.1720589863288453 -0.2993212818284758
0.12970396802784703 -0.31553378701374274
0.11558562859418095 -0.2993212818284758
0.08734894972684876 -0.2668962714579418
0.10146728916051485 -0.25068376627267486
0.12970396802784703 -0.31553378701374274
0.11558562859418095 -0.2993212818284758
0.10146728916051485 -0.2668962714579418
0.05911227085951657 -0.2993212818284758
0.05911227085951657 -0.2344712610874079
0.08734894972684876 -0.25068376627267486
0.11558562859418095 -0.2831087766432088
0.14382230746151314 -0.2831087766432088
0.10146728916051485 -0.2993212818284758
0.044993931425850474 -0.2668962714579418
0.05911227085951657 -0.25068376627267486
0.08734894972684876 -0.2344712610874079
0.08734894972684876 -0.2668962714579418
0.07323061029318266 -0.31553378701374274
0.05911227085951657 -0.31553378701374274
0.016757252558518287 -0.2831087766432088
0.016757252558518287 -0.2831087766432088
0.002638913124852195 -0.2831087766432088
0.030875591992184384 -0.2831087766432088
0.030875591992184384 -0.25068376627267486
0.05911227085951657 -0.2831087766432088
-0.011479426308813899 -0.2831087766432088
0.030875591992184384 -0.2831087766432088
0.044993931425850474 -0.2668962714579418
0.07323061029318266 -0.2668962714579418
0.08734894972684876 -0.2668962714579418
0.030875591992184384 -0.2344712610874079
0.002638913124852195 -0.2668962714579418
0.016757252558518287 -0.2993212818284758
0.05911227085951657 -0.2668962714579418
0.07323061029318266 -0.2668962714579418
0.08734894972684876 -0.2344712610874079
0.030875591992184384 -0.2668962714579418
0.002638913124852195 -0.2993212818284758
0.030875591992184384 -0.25068376627267486
0.002638913124852195 -0.2831087766432088
0.05911227085951657 -0.25068376627267486
0.05911227085951657 -0.2668962714579418
0.030875591992184384 -0.25068376627267486
-0.011479426308813899 -0.2831087766432088
-0.039716105176146085 -0.2993212818284758
0.002638913124852195 -0.25068376627267486
0.044993931425850474 -0.25068376627267486
0.044993931425850474 -0.2831087766432088
-0.025597765742479992 -0.2831087766432088
-0.039716105176146085 -0.2831087766432088
-0.011479426308813899 -0.2993212818284758
0.002638913124852195 -0.2668962714579418
0.030875591992184384 -0.25068376627267486
0.05911227085951657 -0.25068376627267486
0.016757252558518287 -0.2831087766432088
-0.011479426308813899 -0.31553378701374274
0.002638913124852195 -0.2831087766432088
0.016757252558518287 -0.2993212818284758
0.05911227085951657 -0.2344712610874079
0.044993931425850474 -0.2344712610874079
0.016757252558518287 -0.2993212818284758
-0.011479426308813899 -0.33174629219900975
-0.025597765742479992 -0.31553378701374274
0.016757252558518287 -0.25068376627267486
0.05911227085951657 -0.2344712610874079
0.030875591992184384 -0.2344712610874079
-0.011479426308813899 -0.2993212818284758
-0.05383444460981218 -0.33174629219900975
-0.011479426308813899 -0.2993212818284758
0.016757252558518287 -0.25068376627267486
0.030875591992184384 -0.20204625071687393
0.002638913124852195 -0.25068376627267486
0.016757252558518287 -0.31553378701374274
-0.025597765742479992 -0.2993212818284758
-0.025597765742479992 -0.2831087766432088
0.016757252558518287 -0.21825875590214092
0.044993931425850474 -0.21825875590214092
0.002638913124852195 -0.2344712610874079
0.002638913124852195 -0.2993212818284758
-0.05383444460981218 -0.33174629219900975
-0.011479426308813899 -0.2668962714579418
0.002638913124852195 -0.2344712610874079
0.002638913124852195 -0.2344712610874079
-0.025597765742479992 -0.21825875590214092
-0.011479426308813899 -0.2993212818284758
-0.025597765742479992 -0.33174629219900975
-0.06795278404347828 -0.2993212818284758
-0.025597765742479992 -0.21825875590214092
0.016757252558518287 -0.20204625071687393
0.030875591992184384 -0.25068376627267486
0.002638913124852195 -0.3479587973842767
-0.025597765742479992 -0.3479587973842767
-0.05383444460981218 -0.2831087766432088
-0.011479426308813899 -0.25068376627267486
0.030875591992184384 -0.20204625071687393
-0.011479426308813899 -0.2831087766432088
-0.05383444460981218 -0.33174629219900975
-0.039716105176146085 -0.33174629219900975
-0.06795278404347828 -0.2831087766432088
0.002638913124852195 -0.2831087766432088
0.016757252558518287 -0.2344712610874079
0.030875591992184384 -0.2993212818284758
-0.05383444460981218 -0.36417130256954366
-0.06795278404347828 -0.33174629219900975
-0.05383444460981218 -0.25068376627267486
-0.025597765742479992 -0.2344712610874079
0.044993931425850474 -0.2668962714579418
0.016757252558518287 -0.31553378701374274
-0.011479426308813899 -0.31553378701374274
-0.039716105176146085 -0.33174629219900975
-0.025597765742479992 -0.2993212818284758
0.002638913124852195 -0.2668962714579418
0.044993931425850474 -0.2668962714579418
0.016757252558518287 -0.33174629219900975
-0.025597765742479992 -0.2993212818284758
-0.05383444460981218 -0.2993212818284758
-0.08207112347714436 -0.25068376627267486
-0.06795278404347828 -0.25068376627267486
0.016757252558518287 -0.2993212818284758
-0.011479426308813899 -0.2831087766432088
-0.039716105176146085 -0.2993212818284758
-0.05383444460981218 -0.33174629219900975
-0.05383444460981218 -0.2668962714579418
-0.011479426308813899 -0.2993212818284758
0.002638913124852195 -0.31553378701374274
-0.025597765742479992 -0.2668962714579418
-0.05383444460981218 -0.36417130256954366
-0.05383444460981218 -0.2993212818284758
-0.05383444460981218 -0.2831087766432088
0.002638913124852195 -0.2831087766432088
0.016757252558518287 -0.2993212818284758
0.030875591992184384 -0.2993212818284758
-0.025597765742479992 -0.2993212818284758
-0.05383444460981218 -0.2993212818284758
-0.05383444460981218 -0.3479587973842767
-0.039716105176146085 -0.33174629219900975
0.002638913124852195 -0.2831087766432088
0.002638913124852195 -0.2831087766432088
-0.025597765742479992 -0.33174629219900975
-0.05383444460981218 -0.33174629219900975
-0.039716105176146085 -0.31553378701374274
-0.011479426308813899 -0.2668962714579418
-0.011479426308813899 -0.25068376627267486
-0.011479426308813899 -0.2668962714579418
-0.039716105176146085 -0.2993212818284758
-0.05383444460981218 -0.3479587973842767
-0.05383444460981218 -0.31553378701374274
0.002638913124852195 -0.2993212818284758
0.030875591992184384 -0.25068376627267486
-0.011479426308813899 -0.2831087766432088
-0.025597765742479992 -0.3479587973842767
-0.08207112347714436 -0.3479587973842767
-0.025597765742479992 -0.33174629219900975
0.002638913124852195 -0.2993212818284758
0.002638913124852195 -0.25068376627267486
0.016757252558518287 -0.2668962714579418
-0.011479426308813899 -0.31553378701374274
-0.05383444460981218 -0.3803838077548107
-0.011479426308813899 -0.33174629219900975
-0.011479426308813899 -0.31553378701374274
0.002638913124852195 -0.25068376627267486
-0.011479426308813899 -0.2831087766432088
-0.025597765742479992 -0.36417130256954366
-0.05383444460981218 -0.3803838077548107
-0.06795278404347828 -0.3479587973842767
-0.025597765742479992 -0.2668962714579418
0.002638913124852195 -0.2831087766432088
0.016757252558518287 -0.2993212818284758
-0.039716105176146085 -0.3479587973842767
-0.025597765742479992 -0.39659631294007763
-0.025597765742479992 -0.3479587973842767
0.002638913124852195 -0.2993212818284758
0.002638913124852195 -0.2831087766432088
0.016757252558518287 -0.33174629219900975
-0.025597765742479992 -0.3479587973842767
-0.05383444460981218 -0.3803838077548107
-0.06795278404347828 -0.31553378701374274
-0.039716105176146085 -0.25068376627267486
0.016757252558518287 -0.2993212818284758
-0.039716105176146085 -0.31553378701374274
-0.06795278404347828 -0.39659631294007763
-0.08207112347714436 -0.36417130256954366
-0.08207112347714436 -0.31553378701374274
-0.039716105176146085 -0.2668962714579418
-0.025597765742479992 -0.31553378701374274
0.002638913124852195 -0.36417130256954366
-0.05383444460981218 -0.4128088181253446
-0.039716105176146085 -0.36417130256954366
-0.05383444460981218 -0.33174629219900975
-0.011479426308813899 -0.2831087766432088
-0.039716105176146085 -0.33174629219900975
-0.025597765742479992 -0.3479587973842767
-0.025597765742479992 -0.36417130256954366
-0.05383444460981218 -0.3479587973842767
-0.011479426308813899 -0.33174629219900975
0.016757252558518287 -0.2831087766432088
0.030875591992184384 -0.2993212818284758
-0.011479426308813899 -0.33174629219900975
-0.039716105176146085 -0.36417130256954366
-0.05383444460981218 -0.3479587973842767
-0.039716105176146085 -0.25068376627267486
-0.011479426308813899 -0.2344712610874079
0.044993931425850474 -0.2831087766432088
0.05911227085951657 -0.2668962714579418
0.030875591992184384 -0.2831087766432088
0.05911227085951657 -0.2668962714579418
0.044993931425850474 -0.20204625071687393
0.10146728916051485 -0.20204625071687393
0.10146728916051485 -0.21825875590214092
0.07323061029318266 -0.25068376627267486
0.05911227085951657 -0.2668962714579418
0.016757252558518287 -0.2831087766432088
0.016757252558518287 -0.2344712610874079
0.05911227085951657 -0.2831087766432088
0.05911227085951657 -0.2831087766432088
0.07323061029318266 -0.33174629219900975
0.044993931425850474 -0.3479587973842767
-0.06795278404347828 -0.3479587973842767
-0.011479426308813899 -0.3803838077548107
0.002638913124852195 -0.3803838077548107
-0.025597765742479992 -0.4290213233106116
-0.011479426308813899 -0.44523382849587856
-0.025597765742479992 -0.4938713440516795
-0.09618946291081046 -0.4776588388664125
-0.09618946291081046 -0.4614463336811455
-0.039716105176146085 -0.4614463336811455
0.016757252558518287 -0.44523382849587856
0.002638913124852195 -0.4776588388664125
-0.025597765742479992 -0.44523382849587856
-0.039716105176146085 -0.4614463336811455
-0.08207112347714436 -0.4290213233106116
-0.039716105176146085 -0.4128088181253446
-0.025597765742479992 -0.4128088181253446
-0.025597765742479992 -0.39659631294007763
-0.05383444460981218 -0.44523382849587856
-0.09618946291081046 -0.4614463336811455
-0.11030780234447655 -0.4614463336811455
-0.039716105176146085 -0.3803838077548107
-0.05383444460981218 -0.3803838077548107
-0.08207112347714436 -0.39659631294007763
-0.08207112347714436 -0.44523382849587856
-0.09618946291081046 -0.4128088181253446
-0.11030780234447655 -0.4776588388664125
-0.09618946291081046 -0.39659631294007763
-0.011479426308813899 -0.3803838077548107
-0.05383444460981218 -0.39659631294007763
-0.025597765742479992 -0.44523382849587856
-0.06795278404347828 -0.4776588388664125
-0.06795278404347828 -0.4938713440516795
-0.09618946291081046 -0.44523382849587856
-0.011479426308813899 -0.4290213233106116
-0.011479426308813899 -0.4128088181253446
-0.06795278404347828 -0.44523382849587856
-0.11030780234447655 -0.4938713440516795
-0.11030780234447655 -0.4614463336811455
-0.05383444460981218 -0.4128088181253446
-0.039716105176146085 -0.4290213233106116
-0.025597765742479992 -0.4128088181253446
-0.05383444460981218 -0.5100838492369465
-0.12442614177814265 -0.5100838492369465
-0.08207112347714436 -0.4614463336811455
-0.039716105176146085 -0.4128088181253446
-0.011479426308813899 -0.4290213233106116
-0.011479426308813899 -0.4776588388664125
-0.06795278404347828 -0.5425088596074804
-0.08207112347714436 -0.5911463751632813
-0.15266282064547484 -0.5911463751632813
-0.13854448121180873 -0.6397838907190823
-0.12442614177814265 -0.785696437386485
-0.09618946291081046 -0.9153964788686209
-0.06795278404347828 -0.9802464996096887
0.002638913124852195 -1.0126715099802226
0.2285323440635097 -1.0775215307212906
0.4967807933031655 -1.0775215307212906
0.7509109031091552 -1.0450965203507565
0.9485676551804805 -1.0288840151654897
1.0615143706498091 -0.9316089840538878
1.1321060678181396 -0.8667589633128199
1.2874078015884667 -0.6235713855338153
1.499182893093458 -0.12098372479053907
1.6968396451647834 0.5923665033612078
1.753313002899448 1.3381417418834887
1.7109579845984495 1.75966687670043
1.5697745902617886 1.9217919285530998
1.470946214226126 2.0839169804057693
1.315644480455799 2.246042032258439
1.033277691782477 2.359529568555308
0.6803192059408247 2.391954578925842
0.31324238066550625 2.262254537443706
0.030875591992184384 2.0514919700352356
-0.09618946291081046 1.9542169389236337
-0.16678116007914093 1.9217919285530998
-0.2091361783801392 1.792091887070964
-0.322082893849468 1.694816855959362
-0.4350296093187967 1.5813293196624931
-0.5197396459207932 1.5489043092919592
-0.5762130036554577 1.5975418248477602
-0.4915029670534611 1.6137543300330273
-0.40679293045146453 1.629966835218294
-0.4350296093187967 1.678604350774095
-0.39267459101779845 1.727241866329896
-0.3644379121504662 1.694816855959362
-0.2797278755484697 1.743454371515163
-0.22325451781380531 1.694816855959362
-0.11030780234447655 1.678604350774095
-0.039716105176146085 1.5813293196624931
-0.011479426308813899 1.3867792574392894
-0.05383444460981218 1.1598041848455518
-0.12442614177814265 0.9328291122518142
-0.13854448121180873 0.6410040189170088
-0.15266282064547484 0.3491789255822032
-0.16678116007914093 0.041141327062130674
-0.19501783894647312 -0.2344712610874079
-0.2373728572474714 -0.3803838077548107
-0.2373728572474714 -0.4938713440516795
-0.2091361783801392 -0.5425088596074804
-0.16678116007914093 -0.5262963544222135
-0.22325451781380531 -0.6073588803485483
-0.2373728572474714 -0.7370589218306841
-0.2656095361148036 -0.769483932201218
-0.2656095361148036 -0.7370589218306841
-0.2091361783801392 -0.7208464166454172
-0.19501783894647312 -0.7370589218306841
-0.19501783894647312 -0.785696437386485
-0.2091361783801392 -0.8667589633128199
-0.2514911966811375 -0.8667589633128199
-0.2373728572474714 -0.8667589633128199
-0.19501783894647312 -0.818121447757019
-0.2091361783801392 -0.8505464581275529
-0.19501783894647312 -0.8667589633128199
-0.22325451781380531 -0.9640339944244217
-0.2797278755484697 -0.9640339944244217
-0.2797278755484697 -0.8991839736833538
-0.2091361783801392 -0.8505464581275529
-0.19501783894647312 -0.8991839736833538
-0.19501783894647312 -0.9153964788686209
-0.2656095361148036 -0.9802464996096887
-0.2797278755484697 -0.9964590047949556
-0.2373728572474714 -0.9478214892391548
-0.22325451781380531 -0.8991839736833538
-0.16678116007914093 -0.8667589633128199
-0.19501783894647312 -0.9478214892391548
-0.2091361783801392 -0.9964590047949556
-0.2091361783801392 -0.9964590047949556
-0.19501783894647312 -0.9964590047949556
-0.13854448121180873 -0.9153964788686209
-0.13854448121180873 -0.9153964788686209
-0.12442614177814265 -0.9316089840538878
-0.16678116007914093 -1.0126715099802226
-0.13854448121180873 -0.9964590047949556
-0.16678116007914093 -1.0126715099802226
-0.11030780234447655 -0.8829714684980868
-0.09618946291081046 -0.8991839736833538
-0.039716105176146085 -0.9478214892391548
-0.11030780234447655 -0.9640339944244217
-0.12442614177814265 -1.0126715099802226
-0.08207112347714436 -0.9316089840538878
-0.06795278404347828 -0.8829714684980868
-0.025597765742479992 -0.8667589633128199
0.002638913124852195 -0.8829714684980868
-0.011479426308813899 -0.9478214892391548
-0.011479426308813899 -0.9316089840538878
0.002638913124852195 -0.8829714684980868
0.016757252558518287 -0.8505464581275529
0.07323061029318266 -0.818121447757019
0.08734894972684876 -0.8505464581275529
0.044993931425850474 -0.8991839736833538
0.044993931425850474 -0.8505464581275529
0.044993931425850474 -0.834333952942286
0.11558562859418095 -0.7532714270159511
0.14382230746151314 -0.769483932201218
0.14382230746151314 -0.834333952942286
0.15794064689517923 -0.8019089425717519
0.12970396802784703 -0.8019089425717519
0.11558562859418095 -0.769483932201218
0.14382230746151314 -0.7370589218306841
0.2002956651961775 -0.6884214062748831
0.2144140046298436 -0.7208464166454172
0.18617732576251142 -0.8019089425717519
0.1720589863288453 -0.769483932201218
0.18617732576251142 -0.7046339114601501
0.2285323440635097 -0.6722089010896162
0.270887362364508 -0.6722089010896162
0.29912404123184017 -0.7046339114601501
0.25676902293084186 -0.7046339114601501
0.24265068349717578 -0.6884214062748831
0.25676902293084186 -0.6884214062748831
0.2850057017981741 -0.5587213647927474
0.34147905953283847 -0.6397838907190823
0.31324238066550625 -0.6073588803485483
0.29912404123184017 -0.6559963959043492
0.29912404123184017 -0.6073588803485483
0.29912404123184017 -0.5587213647927474
0.3838340778338367 -0.5425088596074804
0.426189096134835 -0.5587213647927474
0.3979524172675028 -0.5749338699780143
0.35559739896650455 -0.5749338699780143
0.35559739896650455 -0.5425088596074804
0.3979524172675028 -0.5262963544222135
0.426189096134835 -0.4776588388664125
0.426189096134835 -0.5587213647927474
0.4826624538694994 -0.5425088596074804
0.4403074355685011 -0.5587213647927474
0.426189096134835 -0.5425088596074804
0.46854411443583327 -0.5100838492369465
0.4826624538694994 -0.4776588388664125
0.5250174721704977 -0.4614463336811455
0.5108991327368315 -0.4776588388664125
0.4967807933031655 -0.4938713440516795
0.46854411443583327 -0.4614463336811455
0.4826624538694994 -0.4776588388664125
0.4967807933031655 -0.4290213233106116
0.5532541510378298 -0.4776588388664125
0.5250174721704977 -0.44523382849587856
0.5250174721704977 -0.4938713440516795
0.4544257750021672 -0.4614463336811455
0.4967807933031655 -0.44523382849587856
0.5108991327368315 -0.4290213233106116
0.5391358116041638 -0.39659631294007763
0.5391358116041638 -0.39659631294007763
0.4826624538694994 -0.4128088181253446
0.4967807933031655 -0.4290213233106116
0.4967807933031655 -0.4128088181253446
0.5108991327368315 -0.4128088181253446
0.5108991327368315 -0.39659631294007763
0.5108991327368315 -0.4290213233106116
0.46854411443583327 -0.44523382849587856
0.426189096134835 -0.4614463336811455
0.426189096134835 -0.4614463336811455
0.4403074355685011 -0.39659631294007763
0.4403074355685011 -0.4290213233106116
0.41207075670116894 -0.44523382849587856
0.36971573840017063 -0.4776588388664125
0.32736072009917233 -0.5100838492369465
0.29912404123184017 -0.5100838492369465
0.2850057017981741 -0.44523382849587856
0.270887362364508 -0.44523382849587856
0.2285323440635097 -0.5100838492369465
0.15794064689517923 -0.5425088596074804
0.12970396802784703 -0.5749338699780143
0.12970396802784703 -0.5749338699780143
0.1720589863288453 -0.5425088596074804
0.14382230746151314 -0.5587213647927474
0.11558562859418095 -0.5587213647927474
0.044993931425850474 -0.6235713855338153
0.030875591992184384 -0.6235713855338153
0.016757252558518287 -0.6397838907190823
-0.011479426308813899 -0.6559963959043492
-0.011479426308813899 -0.6397838907190823
-0.025597765742479992 -0.6397838907190823
-0.11030780234447655 -0.7208464166454172
-0.19501783894647312 -0.7370589218306841
-0.18089949951280704 -0.7208464166454172
-0.19501783894647312 -0.7208464166454172
-0.22325451781380531 -0.6884214062748831
-0.2373728572474714 -0.7532714270159511
-0.2514911966811375 -0.8019089425717519
-0.29384621498213576 -0.818121447757019
-0.3079645544158019 -0.8019089425717519
-0.3079645544158019 -0.7046339114601501
-0.29384621498213576 -0.7370589218306841
-0.2656095361148036 -0.7532714270159511
-0.322082893849468 -0.834333952942286
-0.2797278755484697 -0.7532714270159511
-0.22325451781380531 -0.7208464166454172
-0.16678116007914093 -0.6559963959043492
-0.12442614177814265 -0.6559963959043492
-0.08207112347714436 -0.7532714270159511
-0.06795278404347828 -0.769483932201218
-0.05383444460981218 -0.7370589218306841
-0.025597765742479992 -0.7208464166454172
0.030875591992184384 -0.6397838907190823
0.07323061029318266 -0.7208464166454172
0.08734894972684876 -0.7208464166454172
0.016757252558518287 -0.818121447757019
-0.039716105176146085 -0.8829714684980868
-0.08207112347714436 -0.8667589633128199
-0.11030780234447655 -0.8991839736833538
-0.19501783894647312 -0.8991839736833538
-0.3079645544158019 -0.9802464996096887
-0.477384627619795 -1.0775215307212906
-0.6044496825227899 -1.1423715514623585
-0.7173963979921186 -1.1747965618328924
-0.7597514162931168 -1.1910090670181595
-0.8303431134614473 -1.2720715929444941
-0.9432898289307761 -1.40177163442663
-1.084473223267437 -1.499046665538232
-1.1691832598694336 -1.5476841810940327
-1.1974199387367659 -1.499046665538232
-1.2821299753387623 -1.5152591707234988
-1.3103666542060945 -1.5314716759087659
-1.3386033330734268 -1.5638966862792998
-1.380958351374425 -1.5638966862792998
-1.3950766908080912 -1.5638966862792998
-1.4233133696754232 -1.434196644797164
-1.4656683879764216 -1.3044966033150283
-1.4797867274100878 -1.2396465825739602
-1.5786151034457503 -1.1585840566476253
-1.7480351766497435 -1.2072215722034263
-1.818626873818074 -1.1585840566476253
-1.846863552685406 -1.1261590462770914
-1.846863552685406 -1.0126715099802226
-1.7621535160834096 -0.8829714684980868
-1.7339168372160774 -0.8505464581275529
-1.6915618189150792 -0.769483932201218
-1.6209701217467487 -0.7208464166454172
-1.5644967640120842 -0.5911463751632813
-1.4515500485427555 -0.4776588388664125
-1.3386033330734268 -0.36417130256954366
-1.3244849936397607 -0.3803838077548107
-1.2538932964714302 -0.33174629219900975
-1.1691832598694336 -0.2831087766432088
-1.0279998655327727 -0.2668962714579418
-0.8868164711961117 -0.2344712610874079
-0.8021064345941151 -0.2668962714579418
-0.7879880951604491 -0.33174629219900975
-0.7173963979921186 -0.39659631294007763
-0.6891597191247864 -0.4290213233106116
-0.5479763247881254 -0.39659631294007763
-0.4350296093187967 -0.39659631294007763
-0.33620123328313406 -0.44523382849587856
-0.2373728572474714 -0.5425088596074804
-0.13854448121180873 -0.6559963959043492
-0.05383444460981218 -0.6559963959043492
0.08734894972684876 -0.6722089010896162
0.2002956651961775 -0.7208464166454172
0.31324238066550625 -0.7370589218306841
0.3838340778338367 -0.7532714270159511
0.35559739896650455 -0.818121447757019
0.36971573840017063 -0.8505464581275529
0.36971573840017063 -0.834333952942286
0.41207075670116894 -0.8019089425717519
0.4403074355685011 -0.834333952942286
0.4403074355685011 -0.9153964788686209
0.3838340778338367 -0.9153964788686209
0.35559739896650455 -0.9478214892391548
0.36971573840017063 -0.9640339944244217
0.3979524172675028 -0.9316089840538878
0.3979524172675028 -0.9640339944244217
0.41207075670116894 -0.9964590047949556
0.36971573840017063 -1.0775215307212906
0.3979524172675028 -1.0450965203507565
0.426189096134835 -1.0126715099802226
0.4544257750021672 -1.0288840151654897
0.4826624538694994 -1.0288840151654897
0.46854411443583327 -1.0613090255360236
0.4544257750021672 -1.1099465410918246
0.4544257750021672 -1.1099465410918246
0.4544257750021672 -1.1099465410918246
0.4826624538694994 -1.1099465410918246
0.5250174721704977 -1.0937340359065575
0.5108991327368315 -1.1099465410918246
0.46854411443583327 -1.1423715514623585
0.4826624538694994 -1.1423715514623585
0.5108991327368315 -1.1261590462770914
0.5391358116041638 -1.0937340359065575
0.5532541510378298 -1.0613090255360236
0.5391358116041638 -1.1261590462770914
0.5108991327368315 -1.1261590462770914
0.5250174721704977 -1.1423715514623585
0.5532541510378298 -1.0937340359065575
0.6097275087724943 -1.0126715099802226
0.6379641876398264 -1.0613090255360236
0.6379641876398264 -1.0450965203507565
0.5956091693388281 -1.0937340359065575
0.6379641876398264 -1.1261590462770914
0.6662008665071586 -1.0450965203507565
0.7226742242418229 -1.0288840151654897
0.7085558848081569 -1.0288840151654897
0.7509109031091552 -1.0288840151654897
0.7226742242418229 -1.0450965203507565
0.7226742242418229 -1.0450965203507565
0.7650292425428212 -1.0126715099802226
0.8073842608438195 -0.9640339944244217
0.8073842608438195 -0.9640339944244217
0.8215026002774857 -0.9964590047949556
0.8073842608438195 -1.0613090255360236
0.7650292425428212 -1.0450965203507565
0.8215026002774857 -0.9802464996096887
0.8215026002774857 -0.9640339944244217
0.8638576185784839 -0.9640339944244217
0.8920942974458161 -0.9640339944244217
0.8215026002774857 -0.9964590047949556
0.8497392791448178 -1.0288840151654897
0.9062126368794822 -0.9316089840538878
0.9626859946141466 -0.9153964788686209
0.9626859946141466 -0.8991839736833538
0.9768043340478126 -0.8829714684980868
0.9768043340478126 -0.9640339944244217
0.9485676551804805 -0.8991839736833538
0.9485676551804805 -0.8829714684980868
0.9768043340478126 -0.8019089425717519
1.019159352348811 -0.8019089425717519
0.9768043340478126 -0.8019089425717519
0.9485676551804805 -0.8505464581275529
0.9768043340478126 -0.834333952942286
0.9909226734814788 -0.834333952942286
1.019159352348811 -0.7370589218306841
1.0615143706498091 -0.7370589218306841
1.0473960312161432 -0.7208464166454172
1.019159352348811 -0.785696437386485
0.9485676551804805 -0.769483932201218
0.9909226734814788 -0.7370589218306841
0.9909226734814788 -0.6722089010896162
1.0050410129151448 -0.6235713855338153
1.019159352348811 -0.6559963959043492
0.9909226734814788 -0.6722089010896162
0.9626859946141466 -0.6884214062748831
0.9909226734814788 -0.6559963959043492
1.019159352348811 -0.6073588803485483
1.0473960312161432 -0.5749338699780143
1.019159352348811 -0.6073588803485483
1.0050410129151448 -0.5911463751632813
0.9626859946141466 -0.6235713855338153
0.9626859946141466 -0.5911463751632813
0.9909226734814788 -0.5262963544222135
0.9909226734814788 -0.5262963544222135
0.9768043340478126 -0.5587213647927474
0.8920942974458161 -0.5911463751632813
0.8356209397111517 -0.6073588803485483
0.9062126368794822 -0.5749338699780143
0.9203309763131483 -0.5425088596074804
0.87797595801215 -0.5100838492369465
0.8920942974458161 -0.5262963544222135
0.8073842608438195 -0.5587213647927474
0.7791475819764874 -0.5749338699780143
0.8073842608438195 -0.5262963544222135
0.7791475819764874 -0.5262963544222135
0.8215026002774857 -0.5100838492369465
0.8073842608438195 -0.5262963544222135
0.7650292425428212 -0.5749338699780143
0.7509109031091552 -0.5911463751632813
0.7085558848081569 -0.5425088596074804
0.7367925636754891 -0.5587213647927474
0.7226742242418229 -0.5749338699780143
0.6803192059408247 -0.5587213647927474
0.6803192059408247 -0.5749338699780143
0.6097275087724943 -0.5911463751632813
0.5956091693388281 -0.5749338699780143
0.6379641876398264 -0.5587213647927474
0.6379641876398264 -0.5749338699780143
0.581490829905162 -0.6235713855338153
0.5532541510378298 -0.6397838907190823
0.4967807933031655 -0.6235713855338153
0.4967807933031655 -0.6397838907190823
0.46854411443583327 -0.6235713855338153
0.4967807933031655 -0.6073588803485483
0.4544257750021672 -0.7046339114601501
0.3979524172675028 -0.7370589218306841
0.3979524172675028 -0.7046339114601501
0.34147905953283847 -0.7046339114601501
0.35559739896650455 -0.6722089010896162
0.35559739896650455 -0.7046339114601501
0.32736072009917233 -0.7370589218306841
0.29912404123184017 -0.7532714270159511
0.24265068349717578 -0.7370589218306841
0.24265068349717578 -0.7208464166454172
0.2850057017981741 -0.7046339114601501
0.270887362364508 -0.7370589218306841
0.2144140046298436 -0.7532714270159511
0.2002956651961775 -0.769483932201218
0.14382230746151314 -0.769483932201218
0.18617732576251142 -0.7532714270159511
0.2144140046298436 -0.7208464166454172
0.2144140046298436 -0.769483932201218
0.18617732576251142 -0.769483932201218
0.12970396802784703 -0.834333952942286
0.12970396802784703 -0.8019089425717519
0.11558562859418095 -0.7208464166454172
0.12970396802784703 -0.7046339114601501
0.12970396802784703 -0.7208464166454172
0.12970396802784703 -0.769483932201218
0.10146728916051485 -0.785696437386485
0.08734894972684876 -0.785696437386485
0.08734894972684876 -0.7532714270159511
0.044993931425850474 -0.6884214062748831
0.07323061029318266 -0.7046339114601501
0.14382230746151314 -0.7208464166454172
0.10146728916051485 -0.7532714270159511
0.05911227085951657 -0.7532714270159511
0.05911227085951657 -0.6884214062748831
0.08734894972684876 -0.6559963959043492
0.10146728916051485 -0.6722089010896162
0.08734894972684876 -0.7532714270159511
0.05911227085951657 -0.769483932201218
0.016757252558518287 -0.7370589218306841
0.030875591992184384 -0.7208464166454172
0.05911227085951657 -0.6397838907190823
0.08734894972684876 -0.6722089010896162
0.05911227085951657 -0.7046339114601501
0.002638913124852195 -0.7532714270159511
0.016757252558518287 -0.7532714270159511
0.044993931425850474 -0.6884214062748831
0.044993931425850474 -0.6397838907190823
0.07323061029318266 -0.6722089010896162
0.05911227085951657 -0.7208464166454172
0.044993931425850474 -0.7370589218306841
0.016757252558518287 -0.7532714270159511
-0.011479426308813899 -0.6884214062748831
0.05911227085951657 -0.6397838907190823
0.05911227085951657 -0.6397838907190823
0.05911227085951657 -0.6884214062748831
0.05911227085951657 -0.7046339114601501
0.030875591992184384 -0.7208464166454172
-0.011479426308813899 -0.7208464166454172
0.016757252558518287 -0.6235713855338153
0.030875591992184384 -0.6559963959043492
0.05911227085951657 -0.7046339114601501
0.002638913124852195 -0.7370589218306841
-0.08207112347714436 -0.7208464166454172
0.002638913124852195 -0.6884214062748831
0.030875591992184384 -0.6235713855338153
0.030875591992184384 -0.6235713855338153
0.016757252558518287 -0.6559963959043492
-0.011479426308813899 -0.7046339114601501
0.002638913124852195 -0.7208464166454172
0.030875591992184384 -0.6722089010896162
0.05911227085951657 -0.6397838907190823
0.030875591992184384 -0.6235713855338153
0.044993931425850474 -0.6397838907190823
0.002638913124852195 -0.7046339114601501
0.030875591992184384 -0.7208464166454172
0.030875591992184384 -0.6397838907190823
0.05911227085951657 -0.6073588803485483
0.07323061029318266 -0.6235713855338153
0.030875591992184384 -0.6397838907190823
0.016757252558518287 -0.7046339114601501
-0.011479426308813899 -0.6884214062748831
0.002638913124852195 -0.6559963959043492
0.05911227085951657 -0.5911463751632813
0.030875591992184384 -0.5911463751632813
0.016757252558518287 -0.6235713855338153
-0.039716105176146085 -0.6884214062748831
-0.039716105176146085 -0.6559963959043492
-0.025597765742479992 -0.6397838907190823
0.002638913124852195 -0.5587213647927474
0.002638913124852195 -0.5911463751632813
-0.011479426308813899 -0.5911463751632813
-0.025597765742479992 -0.6235713855338153
-0.039716105176146085 -0.6235713855338153
0.030875591992184384 -0.6559963959043492
0.030875591992184384 -0.5911463751632813
0.05911227085951657 -0.5911463751632813
0.030875591992184384 -0.5749338699780143
0.002638913124852195 -0.6397838907190823
-0.025597765742479992 -0.6559963959043492
-0.011479426308813899 -0.6235713855338153
0.016757252558518287 -0.5911463751632813
0.016757252558518287 -0.6073588803485483
0.030875591992184384 -0.5749338699780143
-0.025597765742479992 -0.6397838907190823
-0.011479426308813899 -0.6397838907190823
-0.025597765742479992 -0.6235713855338153
0.016757252558518287 -0.5749338699780143
-0.011479426308813899 -0.5587213647927474
-0.011479426308813899 -0.5587213647927474
-0.039716105176146085 -0.6073588803485483
-0.06795278404347828 -0.6235713855338153
-0.05383444460981218 -0.5911463751632813
-0.011479426308813899 -0.5587213647927474
0.030875591992184384 -0.5262963544222135
0.002638913124852195 -0.5425088596074804
-0.011479426308813899 -0.5911463751632813
-0.025597765742479992 -0.5587213647927474
-0.011479426308813899 -0.5587213647927474
0.016757252558518287 -0.5262963544222135
0.016757252558518287 -0.5100838492369465
0.030875591992184384 -0.5425088596074804
0.002638913124852195 -0.5587213647927474
-0.05383444460981218 -0.5911463751632813
-0.039716105176146085 -0.5262963544222135
-0.025597765742479992 -0.5262963544222135
0.002638913124852195 -0.5262963544222135
-0.011479426308813899 -0.5100838492369465
-0.025597765742479992 -0.5749338699780143
-0.039716105176146085 -0.5425088596074804
-0.025597765742479992 -0.5587213647927474
0.016757252558518287 -0.5100838492369465
0.016757252558518287 -0.4938713440516795
-0.011479426308813899 -0.5587213647927474
-0.025597765742479992 -0.5262963544222135
-0.025597765742479992 -0.5262963544222135
0.002638913124852195 -0.4938713440516795
0.030875591992184384 -0.4938713440516795
0.030875591992184384 -0.4938713440516795
0.016757252558518287 -0.5425088596074804
-0.011479426308813899 -0.5262963544222135
-0.011479426308813899 -0.4776588388664125
-0.011479426308813899 -0.4614463336811455
-0.011479426308813899 -0.4614463336811455
0.030875591992184384 -0.44523382849587856
-0.011479426308813899 -0.4776588388664125
-0.011479426308813899 -0.4776588388664125
-0.011479426308813899 -0.4938713440516795
-0.05383444460981218 -0.4938713440516795
0.002638913124852195 -0.44523382849587856
0.002638913124852195 -0.44523382849587856
-0.011479426308813899 -0.4614463336811455
-0.025597765742479992 -0.4614463336811455
-0.05383444460981218 -0.4776588388664125
-0.025597765742479992 -0.4614463336811455
-0.025597765742479992 -0.39659631294007763
0.002638913124852195 -0.44523382849587856
0.016757252558518287 -0.4290213233106116
0.016757252558518287 -0.4614463336811455
-0.05383444460981218 -0.4614463336811455
-0.025597765742479992 -0.4290213233106116
0.002638913124852195 -0.4290213233106116
0.016757252558518287 -0.4290213233106116
0.002638913124852195 -0.4614463336811455
-0.025597765742479992 -0.4776588388664125
-0.06795278404347828 -0.4128088181253446
-0.011479426308813899 -0.39659631294007763
-0.011479426308813899 -0.36417130256954366
0.002638913124852195 -0.4128088181253446
0.016757252558518287 -0.4290213233106116
-0.025597765742479992 -0.4290213233106116
-0.05383444460981218 -0.4614463336811455
-0.05383444460981218 -0.39659631294007763
-0.025597765742479992 -0.33174629219900975
0.002638913124852195 -0.3803838077548107
-0.011479426308813899 -0.39659631294007763
-0.039716105176146085 -0.44523382849587856
-0.039716105176146085 -0.39659631294007763
-0.025597765742479992 -0.36417130256954366
0.002638913124852195 -0.31553378701374274
0.002638913124852195 -0.3479587973842767
0.016757252558518287 -0.3803838077548107
-0.025597765742479992 -0.4290213233106116
-0.039716105176146085 -0.3803838077548107
-0.039716105176146085 -0.33174629219900975
-0.011479426308813899 -0.2668962714579418
0.002638913124852195 -0.31553378701374274
0.002638913124852195 -0.36417130256954366
-0.06795278404347828 -0.39659631294007763
-0.039716105176146085 -0.39659631294007763
-0.039716105176146085 -0.3803838077548107
0.002638913124852195 -0.2831087766432088
-0.011479426308813899 -0.2993212818284758
-0.025597765742479992 -0.33174629219900975
-0.039716105176146085 -0.36417130256954366
-0.025597765742479992 -0.4128088181253446
-0.09618946291081046 -0.33174629219900975
-0.011479426308813899 -0.2993212818284758
-0.025597765742479992 -0.31553378701374274
-0.039716105176146085 -0.31553378701374274
-0.011479426308813899 -0.3803838077548107
-0.039716105176146085 -0.3803838077548107
-0.011479426308813899 -0.2993212818284758
0.016757252558518287 -0.25068376627267486
0.030875591992184384 -0.2831087766432088
-0.011479426308813899 -0.3479587973842767
-0.025597765742479992 -0.39659631294007763
-0.025597765742479992 -0.36417130256954366
-0.011479426308813899 -0.2993212818284758
0.030875591992184384 -0.2668962714579418
0.044993931425850474 -0.2344712610874079
-0.011479426308813899 -0.2831087766432088
-0.025597765742479992 -0.33174629219900975
-0.025597765742479992 -0.3479587973842767
-0.025597765742479992 -0.2993212818284758
-0.025597765742479992 -0.21825875590214092
0.002638913124852195 -0.2668962714579418
0.002638913124852195 -0.2668962714579418
-0.025597765742479992 -0.3479587973842767
-0.08207112347714436 -0.31553378701374274
-0.05383444460981218 -0.2831087766432088
0.002638913124852195 -0.20204625071687393
0.016757252558518287 -0.2344712610874079
0.002638913124852195 -0.2993212818284758
-0.039716105176146085 -0.36417130256954366
-0.025597765742479992 -0.31553378701374274
-0.011479426308813899 -0.2993212818284758
-0.011479426308813899 -0.20204625071687393
0.044993931425850474 -0.2344712610874079
0.002638913124852195 -0.2668962714579418
-0.025597765742479992 -0.2831087766432088
-0.011479426308813899 -0.2993212818284758
-0.025597765742479992 -0.2668962714579418
0.030875591992184384 -0.20204625071687393
0.044993931425850474 -0.20204625071687393
0.002638913124852195 -0.25068376627267486
-0.039716105176146085 -0.2831087766432088
-0.039716105176146085 -0.2993212818284758
-0.011479426308813899 -0.2831087766432088
0.002638913124852195 -0.18583374553160698
-0.011479426308813899 -0.18583374553160698
-0.011479426308813899 -0.2344712610874079
-0.05383444460981218 -0.2344712610874079
-0.05383444460981218 -0.2831087766432088
-0.025597765742479992 -0.2344712610874079
-0.05383444460981218 -0.16962124034634
-0.011479426308813899 -0.18583374553160698
-0.039716105176146085 -0.20204625071687393
-0.039716105176146085 -0.20204625071687393
-0.011479426308813899 -0.21825875590214092
0.002638913124852195 -0.18583374553160698
0.08734894972684876 -0.1047712196052721
0.08734894972684876 -0.08855871442000512
0.05911227085951657 -0.1047712196052721
0.044993931425850474 -0.153408735161073
0.044993931425850474 -0.08855871442000512
0.07323061029318266 -0.1047712196052721
0.08734894972684876 -0.05613370404947118
0.10146728916051485 -0.07234620923473815
0.05911227085951657 -0.12098372479053907
0.044993931425850474 -0.16962124034634
0.002638913124852195 -0.13719622997580605
0.044993931425850474 -0.13719622997580605
0.030875591992184384 -0.12098372479053907
0.07323061029318266 -0.13719622997580605
0.05911227085951657 -0.16962124034634
0.016757252558518287 -0.21825875590214092
-0.025597765742479992 -0.21825875590214092
-0.025597765742479992 -0.18583374553160698
-0.011479426308813899 -0.20204625071687393
-0.025597765742479992 -0.20204625071687393
-0.025597765742479992 -0.2668962714579418
-0.06795278404347828 -0.2831087766432088
-0.11030780234447655 -0.2668962714579418
-0.09618946291081046 -0.2993212818284758
-0.06795278404347828 -0.2831087766432088
-0.039716105176146085 -0.25068376627267486
-0.08207112347714436 -0.2993212818284758
-0.09618946291081046 -0.2831087766432088
-0.09618946291081046 -0.2831087766432088
-0.06795278404347828 -0.25068376627267486
-0.06795278404347828 -0.2344712610874079
-0.039716105176146085 -0.18583374553160698
-0.05383444460981218 -0.2344712610874079
-0.09618946291081046 -0.2344712610874079
-0.12442614177814265 -0.20204625071687393
-0.15266282064547484 -0.21825875590214092
-0.09618946291081046 -0.16962124034634
-0.08207112347714436 -0.16962124034634
-0.08207112347714436 -0.20204625071687393
-0.09618946291081046 -0.2344712610874079
-0.11030780234447655 -0.2344712610874079
-0.13854448121180873 -0.153408735161073
-0.08207112347714436 -0.153408735161073
-0.06795278404347828 -0.16962124034634
-0.05383444460981218 -0.21825875590214092
-0.09618946291081046 -0.2344712610874079
-0.11030780234447655 -0.16962124034634
-0.08207112347714436 -0.16962124034634
-0.06795278404347828 -0.153408735161073
-0.08207112347714436 -0.153408735161073
-0.09618946291081046 -0.18583374553160698
-0.11030780234447655 -0.21825875590214092
-0.13854448121180873 -0.18583374553160698
-0.12442614177814265 -0.153408735161073
-0.11030780234447655 -0.13719622997580605
-0.08207112347714436 -0.153408735161073
-0.08207112347714436 -0.20204625071687393
-0.09618946291081046 -0.21825875590214092
-0.13854448121180873 -0.18583374553160698
-0.08207112347714436 -0.16962124034634
-0.11030780234447655 -0.13719622997580605
-0.025597765742479992 -0.153408735161073
-0.06795278404347828 -0.153408735161073
-0.09618946291081046 -0.2344712610874079
-0.09618946291081046 -0.20204625071687393
-0.08207112347714436 -0.13719622997580605
-0.09618946291081046 -0.12098372479053907
-0.08207112347714436 -0.13719622997580605
-0.08207112347714436 -0.20204625071687393
-0.11030780234447655 -0.2344712610874079
-0.12442614177814265 -0.21825875590214092
-0.13854448121180873 -0.18583374553160698
-0.12442614177814265 -0.153408735161073
-0.19501783894647312 -0.25068376627267486
-0.22325451781380531 -0.33174629219900975
-0.2514911966811375 -0.4614463336811455
-0.22325451781380531 -0.5425088596074804
-0.19501783894647312 -0.5100838492369465
-0.12442614177814265 -0.5262963544222135
0.016757252558518287 -0.6397838907190823
0.14382230746151314 -0.7532714270159511
0.3838340778338367 -0.7370589218306841
0.6238458482061603 -0.7370589218306841
0.8215026002774857 -0.6397838907190823
0.9626859946141466 -0.5911463751632813
1.1038693889508076 -0.5425088596074804
1.1603427466854719 -0.5262963544222135
1.2591711227211346 -0.4290213233106116
1.4427095353587938 -0.18583374553160698
1.626247947996453 0.3329664203969362
1.78154968176678 0.9814666278076152
1.7674313423331138 1.6461793404035612
1.753313002899448 2.0514919700352356
1.612129608562787 2.2298295270731723
1.45682787479246 2.359529568555308
1.315644480455799 2.5702921359637787
1.0897510495171414 2.6999921774459144
0.7509109031091552 2.764842198186982
0.36971573840017063 2.6837796722606475
0.030875591992184384 2.5216546204079777
-0.19501783894647312 2.4243795892963758
-0.2373728572474714 2.391954578925842
-0.2797278755484697 2.2784670426289733
-0.3644379121504662 2.1811920115173713
-0.4209112698851306 2.0352794648499684
-0.5338579853544594 1.9380044337383666
-0.632686361390122 1.9380044337383666
-0.6468047008237882 1.9380044337383666
-0.6468047008237882 1.9866419492941676
-0.6185680219564559 1.9866419492941676
-0.5762130036554577 2.0190669596647015
-0.5762130036554577 2.0352794648499684
-0.5620946642217916 2.0677044752205025
-0.477384627619795 2.148767001146837
-0.37855625158413236 2.1649795063321045
-0.2797278755484697 2.148767001146837
-0.19501783894647312 2.0514919700352356
-0.2514911966811375 1.9055794233678327
-0.22325451781380531 1.7758793818856968
-0.19501783894647312 1.6137543300330273
-0.19501783894647312 1.4354167729950904
-0.2656095361148036 1.2084417004013528
-0.322082893849468 0.8355540811402123
-0.3644379121504662 0.52751648262014
-0.3644379121504662 0.25190389447060135
-0.33620123328313406 0.1546288633589995
-0.29384621498213576 0.041141327062130674
-0.322082893849468 -0.023708693678937225
-0.3079645544158019 -0.12098372479053907
-0.322082893849468 -0.20204625071687393
-0.35031957271680014 -0.2668962714579418
-0.33620123328313406 -0.2831087766432088
-0.3079645544158019 -0.2831087766432088
-0.29384621498213576 -0.2831087766432088
-0.3079645544158019 -0.2993212818284758
-0.35031957271680014 -0.33174629219900975
-0.37855625158413236 -0.36417130256954366
-0.37855625158413236 -0.39659631294007763
-0.35031957271680014 -0.36417130256954366
-0.35031957271680014 -0.3479587973842767
-0.37855625158413236 -0.36417130256954366
-0.4209112698851306 -0.4128088181253446
-0.40679293045146453 -0.4614463336811455
-0.3644379121504662 -0.44523382849587856
-0.37855625158413236 -0.4128088181253446
-0.3079645544158019 -0.4128088181253446
-0.33620123328313406 -0.4614463336811455
-0.3644379121504662 -0.4614463336811455
-0.39267459101779845 -0.4614463336811455
-0.3644379121504662 -0.4776588388664125
-0.322082893849468 -0.4614463336811455
-0.29384621498213576 -0.4776588388664125
-0.322082893849468 -0.44523382849587856
-0.33620123328313406 -0.4938713440516795
-0.35031957271680014 -0.4776588388664125
-0.322082893849468 -0.5100838492369465
-0.322082893849468 -0.4776588388664125
-0.29384621498213576 -0.4776588388664125
-0.3079645544158019 -0.4776588388664125
-0.33620123328313406 -0.5100838492369465
-0.322082893849468 -0.5262963544222135
-0.33620123328313406 -0.4938713440516795
-0.3079645544158019 -0.44523382849587856
-0.29384621498213576 -0.4776588388664125
-0.2797278755484697 -0.4938713440516795
-0.29384621498213576 -0.5262963544222135
-0.29384621498213576 -0.4938713440516795
-0.2514911966811375 -0.44523382849587856
-0.22325451781380531 -0.44523382849587856
-0.18089949951280704 -0.44523382849587856
-0.2091361783801392 -0.4614463336811455
-0.22325451781380531 -0.4938713440516795
-0.22325451781380531 -0.5100838492369465
-0.19501783894647312 -0.44523382849587856
-0.18089949951280704 -0.4290213233106116
-0.13854448121180873 -0.44523382849587856
-0.16678116007914093 -0.4776588388664125
-0.18089949951280704 -0.4938713440516795
-0.19501783894647312 -0.4290213233106116
-0.12442614177814265 -0.36417130256954366
-0.15266282064547484 -0.3803838077548107
-0.12442614177814265 -0.39659631294007763
-0.11030780234447655 -0.39659631294007763
-0.15266282064547484 -0.39659631294007763
-0.11030780234447655 -0.3803838077548107
-0.06795278404347828 -0.33174629219900975
-0.05383444460981218 -0.2993212818284758
-0.06795278404347828 -0.33174629219900975
-0.025597765742479992 -0.36417130256954366
-0.06795278404347828 -0.3479587973842767
-0.09618946291081046 -0.33174629219900975
-0.06795278404347828 -0.2668962714579418
0.030875591992184384 -0.2344712610874079
0.030875591992184384 -0.25068376627267486
0.016757252558518287 -0.2831087766432088
0.016757252558518287 -0.2668962714579418
0.030875591992184384 -0.25068376627267486
0.044993931425850474 -0.2344712610874079
0.030875591992184384 -0.18583374553160698
0.08734894972684876 -0.2344712610874079
0.05911227085951657 -0.20204625071687393
0.08734894972684876 -0.2344712610874079
0.07323061029318266 -0.16962124034634
0.10146728916051485 -0.153408735161073
0.12970396802784703 -0.12098372479053907
0.12970396802784703 -0.12098372479053907
0.15794064689517923 -0.153408735161073
0.10146728916051485 -0.153408735161073
0.10146728916051485 -0.12098372479053907
0.14382230746151314 -0.05613370404947118
0.2002956651961775 -0.07234620923473815
0.2285323440635097 -0.08855871442000512
0.2285323440635097 -0.12098372479053907
0.2144140046298436 -0.1047712196052721
0.2002956651961775 -0.1047712196052721
0.2285323440635097 -0.08855871442000512
0.270887362364508 -0.007496188493670251
0.29912404123184017 -0.0399211988642042
0.270887362364508 -0.07234620923473815
0.25676902293084186 -0.13719622997580605
0.2285323440635097 -0.0399211988642042
0.2850057017981741 0.024928821876863697
0.29912404123184017 0.041141327062130674
0.31324238066550625 0.041141327062130674
0.32736072009917233 -0.0399211988642042
0.25676902293084186 -0.05613370404947118
0.2850057017981741 0.024928821876863697
0.31324238066550625 0.057353832247397644
0.35559739896650455 0.057353832247397644
0.35559739896650455 0.07356633743266462
0.36971573840017063 0.008716316691596723
0.270887362364508 -0.007496188493670251
0.34147905953283847 0.024928821876863697
0.34147905953283847 0.07356633743266462
0.36971573840017063 0.10599134780319856
0.3979524172675028 0.07356633743266462
0.36971573840017063 0.041141327062130674
0.36971573840017063 0.024928821876863697
0.31324238066550625 0.08977884261793159
0.34147905953283847 0.12220385298846555
0.3838340778338367 0.12220385298846555
0.3838340778338367 0.13841635817373252
0.35559739896650455 0.07356633743266462
0.32736072009917233 0.008716316691596723
0.270887362364508 0.07356633743266462
0.29912404123184017 0.10599134780319856
0.2850057017981741 0.10599134780319856
0.2850057017981741 0.07356633743266462
0.24265068349717578 0.041141327062130674
0.25676902293084186 0.024928821876863697
0.15794064689517923 0.057353832247397644
0.15794064689517923 0.07356633743266462
0.2002956651961775 0.08977884261793159
0.2002956651961775 0.041141327062130674
0.18617732576251142 0.008716316691596723
0.15794064689517923 -0.023708693678937225
0.12970396802784703 -0.007496188493670251
0.11558562859418095 0.041141327062130674
0.10146728916051485 0.041141327062130674
0.12970396802784703 -0.007496188493670251
0.030875591992184384 -0.0399211988642042
-0.011479426308813899 -0.12098372479053907
-0.05383444460981218 -0.05613370404947118
-0.039716105176146085 -0.0399211988642042
-0.05383444460981218 -0.05613370404947118
-0.05383444460981218 -0.07234620923473815
-0.12442614177814265 -0.153408735161073
-0.18089949951280704 -0.2344712610874079
-0.2091361783801392 -0.16962124034634
-0.2091361783801392 -0.12098372479053907
-0.2373728572474714 -0.153408735161073
-0.2514911966811375 -0.153408735161073
-0.37855625158413236 -0.25068376627267486
-0.40679293045146453 -0.2344712610874079
-0.40679293045146453 -0.2344712610874079
-0.4350296093187967 -0.25068376627267486
-0.4209112698851306 -0.20204625071687393
-0.44914794875246283 -0.25068376627267486
-0.4915029670534611 -0.2993212818284758
-0.5197396459207932 -0.3479587973842767
-0.6044496825227899 -0.31553378701374274
-0.5479763247881254 -0.25068376627267486
-0.5479763247881254 -0.2344712610874079
-0.5479763247881254 -0.33174629219900975
-0.6044496825227899 -0.33174629219900975
-0.6185680219564559 -0.3479587973842767
-0.6185680219564559 -0.2993212818284758
-0.6044496825227899 -0.25068376627267486
-0.5762130036554577 -0.2344712610874079
-0.5338579853544594 -0.25068376627267486
-0.5479763247881254 -0.2831087766432088
-0.5197396459207932 -0.2993212818284758
-0.5197396459207932 -0.25068376627267486
-0.4350296093187967 -0.21825875590214092
-0.40679293045146453 -0.20204625071687393
-0.39267459101779845 -0.2668962714579418
-0.4209112698851306 -0.31553378701374274
-0.4915029670534611 -0.3803838077548107
-0.477384627619795 -0.31553378701374274
-0.5197396459207932 -0.3803838077548107
-0.5903313430891237 -0.4128088181253446
-0.6609230402574542 -0.5100838492369465
-0.7879880951604491 -0.5749338699780143
-0.9715265077981082 -0.6073588803485483
-1.1409465810021013 -0.6722089010896162
-1.225656617604098 -0.7046339114601501
-1.2680116359050964 -0.818121447757019
-1.3527216725070927 -0.9153964788686209
-1.4515500485427555 -1.0450965203507565
-1.5927334428794164 -1.1099465410918246
-1.6492068006140808 -1.1910090670181595
-1.705680158348745 -1.2234340773886934
-1.7197984977824112 -1.2396465825739602
-1.7903901949507417 -1.320709108500295
-1.8327452132517401 -1.353134118870829
-1.959810268154735 -1.369346624056096
-1.973928607588401 -1.3044966033150283
-1.973928607588401 -1.2558590877592273
-2.016283625889399 -1.1747965618328924
-2.0586386441903977 -1.0450965203507565
-2.15746702022606 -0.9478214892391548
-2.1998220385270586 -0.8019089425717519
-2.1998220385270586 -0.6559963959043492
-2.129230341358728 -0.5587213647927474
-2.0868753230577295 -0.4290213233106116
-2.0727569836240636 -0.3479587973842767
-1.988046947022067 -0.2831087766432088
-1.9033369104200706 -0.2344712610874079
-1.8045085343844078 -0.153408735161073
-1.6915618189150792 -0.023708693678937225
-1.536260085144752 0.10599134780319856
-1.4233133696754232 0.2032663789148004
-1.3527216725070927 0.3005414100264023
-1.3244849936397607 0.3816039359527371
-1.2680116359050964 0.4140289463232711
-1.0985915627011031 0.43024145150853804
-0.9574081683644422 0.43024145150853804
-0.8444614528951134 0.3329664203969362
-0.773869755726783 0.21947888410006738
-0.7315147374257847 0.17084136854426646
-0.6609230402574542 0.08977884261793159
-0.4915029670534611 0.08977884261793159
-0.40679293045146453 0.07356633743266462
-0.3079645544158019 -0.007496188493670251
-0.16678116007914093 -0.12098372479053907
-0.09618946291081046 -0.21825875590214092
0.044993931425850474 -0.2993212818284758
0.1720589863288453 -0.31553378701374274
0.31324238066550625 -0.36417130256954366
0.41207075670116894 -0.39659631294007763
0.4544257750021672 -0.4290213233106116
0.4403074355685011 -0.4290213233106116
0.4403074355685011 -0.4614463336811455
0.4544257750021672 -0.44523382849587856
0.4967807933031655 -0.4290213233106116
0.5108991327368315 -0.4776588388664125
0.5108991327368315 -0.5262963544222135
0.4967807933031655 -0.5749338699780143
0.4826624538694994 -0.5911463751632813
0.5108991327368315 -0.5749338699780143
0.5250174721704977 -0.5749338699780143
0.5391358116041638 -0.6235713855338153
0.5250174721704977 -0.6235713855338153
0.4967807933031655 -0.6884214062748831
0.4967807933031655 -0.7046339114601501
0.4967807933031655 -0.7370589218306841
0.5391358116041638 -0.7046339114601501
0.5391358116041638 -0.7532714270159511
0.5108991327368315 -0.769483932201218
0.4826624538694994 -0.8019089425717519
0.46854411443583327 -0.8019089425717519
0.5250174721704977 -0.8505464581275529
0.5532541510378298 -0.8019089425717519
0.5532541510378298 -0.8019089425717519
0.567372490471496 -0.8019089425717519
0.5532541510378298 -0.834333952942286
0.5391358116041638 -0.8505464581275529
0.6097275087724943 -0.8019089425717519
0.6520825270734925 -0.834333952942286
0.6662008665071586 -0.769483932201218
0.6520825270734925 -0.7532714270159511
0.5956091693388281 -0.818121447757019
0.5956091693388281 -0.834333952942286
0.6238458482061603 -0.785696437386485
0.6944375453744908 -0.769483932201218
0.7367925636754891 -0.7532714270159511
0.7226742242418229 -0.785696437386485
0.6944375453744908 -0.785696437386485
0.6803192059408247 -0.818121447757019
0.7367925636754891 -0.8019089425717519
0.7650292425428212 -0.7208464166454172
0.7932659214101534 -0.7370589218306841
0.7367925636754891 -0.7532714270159511
0.7650292425428212 -0.785696437386485
0.7650292425428212 -0.769483932201218
0.7932659214101534 -0.8019089425717519
0.8356209397111517 -0.7208464166454172
0.8920942974458161 -0.7046339114601501
0.87797595801215 -0.7532714270159511
0.8497392791448178 -0.769483932201218
0.8356209397111517 -0.7532714270159511
0.8920942974458161 -0.7370589218306841
0.9485676551804805 -0.7208464166454172
0.9485676551804805 -0.6722089010896162
0.9062126368794822 -0.6884214062748831
0.9062126368794822 -0.7046339114601501
0.9062126368794822 -0.7208464166454172
0.9626859946141466 -0.6722089010896162
0.9485676551804805 -0.6235713855338153
0.9909226734814788 -0.6397838907190823
1.0050410129151448 -0.6235713855338153
0.9768043340478126 -0.6722089010896162
0.9485676551804805 -0.6397838907190823
1.0050410129151448 -0.6073588803485483
1.0050410129151448 -0.5587213647927474
1.0615143706498091 -0.5587213647927474
1.0473960312161432 -0.5587213647927474
1.019159352348811 -0.5911463751632813
1.0050410129151448 -0.5749338699780143
1.033277691782477 -0.5587213647927474
1.0473960312161432 -0.5100838492369465
1.1038693889508076 -0.4776588388664125
1.0756327100834753 -0.5100838492369465
1.019159352348811 -0.4938713440516795
1.033277691782477 -0.4776588388664125
1.0473960312161432 -0.5262963544222135
1.0756327100834753 -0.44523382849587856
1.0756327100834753 -0.4614463336811455
1.019159352348811 -0.4290213233106116
1.0050410129151448 -0.4614463336811455
0.9626859946141466 -0.44523382849587856
1.0050410129151448 -0.44523382849587856
1.033277691782477 -0.39659631294007763
1.0050410129151448 -0.3803838077548107
1.0050410129151448 -0.4128088181253446
0.9344493157468143 -0.39659631294007763
0.9062126368794822 -0.4128088181253446
0.9203309763131483 -0.39659631294007763
0.9626859946141466 -0.33174629219900975
0.9344493157468143 -0.31553378701374274
0.9203309763131483 -0.33174629219900975
0.8638576185784839 -0.4128088181253446
0.8356209397111517 -0.4128088181253446
0.8638576185784839 -0.3803838077548107
0.9062126368794822 -0.3479587973842767
0.8638576185784839 -0.3479587973842767
0.8073842608438195 -0.3479587973842767
0.7226742242418229 -0.3803838077548107
0.7367925636754891 -0.44523382849587856
0.7085558848081569 -0.4128088181253446
0.7226742242418229 -0.36417130256954366
0.7085558848081569 -0.3479587973842767
0.6520825270734925 -0.3803838077548107
0.6379641876398264 -0.44523382849587856
0.567372490471496 -0.4776588388664125
0.5956091693388281 -0.4290213233106116
0.6238458482061603 -0.4290213233106116
0.581490829905162 -0.4128088181253446
0.5391358116041638 -0.4614463336811455
0.5250174721704977 -0.4938713440516795
0.46854411443583327 -0.4938713440516795
0.5108991327368315 -0.5262963544222135
0.5108991327368315 -0.4938713440516795
0.4826624538694994 -0.4776588388664125
0.41207075670116894 -0.5262963544222135
0.35559739896650455 -0.5749338699780143
0.31324238066550625 -0.6235713855338153
0.32736072009917233 -0.6397838907190823
0.34147905953283847 -0.5587213647927474
0.34147905953283847 -0.5587213647927474
0.2850057017981741 -0.5911463751632813
0.2285323440635097 -0.6559963959043492
0.2002956651961775 -0.6722089010896162
0.2002956651961775 -0.6722089010896162
0.2002956651961775 -0.6235713855338153
0.18617732576251142 -0.6235713855338153
0.1720589863288453 -0.6559963959043492
0.12970396802784703 -0.7046339114601501
0.11558562859418095 -0.6884214062748831
0.10146728916051485 -0.6722089010896162
0.12970396802784703 -0.6722089010896162
0.1720589863288453 -0.6559963959043492
0.10146728916051485 -0.6884214062748831
0.05911227085951657 -0.7046339114601501
0.044993931425850474 -0.7208464166454172
0.044993931425850474 -0.6884214062748831
0.07323061029318266 -0.6559963959043492
0.044993931425850474 -0.6235713855338153
0.044993931425850474 -0.6559963959043492
0.016757252558518287 -0.7208464166454172
-0.025597765742479992 -0.7046339114601501
-0.025597765742479992 -0.7208464166454172
0.016757252558518287 -0.6397838907190823
0.016757252558518287 -0.6722089010896162
-0.025597765742479992 -0.6559963959043492
-0.039716105176146085 -0.7046339114601501
-0.06795278404347828 -0.7208464166454172
0.002638913124852195 -0.7046339114601501
0.002638913124852195 -0.6073588803485483
0.030875591992184384 -0.6073588803485483
0.002638913124852195 -0.6397838907190823
-0.011479426308813899 -0.6559963959043492
-0.025597765742479992 -0.6884214062748831
-0.025597765742479992 -0.6884214062748831
0.002638913124852195 -0.6235713855338153
0.030875591992184384 -0.6235713855338153
-0.011479426308813899 -0.6235713855338153
-0.039716105176146085 -0.6559963959043492
-0.039716105176146085 -0.6722089010896162
-0.025597765742479992 -0.6722089010896162
0.016757252558518287 -0.6397838907190823
0.002638913124852195 -0.6235713855338153
-0.039716105176146085 -0.6559963959043492
-0.09618946291081046 -0.6722089010896162
-0.08207112347714436 -0.7046339114601501
-0.05383444460981218 -0.6722089010896162
-0.039716105176146085 -0.6073588803485483
-0.011479426308813899 -0.6235713855338153
-0.05383444460981218 -0.6235713855338153
-0.025597765742479992 -0.7046339114601501
-0.05383444460981218 -0.7370589218306841
-0.011479426308813899 -0.6722089010896162
0.002638913124852195 -0.6235713855338153
-0.011479426308813899 -0.6235713855338153
-0.011479426308813899 -0.6559963959043492
-0.039716105176146085 -0.7046339114601501
-0.06795278404347828 -0.7046339114601501
-0.039716105176146085 -0.6722089010896162
0.002638913124852195 -0.6397838907190823
-0.011479426308813899 -0.6397838907190823
-0.025597765742479992 -0.6397838907190823
-0.025597765742479992 -0.6722089010896162
-0.06795278404347828 -0.6884214062748831
-0.06795278404347828 -0.6559963959043492
-0.05383444460981218 -0.6235713855338153
-0.011479426308813899 -0.6235713855338153
-0.011479426308813899 -0.6559963959043492
-0.08207112347714436 -0.6722089010896162
-0.08207112347714436 -0.7208464166454172
-0.039716105176146085 -0.6722089010896162
-0.011479426308813899 -0.6397838907190823
0.016757252558518287 -0.6073588803485483
-0.025597765742479992 -0.6397838907190823
-0.05383444460981218 -0.6722089010896162
-0.05383444460981218 -0.7208464166454172
-0.039716105176146085 -0.6559963959043492
-0.025597765742479992 -0.6073588803485483
-0.011479426308813899 -0.6073588803485483
-0.039716105176146085 -0.6884214062748831
-0.025597765742479992 -0.6884214062748831
-0.05383444460981218 -0.6722089010896162
-0.05383444460981218 -0.6722089010896162
-0.011479426308813899 -0.6397838907190823
0.002638913124852195 -0.5911463751632813
-0.05383444460981218 -0.6559963959043492
-0.05383444460981218 -0.7208464166454172
-0.08207112347714436 -0.7046339114601501
-0.025597765742479992 -0.6559963959043492
0.002638913124852195 -0.6073588803485483
0.016757252558518287 -0.6235713855338153
0.002638913124852195 -0.6397838907190823
-0.011479426308813899 -0.7046339114601501
-0.011479426308813899 -0.7370589218306841
-0.011479426308813899 -0.6559963959043492
0.030875591992184384 -0.6073588803485483
0.044993931425850474 -0.6235713855338153
0.016757252558518287 -0.6722089010896162
-0.025597765742479992 -0.7046339114601501
-0.025597765742479992 -0.7370589218306841
-0.025597765742479992 -0.6722089010896162
0.002638913124852195 -0.6073588803485483
0.016757252558518287 -0.6073588803485483
0.016757252558518287 -0.6397838907190823
-0.039716105176146085 -0.7208464166454172
-0.08207112347714436 -0.7370589218306841
-0.039716105176146085 -0.6559963959043492
-0.025597765742479992 -0.6559963959043492
0.002638913124852195 -0.5911463751632813
-0.025597765742479992 -0.6722089010896162
0.002638913124852195 -0.6884214062748831
-0.011479426308813899 -0.6722089010896162
0.016757252558518287 -0.6559963959043492
0.05911227085951657 -0.5587213647927474
0.044993931425850474 -0.5749338699780143
0.030875591992184384 -0.6559963959043492
0.016757252558518287 -0.6722089010896162
-0.011479426308813899 -0.6722089010896162
0.016757252558518287 -0.6073588803485483
0.030875591992184384 -0.5911463751632813
0.05911227085951657 -0.5911463751632813
0.016757252558518287 -0.6722089010896162
-0.011479426308813899 -0.7046339114601501
-0.011479426308813899 -0.7046339114601501
0.002638913124852195 -0.6559963959043492
0.030875591992184384 -0.5749338699780143
0.002638913124852195 -0.6073588803485483
-0.011479426308813899 -0.6884214062748831
-0.039716105176146085 -0.7370589218306841
-0.05383444460981218 -0.6884214062748831
0.002638913124852195 -0.6397838907190823
0.016757252558518287 -0.5587213647927474
-0.025597765742479992 -0.5911463751632813
0.002638913124852195 -0.6559963959043492
-0.011479426308813899 -0.7208464166454172
-0.025597765742479992 -0.6884214062748831
0.002638913124852195 -0.5911463751632813
0.016757252558518287 -0.5749338699780143
0.002638913124852195 -0.5911463751632813
0.002638913124852195 -0.6884214062748831
0.002638913124852195 -0.6884214062748831
0.002638913124852195 -0.6559963959043492
0.002638913124852195 -0.5911463751632813
0.044993931425850474 -0.5587213647927474
0.030875591992184384 -0.5587213647927474
-0.011479426308813899 -0.6073588803485483
-0.025597765742479992 -0.6722089010896162
-0.039716105176146085 -0.6235713855338153
-0.025597765742479992 -0.5911463751632813
0.002638913124852195 -0.5425088596074804
0.016757252558518287 -0.5587213647927474
-0.025597765742479992 -0.6397838907190823
0.016757252558518287 -0.6884214062748831
0.016757252558518287 -0.6559963959043492
0.016757252558518287 -0.5749338699780143
0.044993931425850474 -0.5587213647927474
0.05911227085951657 -0.5425088596074804
0.030875591992184384 -0.6235713855338153
-0.025597765742479992 -0.6722089010896162
0.002638913124852195 -0.6397838907190823
-0.011479426308813899 -0.5587213647927474
0.030875591992184384 -0.5425088596074804
0.05911227085951657 -0.5749338699780143
0.016757252558518287 -0.6073588803485483
0.002638913124852195 -0.6722089010896162
-0.05383444460981218 -0.6722089010896162
0.016757252558518287 -0.5749338699780143
0.016757252558518287 -0.5425088596074804
0.030875591992184384 -0.5911463751632813
0.030875591992184384 -0.6235713855338153
-0.039716105176146085 -0.6559963959043492
-0.011479426308813899 -0.6235713855338153
0.002638913124852195 -0.5911463751632813
0.030875591992184384 -0.5262963544222135
0.044993931425850474 -0.5425088596074804
0.05911227085951657 -0.6073588803485483
0.044993931425850474 -0.6397838907190823
-0.011479426308813899 -0.5911463751632813
0.030875591992184384 -0.5911463751632813
0.07323061029318266 -0.5100838492369465
0.08734894972684876 -0.5100838492369465
0.044993931425850474 -0.5587213647927474
-0.011479426308813899 -0.6397838907190823
0.016757252558518287 -0.5911463751632813
0.044993931425850474 -0.5425088596074804
0.05911227085951657 -0.5100838492369465
0.044993931425850474 -0.5425088596074804
0.044993931425850474 -0.5587213647927474
-0.011479426308813899 -0.6073588803485483
-0.011479426308813899 -0.6073588803485483
0.016757252558518287 -0.5100838492369465
0.016757252558518287 -0.5100838492369465
0.030875591992184384 -0.5100838492369465
0.030875591992184384 -0.5425088596074804
0.002638913124852195 -0.5749338699780143
0.030875591992184384 -0.5587213647927474
0.044993931425850474 -0.5425088596074804
0.05911227085951657 -0.4776588388664125
0.05911227085951657 -0.5100838492369465
0.05911227085951657 -0.5587213647927474
0.030875591992184384 -0.5911463751632813
0.030875591992184384 -0.5911463751632813
0.05911227085951657 -0.5262963544222135
0.07323061029318266 -0.4614463336811455
0.11558562859418095 -0.4614463336811455
0.05911227085951657 -0.5262963544222135
0.030875591992184384 -0.6073588803485483
0.030875591992184384 -0.5911463751632813
0.002638913124852195 -0.5262963544222135
0.07323061029318266 -0.4614463336811455
0.08734894972684876 -0.4776588388664125
0.044993931425850474 -0.5587213647927474
0.044993931425850474 -0.6073588803485483
0.016757252558518287 -0.5425088596074804
0.030875591992184384 -0.5262963544222135
0.07323061029318266 -0.4290213233106116
0.08734894972684876 -0.4614463336811455
0.05911227085951657 -0.5100838492369465
0.044993931425850474 -0.5749338699780143
0.030875591992184384 -0.5587213647927474
0.016757252558518287 -0.4776588388664125
0.07323061029318266 -0.44523382849587856
0.07323061029318266 -0.44523382849587856
0.05911227085951657 -0.5262963544222135
0.044993931425850474 -0.5587213647927474
-0.025597765742479992 -0.5262963544222135
0.044993931425850474 -0.44523382849587856
0.07323061029318266 -0.4128088181253446
0.05911227085951657 -0.4128088181253446
0.05911227085951657 -0.4614463336811455
0.016757252558518287 -0.4938713440516795
0.016757252558518287 -0.4614463336811455
0.05911227085951657 -0.39659631294007763
0.12970396802784703 -0.3479587973842767
0.1720589863288453 -0.3479587973842767
0.15794064689517923 -0.3479587973842767
0.15794064689517923 -0.39659631294007763
0.11558562859418095 -0.36417130256954366
0.14382230746151314 -0.33174629219900975
0.1720589863288453 -0.31553378701374274
0.2002956651961775 -0.33174629219900975
0.15794064689517923 -0.39659631294007763
0.12970396802784703 -0.44523382849587856
0.07323061029318266 -0.4290213233106116
0.11558562859418095 -0.3803838077548107
0.12970396802784703 -0.33174629219900975
0.14382230746151314 -0.3803838077548107
0.10146728916051485 -0.4776588388664125
0.05911227085951657 -0.5100838492369465
0.05911227085951657 -0.5100838492369465
0.07323061029318266 -0.4776588388664125
0.10146728916051485 -0.4290213233106116
0.07323061029318266 -0.4938713440516795
0.030875591992184384 -0.5749338699780143
-0.025597765742479992 -0.5749338699780143
-0.011479426308813899 -0.5100838492369465
0.05911227085951657 -0.5100838492369465
0.044993931425850474 -0.5100838492369465
0.07323061029318266 -0.5100838492369465
0.05911227085951657 -0.5262963544222135
0.030875591992184384 -0.5587213647927474
0.016757252558518287 -0.4938713440516795
0.044993931425850474 -0.44523382849587856
0.016757252558518287 -0.4290213233106116
0.05911227085951657 -0.4614463336811455
-0.011479426308813899 -0.5100838492369465
0.002638913124852195 -0.5100838492369465
0.002638913124852195 -0.4776588388664125
0.002638913124852195 -0.44523382849587856
0.016757252558518287 -0.39659631294007763
0.016757252558518287 -0.4614463336811455
0.002638913124852195 -0.4776588388664125
-0.039716105176146085 -0.4776588388664125
-0.025597765742479992 -0.4614463336811455
0.002638913124852195 -0.39659631294007763
0.002638913124852195 -0.44523382849587856
0.002638913124852195 -0.4614463336811455
0.044993931425850474 -0.4614463336811455
-0.011479426308813899 -0.4938713440516795
0.016757252558518287 -0.4614463336811455
0.016757252558518287 -0.4290213233106116
0.07323061029318266 -0.4290213233106116
0.07323061029318266 -0.44523382849587856
0.030875591992184384 -0.4614463336811455
-0.011479426308813899 -0.4614463336811455
-0.025597765742479992 -0.4290213233106116
0.044993931425850474 -0.4128088181253446
0.016757252558518287 -0.4128088181253446
0.07323061029318266 -0.4776588388664125
0.030875591992184384 -0.4614463336811455
-0.011479426308813899 -0.4290213233106116
-0.025597765742479992 -0.44523382849587856
-0.011479426308813899 -0.4128088181253446
0.002638913124852195 -0.36417130256954366
0.030875591992184384 -0.44523382849587856
0.030875591992184384 -0.4776588388664125
0.016757252558518287 -0.44523382849587856
0.002638913124852195 -0.4776588388664125
0.016757252558518287 -0.4776588388664125
0.016757252558518287 -0.4290213233106116
-0.025597765742479992 -0.4938713440516795
-0.08207112347714436 -0.5911463751632813
-0.12442614177814265 -0.7046339114601501
-0.11030780234447655 -0.7532714270159511
-0.06795278404347828 -0.834333952942286
0.030875591992184384 -0.8505464581275529
0.2002956651961775 -0.9153964788686209
0.36971573840017063 -0.9478214892391548
0.6238458482061603 -1.0126715099802226
0.8215026002774857 -0.9802464996096887
1.0615143706498091 -0.9153964788686209
1.2168161044201362 -0.8505464581275529
1.2874078015884667 -0.7532714270159511
1.343881159323131 -0.6073588803485483
1.5556562508281224 -0.3479587973842767
1.8097863606341122 0.18705387372953344
2.0074431127054377 0.8517665863254794
2.078034809873768 1.4678417833656243
2.0074431127054377 1.8245168974414978
1.8239047000677784 2.0190669596647015
1.6544846268637852 2.148767001146837
1.45682787479246 2.2784670426289733
1.1462244072518057 2.3757420737405748
0.7650292425428212 2.440592094481643
0.35559739896650455 2.4243795892963758
0.030875591992184384 2.2298295270731723
-0.18089949951280704 2.1325544959615703
-0.2656095361148036 1.9542169389236337
-0.2656095361148036 1.8731544129972988
-0.33620123328313406 1.8245168974414978
-0.4350296093187967 1.75966687670043
-0.5620946642217916 1.743454371515163
-0.632686361390122 1.711029361144629
-0.6750413796911203 1.678604350774095
-0.5620946642217916 1.743454371515163
-0.4632662881861289 1.8731544129972988
-0.40679293045146453 1.9217919285530998
-0.3644379121504662 1.9542169389236337
-0.37855625158413236 1.9055794233678327
-0.2373728572474714 1.8569419078120317
-0.09618946291081046 1.8407294026267649
0.016757252558518287 1.75966687670043
0.030875591992184384 1.6461793404035612
0.002638913124852195 1.4516292781803575
-0.11030780234447655 1.1922291952160857
-0.18089949951280704 0.9328291122518142
-0.18089949951280704 0.6247915137317417
-0.19501783894647312 0.3816039359527371
-0.16678116007914093 0.18705387372953344
-0.19501783894647312 -0.05613370404947118
-0.2091361783801392 -0.18583374553160698
-0.2373728572474714 -0.2668962714579418
-0.2373728572474714 -0.3479587973842767
-0.18089949951280704 -0.3803838077548107
-0.19501783894647312 -0.4290213233106116
-0.19501783894647312 -0.4614463336811455
-0.2091361783801392 -0.5587213647927474
-0.22325451781380531 -0.4938713440516795
-0.19501783894647312 -0.5587213647927474
-0.16678116007914093 -0.5425088596074804
-0.15266282064547484 -0.5100838492369465
-0.2091361783801392 -0.5587213647927474
-0.2514911966811375 -0.6073588803485483
-0.2373728572474714 -0.5749338699780143
-0.2091361783801392 -0.5911463751632813
-0.16678116007914093 -0.5587213647927474
-0.15266282064547484 -0.5749338699780143
-0.19501783894647312 -0.5911463751632813
-0.2091361783801392 -0.6235713855338153
-0.29384621498213576 -0.6559963959043492
-0.22325451781380531 -0.6722089010896162
-0.15266282064547484 -0.6235713855338153
-0.18089949951280704 -0.6397838907190823
-0.19501783894647312 -0.7046339114601501
-0.22325451781380531 -0.6559963959043492
-0.2373728572474714 -0.6884214062748831
-0.2091361783801392 -0.6722089010896162
-0.2091361783801392 -0.6559963959043492
-0.16678116007914093 -0.6235713855338153
-0.13854448121180873 -0.6559963959043492
-0.2091361783801392 -0.6722089010896162
-0.18089949951280704 -0.7046339114601501
-0.16678116007914093 -0.6722089010896162
-0.15266282064547484 -0.6235713855338153
-0.13854448121180873 -0.6397838907190823
-0.15266282064547484 -0.6397838907190823
-0.13854448121180873 -0.6722089010896162
-0.12442614177814265 -0.7046339114601501
-0.13854448121180873 -0.6397838907190823
-0.09618946291081046 -0.6073588803485483
-0.08207112347714436 -0.6073588803485483
-0.09618946291081046 -0.6073588803485483
-0.12442614177814265 -0.6397838907190823
-0.11030780234447655 -0.6559963959043492
-0.12442614177814265 -0.6235713855338153
-0.05383444460981218 -0.5587213647927474
-0.025597765742479992 -0.5425088596074804
-0.06795278404347828 -0.5587213647927474
-0.08207112347714436 -0.5749338699780143
-0.06795278404347828 -0.6073588803485483
-0.039716105176146085 -0.5587213647927474
0.030875591992184384 -0.4938713440516795
0.030875591992184384 -0.4938713440516795
0.002638913124852195 -0.5100838492369465
0.016757252558518287 -0.5262963544222135
0.016757252558518287 -0.5262963544222135
0.044993931425850474 -0.4614463336811455
0.08734894972684876 -0.39659631294007763
0.05911227085951657 -0.3803838077548107
0.030875591992184384 -0.39659631294007763
0.016757252558518287 -0.44523382849587856
0.05911227085951657 -0.4290213233106116
0.10146728916051485 -0.4128088181253446
0.12970396802784703 -0.3479587973842767
0.14382230746151314 -0.31553378701374274
0.11558562859418095 -0.33174629219900975
0.10146728916051485 -0.36417130256954366
0.11558562859418095 -0.36417130256954366
0.14382230746151314 -0.31553378701374274
0.2285323440635097 -0.2993212818284758
0.2002956651961775 -0.25068376627267486
0.2144140046298436 -0.2831087766432088
0.2002956651961775 -0.2831087766432088
0.2002956651961775 -0.2668962714579418
0.25676902293084186 -0.25068376627267486
0.2850057017981741 -0.18583374553160698
0.29912404123184017 -0.18583374553160698
0.2850057017981741 -0.20204625071687393
0.2850057017981741 -0.2344712610874079
0.25676902293084186 -0.21825875590214092
0.31324238066550625 -0.16962124034634
0.35559739896650455 -0.153408735161073
0.34147905953283847 -0.1047712196052721
0.32736072009917233 -0.16962124034634
0.29912404123184017 -0.20204625071687393
0.2850057017981741 -0.16962124034634
0.32736072009917233 -0.12098372479053907
0.35559739896650455 -0.05613370404947118
0.41207075670116894 -0.05613370404947118
0.3979524172675028 -0.08855871442000512
0.34147905953283847 -0.08855871442000512
0.35559739896650455 -0.07234620923473815
0.426189096134835 -0.05613370404947118
0.4544257750021672 -0.007496188493670251
0.4967807933031655 -0.023708693678937225
0.46854411443583327 -0.0399211988642042
0.4544257750021672 -0.08855871442000512
0.3979524172675028 -0.05613370404947118
0.4403074355685011 -0.007496188493670251
0.4544257750021672 0.041141327062130674
0.5108991327368315 0.024928821876863697
0.4826624538694994 -0.0399211988642042
0.426189096134835 -0.007496188493670251
0.3979524172675028 -0.007496188493670251
0.4826624538694994 0.041141327062130674
0.46854411443583327 0.08977884261793159
0.5108991327368315 0.07356633743266462
0.4544257750021672 0.041141327062130674
0.4826624538694994 0.008716316691596723
0.426189096134835 0.024928821876863697
0.46854411443583327 0.08977884261793159
0.5108991327368315 0.10599134780319856
0.5250174721704977 0.10599134780319856
0.46854411443583327 0.041141327062130674
0.41207075670116894 0.024928821876863697
0.426189096134835 0.07356633743266462
0.4403074355685011 0.08977884261793159
0.46854411443583327 0.10599134780319856
0.426189096134835 0.07356633743266462
0.3979524172675028 0.07356633743266462
0.35559739896650455 0.008716316691596723
0.29912404123184017 0.057353832247397644
0.31324238066550625 0.08977884261793159
0.34147905953283847 0.10599134780319856
0.34147905953283847 0.057353832247397644
0.25676902293084186 0.024928821876863697
0.18617732576251142 -0.007496188493670251
0.1720589863288453 -0.007496188493670251
0.1720589863288453 0.041141327062130674
0.15794064689517923 0.07356633743266462
0.12970396802784703 0.057353832247397644
0.10146728916051485 -0.0399211988642042
0.07323061029318266 -0.12098372479053907
0.030875591992184384 -0.08855871442000512
0.016757252558518287 -0.023708693678937225
0.002638913124852195 -0.023708693678937225
-0.025597765742479992 -0.07234620923473815
-0.06795278404347828 -0.1047712196052721
-0.13854448121180873 -0.16962124034634
-0.16678116007914093 -0.13719622997580605
-0.2091361783801392 -0.08855871442000512
-0.2091361783801392 -0.07234620923473815
-0.2656095361148036 -0.13719622997580605
-0.322082893849468 -0.20204625071687393
-0.40679293045146453 -0.21825875590214092
-0.39267459101779845 -0.20204625071687393
-0.40679293045146453 -0.16962124034634
-0.4209112698851306 -0.153408735161073
-0.44914794875246283 -0.16962124034634
-0.477384627619795 -0.25068376627267486
-0.5197396459207932 -0.21825875590214092
-0.5197396459207932 -0.20204625071687393
-0.4632662881861289 -0.13719622997580605
-0.44914794875246283 -0.12098372479053907
-0.4350296093187967 -0.153408735161073
-0.477384627619795 -0.18583374553160698
-0.4915029670534611 -0.16962124034634
-0.5056213064871272 -0.13719622997580605
-0.4350296093187967 -0.023708693678937225
-0.4209112698851306 -0.08855871442000512
-0.3644379121504662 -0.05613370404947118
-0.37855625158413236 -0.1047712196052721
-0.40679293045146453 -0.05613370404947118
-0.40679293045146453 -0.007496188493670251
-0.4915029670534611 0.008716316691596723
-0.44914794875246283 0.07356633743266462
-0.4915029670534611 0.041141327062130674
