-0.9544893209598356 0.6906156183409154
-0.940731675396942 0.711036982124601
-0.9132163842711548 0.6906156183409154
-0.8719434475824741 0.7314583459082865
-0.9132163842711548 0.6701942545572299
-0.8994587387082612 0.711036982124601
-0.9269740298340484 0.6497728907735444
-0.9269740298340484 0.6293515269898589
-0.9682469665227291 0.6089301632061734
-0.9682469665227291 0.6497728907735444
-0.9682469665227291 0.6701942545572299
-0.9544893209598356 0.711036982124601
-0.8857010931453677 0.7314583459082865
-0.8857010931453677 0.7723010734756575
-0.8857010931453677 0.8131438010430285
-0.8444281564566869 0.792722437259343
-0.8444281564566869 0.751879709691972
-0.8306705108937933 0.7314583459082865
-0.8719434475824741 0.711036982124601
-0.8306705108937933 0.6906156183409154
-0.8444281564566869 0.711036982124601
-0.8306705108937933 0.711036982124601
-0.8169128653308998 0.7723010734756575
-0.8031552197680062 0.8335651648267141
-0.7343669919535383 0.9560933475288271
-0.7206093463906447 1.0173574388798836
-0.679336409701964 1.0582001664472547
-0.6380634730132831 1.0377788026635693
-0.610548181887496 0.9152506199614562
-0.5692752451988152 0.8131438010430285
-0.5555175996359217 0.5680874356388024
-0.4729717262585602 0.30260970645089064
-0.3353952706296244 -0.06497484165544865
-0.1427882327491142 -0.4325593897617879
0.2699411341376933 -0.8001439378681272
0.7927316655276494 -1.1268857584070955
1.4806139436723287 -1.2902566686765795
2.388618550823305 -1.3515207600276362
3.4204419680403237 -1.1677284859744665
4.507295967508917 -0.9635148481376113
5.429058220222787 -0.6367730275986431
5.993121688301423 -0.2896098432759893
6.048152270552998 0.05755334104666446
5.415300574659893 0.3842951615856327
4.012020727244748 0.5272447080714313
2.2510420951943693 0.6701942545572299
0.49006346314399063 0.6497728907735444
-1.270915168906388 0.6293515269898589
-2.9768632187051924 0.5885087994224879
-3.2382584844001703 0.4864019805040603
-2.8668020542020436 0.5068233442877458
-2.0551009659913224 0.6089301632061734
-1.270915168906388 0.792722437259343
-0.6655787641390704 0.9152506199614562
-0.21157646056358212 1.0786215302309403
-0.11527294162332703 1.0990428940146257
-0.11527294162332703 1.0786215302309403
-0.23909175168936928 1.0786215302309403
-0.3491529161925179 1.0786215302309403
-0.4729717262585602 1.0786215302309403
-0.5142446629472409 1.0786215302309403
-0.48672937182145376 1.0990428940146257
-0.4592140806956666 1.1603069853656822
-0.41794114400698584 1.1398856215819968
-0.3904258528811987 1.0990428940146257
-0.3766682073183051 1.0582001664472547
-0.4041834984440923 1.0582001664472547
-0.4041834984440923 1.0582001664472547
-0.43169878956987945 1.0377788026635693
-0.41794114400698584 1.0173574388798836
-0.4041834984440923 1.0786215302309403
-0.4041834984440923 1.1194642577983114
-0.3491529161925179 1.1194642577983114
-0.3491529161925179 1.1603069853656822
-0.36291056175541153 1.1398856215819968
-0.3078799795038372 1.1603069853656822
-0.32163762506673077 1.1194642577983114
-0.32163762506673077 1.1807283491493679
-0.32163762506673077 1.1194642577983114
-0.3766682073183051 1.0990428940146257
-0.3766682073183051 1.0377788026635693
-0.3766682073183051 1.0786215302309403
-0.3904258528811987 1.0990428940146257
-0.3904258528811987 1.1194642577983114
-0.3904258528811987 1.1194642577983114
-0.3491529161925179 1.1807283491493679
-0.32163762506673077 1.221571076716739
-0.28036468837805 1.2011497129330533
-0.3078799795038372 1.1807283491493679
-0.32163762506673077 1.1398856215819968
-0.3353952706296244 1.0786215302309403
-0.2941223339409436 1.1398856215819968
-0.3491529161925179 1.0582001664472547
-0.36291056175541153 1.0786215302309403
-0.3353952706296244 1.1398856215819968
-0.32163762506673077 1.1194642577983114
-0.2941223339409436 1.2011497129330533
-0.26660704281515646 1.1807283491493679
-0.28036468837805 1.26241380428411
-0.25284939725226285 1.2419924405004243
-0.28036468837805 1.2011497129330533
-0.2941223339409436 1.2011497129330533
-0.2941223339409436 1.1807283491493679
-0.3078799795038372 1.1194642577983114
-0.3353952706296244 1.1398856215819968
-0.3078799795038372 1.1398856215819968
-0.2941223339409436 1.1398856215819968
-0.3078799795038372 1.1603069853656822
-0.2941223339409436 1.221571076716739
-0.3078799795038372 1.2419924405004243
-0.25284939725226285 1.2828351680677954
-0.2253341061264757 1.26241380428411
-0.21157646056358212 1.26241380428411
-0.19781881500068854 1.2011497129330533
-0.23909175168936928 1.2011497129330533
-0.21157646056358212 1.1807283491493679
-0.21157646056358212 1.1194642577983114
-0.21157646056358212 1.1807283491493679
-0.2253341061264757 1.1807283491493679
-0.19781881500068854 1.1807283491493679
-0.18406116943779494 1.26241380428411
-0.17030352387490136 1.26241380428411
-0.15654587831200778 1.2828351680677954
-0.15654587831200778 1.2828351680677954
-0.1427882327491142 1.221571076716739
-0.11527294162332703 1.2828351680677954
-0.12903058718622062 1.2419924405004243
-0.1427882327491142 1.2011497129330533
-0.12903058718622062 1.1603069853656822
-0.17030352387490136 1.1807283491493679
-0.18406116943779494 1.1807283491493679
-0.12903058718622062 1.221571076716739
-0.11527294162332703 1.26241380428411
-0.07400000493464629 1.2828351680677954
-0.03272706824596554 1.3236778956351665
-0.005211777120178371 1.3440992594188519
0.04981880513139596 1.3236778956351665
0.06357645069428955 1.2828351680677954
0.04981880513139596 1.2419924405004243
0.008545868442715212 1.26241380428411
-0.005211777120178371 1.221571076716739
0.022303514005608795 1.1603069853656822
0.008545868442715212 1.2419924405004243
0.07733409625718313 1.2419924405004243
0.06357645069428955 1.26241380428411
0.1048493873829703 1.3032565318514808
0.14612232407165104 1.3236778956351665
0.21491055188611896 1.3440992594188519
0.24242584301190612 1.3032565318514808
0.20115290632322538 1.2828351680677954
0.20115290632322538 1.221571076716739
0.22866819744901254 1.2011497129330533
0.21491055188611896 1.2419924405004243
0.1736376151974382 1.2419924405004243
0.15987996963454462 1.26241380428411
0.18739526076033178 1.26241380428411
0.24242584301190612 1.2828351680677954
0.2836987797005869 1.3645206232025375
0.32497171638926764 1.384941986986223
0.3524870075150548 1.3440992594188519
0.3524870075150548 1.3236778956351665
0.38000229864084195 1.3236778956351665
0.3387293619521612 1.2828351680677954
0.3524870075150548 1.2419924405004243
0.3387293619521612 1.2419924405004243
0.31121407082637403 1.26241380428411
0.31121407082637403 1.3440992594188519
0.29745642526348043 1.3440992594188519
0.31121407082637403 1.3440992594188519
0.31121407082637403 1.425784714553594
0.29745642526348043 1.425784714553594
0.2561834885747997 1.5278915334720216
0.20115290632322538 1.4870488059046505
0.14612232407165104 1.4870488059046505
0.07733409625718313 1.4462060783372797
-0.03272706824596554 1.4870488059046505
-0.08775765049753986 1.4462060783372797
-0.15654587831200778 1.466627442120965
-0.23909175168936928 1.4462060783372797
-0.26660704281515646 1.5278915334720216
-0.28036468837805 1.5278915334720216
-0.32163762506673077 1.5891556248230783
-0.3353952706296244 1.6095769886067637
-0.3491529161925179 1.6504197161741347
-0.3904258528811987 1.6504197161741347
-0.4041834984440923 1.5891556248230783
-0.445456435132773 1.5687342610393926
-0.48672937182145376 1.5687342610393926
-0.5692752451988152 1.5278915334720216
-0.5830328907617088 1.5483128972557072
-0.610548181887496 1.5891556248230783
-0.6243058274503896 1.5891556248230783
-0.5555175996359217 1.5687342610393926
-0.5555175996359217 1.6912624437415058
-0.5692752451988152 1.7116838075251912
-0.5280023085101345 1.7116838075251912
-0.5280023085101345 1.6708410799578202
-0.5555175996359217 1.6912624437415058
-0.5692752451988152 1.629998352390449
-0.610548181887496 1.6504197161741347
-0.6518211185761768 1.629998352390449
-0.6655787641390704 1.6095769886067637
-0.6655787641390704 1.6504197161741347
-0.6380634730132831 1.6708410799578202
-0.6518211185761768 1.7116838075251912
-0.6243058274503896 1.7321051713088769
-0.5967905363246024 1.7933692626599333
-0.5692752451988152 1.7933692626599333
-0.5830328907617088 1.7729478988762477
-0.5830328907617088 1.8137906264436188
-0.5830328907617088 1.7729478988762477
-0.5967905363246024 1.7321051713088769
-0.6380634730132831 1.6912624437415058
-0.6518211185761768 1.7321051713088769
-0.6380634730132831 1.7933692626599333
-0.6380634730132831 1.7525265350925623
-0.610548181887496 1.8137906264436188
-0.5417599540730281 1.8750547177946755
-0.5280023085101345 1.8546333540109898
-0.48672937182145376 1.8546333540109898
-0.5004870173843473 1.8546333540109898
-0.48672937182145376 1.8342119902273044
-0.5280023085101345 1.8546333540109898
-0.5555175996359217 1.7933692626599333
-0.5555175996359217 1.8137906264436188
-0.5280023085101345 1.7933692626599333
-0.5417599540730281 1.8137906264436188
-0.5417599540730281 1.8342119902273044
-0.5280023085101345 1.8546333540109898
-0.5142446629472409 1.8546333540109898
-0.48672937182145376 1.9158974453620463
-0.43169878956987945 1.9567401729294174
-0.43169878956987945 1.8546333540109898
-0.4592140806956666 1.8750547177946755
-0.4592140806956666 1.7729478988762477
-0.4729717262585602 1.8546333540109898
-0.48672937182145376 1.8342119902273044
-0.5280023085101345 1.7933692626599333
-0.5004870173843473 1.8546333540109898
-0.4729717262585602 1.8750547177946755
-0.4592140806956666 1.8750547177946755
-0.4592140806956666 1.9158974453620463
-0.43169878956987945 1.936318809145732
-0.43169878956987945 1.977161536713103
-0.43169878956987945 1.936318809145732
-0.43169878956987945 1.936318809145732
-0.4592140806956666 1.895476081578361
-0.43169878956987945 1.8750547177946755
-0.5142446629472409 1.8546333540109898
-0.5417599540730281 1.8546333540109898
-0.5004870173843473 1.8750547177946755
-0.4592140806956666 1.9158974453620463
-0.445456435132773 1.9975829004967884
-0.445456435132773 2.0384256280641595
-0.41794114400698584 2.0384256280641595
-0.41794114400698584 2.099689719415216
-0.43169878956987945 2.0792683556315303
-0.43169878956987945 2.1201110831989016
-0.43169878956987945 2.2017965383336437
-0.43169878956987945 2.1405324469825873
-0.41794114400698584 2.1609538107662725
-0.41794114400698584 2.1609538107662725
-0.43169878956987945 2.2017965383336437
-0.3766682073183051 2.2017965383336437
-0.3491529161925179 2.222217902117329
-0.28036468837805 2.222217902117329
-0.28036468837805 2.2426392659010146
-0.2253341061264757 2.222217902117329
-0.21157646056358212 2.099689719415216
-0.18406116943779494 2.058846991847845
-0.15654587831200778 2.018004264280474
-0.12903058718622062 1.977161536713103
-0.10151529606043345 1.9567401729294174
-0.10151529606043345 2.0384256280641595
-0.10151529606043345 2.0792683556315303
-0.1427882327491142 2.0384256280641595
-0.11527294162332703 2.099689719415216
-0.10151529606043345 2.1405324469825873
-0.07400000493464629 2.1405324469825873
-0.04648471380885912 2.181375174549958
-0.03272706824596554 2.1405324469825873
-0.03272706824596554 2.1609538107662725
-0.005211777120178371 2.1201110831989016
-0.08775765049753986 2.0792683556315303
-0.10151529606043345 2.0384256280641595
-0.15654587831200778 2.0384256280641595
-0.19781881500068854 1.9975829004967884
-0.25284939725226285 2.0384256280641595
-0.26660704281515646 2.018004264280474
-0.32163762506673077 2.0384256280641595
-0.3491529161925179 2.058846991847845
-0.4041834984440923 2.0792683556315303
-0.43169878956987945 2.0384256280641595
-0.445456435132773 2.0792683556315303
-0.48672937182145376 2.0384256280641595
-0.5280023085101345 1.9975829004967884
-0.5142446629472409 1.9975829004967884
-0.5142446629472409 1.9975829004967884
-0.5280023085101345 2.018004264280474
-0.5004870173843473 2.058846991847845
-0.4729717262585602 2.0792683556315303
-0.5004870173843473 2.099689719415216
-0.48672937182145376 2.1609538107662725
-0.48672937182145376 2.1405324469825873
-0.4592140806956666 2.1405324469825873
-0.4592140806956666 2.1405324469825873
-0.48672937182145376 2.1201110831989016
-0.5280023085101345 2.018004264280474
-0.5280023085101345 2.058846991847845
-0.5417599540730281 2.058846991847845
-0.5555175996359217 2.0792683556315303
-0.5555175996359217 2.1201110831989016
-0.5280023085101345 2.1405324469825873
-0.5142446629472409 2.1201110831989016
-0.48672937182145376 2.2426392659010146
-0.4592140806956666 2.222217902117329
-0.4592140806956666 2.2017965383336437
-0.4729717262585602 2.1609538107662725
-0.48672937182145376 2.099689719415216
-0.4592140806956666 2.1405324469825873
-0.4592140806956666 2.1201110831989016
-0.48672937182145376 2.1201110831989016
-0.4729717262585602 2.1405324469825873
-0.445456435132773 2.222217902117329
-0.3904258528811987 2.2426392659010146
-0.36291056175541153 2.2630606296847002
-0.3491529161925179 2.3447460848194424
-0.3078799795038372 2.406010176170499
-0.3353952706296244 2.406010176170499
-0.26660704281515646 2.4468529037378697
-0.32163762506673077 2.406010176170499
-0.3078799795038372 2.3447460848194424
-0.3078799795038372 2.222217902117329
-0.28036468837805 2.0792683556315303
-0.23909175168936928 1.8546333540109898
-0.1427882327491142 1.5687342610393926
0.04981880513139596 1.3032565318514808
0.32497171638926764 0.9765147113125127
0.7239434377131815 0.6497728907735444
1.3430374880433928 0.5068233442877458
2.1547385762541142 0.40471652536931824
3.1590467023453455 0.44555925293668924
4.259658347376832 0.5885087994224879
5.277724119030958 0.9152506199614562
6.048152270552998 1.26241380428411
6.378335764062444 1.7116838075251912
6.048152270552998 2.0792683556315303
4.988813562210193 2.303903357252071
3.241592575722707 2.4468529037378697
1.4806139436723287 2.508116995088926
-0.28036468837805 2.487695631305241
-2.0413433204284286 2.385588812386813
-2.811771471950469 2.3243247210357567
-2.6604373707586397 2.1405324469825873
-1.9863127381768544 2.099689719415216
-1.2158845866548136 2.0792683556315303
-0.5280023085101345 2.1609538107662725
-0.11527294162332703 2.303903357252071
0.14612232407165104 2.4672742675215553
0.1736376151974382 2.528538358872612
0.13236467850875747 2.5489597226562974
0.03606115956850238 2.5898024502236683
-0.018969422683071953 2.610223814007354
-0.07400000493464629 2.569381086439983
-0.07400000493464629 2.569381086439983
-0.0602423593717527 2.569381086439983
-0.08775765049753986 2.4672742675215553
-0.10151529606043345 2.4672742675215553
-0.0602423593717527 2.4672742675215553
-0.0602423593717527 2.4468529037378697
-0.07400000493464629 2.487695631305241
-0.08775765049753986 2.528538358872612
-0.03272706824596554 2.528538358872612
-0.04648471380885912 2.569381086439983
-0.04648471380885912 2.610223814007354
0.008545868442715212 2.610223814007354
0.008545868442715212 2.5489597226562974
0.022303514005608795 2.528538358872612
0.022303514005608795 2.528538358872612
0.008545868442715212 2.508116995088926
-0.005211777120178371 2.487695631305241
-0.03272706824596554 2.508116995088926
-0.04648471380885912 2.487695631305241
-0.07400000493464629 2.5489597226562974
-0.018969422683071953 2.5489597226562974
-0.005211777120178371 2.610223814007354
0.008545868442715212 2.5898024502236683
0.04981880513139596 2.569381086439983
0.07733409625718313 2.569381086439983
0.07733409625718313 2.610223814007354
0.06357645069428955 2.528538358872612
0.07733409625718313 2.528538358872612
0.06357645069428955 2.508116995088926
0.03606115956850238 2.5489597226562974
0.06357645069428955 2.487695631305241
0.03606115956850238 2.487695631305241
0.06357645069428955 2.569381086439983
0.0910917418200767 2.5898024502236683
0.07733409625718313 2.6306451777910396
0.1048493873829703 2.610223814007354
0.13236467850875747 2.610223814007354
0.14612232407165104 2.569381086439983
0.11860703294586387 2.610223814007354
0.07733409625718313 2.528538358872612
0.07733409625718313 2.487695631305241
0.07733409625718313 2.487695631305241
0.07733409625718313 2.5489597226562974
0.07733409625718313 2.528538358872612
0.14612232407165104 2.569381086439983
0.18739526076033178 2.5898024502236683
0.1736376151974382 2.5898024502236683
0.21491055188611896 2.6510665415747248
0.21491055188611896 2.5489597226562974
0.1736376151974382 2.5898024502236683
0.1736376151974382 2.610223814007354
0.14612232407165104 2.508116995088926
0.14612232407165104 2.487695631305241
0.15987996963454462 2.487695631305241
0.14612232407165104 2.487695631305241
0.15987996963454462 2.569381086439983
0.1736376151974382 2.5489597226562974
0.18739526076033178 2.5898024502236683
0.21491055188611896 2.5898024502236683
0.2836987797005869 2.5898024502236683
0.2836987797005869 2.6306451777910396
0.2699411341376933 2.6306451777910396
0.2699411341376933 2.569381086439983
0.2836987797005869 2.569381086439983
0.2699411341376933 2.5489597226562974
0.2561834885747997 2.487695631305241
0.2699411341376933 2.508116995088926
0.29745642526348043 2.528538358872612
0.2836987797005869 2.5489597226562974
0.3387293619521612 2.569381086439983
0.38000229864084195 2.610223814007354
0.4075175897666291 2.691909269142096
0.4075175897666291 2.569381086439983
0.4212752353295227 2.5489597226562974
0.44879052645530987 2.487695631305241
0.43503288089241626 2.5489597226562974
0.476305817581097 2.4672742675215553
0.49006346314399063 2.487695631305241
0.4625481720182034 2.508116995088926
0.476305817581097 2.508116995088926
0.5313363998326713 2.5489597226562974
0.5588516909584585 2.5489597226562974
0.6001246276471393 2.569381086439983
0.6826705010245008 2.610223814007354
0.6826705010245008 2.569381086439983
0.6826705010245008 2.5489597226562974
0.6964281465873944 2.487695631305241
0.6826705010245008 2.4672742675215553
0.6551552098987136 2.3651674486031276
0.6689128554616072 2.4672742675215553
0.6826705010245008 2.4264315399541845
0.710185792150288 2.4672742675215553
0.7377010832760751 2.508116995088926
0.7789740199647559 2.487695631305241
0.8202469566534366 2.5489597226562974
0.8615198933421173 2.569381086439983
0.8202469566534366 2.487695631305241
0.806489311090543 2.528538358872612
0.7789740199647559 2.487695631305241
0.7789740199647559 2.4672742675215553
0.806489311090543 2.4672742675215553
0.7652163744018623 2.4672742675215553
0.7514587288389687 2.528538358872612
0.806489311090543 2.569381086439983
0.8202469566534366 2.610223814007354
0.8340046022163302 2.6306451777910396
0.7927316655276494 2.6714879053584104
0.7239434377131815 2.691909269142096
0.6964281465873944 2.6510665415747248
0.6001246276471393 2.6714879053584104
0.5175787542697777 2.6510665415747248
0.49006346314399063 2.691909269142096
0.38000229864084195 2.6306451777910396
0.29745642526348043 2.610223814007354
0.2561834885747997 2.691909269142096
0.21491055188611896 2.6714879053584104
0.15987996963454462 2.691909269142096
0.13236467850875747 2.732751996709467
0.1048493873829703 2.794016088060524
0.04981880513139596 2.7531733604931525
0.022303514005608795 2.814437451844209
-0.005211777120178371 2.7531733604931525
-0.03272706824596554 2.732751996709467
-0.07400000493464629 2.732751996709467
-0.10151529606043345 2.691909269142096
-0.11527294162332703 2.691909269142096
-0.12903058718622062 2.691909269142096
-0.17030352387490136 2.6714879053584104
-0.15654587831200778 2.773594724276838
-0.17030352387490136 2.814437451844209
-0.17030352387490136 2.773594724276838
-0.11527294162332703 2.8348588156278947
-0.1427882327491142 2.8348588156278947
-0.15654587831200778 2.773594724276838
-0.1427882327491142 2.732751996709467
-0.18406116943779494 2.7531733604931525
-0.17030352387490136 2.7531733604931525
-0.19781881500068854 2.7123306329257817
-0.18406116943779494 2.732751996709467
-0.21157646056358212 2.7123306329257817
-0.18406116943779494 2.773594724276838
-0.17030352387490136 2.7531733604931525
-0.17030352387490136 2.814437451844209
-0.1427882327491142 2.794016088060524
-0.17030352387490136 2.794016088060524
-0.12903058718622062 2.794016088060524
-0.15654587831200778 2.814437451844209
-0.17030352387490136 2.732751996709467
-0.15654587831200778 2.7123306329257817
-0.15654587831200778 2.691909269142096
-0.15654587831200778 2.7123306329257817
-0.15654587831200778 2.7123306329257817
-0.11527294162332703 2.773594724276838
-0.12903058718622062 2.7531733604931525
-0.07400000493464629 2.814437451844209
-0.08775765049753986 2.794016088060524
-0.03272706824596554 2.773594724276838
-0.0602423593717527 2.773594724276838
-0.03272706824596554 2.732751996709467
-0.03272706824596554 2.6510665415747248
-0.03272706824596554 2.7123306329257817
-0.03272706824596554 2.6306451777910396
-0.08775765049753986 2.5898024502236683
-0.03272706824596554 2.6714879053584104
-0.04648471380885912 2.7123306329257817
-0.03272706824596554 2.691909269142096
-0.03272706824596554 2.732751996709467
0.022303514005608795 2.7531733604931525
0.008545868442715212 2.773594724276838
0.03606115956850238 2.7123306329257817
-0.018969422683071953 2.691909269142096
-0.005211777120178371 2.6510665415747248
-0.018969422683071953 2.6306451777910396
-0.005211777120178371 2.5898024502236683
-0.018969422683071953 2.6306451777910396
-0.0602423593717527 2.5898024502236683
-0.0602423593717527 2.6714879053584104
-0.04648471380885912 2.732751996709467
-0.005211777120178371 2.7123306329257817
0.008545868442715212 2.7123306329257817
0.022303514005608795 2.691909269142096
-0.005211777120178371 2.7123306329257817
-0.04648471380885912 2.7123306329257817
-0.03272706824596554 2.691909269142096
-0.04648471380885912 2.6510665415747248
-0.0602423593717527 2.7123306329257817
-0.0602423593717527 2.6714879053584104
-0.04648471380885912 2.732751996709467
-0.0602423593717527 2.7531733604931525
-0.03272706824596554 2.814437451844209
0.022303514005608795 2.8757015431952655
0.06357645069428955 2.9369656345463224
0.11860703294586387 2.8757015431952655
0.1048493873829703 2.8757015431952655
0.1048493873829703 2.794016088060524
0.13236467850875747 2.773594724276838
0.0910917418200767 2.6714879053584104
0.11860703294586387 2.610223814007354
0.1048493873829703 2.610223814007354
0.13236467850875747 2.569381086439983
0.20115290632322538 2.569381086439983
0.2561834885747997 2.5489597226562974
0.31121407082637403 2.610223814007354
0.3387293619521612 2.7123306329257817
0.39375994420373556 2.6510665415747248
0.3524870075150548 2.6714879053584104
0.29745642526348043 2.610223814007354
0.2836987797005869 2.569381086439983
0.24242584301190612 2.5489597226562974
0.24242584301190612 2.5489597226562974
0.24242584301190612 2.569381086439983
0.2561834885747997 2.528538358872612
0.2561834885747997 2.5898024502236683
0.2561834885747997 2.5898024502236683
0.24242584301190612 2.569381086439983
0.22866819744901254 2.569381086439983
0.18739526076033178 2.5489597226562974
0.11860703294586387 2.5489597226562974
0.03606115956850238 2.487695631305241
0.008545868442715212 2.406010176170499
-0.08775765049753986 2.406010176170499
-0.1427882327491142 2.3243247210357567
-0.19781881500068854 2.3651674486031276
-0.18406116943779494 2.406010176170499
-0.21157646056358212 2.406010176170499
-0.18406116943779494 2.385588812386813
-0.15654587831200778 2.406010176170499
-0.15654587831200778 2.487695631305241
-0.17030352387490136 2.4672742675215553
-0.1427882327491142 2.4264315399541845
-0.18406116943779494 2.385588812386813
-0.19781881500068854 2.385588812386813
-0.25284939725226285 2.3651674486031276
-0.23909175168936928 2.303903357252071
-0.23909175168936928 2.3651674486031276
-0.2253341061264757 2.303903357252071
-0.2253341061264757 2.385588812386813
-0.2253341061264757 2.406010176170499
-0.21157646056358212 2.4468529037378697
-0.2253341061264757 2.4672742675215553
-0.19781881500068854 2.406010176170499
-0.18406116943779494 2.4264315399541845
-0.19781881500068854 2.385588812386813
-0.21157646056358212 2.3447460848194424
-0.26660704281515646 2.3243247210357567
-0.26660704281515646 2.303903357252071
-0.28036468837805 2.3243247210357567
-0.26660704281515646 2.406010176170499
-0.25284939725226285 2.406010176170499
-0.25284939725226285 2.385588812386813
-0.19781881500068854 2.4264315399541845
-0.15654587831200778 2.4264315399541845
-0.15654587831200778 2.406010176170499
-0.15654587831200778 2.406010176170499
-0.1427882327491142 2.385588812386813
-0.17030352387490136 2.406010176170499
-0.15654587831200778 2.385588812386813
-0.15654587831200778 2.406010176170499
-0.1427882327491142 2.4672742675215553
-0.08775765049753986 2.508116995088926
-0.10151529606043345 2.508116995088926
-0.08775765049753986 2.4264315399541845
-0.03272706824596554 2.3447460848194424
0.03606115956850238 2.181375174549958
0.14612232407165104 1.8342119902273044
0.32497171638926764 1.5278915334720216
0.6001246276471393 1.0377788026635693
1.0266116400968404 0.6701942545572299
1.6457056904270515 0.40471652536931824
2.457406778637773 0.26176697888351963
3.475472550291898 0.3434524340182617
4.617357132012065 0.5680874356388024
5.731726422606446 0.8948292561777706
6.543427510817167 1.3032565318514808
6.832338067637933 1.7321051713088769
6.405851055188231 2.0792683556315303
5.140147663402022 2.2630606296847002
3.379169031351643 2.3243247210357567
1.6181903993012643 2.3651674486031276
-0.1427882327491142 2.2630606296847002
-1.9037668647994928 2.1609538107662725
-2.894317345327831 1.9975829004967884
-2.5366185606925975 1.936318809145732
-1.7386751180447697 1.9975829004967884
-0.8719434475824741 2.1201110831989016
-0.17030352387490136 2.222217902117329
0.2699411341376933 2.385588812386813
0.4625481720182034 2.4672742675215553
0.4625481720182034 2.5489597226562974
0.32497171638926764 2.5489597226562974
0.20115290632322538 2.4672742675215553
0.0910917418200767 2.406010176170499
0.008545868442715212 2.385588812386813
-0.005211777120178371 2.303903357252071
-0.03272706824596554 2.3447460848194424
0.008545868442715212 2.3651674486031276
0.022303514005608795 2.3447460848194424
0.04981880513139596 2.3651674486031276
0.06357645069428955 2.4264315399541845
0.0910917418200767 2.4264315399541845
0.0910917418200767 2.406010176170499
0.1048493873829703 2.385588812386813
0.0910917418200767 2.385588812386813
0.0910917418200767 2.283481993468386
0.07733409625718313 2.3243247210357567
0.04981880513139596 2.2426392659010146
0.06357645069428955 2.2630606296847002
0.06357645069428955 2.283481993468386
0.07733409625718313 2.385588812386813
0.0910917418200767 2.3651674486031276
0.0910917418200767 2.385588812386813
0.13236467850875747 2.385588812386813
0.13236467850875747 2.3243247210357567
0.13236467850875747 2.303903357252071
0.13236467850875747 2.2630606296847002
0.13236467850875747 2.2426392659010146
0.1048493873829703 2.222217902117329
0.0910917418200767 2.2017965383336437
0.0910917418200767 2.222217902117329
0.06357645069428955 2.2017965383336437
0.04981880513139596 2.2630606296847002
0.0910917418200767 2.2426392659010146
0.1048493873829703 2.283481993468386
0.13236467850875747 2.303903357252071
0.15987996963454462 2.2426392659010146
0.1736376151974382 2.2426392659010146
0.11860703294586387 2.2426392659010146
0.13236467850875747 2.181375174549958
0.1048493873829703 2.1609538107662725
0.1048493873829703 2.1609538107662725
0.0910917418200767 2.181375174549958
0.0910917418200767 2.181375174549958
0.0910917418200767 2.2017965383336437
0.13236467850875747 2.2017965383336437
0.13236467850875747 2.2426392659010146
0.18739526076033178 2.2426392659010146
0.20115290632322538 2.2426392659010146
0.1736376151974382 2.2426392659010146
0.18739526076033178 2.2017965383336437
0.13236467850875747 2.222217902117329
0.13236467850875747 2.1609538107662725
0.13236467850875747 2.1201110831989016
0.14612232407165104 2.1201110831989016
0.14612232407165104 2.1609538107662725
0.1736376151974382 2.181375174549958
0.20115290632322538 2.2017965383336437
0.20115290632322538 2.2426392659010146
0.21491055188611896 2.181375174549958
0.22866819744901254 2.2017965383336437
0.22866819744901254 2.181375174549958
0.24242584301190612 2.1405324469825873
0.24242584301190612 2.1405324469825873
0.22866819744901254 2.099689719415216
0.22866819744901254 2.058846991847845
0.22866819744901254 2.099689719415216
0.22866819744901254 2.099689719415216
0.20115290632322538 2.058846991847845
0.24242584301190612 2.0792683556315303
0.29745642526348043 2.1405324469825873
0.31121407082637403 2.1201110831989016
0.32497171638926764 2.1405324469825873
0.32497171638926764 2.1201110831989016
0.3387293619521612 2.0792683556315303
0.36624465307794835 2.058846991847845
0.3387293619521612 2.0384256280641595
0.36624465307794835 2.018004264280474
0.36624465307794835 2.058846991847845
0.4075175897666291 2.058846991847845
0.4212752353295227 2.018004264280474
0.4625481720182034 2.0384256280641595
0.4625481720182034 2.0792683556315303
0.5313363998326713 2.0792683556315303
0.5863669820842456 2.058846991847845
0.5863669820842456 2.0384256280641595
0.6001246276471393 1.9975829004967884
0.6001246276471393 1.9567401729294174
0.6551552098987136 1.977161536713103
0.6001246276471393 1.9567401729294174
0.6551552098987136 1.895476081578361
0.6689128554616072 1.9567401729294174
0.6964281465873944 1.977161536713103
0.7239434377131815 2.0384256280641595
0.7377010832760751 2.058846991847845
0.7789740199647559 2.058846991847845
0.8202469566534366 2.0384256280641595
0.806489311090543 1.9975829004967884
0.8202469566534366 1.977161536713103
0.8202469566534366 1.9158974453620463
0.806489311090543 1.936318809145732
0.7789740199647559 1.8750547177946755
0.7514587288389687 1.895476081578361
0.7377010832760751 1.9158974453620463
0.8202469566534366 1.9158974453620463
0.806489311090543 1.977161536713103
0.8340046022163302 1.977161536713103
0.806489311090543 1.9975829004967884
0.7789740199647559 1.977161536713103
0.7239434377131815 1.977161536713103
0.6551552098987136 1.9567401729294174
0.5588516909584585 1.936318809145732
0.5038211087068842 1.895476081578361
0.4075175897666291 1.8750547177946755
0.3387293619521612 1.9158974453620463
0.2561834885747997 1.895476081578361
0.20115290632322538 1.9567401729294174
0.18739526076033178 1.977161536713103
0.14612232407165104 2.018004264280474
0.0910917418200767 2.058846991847845
0.07733409625718313 2.0384256280641595
0.04981880513139596 1.9975829004967884
-0.018969422683071953 1.977161536713103
-0.0602423593717527 1.936318809145732
-0.10151529606043345 1.9158974453620463
-0.1427882327491142 1.8750547177946755
-0.18406116943779494 1.895476081578361
-0.25284939725226285 1.895476081578361
-0.2253341061264757 1.9567401729294174
-0.21157646056358212 1.9567401729294174
-0.2253341061264757 2.018004264280474
-0.21157646056358212 1.9975829004967884
-0.21157646056358212 1.9567401729294174
-0.2253341061264757 1.9975829004967884
-0.23909175168936928 1.936318809145732
-0.26660704281515646 1.9158974453620463
-0.3078799795038372 1.9158974453620463
-0.2941223339409436 1.8750547177946755
-0.3353952706296244 1.895476081578361
-0.3904258528811987 1.895476081578361
-0.3491529161925179 1.936318809145732
-0.32163762506673077 1.936318809145732
-0.3353952706296244 1.9975829004967884
-0.32163762506673077 1.9975829004967884
-0.3078799795038372 1.977161536713103
-0.2941223339409436 1.9567401729294174
-0.32163762506673077 1.936318809145732
-0.32163762506673077 1.8546333540109898
-0.32163762506673077 1.8546333540109898
-0.3491529161925179 1.7933692626599333
-0.36291056175541153 1.8342119902273044
-0.36291056175541153 1.8546333540109898
-0.32163762506673077 1.8546333540109898
-0.3078799795038372 1.9158974453620463
-0.2941223339409436 1.936318809145732
-0.26660704281515646 1.9158974453620463
-0.26660704281515646 1.936318809145732
-0.25284939725226285 1.895476081578361
-0.21157646056358212 1.895476081578361
-0.25284939725226285 1.8546333540109898
-0.23909175168936928 1.8342119902273044
-0.26660704281515646 1.8342119902273044
-0.26660704281515646 1.8137906264436188
-0.23909175168936928 1.7933692626599333
-0.25284939725226285 1.8137906264436188
-0.21157646056358212 1.8546333540109898
-0.19781881500068854 1.895476081578361
-0.18406116943779494 1.8546333540109898
-0.15654587831200778 1.895476081578361
-0.15654587831200778 1.8342119902273044
-0.1427882327491142 1.8137906264436188
-0.21157646056358212 1.7321051713088769
-0.15654587831200778 1.7933692626599333
-0.21157646056358212 1.7116838075251912
-0.21157646056358212 1.7116838075251912
-0.2253341061264757 1.7116838075251912
-0.2253341061264757 1.7525265350925623
-0.19781881500068854 1.7933692626599333
-0.17030352387490136 1.8137906264436188
-0.1427882327491142 1.8137906264436188
-0.11527294162332703 1.8137906264436188
-0.12903058718622062 1.8137906264436188
-0.15654587831200778 1.7525265350925623
-0.17030352387490136 1.7116838075251912
-0.19781881500068854 1.6912624437415058
-0.19781881500068854 1.7116838075251912
-0.2253341061264757 1.7116838075251912
-0.21157646056358212 1.6912624437415058
-0.2253341061264757 1.7116838075251912
-0.18406116943779494 1.7116838075251912
-0.17030352387490136 1.7933692626599333
-0.18406116943779494 1.7933692626599333
-0.15654587831200778 1.8137906264436188
-0.15654587831200778 1.7933692626599333
-0.19781881500068854 1.7525265350925623
-0.23909175168936928 1.7525265350925623
-0.25284939725226285 1.7321051713088769
-0.25284939725226285 1.7321051713088769
-0.23909175168936928 1.7729478988762477
-0.21157646056358212 1.8137906264436188
-0.17030352387490136 1.8546333540109898
-0.1427882327491142 1.9158974453620463
-0.08775765049753986 1.977161536713103
-0.04648471380885912 1.936318809145732
-0.005211777120178371 1.9158974453620463
0.008545868442715212 1.8137906264436188
0.04981880513139596 1.7729478988762477
0.03606115956850238 1.6912624437415058
0.04981880513139596 1.629998352390449
0.06357645069428955 1.5891556248230783
0.1048493873829703 1.5687342610393926
0.11860703294586387 1.5483128972557072
0.21491055188611896 1.5891556248230783
0.14612232407165104 1.6504197161741347
0.11860703294586387 1.6912624437415058
0.13236467850875747 1.6708410799578202
0.0910917418200767 1.6912624437415058
0.0910917418200767 1.629998352390449
0.11860703294586387 1.5891556248230783
0.13236467850875747 1.6095769886067637
0.13236467850875747 1.5483128972557072
0.11860703294586387 1.4870488059046505
0.0910917418200767 1.4870488059046505
0.04981880513139596 1.5278915334720216
0.022303514005608795 1.4870488059046505
-0.04648471380885912 1.5278915334720216
-0.03272706824596554 1.5074701696883361
-0.10151529606043345 1.5074701696883361
-0.11527294162332703 1.5074701696883361
-0.18406116943779494 1.4870488059046505
-0.23909175168936928 1.4462060783372797
-0.28036468837805 1.4053633507699086
-0.3078799795038372 1.3645206232025375
-0.3078799795038372 1.3645206232025375
-0.3078799795038372 1.3236778956351665
-0.3078799795038372 1.384941986986223
-0.3078799795038372 1.4053633507699086
-0.2941223339409436 1.4053633507699086
-0.26660704281515646 1.4053633507699086
-0.28036468837805 1.466627442120965
-0.26660704281515646 1.4870488059046505
-0.3078799795038372 1.4870488059046505
-0.3078799795038372 1.3645206232025375
-0.3491529161925179 1.3440992594188519
-0.36291056175541153 1.3440992594188519
-0.3353952706296244 1.3236778956351665
-0.3904258528811987 1.3032565318514808
-0.3766682073183051 1.3440992594188519
-0.41794114400698584 1.384941986986223
-0.3353952706296244 1.384941986986223
-0.3353952706296244 1.4053633507699086
-0.3078799795038372 1.425784714553594
-0.3078799795038372 1.4053633507699086
-0.32163762506673077 1.3645206232025375
-0.2941223339409436 1.384941986986223
-0.3078799795038372 1.3440992594188519
-0.2941223339409436 1.3032565318514808
-0.28036468837805 1.2828351680677954
-0.32163762506673077 1.3032565318514808
-0.3078799795038372 1.3645206232025375
-0.3078799795038372 1.3440992594188519
-0.25284939725226285 1.384941986986223
-0.26660704281515646 1.4053633507699086
-0.19781881500068854 1.466627442120965
-0.17030352387490136 1.466627442120965
-0.12903058718622062 1.5074701696883361
-0.15654587831200778 1.425784714553594
-0.1427882327491142 1.3440992594188519
-0.12903058718622062 1.26241380428411
-0.10151529606043345 1.0582001664472547
-0.018969422683071953 0.792722437259343
0.20115290632322538 0.4864019805040603
0.5450940453955649 0.13923879618140653
1.136672804599989 -0.18750302435756172
1.9346162472478168 -0.3712952984107314
3.0352278922793032 -0.4325593897617879
4.3146889296284066 -0.3712952984107314
5.539119384725936 -0.14666029679019071
6.378335764062444 0.20050288753246306
6.5571851563800605 0.4864019805040603
5.828029941546701 0.7314583459082865
4.259658347376832 0.9356719837451416
2.4986797153264537 0.9765147113125127
0.7377010832760751 1.0173574388798836
-1.0232775487743035 0.9560933475288271
-2.784256180824682 0.9560933475288271
-2.7704985352617886 0.9560933475288271
-2.082616257117109 1.0377788026635693
-1.2158845866548136 1.1603069853656822
-0.43169878956987945 1.26241380428411
0.14612232407165104 1.3645206232025375
0.43503288089241626 1.4053633507699086
0.4625481720182034 1.4053633507699086
0.36624465307794835 1.3645206232025375
0.11860703294586387 1.3440992594188519
-0.018969422683071953 1.3236778956351665
-0.1427882327491142 1.3645206232025375
-0.1427882327491142 1.4462060783372797
-0.1427882327491142 1.425784714553594
-0.07400000493464629 1.4462060783372797
-0.04648471380885912 1.4462060783372797
0.008545868442715212 1.384941986986223
0.022303514005608795 1.384941986986223
0.008545868442715212 1.3440992594188519
-0.005211777120178371 1.3032565318514808
-0.03272706824596554 1.3032565318514808
-0.03272706824596554 1.2419924405004243
-0.04648471380885912 1.3236778956351665
-0.03272706824596554 1.3236778956351665
-0.03272706824596554 1.3440992594188519
-0.005211777120178371 1.4053633507699086
0.03606115956850238 1.425784714553594
0.03606115956850238 1.3032565318514808
0.04981880513139596 1.3645206232025375
0.022303514005608795 1.3032565318514808
0.03606115956850238 1.3032565318514808
0.022303514005608795 1.26241380428411
0.008545868442715212 1.2419924405004243
-0.005211777120178371 1.3032565318514808
0.022303514005608795 1.2419924405004243
0.022303514005608795 1.2419924405004243
0.008545868442715212 1.3032565318514808
0.022303514005608795 1.3440992594188519
0.03606115956850238 1.3032565318514808
0.06357645069428955 1.3236778956351665
0.06357645069428955 1.2828351680677954
0.06357645069428955 1.3236778956351665
0.04981880513139596 1.26241380428411
0.06357645069428955 1.2419924405004243
0.04981880513139596 1.2011497129330533
0.008545868442715212 1.221571076716739
0.03606115956850238 1.221571076716739
0.03606115956850238 1.221571076716739
0.04981880513139596 1.2828351680677954
0.03606115956850238 1.26241380428411
0.04981880513139596 1.3236778956351665
0.0910917418200767 1.26241380428411
0.07733409625718313 1.2419924405004243
0.06357645069428955 1.221571076716739
0.07733409625718313 1.2419924405004243
0.06357645069428955 1.1194642577983114
0.04981880513139596 1.1603069853656822
0.04981880513139596 1.1194642577983114
0.03606115956850238 1.1603069853656822
0.06357645069428955 1.1398856215819968
0.06357645069428955 1.2419924405004243
0.07733409625718313 1.2011497129330533
0.11860703294586387 1.221571076716739
0.13236467850875747 1.221571076716739
0.14612232407165104 1.2011497129330533
0.13236467850875747 1.1603069853656822
0.13236467850875747 1.1194642577983114
0.11860703294586387 1.1807283491493679
0.11860703294586387 1.0990428940146257
0.11860703294586387 1.0990428940146257
0.11860703294586387 1.1194642577983114
0.14612232407165104 1.0786215302309403
0.1736376151974382 1.1398856215819968
0.1736376151974382 1.1398856215819968
0.18739526076033178 1.2011497129330533
0.21491055188611896 1.1603069853656822
0.18739526076033178 1.1194642577983114
0.20115290632322538 1.1398856215819968
0.21491055188611896 1.1194642577983114
0.24242584301190612 1.0990428940146257
0.24242584301190612 1.0173574388798836
0.22866819744901254 1.0173574388798836
0.21491055188611896 1.0377788026635693
0.2561834885747997 1.0582001664472547
0.29745642526348043 1.1194642577983114
0.3387293619521612 1.1398856215819968
0.32497171638926764 1.1807283491493679
0.3387293619521612 1.1603069853656822
0.4075175897666291 1.0990428940146257
0.4075175897666291 1.1194642577983114
0.4212752353295227 1.0377788026635693
0.4212752353295227 0.9765147113125127
0.4212752353295227 0.9560933475288271
0.44879052645530987 0.9969360750961982
0.4625481720182034 0.9969360750961982
0.5313363998326713 1.0786215302309403
0.5313363998326713 1.0377788026635693
0.5588516909584585 1.0990428940146257
0.5726093365213522 1.1194642577983114
0.5726093365213522 1.0786215302309403
0.5863669820842456 1.0786215302309403
0.6413975643358201 1.0582001664472547
0.6551552098987136 0.9765147113125127
0.6689128554616072 0.9560933475288271
0.6689128554616072 0.9356719837451416
0.6551552098987136 0.9765147113125127
0.6964281465873944 0.9969360750961982
0.6826705010245008 0.9969360750961982
0.6964281465873944 1.0377788026635693
0.7239434377131815 1.0377788026635693
0.7789740199647559 1.0173574388798836
0.7927316655276494 1.0377788026635693
0.806489311090543 1.0377788026635693
0.7927316655276494 0.9969360750961982
0.806489311090543 0.9969360750961982
0.7652163744018623 0.9560933475288271
0.7927316655276494 0.9152506199614562
0.7652163744018623 0.8948292561777706
0.7377010832760751 0.9560933475288271
0.710185792150288 0.9356719837451416
0.7239434377131815 0.9765147113125127
0.6826705010245008 0.9765147113125127
0.6413975643358201 1.0582001664472547
0.6138822732100329 0.9969360750961982
0.5588516909584585 0.9560933475288271
0.5175787542697777 0.9560933475288271
0.43503288089241626 0.9765147113125127
0.38000229864084195 0.9152506199614562
0.3387293619521612 0.9560933475288271
0.29745642526348043 0.8948292561777706
0.21491055188611896 0.9560933475288271
0.14612232407165104 0.9765147113125127
0.1048493873829703 0.9560933475288271
0.0910917418200767 0.9765147113125127
0.06357645069428955 1.0173574388798836
0.008545868442715212 0.9765147113125127
-0.005211777120178371 0.9765147113125127
-0.04648471380885912 0.9765147113125127
-0.07400000493464629 0.9152506199614562
-0.11527294162332703 0.9560933475288271
-0.1427882327491142 0.9152506199614562
-0.17030352387490136 0.9356719837451416
-0.18406116943779494 0.9560933475288271
-0.21157646056358212 0.9356719837451416
-0.19781881500068854 0.9560933475288271
-0.18406116943779494 0.9356719837451416
-0.18406116943779494 1.0173574388798836
-0.18406116943779494 1.0173574388798836
-0.19781881500068854 0.9356719837451416
-0.18406116943779494 0.9356719837451416
-0.23909175168936928 0.9152506199614562
-0.23909175168936928 0.8744078923940851
-0.3078799795038372 0.8539865286103996
-0.3491529161925179 0.8539865286103996
-0.3078799795038372 0.8744078923940851
-0.3078799795038372 0.8948292561777706
-0.3078799795038372 0.8948292561777706
-0.32163762506673077 0.9969360750961982
-0.2941223339409436 0.9356719837451416
-0.26660704281515646 0.9560933475288271
-0.26660704281515646 0.9560933475288271
-0.25284939725226285 0.9152506199614562
-0.2941223339409436 0.9152506199614562
-0.32163762506673077 0.8744078923940851
-0.3353952706296244 0.8335651648267141
-0.2941223339409436 0.8335651648267141
-0.2941223339409436 0.8335651648267141
-0.28036468837805 0.8744078923940851
-0.26660704281515646 0.9152506199614562
-0.2253341061264757 0.9356719837451416
-0.2253341061264757 0.9356719837451416
-0.19781881500068854 0.9560933475288271
-0.17030352387490136 0.8744078923940851
-0.17030352387490136 0.8948292561777706
-0.23909175168936928 0.8948292561777706
-0.21157646056358212 0.8131438010430285
-0.19781881500068854 0.8131438010430285
-0.2253341061264757 0.792722437259343
-0.2253341061264757 0.8131438010430285
-0.23909175168936928 0.8131438010430285
-0.21157646056358212 0.8539865286103996
-0.21157646056358212 0.8335651648267141
-0.17030352387490136 0.8539865286103996
-0.12903058718622062 0.8744078923940851
-0.12903058718622062 0.8335651648267141
-0.11527294162332703 0.8335651648267141
-0.15654587831200778 0.7723010734756575
-0.17030352387490136 0.792722437259343
-0.1427882327491142 0.7723010734756575
-0.1427882327491142 0.792722437259343
-0.15654587831200778 0.7723010734756575
-0.1427882327491142 0.8131438010430285
-0.11527294162332703 0.8131438010430285
-0.08775765049753986 0.792722437259343
-0.10151529606043345 0.8131438010430285
-0.0602423593717527 0.8335651648267141
-0.10151529606043345 0.8131438010430285
-0.10151529606043345 0.7723010734756575
-0.10151529606043345 0.711036982124601
-0.12903058718622062 0.751879709691972
-0.1427882327491142 0.6701942545572299
-0.17030352387490136 0.6906156183409154
-0.15654587831200778 0.7314583459082865
-0.17030352387490136 0.7314583459082865
-0.15654587831200778 0.6906156183409154
-0.12903058718622062 0.711036982124601
-0.10151529606043345 0.751879709691972
-0.11527294162332703 0.7314583459082865
-0.11527294162332703 0.711036982124601
-0.15654587831200778 0.711036982124601
-0.18406116943779494 0.6701942545572299
-0.21157646056358212 0.6497728907735444
-0.21157646056358212 0.6497728907735444
-0.2253341061264757 0.5885087994224879
-0.2253341061264757 0.6293515269898589
-0.2253341061264757 0.6497728907735444
-0.23909175168936928 0.6701942545572299
-0.21157646056358212 0.6906156183409154
-0.18406116943779494 0.6906156183409154
-0.18406116943779494 0.6701942545572299
-0.19781881500068854 0.6497728907735444
-0.18406116943779494 0.6293515269898589
-0.21157646056358212 0.5885087994224879
-0.19781881500068854 0.6089301632061734
-0.2253341061264757 0.5885087994224879
-0.23909175168936928 0.5680874356388024
-0.21157646056358212 0.5476660718551168
-0.23909175168936928 0.6089301632061734
-0.21157646056358212 0.6497728907735444
-0.23909175168936928 0.6701942545572299
-0.19781881500068854 0.6906156183409154
-0.2253341061264757 0.6701942545572299
-0.19781881500068854 0.6089301632061734
-0.19781881500068854 0.6293515269898589
-0.21157646056358212 0.6497728907735444
-0.2253341061264757 0.6497728907735444
-0.25284939725226285 0.6701942545572299
-0.2253341061264757 0.6497728907735444
-0.2253341061264757 0.6906156183409154
-0.21157646056358212 0.7723010734756575
-0.17030352387490136 0.792722437259343
-0.1427882327491142 0.8335651648267141
-0.08775765049753986 0.8131438010430285
-0.018969422683071953 0.9152506199614562
-0.005211777120178371 0.8744078923940851
0.03606115956850238 0.8539865286103996
0.022303514005608795 0.792722437259343
0.04981880513139596 0.7314583459082865
0.03606115956850238 0.6701942545572299
0.022303514005608795 0.6089301632061734
0.06357645069428955 0.6089301632061734
0.07733409625718313 0.5885087994224879
0.14612232407165104 0.5476660718551168
0.14612232407165104 0.5680874356388024
0.21491055188611896 0.5885087994224879
0.29745642526348043 0.5885087994224879
0.29745642526348043 0.5885087994224879
0.2699411341376933 0.6293515269898589
0.22866819744901254 0.5885087994224879
0.21491055188611896 0.5680874356388024
0.1736376151974382 0.5476660718551168
0.15987996963454462 0.4864019805040603
0.14612232407165104 0.5068233442877458
0.13236467850875747 0.5476660718551168
0.21491055188611896 0.5885087994224879
0.2561834885747997 0.5476660718551168
0.2561834885747997 0.5680874356388024
0.24242584301190612 0.6089301632061734
0.22866819744901254 0.5476660718551168
0.18739526076033178 0.5272447080714313
0.15987996963454462 0.44555925293668924
0.11860703294586387 0.42513788915300377
0.04981880513139596 0.3842951615856327
0.008545868442715212 0.3842951615856327
-0.0602423593717527 0.3638737978019472
-0.07400000493464629 0.3638737978019472
-0.11527294162332703 0.40471652536931824
-0.08775765049753986 0.44555925293668924
-0.15654587831200778 0.44555925293668924
-0.12903058718622062 0.4659806167203748
-0.11527294162332703 0.3842951615856327
-0.1427882327491142 0.3842951615856327
-0.10151529606043345 0.40471652536931824
-0.11527294162332703 0.3434524340182617
-0.18406116943779494 0.32303107023457617
-0.17030352387490136 0.32303107023457617
-0.15654587831200778 0.30260970645089064
-0.19781881500068854 0.3638737978019472
-0.19781881500068854 0.40471652536931824
-0.18406116943779494 0.3638737978019472
-0.1427882327491142 0.3842951615856327
-0.12903058718622062 0.40471652536931824
-0.15654587831200778 0.3434524340182617
-0.17030352387490136 0.3638737978019472
-0.15654587831200778 0.30260970645089064
-0.15654587831200778 0.32303107023457617
-0.19781881500068854 0.32303107023457617
-0.18406116943779494 0.28218834266720516
-0.18406116943779494 0.32303107023457617
-0.18406116943779494 0.3434524340182617
-0.18406116943779494 0.32303107023457617
-0.1427882327491142 0.3638737978019472
-0.11527294162332703 0.3842951615856327
-0.08775765049753986 0.40471652536931824
-0.08775765049753986 0.3434524340182617
-0.0602423593717527 0.3638737978019472
-0.08775765049753986 0.32303107023457617
-0.07400000493464629 0.32303107023457617
-0.0602423593717527 0.3434524340182617
-0.03272706824596554 0.3842951615856327
-0.018969422683071953 0.42513788915300377
0.022303514005608795 0.4659806167203748
0.07733409625718313 0.4864019805040603
0.13236467850875747 0.40471652536931824
0.14612232407165104 0.26176697888351963
0.20115290632322538 0.09839606861403549
0.32497171638926764 -0.24876711570861829
0.49006346314399063 -0.5346662086802155
0.8202469566534366 -0.8614080292191838
1.2742492602289248 -1.228992577325523
1.9483738928107104 -1.4944703065134348
2.8013479177101126 -1.6578412167829188
3.8606866260529182 -1.6169984892155478
5.0025712077730855 -1.4740489427297492
6.020636979427211 -1.1268857584070955
6.694761612008996 -0.8409866654354983
6.7497921942605705 -0.47340211732915893
6.103182852804572 -0.20792438814124725
4.686145359826534 -0.06497484165544865
2.925166727776155 0.03713197726297894
1.1641880957257762 0.05755334104666446
-0.5967905363246024 -0.0037107503043920906
-2.302738586123407 -0.06497484165544865
-2.6466797251957463 -0.16708166057387622
-2.288980940560513 -0.08539620543913415
-1.5598257257271533 -0.024132114088077607
-0.775639928642219 0.09839606861403549
-0.11527294162332703 0.28218834266720516
0.29745642526348043 0.44555925293668924
0.5038211087068842 0.4864019805040603
0.5313363998326713 0.5068233442877458
0.476305817581097 0.4864019805040603
0.39375994420373556 0.44555925293668924
0.29745642526348043 0.3842951615856327
0.20115290632322538 0.3638737978019472
0.1736376151974382 0.3434524340182617
0.18739526076033178 0.3638737978019472
0.18739526076033178 0.3842951615856327
0.24242584301190612 0.42513788915300377
0.2561834885747997 0.44555925293668924
0.2836987797005869 0.44555925293668924
0.2836987797005869 0.4864019805040603
0.31121407082637403 0.42513788915300377
0.31121407082637403 0.44555925293668924
0.29745642526348043 0.40471652536931824
0.29745642526348043 0.3638737978019472
0.2836987797005869 0.3638737978019472
0.2699411341376933 0.3434524340182617
0.29745642526348043 0.3638737978019472
0.29745642526348043 0.3638737978019472
0.31121407082637403 0.40471652536931824
0.32497171638926764 0.42513788915300377
0.3524870075150548 0.42513788915300377
0.36624465307794835 0.4659806167203748
0.39375994420373556 0.42513788915300377
0.36624465307794835 0.40471652536931824
0.3524870075150548 0.3638737978019472
0.3524870075150548 0.30260970645089064
0.32497171638926764 0.30260970645089064
0.31121407082637403 0.2413456150998341
0.31121407082637403 0.32303107023457617
0.3387293619521612 0.32303107023457617
0.3387293619521612 0.3638737978019472
0.3387293619521612 0.3434524340182617
0.36624465307794835 0.3842951615856327
0.39375994420373556 0.40471652536931824
0.38000229864084195 0.3434524340182617
0.36624465307794835 0.32303107023457617
0.36624465307794835 0.3434524340182617
0.3524870075150548 0.28218834266720516
0.3524870075150548 0.2413456150998341
0.31121407082637403 0.26176697888351963
0.3387293619521612 0.2413456150998341
0.32497171638926764 0.26176697888351963
0.3387293619521612 0.26176697888351963
0.38000229864084195 0.32303107023457617
0.4212752353295227 0.30260970645089064
0.4075175897666291 0.3638737978019472
0.39375994420373556 0.3434524340182617
0.39375994420373556 0.30260970645089064
0.4075175897666291 0.26176697888351963
0.43503288089241626 0.30260970645089064
0.4212752353295227 0.2413456150998341
0.38000229864084195 0.20050288753246306
0.38000229864084195 0.20050288753246306
0.4212752353295227 0.2413456150998341
0.43503288089241626 0.26176697888351963
0.4625481720182034 0.26176697888351963
0.476305817581097 0.28218834266720516
0.49006346314399063 0.28218834266720516
0.5038211087068842 0.2209242513161486
0.5038211087068842 0.2413456150998341
0.49006346314399063 0.18008152374877756
0.5038211087068842 0.18008152374877756
0.476305817581097 0.13923879618140653
0.43503288089241626 0.13923879618140653
0.4625481720182034 0.18008152374877756
0.44879052645530987 0.18008152374877756
0.4625481720182034 0.2413456150998341
0.476305817581097 0.2413456150998341
0.5038211087068842 0.2413456150998341
0.5450940453955649 0.30260970645089064
0.5726093365213522 0.2209242513161486
0.6001246276471393 0.20050288753246306
0.5726093365213522 0.15966015996509203
0.5726093365213522 0.11881743239772101
0.5726093365213522 0.11881743239772101
0.6001246276471393 0.07797470483034998
0.6138822732100329 0.09839606861403549
0.6001246276471393 0.11881743239772101
0.6138822732100329 0.15966015996509203
0.6413975643358201 0.15966015996509203
0.6964281465873944 0.18008152374877756
0.710185792150288 0.20050288753246306
0.7239434377131815 0.13923879618140653
0.7239434377131815 0.13923879618140653
0.7239434377131815 0.11881743239772101
0.7239434377131815 0.09839606861403549
0.7239434377131815 0.016710613479293427
0.7514587288389687 0.05755334104666446
0.7789740199647559 0.05755334104666446
0.7927316655276494 0.03713197726297894
0.8340046022163302 0.07797470483034998
0.8615198933421173 0.11881743239772101
0.8752775389050109 0.11881743239772101
0.9165504755936916 0.13923879618140653
0.9165504755936916 0.09839606861403549
0.9027928300307981 0.09839606861403549
0.9440657667194788 0.05755334104666446
0.9853387034081595 0.016710613479293427
0.9853387034081595 -0.0037107503043920906
0.9853387034081595 -0.024132114088077607
0.9990963489710531 -0.024132114088077607
1.0266116400968404 -0.024132114088077607
1.0266116400968404 0.016710613479293427
1.0816422223484146 0.05755334104666446
1.1091575134742018 0.09839606861403549
1.1504304501628826 0.09839606861403549
1.1229151590370954 0.016710613479293427
1.1504304501628826 0.05755334104666446
1.136672804599989 0.016710613479293427
1.1229151590370954 -0.024132114088077607
1.136672804599989 -0.06497484165544865
1.1091575134742018 -0.04455347787176312
1.0953998679113082 -0.04455347787176312
1.0678845767855212 -0.04455347787176312
1.0816422223484146 0.03713197726297894
1.0541269312226276 0.03713197726297894
1.040369285659734 0.09839606861403549
1.0678845767855212 0.09839606861403549
0.9990963489710531 0.09839606861403549
0.9303081211565852 0.05755334104666446
0.8890351844679045 0.05755334104666446
0.806489311090543 0.07797470483034998
0.7239434377131815 -0.0037107503043920906
0.6689128554616072 0.03713197726297894
0.5726093365213522 0.03713197726297894
0.5313363998326713 0.05755334104666446
0.49006346314399063 0.13923879618140653
0.476305817581097 0.11881743239772101
0.4625481720182034 0.11881743239772101
0.49006346314399063 0.13923879618140653
0.44879052645530987 0.15966015996509203
0.43503288089241626 0.13923879618140653
0.38000229864084195 0.07797470483034998
0.36624465307794835 0.05755334104666446
0.3387293619521612 0.03713197726297894
0.29745642526348043 0.05755334104666446
0.2836987797005869 0.07797470483034998
0.29745642526348043 0.03713197726297894
0.2561834885747997 0.09839606861403549
0.2836987797005869 0.13923879618140653
0.29745642526348043 0.11881743239772101
0.32497171638926764 0.15966015996509203
0.2561834885747997 0.13923879618140653
0.2699411341376933 0.13923879618140653
0.24242584301190612 0.07797470483034998
0.24242584301190612 0.05755334104666446
0.20115290632322538 0.03713197726297894
0.20115290632322538 0.016710613479293427
0.1736376151974382 0.03713197726297894
0.14612232407165104 0.03713197726297894
0.15987996963454462 0.07797470483034998
0.21491055188611896 0.09839606861403549
0.22866819744901254 0.15966015996509203
0.22866819744901254 0.15966015996509203
0.2699411341376933 0.13923879618140653
0.2561834885747997 0.13923879618140653
0.24242584301190612 0.11881743239772101
0.20115290632322538 0.09839606861403549
0.22866819744901254 0.03713197726297894
0.21491055188611896 0.05755334104666446
0.22866819744901254 0.09839606861403549
0.21491055188611896 0.11881743239772101
0.22866819744901254 0.07797470483034998
0.20115290632322538 0.15966015996509203
0.21491055188611896 0.15966015996509203
0.21491055188611896 0.15966015996509203
0.18739526076033178 0.13923879618140653
0.22866819744901254 0.11881743239772101
0.2561834885747997 0.05755334104666446
0.29745642526348043 0.05755334104666446
0.2699411341376933 0.016710613479293427
0.2699411341376933 -0.0037107503043920906
0.2699411341376933 -0.0037107503043920906
0.22866819744901254 -0.0037107503043920906
0.24242584301190612 0.05755334104666446
0.2561834885747997 0.07797470483034998
0.29745642526348043 0.09839606861403549
0.31121407082637403 0.15966015996509203
0.29745642526348043 0.11881743239772101
0.32497171638926764 0.09839606861403549
0.31121407082637403 0.03713197726297894
0.29745642526348043 0.03713197726297894
0.2561834885747997 -0.0037107503043920906
0.2561834885747997 -0.0037107503043920906
0.24242584301190612 -0.0037107503043920906
0.2699411341376933 -0.0037107503043920906
0.31121407082637403 -0.0037107503043920906
0.3387293619521612 0.03713197726297894
0.3524870075150548 0.07797470483034998
0.3387293619521612 0.07797470483034998
0.3387293619521612 0.09839606861403549
0.32497171638926764 0.07797470483034998
0.32497171638926764 -0.0037107503043920906
0.29745642526348043 -0.0037107503043920906
0.29745642526348043 -0.04455347787176312
0.31121407082637403 -0.024132114088077607
0.2836987797005869 -0.0037107503043920906
0.2836987797005869 -0.0037107503043920906
0.2836987797005869 0.05755334104666446
0.29745642526348043 0.11881743239772101
0.31121407082637403 0.18008152374877756
0.3524870075150548 0.18008152374877756
0.3387293619521612 0.15966015996509203
0.36624465307794835 0.20050288753246306
0.38000229864084195 0.20050288753246306
0.3524870075150548 0.2209242513161486
0.4212752353295227 0.20050288753246306
0.4212752353295227 0.20050288753246306
0.4212752353295227 0.2209242513161486
0.4212752353295227 0.18008152374877756
0.44879052645530987 0.2413456150998341
0.49006346314399063 0.20050288753246306
0.5450940453955649 0.18008152374877756
0.6138822732100329 0.09839606861403549
0.6138822732100329 0.07797470483034998
0.6413975643358201 0.016710613479293427
0.6689128554616072 -0.04455347787176312
0.7239434377131815 -0.0037107503043920906
0.7239434377131815 -0.04455347787176312
0.6964281465873944 -0.0037107503043920906
0.6276399187729265 -0.024132114088077607
0.6551552098987136 0.03713197726297894
0.6413975643358201 0.03713197726297894
0.6413975643358201 -0.0037107503043920906
0.6689128554616072 0.05755334104666446
0.7377010832760751 0.07797470483034998
0.710185792150288 0.09839606861403549
0.6826705010245008 0.03713197726297894
0.7514587288389687 0.03713197726297894
0.6826705010245008 -0.024132114088077607
0.6276399187729265 -0.024132114088077607
0.5726093365213522 -0.06497484165544865
0.5038211087068842 -0.10581756922281967
0.476305817581097 -0.08539620543913415
0.476305817581097 -0.10581756922281967
0.43503288089241626 -0.04455347787176312
0.4212752353295227 -0.06497484165544865
0.39375994420373556 -0.024132114088077607
0.3524870075150548 -0.06497484165544865
0.3387293619521612 -0.06497484165544865
0.32497171638926764 -0.08539620543913415
0.2836987797005869 -0.10581756922281967
0.24242584301190612 -0.14666029679019071
0.24242584301190612 -0.16708166057387622
0.22866819744901254 -0.14666029679019071
0.24242584301190612 -0.14666029679019071
0.2699411341376933 -0.10581756922281967
0.2561834885747997 -0.08539620543913415
0.2699411341376933 -0.04455347787176312
0.2836987797005869 -0.04455347787176312
0.31121407082637403 -0.06497484165544865
0.24242584301190612 -0.04455347787176312
0.2836987797005869 -0.04455347787176312
0.2699411341376933 -0.12623893300650518
0.2561834885747997 -0.08539620543913415
0.24242584301190612 -0.08539620543913415
0.22866819744901254 -0.06497484165544865
0.22866819744901254 -0.06497484165544865
0.21491055188611896 -0.024132114088077607
0.2561834885747997 -0.024132114088077607
0.2699411341376933 -0.024132114088077607
0.31121407082637403 0.03713197726297894
0.32497171638926764 -0.024132114088077607
0.3387293619521612 -0.024132114088077607
0.36624465307794835 -0.06497484165544865
0.3524870075150548 -0.04455347787176312
0.32497171638926764 -0.08539620543913415
0.36624465307794835 -0.08539620543913415
0.36624465307794835 -0.04455347787176312
0.3387293619521612 0.016710613479293427
0.39375994420373556 0.07797470483034998
0.39375994420373556 0.15966015996509203
0.476305817581097 0.2209242513161486
0.49006346314399063 0.26176697888351963
0.5313363998326713 0.13923879618140653
0.5450940453955649 0.016710613479293427
0.5726093365213522 -0.20792438814124725
0.6413975643358201 -0.51424484489653
0.7652163744018623 -0.8818293930028693
1.0541269312226276 -1.269835304892894
1.4806139436723287 -1.6169984892155478
2.196011512942795 -1.862054854619774
3.1590467023453455 -1.8824762184034596
4.3284465751913 -1.780369399485032
5.525361739163042 -1.4332062151623781
6.543427510817167 -1.0043575757049823
7.121248624458698 -0.6367730275986431
7.024945105518443 -0.2691884794923038
6.089425207241679 -0.024132114088077607
4.397234803005768 0.13923879618140653
2.6362561709553893 0.18008152374877756
0.8752775389050109 0.11881743239772101
-0.8857010931453677 0.016710613479293427
-2.1376468393686836 -0.10581756922281967
-2.000070383739748 -0.18750302435756172
-1.3534610422837494 -0.16708166057387622
-0.5142446629472409 -0.12623893300650518
0.21491055188611896 -0.0037107503043920906
0.7239434377131815 0.13923879618140653
0.9578234122823724 0.2413456150998341
0.9853387034081595 0.2413456150998341
0.9027928300307981 0.26176697888351963
0.806489311090543 0.18008152374877756
0.6826705010245008 0.15966015996509203
0.6413975643358201 0.18008152374877756
0.6276399187729265 0.13923879618140653
0.6138822732100329 0.18008152374877756
0.6551552098987136 0.2209242513161486
0.6964281465873944 0.2413456150998341
0.7239434377131815 0.2413456150998341
0.7514587288389687 0.26176697888351963
0.7652163744018623 0.20050288753246306
0.7652163744018623 0.20050288753246306
0.7514587288389687 0.15966015996509203
0.7377010832760751 0.15966015996509203
0.7377010832760751 0.09839606861403549
0.7514587288389687 0.18008152374877756
0.7377010832760751 0.13923879618140653
0.6964281465873944 0.18008152374877756
0.7652163744018623 0.15966015996509203
0.7652163744018623 0.26176697888351963
0.7927316655276494 0.2413456150998341
0.806489311090543 0.28218834266720516
0.7789740199647559 0.2209242513161486
0.7927316655276494 0.20050288753246306
0.806489311090543 0.15966015996509203
0.7927316655276494 0.13923879618140653
0.7514587288389687 0.11881743239772101
0.7652163744018623 0.11881743239772101
0.7652163744018623 0.18008152374877756
0.7377010832760751 0.18008152374877756
0.7789740199647559 0.2209242513161486
0.8202469566534366 0.2413456150998341
0.8477622477792237 0.2209242513161486
0.8615198933421173 0.2413456150998341
0.8615198933421173 0.20050288753246306
0.8890351844679045 0.13923879618140653
0.8477622477792237 0.15966015996509203
0.8340046022163302 0.11881743239772101
0.8477622477792237 0.11881743239772101
0.8202469566534366 0.11881743239772101
0.8477622477792237 0.15966015996509203
0.8340046022163302 0.15966015996509203
0.8752775389050109 0.15966015996509203
0.8752775389050109 0.2209242513161486
0.9165504755936916 0.26176697888351963
0.9027928300307981 0.2209242513161486
0.8752775389050109 0.20050288753246306
0.9165504755936916 0.20050288753246306
0.9027928300307981 0.15966015996509203
0.9165504755936916 0.11881743239772101
0.8890351844679045 0.09839606861403549
0.8752775389050109 0.13923879618140653
0.9027928300307981 0.13923879618140653
0.9440657667194788 0.15966015996509203
0.9303081211565852 0.18008152374877756
0.9440657667194788 0.20050288753246306
0.9440657667194788 0.2209242513161486
0.9440657667194788 0.20050288753246306
0.9578234122823724 0.20050288753246306
0.971581057845266 0.18008152374877756
0.9578234122823724 0.11881743239772101
0.9578234122823724 0.09839606861403549
0.8890351844679045 0.11881743239772101
0.9027928300307981 0.13923879618140653
0.9303081211565852 0.13923879618140653
0.9440657667194788 0.15966015996509203
0.971581057845266 0.20050288753246306
0.971581057845266 0.18008152374877756
1.0266116400968404 0.18008152374877756
1.0678845767855212 0.20050288753246306
1.0816422223484146 0.18008152374877756
1.0816422223484146 0.15966015996509203
1.1091575134742018 0.15966015996509203
1.1504304501628826 0.11881743239772101
1.1229151590370954 0.07797470483034998
1.1229151590370954 0.09839606861403549
1.1091575134742018 0.07797470483034998
1.1091575134742018 0.13923879618140653
1.136672804599989 0.11881743239772101
1.1917033868515634 0.18008152374877756
1.1917033868515634 0.2413456150998341
1.2192186779773504 0.13923879618140653
1.1917033868515634 0.11881743239772101
1.2192186779773504 0.07797470483034998
1.1917033868515634 0.09839606861403549
1.2467339691031376 0.016710613479293427
1.232976323540244 0.016710613479293427
1.2604916146660312 0.016710613479293427
1.2742492602289248 0.05755334104666446
1.301764551354712 0.03713197726297894
1.3292798424804992 0.07797470483034998
1.3292798424804992 0.11881743239772101
1.398068070294967 0.09839606861403549
1.4393410069836479 0.09839606861403549
1.4393410069836479 0.09839606861403549
1.4118257158578607 0.07797470483034998
1.4393410069836479 0.03713197726297894
1.4118257158578607 -0.0037107503043920906
1.398068070294967 -0.0037107503043920906
1.4118257158578607 -0.04455347787176312
1.4393410069836479 0.016710613479293427
1.466856298109435 0.016710613479293427
1.494371589235222 0.03713197726297894
1.5356445259239029 0.05755334104666446
1.5356445259239029 0.07797470483034998
1.5494021714867965 0.03713197726297894
1.5356445259239029 0.05755334104666446
1.5494021714867965 0.05755334104666446
1.5356445259239029 0.016710613479293427
1.5356445259239029 0.016710613479293427
1.5218868803610093 -0.0037107503043920906
1.5081292347981157 0.016710613479293427
1.5218868803610093 0.09839606861403549
1.5218868803610093 0.15966015996509203
1.494371589235222 0.13923879618140653
1.4806139436723287 0.18008152374877756
1.466856298109435 0.2209242513161486
1.4393410069836479 0.20050288753246306
1.3567951336062862 0.2413456150998341
1.2880069057918184 0.18008152374877756
1.2467339691031376 0.15966015996509203
1.1779457412886698 0.18008152374877756
1.1091575134742018 0.15966015996509203
1.040369285659734 0.15966015996509203
0.9853387034081595 0.2209242513161486
0.9440657667194788 0.2209242513161486
0.9165504755936916 0.28218834266720516
0.8615198933421173 0.32303107023457617
0.8752775389050109 0.32303107023457617
0.8340046022163302 0.3638737978019472
0.806489311090543 0.26176697888351963
0.7514587288389687 0.30260970645089064
0.7239434377131815 0.26176697888351963
0.6689128554616072 0.2413456150998341
0.6276399187729265 0.20050288753246306
0.6276399187729265 0.2413456150998341
0.5863669820842456 0.26176697888351963
0.6138822732100329 0.26176697888351963
0.5726093365213522 0.28218834266720516
0.6276399187729265 0.32303107023457617
0.6138822732100329 0.3638737978019472
0.6413975643358201 0.3638737978019472
0.6689128554616072 0.3434524340182617
0.6413975643358201 0.26176697888351963
0.6001246276471393 0.30260970645089064
0.5175787542697777 0.26176697888351963
0.476305817581097 0.2413456150998341
0.5175787542697777 0.2413456150998341
0.476305817581097 0.26176697888351963
0.5175787542697777 0.28218834266720516
0.5450940453955649 0.32303107023457617
0.5588516909584585 0.3434524340182617
0.6001246276471393 0.3842951615856327
0.6138822732100329 0.3434524340182617
0.6413975643358201 0.32303107023457617
0.6413975643358201 0.30260970645089064
0.6276399187729265 0.2209242513161486
0.6138822732100329 0.2413456150998341
0.6001246276471393 0.2413456150998341
0.5588516909584585 0.20050288753246306
0.5450940453955649 0.2209242513161486
0.5863669820842456 0.2209242513161486
0.6276399187729265 0.30260970645089064
0.6551552098987136 0.30260970645089064
0.710185792150288 0.3434524340182617
0.6964281465873944 0.30260970645089064
0.7239434377131815 0.28218834266720516
0.710185792150288 0.2413456150998341
0.710185792150288 0.15966015996509203
0.7239434377131815 0.13923879618140653
0.7239434377131815 0.15966015996509203
0.710185792150288 0.20050288753246306
0.6964281465873944 0.18008152374877756
0.6964281465873944 0.18008152374877756
0.7239434377131815 0.26176697888351963
0.7652163744018623 0.26176697888351963
0.7789740199647559 0.26176697888351963
0.8340046022163302 0.26176697888351963
0.7789740199647559 0.2209242513161486
0.7927316655276494 0.2209242513161486
0.7789740199647559 0.2209242513161486
0.7789740199647559 0.15966015996509203
0.7239434377131815 0.11881743239772101
0.710185792150288 0.15966015996509203
0.7239434377131815 0.20050288753246306
0.7377010832760751 0.2209242513161486
0.7377010832760751 0.20050288753246306
0.7514587288389687 0.26176697888351963
0.806489311090543 0.2413456150998341
0.7652163744018623 0.28218834266720516
0.7927316655276494 0.28218834266720516
0.7927316655276494 0.28218834266720516
0.7789740199647559 0.2209242513161486
0.7377010832760751 0.20050288753246306
0.7239434377131815 0.2413456150998341
0.7239434377131815 0.26176697888351963
0.7377010832760751 0.30260970645089064
0.7377010832760751 0.3434524340182617
0.7927316655276494 0.44555925293668924
0.7927316655276494 0.44555925293668924
0.8752775389050109 0.4864019805040603
0.9027928300307981 0.5068233442877458
0.9303081211565852 0.42513788915300377
0.9165504755936916 0.3842951615856327
0.8615198933421173 0.28218834266720516
0.9303081211565852 0.20050288753246306
0.9027928300307981 0.15966015996509203
0.9303081211565852 0.05755334104666446
0.971581057845266 0.07797470483034998
1.0266116400968404 0.11881743239772101
1.0953998679113082 0.15966015996509203
1.1091575134742018 0.20050288753246306
1.136672804599989 0.2413456150998341
1.1504304501628826 0.2413456150998341
1.1091575134742018 0.2413456150998341
1.040369285659734 0.18008152374877756
1.0541269312226276 0.18008152374877756
1.0266116400968404 0.15966015996509203
0.9990963489710531 0.09839606861403549
0.9990963489710531 0.09839606861403549
0.9990963489710531 0.11881743239772101
1.0128539945339468 0.11881743239772101
1.0128539945339468 0.15966015996509203
0.9990963489710531 0.15966015996509203
0.971581057845266 0.13923879618140653
0.9578234122823724 0.13923879618140653
0.8752775389050109 0.07797470483034998
0.7789740199647559 0.07797470483034998
0.7377010832760751 -0.0037107503043920906
0.6689128554616072 -0.024132114088077607
0.5863669820842456 -0.024132114088077607
0.5863669820842456 -0.0037107503043920906
0.5313363998326713 0.016710613479293427
0.5313363998326713 -0.0037107503043920906
0.6001246276471393 0.03713197726297894
0.6138822732100329 0.05755334104666446
0.6138822732100329 0.07797470483034998
0.6413975643358201 0.07797470483034998
0.6413975643358201 0.03713197726297894
0.6276399187729265 0.03713197726297894
0.5863669820842456 -0.0037107503043920906
0.5588516909584585 -0.0037107503043920906
0.5313363998326713 -0.024132114088077607
0.476305817581097 -0.06497484165544865
0.49006346314399063 -0.08539620543913415
0.4625481720182034 -0.024132114088077607
0.5038211087068842 -0.0037107503043920906
0.5175787542697777 0.016710613479293427
0.5175787542697777 0.03713197726297894
0.5450940453955649 0.03713197726297894
0.5175787542697777 0.016710613479293427
0.5175787542697777 -0.0037107503043920906
0.5038211087068842 -0.04455347787176312
0.5038211087068842 -0.08539620543913415
0.476305817581097 -0.12623893300650518
0.49006346314399063 -0.06497484165544865
0.5038211087068842 -0.08539620543913415
0.5038211087068842 -0.024132114088077607
0.5313363998326713 0.03713197726297894
0.5588516909584585 0.03713197726297894
0.6001246276471393 0.09839606861403549
0.6276399187729265 0.18008152374877756
0.6276399187729265 0.18008152374877756
0.6826705010245008 0.20050288753246306
0.6826705010245008 0.15966015996509203
0.6826705010245008 0.03713197726297894
0.6826705010245008 -0.12623893300650518
0.7514587288389687 -0.3917166621944169
0.8890351844679045 -0.6980371189496997
1.1091575134742018 -1.065621667056039
1.5081292347981157 -1.4536275789460638
2.085950348439646 -1.69868394435029
2.925166727776155 -1.8007907632687175
3.9845054361189605 -1.821212127052403
5.222693536779383 -1.6578412167829188
6.419608700751125 -1.269835304892894
7.2313097889618465 -0.9226721205702403
7.520220345782612 -0.5346662086802155
7.011187459955549 -0.24876711570861829
5.607907612540403 -0.04455347787176312
3.846928980490025 0.05755334104666446
2.085950348439646 0.09839606861403549
0.32497171638926764 0.05755334104666446
-1.436006915661111 -0.06497484165544865
-1.93128215592528 -0.10581756922281967
-1.4222492700982174 -0.20792438814124725
-0.6380634730132831 -0.2691884794923038
0.18739526076033178 -0.18750302435756172
0.7927316655276494 -0.08539620543913415
1.1091575134742018 0.016710613479293427
1.1917033868515634 0.09839606861403549
1.0816422223484146 0.11881743239772101
0.971581057845266 0.11881743239772101
0.8202469566534366 0.09839606861403549
0.7927316655276494 0.07797470483034998
0.7377010832760751 0.11881743239772101
0.7789740199647559 0.09839606861403549
0.7927316655276494 0.07797470483034998
0.7927316655276494 0.05755334104666446
0.8202469566534366 0.03713197726297894
0.806489311090543 -0.0037107503043920906
0.8202469566534366 -0.024132114088077607
0.7789740199647559 -0.04455347787176312
0.7927316655276494 -0.04455347787176312
0.7927316655276494 -0.0037107503043920906
0.7927316655276494 -0.04455347787176312
0.8202469566534366 -0.0037107503043920906
0.8477622477792237 0.016710613479293427
0.8477622477792237 0.016710613479293427
0.8615198933421173 0.016710613479293427
0.8615198933421173 -0.024132114088077607
0.8615198933421173 -0.024132114088077607
0.8202469566534366 -0.06497484165544865
0.8340046022163302 -0.10581756922281967
0.8202469566534366 -0.10581756922281967
0.8340046022163302 -0.14666029679019071
0.8202469566534366 -0.12623893300650518
0.8340046022163302 -0.10581756922281967
0.8615198933421173 -0.08539620543913415
0.8615198933421173 -0.06497484165544865
0.8615198933421173 -0.024132114088077607
0.9027928300307981 -0.04455347787176312
0.9165504755936916 -0.10581756922281967
0.9165504755936916 -0.10581756922281967
0.8752775389050109 -0.12623893300650518
0.8615198933421173 -0.16708166057387622
0.8477622477792237 -0.18750302435756172
0.8202469566534366 -0.18750302435756172
0.8340046022163302 -0.14666029679019071
0.8477622477792237 -0.14666029679019071
0.8615198933421173 -0.12623893300650518
0.8615198933421173 -0.10581756922281967
0.8890351844679045 -0.08539620543913415
0.9303081211565852 -0.12623893300650518
0.9303081211565852 -0.14666029679019071
0.9165504755936916 -0.12623893300650518
0.8752775389050109 -0.16708166057387622
0.8890351844679045 -0.20792438814124725
0.8477622477792237 -0.22834575192493275
0.8752775389050109 -0.22834575192493275
0.8890351844679045 -0.22834575192493275
0.8752775389050109 -0.20792438814124725
0.9027928300307981 -0.16708166057387622
0.9027928300307981 -0.14666029679019071
0.9027928300307981 -0.14666029679019071
0.9578234122823724 -0.16708166057387622
0.9303081211565852 -0.18750302435756172
0.9303081211565852 -0.18750302435756172
0.9027928300307981 -0.22834575192493275
0.9303081211565852 -0.2896098432759893
0.9440657667194788 -0.24876711570861829
0.9165504755936916 -0.31003120705967485
0.9027928300307981 -0.2691884794923038
0.9440657667194788 -0.31003120705967485
0.971581057845266 -0.24876711570861829
0.9990963489710531 -0.22834575192493275
1.0266116400968404 -0.20792438814124725
1.040369285659734 -0.22834575192493275
1.040369285659734 -0.22834575192493275
1.0541269312226276 -0.2691884794923038
1.0541269312226276 -0.2896098432759893
1.040369285659734 -0.31003120705967485
1.0678845767855212 -0.35087393462704586
1.040369285659734 -0.35087393462704586
1.0128539945339468 -0.31003120705967485
1.040369285659734 -0.31003120705967485
1.0953998679113082 -0.2896098432759893
1.1229151590370954 -0.24876711570861829
1.1229151590370954 -0.24876711570861829
1.1779457412886698 -0.2691884794923038
1.205461032414457 -0.24876711570861829
1.2192186779773504 -0.31003120705967485
1.205461032414457 -0.35087393462704586
1.1917033868515634 -0.4325593897617879
1.1917033868515634 -0.45298075354547346
1.1917033868515634 -0.4325593897617879
1.232976323540244 -0.4325593897617879
1.2467339691031376 -0.4121380259781024
1.2467339691031376 -0.4121380259781024
1.2604916146660312 -0.3304525708433603
1.3155221969176056 -0.31003120705967485
1.3705527791691798 -0.35087393462704586
1.3567951336062862 -0.3712952984107314
1.3705527791691798 -0.4121380259781024
1.3705527791691798 -0.4121380259781024
1.3705527791691798 -0.4325593897617879
1.398068070294967 -0.45298075354547346
1.3567951336062862 -0.51424484489653
1.3567951336062862 -0.4325593897617879
1.3705527791691798 -0.45298075354547346
1.3430374880433928 -0.4325593897617879
1.3843104247320734 -0.3917166621944169
1.4255833614207543 -0.3712952984107314
1.4393410069836479 -0.3917166621944169
1.4393410069836479 -0.4121380259781024
1.4530986525465415 -0.4121380259781024
1.4255833614207543 -0.45298075354547346
1.4393410069836479 -0.49382348111284446
1.3705527791691798 -0.49382348111284446
1.3430374880433928 -0.51424484489653
1.3155221969176056 -0.45298075354547346
1.2604916146660312 -0.45298075354547346
1.2192186779773504 -0.4325593897617879
1.2192186779773504 -0.45298075354547346
1.1917033868515634 -0.3917166621944169
1.1504304501628826 -0.35087393462704586
1.1091575134742018 -0.3712952984107314
1.0128539945339468 -0.3917166621944169
0.9578234122823724 -0.3917166621944169
0.9165504755936916 -0.45298075354547346
0.8477622477792237 -0.45298075354547346
0.7927316655276494 -0.4325593897617879
0.7377010832760751 -0.3917166621944169
0.6964281465873944 -0.35087393462704586
0.6826705010245008 -0.3712952984107314
0.6276399187729265 -0.3712952984107314
0.6276399187729265 -0.3712952984107314
0.6138822732100329 -0.31003120705967485
0.5863669820842456 -0.3917166621944169
0.5863669820842456 -0.3712952984107314
0.5450940453955649 -0.3917166621944169
0.5313363998326713 -0.4121380259781024
0.476305817581097 -0.4325593897617879
0.44879052645530987 -0.47340211732915893
0.43503288089241626 -0.47340211732915893
0.44879052645530987 -0.4121380259781024
0.43503288089241626 -0.4325593897617879
0.4625481720182034 -0.3917166621944169
0.44879052645530987 -0.3712952984107314
0.476305817581097 -0.3304525708433603
0.43503288089241626 -0.35087393462704586
0.44879052645530987 -0.3712952984107314
0.43503288089241626 -0.3917166621944169
0.4075175897666291 -0.4325593897617879
0.4212752353295227 -0.49382348111284446
0.3524870075150548 -0.51424484489653
0.36624465307794835 -0.47340211732915893
0.36624465307794835 -0.49382348111284446
0.38000229864084195 -0.45298075354547346
0.38000229864084195 -0.45298075354547346
0.4075175897666291 -0.3712952984107314
0.43503288089241626 -0.35087393462704586
0.43503288089241626 -0.4121380259781024
0.4075175897666291 -0.4121380259781024
0.4075175897666291 -0.47340211732915893
0.4075175897666291 -0.51424484489653
0.38000229864084195 -0.5346662086802155
0.38000229864084195 -0.49382348111284446
0.4075175897666291 -0.51424484489653
0.43503288089241626 -0.51424484489653
0.43503288089241626 -0.47340211732915893
0.44879052645530987 -0.4325593897617879
0.476305817581097 -0.45298075354547346
0.5038211087068842 -0.4121380259781024
0.5175787542697777 -0.47340211732915893
0.5038211087068842 -0.47340211732915893
0.5038211087068842 -0.49382348111284446
0.49006346314399063 -0.5755089362475866
0.49006346314399063 -0.5755089362475866
0.476305817581097 -0.5755089362475866
0.5038211087068842 -0.595930300031272
0.5038211087068842 -0.5550875724639011
0.5450940453955649 -0.5755089362475866
0.5588516909584585 -0.5550875724639011
0.5726093365213522 -0.5346662086802155
0.5863669820842456 -0.5550875724639011
0.5863669820842456 -0.595930300031272
0.6001246276471393 -0.595930300031272
0.5863669820842456 -0.6367730275986431
0.5038211087068842 -0.6571943913823286
0.5038211087068842 -0.7184584827333852
0.49006346314399063 -0.6776157551660141
0.5175787542697777 -0.6367730275986431
0.5450940453955649 -0.6571943913823286
0.5450940453955649 -0.6367730275986431
0.5450940453955649 -0.6367730275986431
0.5588516909584585 -0.5755089362475866
0.5726093365213522 -0.6163516638149575
0.5588516909584585 -0.6163516638149575
0.5726093365213522 -0.6163516638149575
0.5313363998326713 -0.6776157551660141
0.5175787542697777 -0.6980371189496997
0.4625481720182034 -0.7184584827333852
0.4625481720182034 -0.7388798465170706
0.4625481720182034 -0.6571943913823286
0.49006346314399063 -0.6980371189496997
0.5038211087068842 -0.6571943913823286
0.5038211087068842 -0.6367730275986431
0.5450940453955649 -0.6367730275986431
0.5313363998326713 -0.5755089362475866
0.5175787542697777 -0.6367730275986431
0.5313363998326713 -0.5755089362475866
0.476305817581097 -0.595930300031272
0.49006346314399063 -0.595930300031272
0.4625481720182034 -0.5550875724639011
0.476305817581097 -0.5550875724639011
0.5038211087068842 -0.49382348111284446
0.5175787542697777 -0.49382348111284446
0.5863669820842456 -0.47340211732915893
0.6138822732100329 -0.4325593897617879
0.6276399187729265 -0.4121380259781024
0.6689128554616072 -0.45298075354547346
0.6689128554616072 -0.5346662086802155
0.6964281465873944 -0.6163516638149575
0.6964281465873944 -0.7184584827333852
0.710185792150288 -0.7797225740844417
0.7514587288389687 -0.8205653016518127
0.7514587288389687 -0.8205653016518127
0.7652163744018623 -0.8205653016518127
0.8340046022163302 -0.7388798465170706
0.8202469566534366 -0.7184584827333852
0.8477622477792237 -0.6980371189496997
0.8340046022163302 -0.6367730275986431
0.8202469566534366 -0.6776157551660141
0.8202469566534366 -0.7184584827333852
0.8477622477792237 -0.7593012103007561
0.8202469566534366 -0.7797225740844417
0.806489311090543 -0.8001439378681272
0.806489311090543 -0.8614080292191838
0.806489311090543 -0.8205653016518127
0.7514587288389687 -0.8409866654354983
0.7652163744018623 -0.8614080292191838
0.7239434377131815 -0.8409866654354983
0.6964281465873944 -0.8205653016518127
0.6413975643358201 -0.8614080292191838
0.5863669820842456 -0.8409866654354983
0.5450940453955649 -0.9022507567865548
0.49006346314399063 -0.9226721205702403
0.4625481720182034 -0.9839362119212969
0.38000229864084195 -0.9839362119212969
0.38000229864084195 -0.9839362119212969
0.3524870075150548 -1.024778939488668
0.32497171638926764 -0.9839362119212969
0.3387293619521612 -0.9839362119212969
0.3387293619521612 -0.9430934843539258
0.36624465307794835 -0.9430934843539258
0.39375994420373556 -0.9226721205702403
0.4075175897666291 -0.9022507567865548
0.39375994420373556 -0.8818293930028693
0.4075175897666291 -0.9635148481376113
0.38000229864084195 -1.0043575757049823
0.31121407082637403 -1.0452003032723534
0.29745642526348043 -1.0452003032723534
0.2836987797005869 -1.065621667056039
0.2561834885747997 -1.024778939488668
0.2699411341376933 -0.9635148481376113
0.2699411341376933 -1.0043575757049823
0.2836987797005869 -0.9839362119212969
0.31121407082637403 -0.9430934843539258
0.3387293619521612 -0.9226721205702403
0.38000229864084195 -0.9635148481376113
0.3524870075150548 -0.9226721205702403
0.36624465307794835 -1.0043575757049823
0.3524870075150548 -1.024778939488668
0.3387293619521612 -1.0452003032723534
0.3387293619521612 -1.0452003032723534
0.3524870075150548 -0.9839362119212969
0.3387293619521612 -1.0043575757049823
0.4075175897666291 -0.9635148481376113
0.43503288089241626 -0.8818293930028693
0.4625481720182034 -0.7593012103007561
0.5175787542697777 -0.7388798465170706
0.5450940453955649 -0.8205653016518127
0.5450940453955649 -0.8614080292191838
0.5726093365213522 -1.0452003032723534
0.6001246276471393 -1.2494139411092087
0.6964281465873944 -1.5353130340808059
0.806489311090543 -1.902897582187145
1.1641880957257762 -2.2704821302934843
1.631948044864158 -2.597223950832453
2.319830323008837 -2.8422803162366788
3.255350221285601 -2.923965771371421
4.3146889296284066 -2.9035444075877352
5.44281586578568 -2.69933076975088
6.474639283002699 -2.4542744043466542
7.203794497836059 -2.086689856240315
7.368886244590782 -1.780369399485032
6.873611004326613 -1.5148916702971202
5.621665258103297 -1.4332062151623781
3.8606866260529182 -1.3719421238113216
2.09970799400254 -1.2494139411092087
0.3387293619521612 -1.3515207600276362
-1.4222492700982174 -1.3310993962439506
-2.0413433204284286 -1.4127848513786927
-1.8900092192365991 -1.3719421238113216
-1.2571575233434944 -1.269835304892894
-0.445456435132773 -1.1677284859744665
0.2699411341376933 -1.0452003032723534
0.7514587288389687 -0.9430934843539258
0.9165504755936916 -0.8818293930028693
0.971581057845266 -0.8818293930028693
0.8615198933421173 -0.9022507567865548
0.7377010832760751 -0.8818293930028693
0.6138822732100329 -0.8818293930028693
0.5726093365213522 -0.8409866654354983
0.5313363998326713 -0.8614080292191838
0.5588516909584585 -0.8205653016518127
0.6276399187729265 -0.8205653016518127
0.6413975643358201 -0.8614080292191838
0.6551552098987136 -0.9022507567865548
0.6413975643358201 -0.9022507567865548
0.6551552098987136 -0.9430934843539258
0.6413975643358201 -1.024778939488668
0.6138822732100329 -1.0043575757049823
0.6001246276471393 -0.9839362119212969
0.6138822732100329 -0.9635148481376113
0.6413975643358201 -0.9430934843539258
0.6551552098987136 -0.9635148481376113
0.6689128554616072 -0.9022507567865548
0.6689128554616072 -0.9022507567865548
0.6551552098987136 -0.9226721205702403
0.6826705010245008 -0.9635148481376113
0.6826705010245008 -0.9430934843539258
0.6551552098987136 -0.9635148481376113
0.6138822732100329 -1.024778939488668
0.6138822732100329 -1.0452003032723534
0.6138822732100329 -1.024778939488668
0.6413975643358201 -1.024778939488668
0.6276399187729265 -1.0043575757049823
0.6551552098987136 -0.9635148481376113
0.6964281465873944 -0.9430934843539258
0.710185792150288 -0.9635148481376113
0.6964281465873944 -0.9839362119212969
0.710185792150288 -0.9839362119212969
0.6689128554616072 -1.0043575757049823
0.6413975643358201 -1.0043575757049823
0.6138822732100329 -1.065621667056039
0.6001246276471393 -1.065621667056039
0.6276399187729265 -1.024778939488668
0.6413975643358201 -1.0452003032723534
0.6551552098987136 -1.0043575757049823
0.6689128554616072 -0.9635148481376113
0.6689128554616072 -0.9430934843539258
0.6689128554616072 -0.9635148481376113
0.710185792150288 -0.9635148481376113
0.7239434377131815 -0.9635148481376113
0.710185792150288 -1.024778939488668
0.6964281465873944 -1.065621667056039
0.6689128554616072 -1.0860430308397244
0.6826705010245008 -1.0860430308397244
0.6551552098987136 -1.065621667056039
0.6689128554616072 -1.065621667056039
0.6689128554616072 -1.0452003032723534
0.6964281465873944 -1.0043575757049823
0.710185792150288 -1.0043575757049823
0.7377010832760751 -1.0043575757049823
0.7377010832760751 -1.0452003032723534
0.7514587288389687 -1.0043575757049823
0.7514587288389687 -1.065621667056039
0.7652163744018623 -1.0860430308397244
0.7514587288389687 -1.1268857584070955
0.7377010832760751 -1.1677284859744665
0.7377010832760751 -1.10646439462341
0.7239434377131815 -1.10646439462341
0.7514587288389687 -1.0452003032723534
0.7652163744018623 -1.065621667056039
0.7789740199647559 -1.0452003032723534
0.806489311090543 -1.024778939488668
0.7927316655276494 -1.024778939488668
0.8340046022163302 -1.0043575757049823
0.8477622477792237 -1.0860430308397244
0.8340046022163302 -1.0860430308397244
0.8340046022163302 -1.1677284859744665
0.806489311090543 -1.1268857584070955
0.8340046022163302 -1.1268857584070955
0.8615198933421173 -1.1268857584070955
0.8615198933421173 -1.10646439462341
0.8752775389050109 -1.065621667056039
0.9165504755936916 -1.0860430308397244
0.971581057845266 -1.0452003032723534
0.9440657667194788 -1.0860430308397244
0.9990963489710531 -1.10646439462341
0.9990963489710531 -1.10646439462341
0.9990963489710531 -1.147307122190781
1.0128539945339468 -1.1677284859744665
1.0266116400968404 -1.2085712135418376
1.0128539945339468 -1.147307122190781
1.0266116400968404 -1.147307122190781
1.0678845767855212 -1.147307122190781
1.0953998679113082 -1.1268857584070955
1.1779457412886698 -1.065621667056039
1.205461032414457 -1.0860430308397244
1.232976323540244 -1.147307122190781
1.2467339691031376 -1.1268857584070955
1.2604916146660312 -1.1677284859744665
1.2880069057918184 -1.1677284859744665
1.2742492602289248 -1.188149849758152
1.2742492602289248 -1.188149849758152
1.2742492602289248 -1.188149849758152
1.301764551354712 -1.1677284859744665
1.2467339691031376 -1.0860430308397244
1.3155221969176056 -1.1268857584070955
1.3292798424804992 -1.147307122190781
1.4118257158578607 -1.10646439462341
1.4393410069836479 -1.1677284859744665
1.4530986525465415 -1.147307122190781
1.4255833614207543 -1.228992577325523
1.4393410069836479 -1.1677284859744665
1.398068070294967 -1.188149849758152
1.3843104247320734 -1.269835304892894
1.3705527791691798 -1.228992577325523
1.3430374880433928 -1.2494139411092087
1.301764551354712 -1.1677284859744665
1.2880069057918184 -1.147307122190781
1.2467339691031376 -1.1268857584070955
1.2192186779773504 -1.1677284859744665
1.1641880957257762 -1.10646439462341
1.0816422223484146 -1.147307122190781
1.0128539945339468 -1.2085712135418376
0.9440657667194788 -1.2085712135418376
0.8890351844679045 -1.2494139411092087
0.806489311090543 -1.2085712135418376
0.7239434377131815 -1.188149849758152
0.6826705010245008 -1.2085712135418376
0.6826705010245008 -1.188149849758152
0.6551552098987136 -1.147307122190781
0.6001246276471393 -1.1268857584070955
0.6001246276471393 -1.1268857584070955
0.5588516909584585 -1.147307122190781
0.5450940453955649 -1.147307122190781
0.5038211087068842 -1.147307122190781
0.4625481720182034 -1.1268857584070955
0.4625481720182034 -1.188149849758152
0.4075175897666291 -1.2085712135418376
0.38000229864084195 -1.188149849758152
0.4075175897666291 -1.147307122190781
0.4075175897666291 -1.188149849758152
0.4075175897666291 -1.1268857584070955
0.39375994420373556 -1.147307122190781
0.4075175897666291 -1.10646439462341
0.3524870075150548 -1.10646439462341
0.3524870075150548 -1.1677284859744665
0.32497171638926764 -1.1677284859744665
0.2699411341376933 -1.2085712135418376
0.2561834885747997 -1.2085712135418376
0.2561834885747997 -1.228992577325523
0.2561834885747997 -1.188149849758152
0.2561834885747997 -1.228992577325523
0.24242584301190612 -1.2085712135418376
0.2561834885747997 -1.188149849758152
0.29745642526348043 -1.147307122190781
0.31121407082637403 -1.1268857584070955
0.2699411341376933 -1.147307122190781
0.31121407082637403 -1.147307122190781
0.31121407082637403 -1.2085712135418376
0.31121407082637403 -1.2085712135418376
0.24242584301190612 -1.228992577325523
0.24242584301190612 -1.228992577325523
0.22866819744901254 -1.228992577325523
0.2561834885747997 -1.228992577325523
0.2699411341376933 -1.1677284859744665
0.31121407082637403 -1.1677284859744665
0.3387293619521612 -1.147307122190781
0.36624465307794835 -1.147307122190781
0.38000229864084195 -1.188149849758152
0.38000229864084195 -1.188149849758152
0.4075175897666291 -1.2085712135418376
0.38000229864084195 -1.2494139411092087
0.39375994420373556 -1.2902566686765795
0.3524870075150548 -1.269835304892894
0.36624465307794835 -1.228992577325523
0.36624465307794835 -1.2494139411092087
0.3524870075150548 -1.2085712135418376
0.4212752353295227 -1.228992577325523
0.43503288089241626 -1.188149849758152
0.44879052645530987 -1.1677284859744665
0.4625481720182034 -1.188149849758152
0.44879052645530987 -1.228992577325523
0.4212752353295227 -1.2494139411092087
0.4075175897666291 -1.3310993962439506
0.43503288089241626 -1.3106780324602652
0.4075175897666291 -1.3719421238113216
0.4075175897666291 -1.3310993962439506
0.38000229864084195 -1.3310993962439506
0.39375994420373556 -1.2902566686765795
0.4212752353295227 -1.269835304892894
0.39375994420373556 -1.2494139411092087
0.4212752353295227 -1.188149849758152
0.39375994420373556 -1.2494139411092087
0.39375994420373556 -1.2902566686765795
0.4212752353295227 -1.3310993962439506
0.39375994420373556 -1.3515207600276362
0.38000229864084195 -1.3719421238113216
0.36624465307794835 -1.3719421238113216
0.32497171638926764 -1.3106780324602652
0.32497171638926764 -1.3719421238113216
0.3524870075150548 -1.2902566686765795
0.36624465307794835 -1.269835304892894
0.36624465307794835 -1.2902566686765795
0.36624465307794835 -1.2902566686765795
0.38000229864084195 -1.269835304892894
0.38000229864084195 -1.3106780324602652
0.38000229864084195 -1.3310993962439506
0.32497171638926764 -1.3310993962439506
0.32497171638926764 -1.3923634875950073
0.31121407082637403 -1.3719421238113216
0.3387293619521612 -1.3310993962439506
0.32497171638926764 -1.3310993962439506
0.3387293619521612 -1.3106780324602652
0.3524870075150548 -1.3106780324602652
0.36624465307794835 -1.2085712135418376
0.4075175897666291 -1.1677284859744665
0.39375994420373556 -1.1677284859744665
0.39375994420373556 -1.1677284859744665
0.4075175897666291 -1.1677284859744665
0.38000229864084195 -1.147307122190781
0.39375994420373556 -1.228992577325523
0.39375994420373556 -1.228992577325523
0.44879052645530987 -1.147307122190781
0.4625481720182034 -1.147307122190781
0.5175787542697777 -1.147307122190781
0.5726093365213522 -1.147307122190781
0.6138822732100329 -1.147307122190781
0.6551552098987136 -1.188149849758152
0.6689128554616072 -1.2494139411092087
0.6689128554616072 -1.3106780324602652
0.7514587288389687 -1.2902566686765795
0.7514587288389687 -1.4332062151623781
0.806489311090543 -1.3923634875950073
0.806489311090543 -1.4127848513786927
0.7514587288389687 -1.3310993962439506
0.7239434377131815 -1.3106780324602652
0.7377010832760751 -1.3106780324602652
0.7239434377131815 -1.3310993962439506
0.7927316655276494 -1.228992577325523
0.7652163744018623 -1.269835304892894
0.806489311090543 -1.2902566686765795
0.806489311090543 -1.2902566686765795
0.7514587288389687 -1.3310993962439506
0.7377010832760751 -1.3923634875950073
0.7377010832760751 -1.4127848513786927
0.6551552098987136 -1.5148916702971202
0.6138822732100329 -1.4332062151623781
0.5450940453955649 -1.4740489427297492
0.49006346314399063 -1.4740489427297492
0.44879052645530987 -1.4332062151623781
0.43503288089241626 -1.4332062151623781
0.43503288089241626 -1.4332062151623781
0.4212752353295227 -1.4536275789460638
0.39375994420373556 -1.4536275789460638
0.36624465307794835 -1.4944703065134348
0.3524870075150548 -1.4740489427297492
0.3387293619521612 -1.5557343978644913
0.31121407082637403 -1.5761557616481767
0.36624465307794835 -1.5761557616481767
0.32497171638926764 -1.5148916702971202
0.3387293619521612 -1.4944703065134348
0.3387293619521612 -1.4740489427297492
0.36624465307794835 -1.4127848513786927
0.3524870075150548 -1.4127848513786927
0.39375994420373556 -1.4332062151623781
0.38000229864084195 -1.4536275789460638
0.32497171638926764 -1.4740489427297492
0.2836987797005869 -1.5353130340808059
0.31121407082637403 -1.4536275789460638
0.29745642526348043 -1.5148916702971202
0.29745642526348043 -1.5353130340808059
0.29745642526348043 -1.5148916702971202
0.31121407082637403 -1.4536275789460638
0.3524870075150548 -1.4536275789460638
0.36624465307794835 -1.4127848513786927
0.38000229864084195 -1.4127848513786927
0.38000229864084195 -1.3923634875950073
0.4075175897666291 -1.4332062151623781
0.4075175897666291 -1.4740489427297492
0.36624465307794835 -1.5148916702971202
0.38000229864084195 -1.4944703065134348
0.3524870075150548 -1.5353130340808059
0.38000229864084195 -1.5148916702971202
0.3524870075150548 -1.4740489427297492
0.3387293619521612 -1.4740489427297492
0.4212752353295227 -1.4536275789460638
0.4625481720182034 -1.3515207600276362
0.5038211087068842 -1.3515207600276362
0.5038211087068842 -1.3310993962439506
0.5313363998326713 -1.3310993962439506
0.5588516909584585 -1.3310993962439506
0.5588516909584585 -1.4332062151623781
0.5863669820842456 -1.5557343978644913
0.6138822732100329 -1.821212127052403
0.7789740199647559 -2.0662684924566292
1.0266116400968404 -2.3930103129955973
1.4806139436723287 -2.6584880421835093
2.1684962218170076 -2.923965771371421
3.1040161200937715 -3.046493954073534
4.2183854106881515 -3.0260725902898487
5.4840888024743615 -2.9443871351551065
6.543427510817167 -2.719752133534566
7.121248624458698 -2.413431676779283
6.983672168829762 -2.1479539475913714
5.965606397175637 -1.943740309754516
4.204627765125258 -1.8007907632687175
2.4436491330748793 -1.780369399485032
0.6826705010245008 -1.780369399485032
-1.0783081310258777 -1.8007907632687175
-2.1101315482428964 -1.780369399485032
-1.9037668647994928 -1.780369399485032
-1.20212694109192 -1.6374198529992334
-0.36291056175541153 -1.5965771254318624
0.38000229864084195 -1.4332062151623781
0.8477622477792237 -1.4127848513786927
1.040369285659734 -1.3106780324602652
1.0541269312226276 -1.3106780324602652
0.9578234122823724 -1.3923634875950073
0.806489311090543 -1.3310993962439506
0.6689128554616072 -1.3719421238113216
0.6001246276471393 -1.3310993962439506
0.6001246276471393 -1.3310993962439506
0.6276399187729265 -1.2494139411092087
0.6826705010245008 -1.269835304892894
0.710185792150288 -1.2494139411092087
0.7377010832760751 -1.2902566686765795
0.7377010832760751 -1.269835304892894
0.7239434377131815 -1.3106780324602652
0.7239434377131815 -1.3923634875950073
0.710185792150288 -1.3719421238113216
0.6826705010245008 -1.3310993962439506
0.6551552098987136 -1.3310993962439506
0.6826705010245008 -1.3106780324602652
0.710185792150288 -1.2902566686765795
0.7377010832760751 -1.269835304892894
0.7514587288389687 -1.2902566686765795
0.7377010832760751 -1.228992577325523
0.7377010832760751 -1.2902566686765795
0.7377010832760751 -1.3106780324602652
0.7377010832760751 -1.3515207600276362
0.7514587288389687 -1.3515207600276362
0.710185792150288 -1.4127848513786927
0.6551552098987136 -1.3923634875950073
0.6826705010245008 -1.3719421238113216
0.6964281465873944 -1.3310993962439506
0.7377010832760751 -1.2902566686765795
0.6964281465873944 -1.269835304892894
0.710185792150288 -1.2494139411092087
0.7514587288389687 -1.269835304892894
0.7377010832760751 -1.3106780324602652
0.7514587288389687 -1.3106780324602652
0.7514587288389687 -1.3515207600276362
0.7377010832760751 -1.3719421238113216
0.710185792150288 -1.3719421238113216
0.710185792150288 -1.3310993962439506
0.7377010832760751 -1.3310993962439506
0.7377010832760751 -1.2902566686765795
0.7789740199647559 -1.2494139411092087
0.7927316655276494 -1.2902566686765795
0.8202469566534366 -1.2085712135418376
0.8202469566534366 -1.2902566686765795
0.7927316655276494 -1.2902566686765795
0.806489311090543 -1.3106780324602652
0.7652163744018623 -1.3310993962439506
0.7789740199647559 -1.3515207600276362
0.7514587288389687 -1.3310993962439506
0.710185792150288 -1.3923634875950073
0.710185792150288 -1.3106780324602652
0.710185792150288 -1.3106780324602652
0.7377010832760751 -1.2902566686765795
0.7927316655276494 -1.269835304892894
0.806489311090543 -1.2494139411092087
0.8477622477792237 -1.269835304892894
0.8202469566534366 -1.2494139411092087
0.8202469566534366 -1.2494139411092087
0.7927316655276494 -1.3923634875950073
0.806489311090543 -1.4127848513786927
0.806489311090543 -1.4332062151623781
0.7927316655276494 -1.3923634875950073
0.7789740199647559 -1.3719421238113216
0.8340046022163302 -1.3310993962439506
0.8477622477792237 -1.2902566686765795
0.8752775389050109 -1.2902566686765795
0.9165504755936916 -1.2902566686765795
0.9165504755936916 -1.2902566686765795
0.9027928300307981 -1.269835304892894
0.8890351844679045 -1.3310993962439506
0.9027928300307981 -1.3719421238113216
0.8890351844679045 -1.3719421238113216
0.8615198933421173 -1.4127848513786927
0.8477622477792237 -1.4332062151623781
0.9027928300307981 -1.3923634875950073
0.8890351844679045 -1.3310993962439506
0.9303081211565852 -1.2902566686765795
0.9578234122823724 -1.3106780324602652
0.9853387034081595 -1.2902566686765795
1.0266116400968404 -1.2902566686765795
1.0266116400968404 -1.3515207600276362
0.9990963489710531 -1.3923634875950073
1.0128539945339468 -1.3515207600276362
1.0266116400968404 -1.3923634875950073
0.9990963489710531 -1.4536275789460638
0.9853387034081595 -1.3923634875950073
1.040369285659734 -1.4127848513786927
1.0678845767855212 -1.3106780324602652
1.1229151590370954 -1.3106780324602652
1.136672804599989 -1.3310993962439506
1.1641880957257762 -1.2902566686765795
1.1779457412886698 -1.269835304892894
1.1917033868515634 -1.3310993962439506
1.1641880957257762 -1.3515207600276362
1.1504304501628826 -1.3719421238113216
1.205461032414457 -1.3719421238113216
1.1779457412886698 -1.3923634875950073
1.1917033868515634 -1.3719421238113216
1.2192186779773504 -1.3719421238113216
1.2192186779773504 -1.3719421238113216
1.301764551354712 -1.3719421238113216
1.2604916146660312 -1.3310993962439506
1.3292798424804992 -1.3719421238113216
1.3567951336062862 -1.269835304892894
1.3292798424804992 -1.3310993962439506
1.3705527791691798 -1.3923634875950073
1.3567951336062862 -1.3719421238113216
1.3430374880433928 -1.4127848513786927
1.3292798424804992 -1.3923634875950073
1.3430374880433928 -1.3923634875950073
1.3843104247320734 -1.4536275789460638
1.4255833614207543 -1.3719421238113216
1.4530986525465415 -1.3106780324602652
1.4393410069836479 -1.3106780324602652
1.4530986525465415 -1.3106780324602652
1.4530986525465415 -1.3310993962439506
1.3843104247320734 -1.269835304892894
1.3567951336062862 -1.3310993962439506
1.3292798424804992 -1.3106780324602652
1.2467339691031376 -1.3515207600276362
1.1917033868515634 -1.3923634875950073
1.1229151590370954 -1.3719421238113216
1.0953998679113082 -1.3515207600276362
1.0128539945339468 -1.2494139411092087
1.0266116400968404 -1.2902566686765795
0.971581057845266 -1.2494139411092087
0.9853387034081595 -1.2085712135418376
0.9578234122823724 -1.228992577325523
0.8890351844679045 -1.2085712135418376
0.8477622477792237 -1.228992577325523
0.7927316655276494 -1.2494139411092087
0.7514587288389687 -1.3106780324602652
0.6689128554616072 -1.2902566686765795
0.6413975643358201 -1.2902566686765795
0.5863669820842456 -1.2494139411092087
0.6138822732100329 -1.269835304892894
0.5726093365213522 -1.2085712135418376
0.5588516909584585 -1.228992577325523
0.5450940453955649 -1.1677284859744665
0.5450940453955649 -1.188149849758152
0.5038211087068842 -1.228992577325523
0.5313363998326713 -1.2085712135418376
0.5038211087068842 -1.228992577325523
0.476305817581097 -1.269835304892894
0.4075175897666291 -1.2494139411092087
0.4212752353295227 -1.228992577325523
0.4212752353295227 -1.2494139411092087
0.4075175897666291 -1.2085712135418376
0.4075175897666291 -1.1677284859744665
0.43503288089241626 -1.1268857584070955
0.43503288089241626 -1.0860430308397244
0.476305817581097 -1.147307122190781
0.44879052645530987 -1.1677284859744665
0.43503288089241626 -1.147307122190781
0.43503288089241626 -1.2085712135418376
0.4075175897666291 -1.188149849758152
0.39375994420373556 -1.2494139411092087
0.38000229864084195 -1.188149849758152
0.38000229864084195 -1.188149849758152
0.36624465307794835 -1.147307122190781
0.38000229864084195 -1.147307122190781
0.39375994420373556 -1.10646439462341
0.43503288089241626 -1.0860430308397244
0.43503288089241626 -1.0860430308397244
0.44879052645530987 -1.0860430308397244
0.39375994420373556 -1.147307122190781
0.39375994420373556 -1.1677284859744665
0.4212752353295227 -1.147307122190781
0.4212752353295227 -1.2085712135418376
0.43503288089241626 -1.2085712135418376
0.476305817581097 -1.1677284859744665
0.44879052645530987 -1.1677284859744665
0.5038211087068842 -1.147307122190781
0.5175787542697777 -1.0860430308397244
0.5450940453955649 -1.065621667056039
0.5588516909584585 -1.10646439462341
0.5313363998326713 -1.10646439462341
0.5038211087068842 -1.147307122190781
0.5313363998326713 -1.1677284859744665
0.5038211087068842 -1.228992577325523
0.4625481720182034 -1.228992577325523
0.44879052645530987 -1.1677284859744665
0.5038211087068842 -1.2494139411092087
0.5175787542697777 -1.1677284859744665
0.5313363998326713 -1.1268857584070955
0.5450940453955649 -1.1268857584070955
0.5588516909584585 -1.1268857584070955
0.5588516909584585 -1.1268857584070955
0.5450940453955649 -1.188149849758152
0.5588516909584585 -1.2085712135418376
0.5175787542697777 -1.188149849758152
0.5038211087068842 -1.2494139411092087
0.476305817581097 -1.228992577325523
0.44879052645530987 -1.228992577325523
0.43503288089241626 -1.2085712135418376
0.4075175897666291 -1.228992577325523
0.44879052645530987 -1.188149849758152
0.44879052645530987 -1.1268857584070955
0.476305817581097 -1.1268857584070955
0.476305817581097 -1.10646439462341
0.4625481720182034 -1.1677284859744665
0.43503288089241626 -1.188149849758152
0.43503288089241626 -1.228992577325523
0.4075175897666291 -1.2494139411092087
0.36624465307794835 -1.2902566686765795
0.38000229864084195 -1.2902566686765795
0.39375994420373556 -1.2494139411092087
0.39375994420373556 -1.228992577325523
0.4075175897666291 -1.1677284859744665
0.43503288089241626 -1.1677284859744665
0.43503288089241626 -1.147307122190781
0.4625481720182034 -1.188149849758152
0.4625481720182034 -1.1268857584070955
0.4625481720182034 -1.1677284859744665
0.44879052645530987 -1.1268857584070955
0.43503288089241626 -1.188149849758152
0.4075175897666291 -1.188149849758152
0.38000229864084195 -1.1677284859744665
0.4075175897666291 -1.147307122190781
0.4075175897666291 -1.024778939488668
0.43503288089241626 -0.9839362119212969
0.44879052645530987 -0.9839362119212969
0.476305817581097 -0.9226721205702403
0.5450940453955649 -0.9430934843539258
0.5863669820842456 -0.9430934843539258
0.6138822732100329 -0.9635148481376113
0.6001246276471393 -1.0452003032723534
0.6276399187729265 -1.0860430308397244
0.6138822732100329 -1.147307122190781
0.6001246276471393 -1.1268857584070955
0.6689128554616072 -1.147307122190781
0.6689128554616072 -1.188149849758152
0.7377010832760751 -1.1677284859744665
0.7927316655276494 -1.0860430308397244
0.8202469566534366 -1.024778939488668
0.8477622477792237 -1.065621667056039
0.8477622477792237 -1.065621667056039
0.8202469566534366 -1.1268857584070955
0.806489311090543 -1.1677284859744665
0.7789740199647559 -1.188149849758152
0.7377010832760751 -1.1677284859744665
0.710185792150288 -1.188149849758152
0.6964281465873944 -1.1677284859744665
0.7514587288389687 -1.10646439462341
0.7652163744018623 -1.147307122190781
0.7789740199647559 -1.0860430308397244
0.7789740199647559 -1.1268857584070955
0.7789740199647559 -1.188149849758152
0.710185792150288 -1.147307122190781
0.6551552098987136 -1.188149849758152
0.6001246276471393 -1.269835304892894
0.5726093365213522 -1.2902566686765795
0.49006346314399063 -1.3106780324602652
0.44879052645530987 -1.3106780324602652
0.4212752353295227 -1.3106780324602652
0.38000229864084195 -1.269835304892894
0.39375994420373556 -1.228992577325523
0.38000229864084195 -1.188149849758152
0.4212752353295227 -1.188149849758152
0.4075175897666291 -1.228992577325523
0.4075175897666291 -1.2085712135418376
0.39375994420373556 -1.228992577325523
0.38000229864084195 -1.2494139411092087
0.3524870075150548 -1.2902566686765795
0.3387293619521612 -1.3310993962439506
0.31121407082637403 -1.269835304892894
0.32497171638926764 -1.269835304892894
0.2836987797005869 -1.2494139411092087
0.29745642526348043 -1.269835304892894
0.32497171638926764 -1.2085712135418376
0.3387293619521612 -1.147307122190781
0.3524870075150548 -1.188149849758152
0.3524870075150548 -1.1677284859744665
0.3524870075150548 -1.2085712135418376
0.32497171638926764 -1.228992577325523
0.32497171638926764 -1.2902566686765795
0.29745642526348043 -1.269835304892894
0.2561834885747997 -1.269835304892894
0.2561834885747997 -1.2494139411092087
0.2561834885747997 -1.228992577325523
0.2699411341376933 -1.188149849758152
0.2699411341376933 -1.188149849758152
0.3387293619521612 -1.147307122190781
0.3387293619521612 -1.188149849758152
0.3524870075150548 -1.147307122190781
0.36624465307794835 -1.188149849758152
0.3524870075150548 -1.2494139411092087
0.36624465307794835 -1.228992577325523
0.36624465307794835 -1.2494139411092087
0.3524870075150548 -1.228992577325523
0.39375994420373556 -1.188149849758152
0.43503288089241626 -1.1677284859744665
0.43503288089241626 -1.10646439462341
0.476305817581097 -1.0452003032723534
0.5038211087068842 -1.0452003032723534
0.5313363998326713 -1.188149849758152
0.5588516909584585 -1.3106780324602652
0.6001246276471393 -1.4944703065134348
0.710185792150288 -1.739526671917661
0.9165504755936916 -2.025425764889258
1.232976323540244 -2.29090349407717
1.7144939182415195 -2.535959859481396
2.388618550823305 -2.6584880421835093
3.3241384491000687 -2.6789094059671945
4.424750094131555 -2.495117131914025
5.552877030288829 -2.331746221644541
6.502154574128486 -2.0458471286729436
7.107490978895804 -1.8007907632687175
7.1350062700215915 -1.5557343978644913
6.447123991876912 -1.3923634875950073
5.085117081150448 -1.2902566686765795
3.3241384491000687 -1.269835304892894
1.56315981704969 -1.2494139411092087
-0.19781881500068854 -1.2902566686765795
-1.8624939281108122 -1.2494139411092087
-2.12388919380579 -1.2494139411092087
-1.7111598269189827 -1.3106780324602652
-0.9682469665227291 -1.2494139411092087
-0.21157646056358212 -1.228992577325523
0.38000229864084195 -1.147307122190781
0.7377010832760751 -1.1268857584070955
0.9027928300307981 -1.024778939488668
0.8477622477792237 -1.0043575757049823
0.7927316655276494 -0.9839362119212969
0.6276399187729265 -1.0043575757049823
0.6001246276471393 -1.0452003032723534
0.5588516909584585 -1.0452003032723534
0.49006346314399063 -0.9635148481376113
0.5038211087068842 -1.0452003032723534
0.5175787542697777 -1.024778939488668
0.5726093365213522 -0.9430934843539258
0.6413975643358201 -0.9635148481376113
0.6276399187729265 -0.9635148481376113
0.6551552098987136 -1.0043575757049823
0.6138822732100329 -1.024778939488668
0.6001246276471393 -1.024778939488668
0.5726093365213522 -1.0452003032723534
0.5588516909584585 -1.065621667056039
0.5450940453955649 -1.0860430308397244
0.5726093365213522 -1.0043575757049823
0.5726093365213522 -1.0043575757049823
0.5863669820842456 -0.9839362119212969
0.6138822732100329 -0.9635148481376113
0.6001246276471393 -0.9839362119212969
0.6138822732100329 -0.9839362119212969
0.6138822732100329 -1.024778939488668
0.6001246276471393 -1.024778939488668
0.5726093365213522 -1.0452003032723534
0.5588516909584585 -1.0452003032723534
0.5450940453955649 -1.024778939488668
0.5726093365213522 -1.0452003032723534
0.5863669820842456 -1.024778939488668
0.5863669820842456 -0.9839362119212969
0.6138822732100329 -1.0043575757049823
0.6138822732100329 -0.9635148481376113
0.6551552098987136 -0.9635148481376113
0.6413975643358201 -1.024778939488668
0.6001246276471393 -1.024778939488668
0.6001246276471393 -1.0043575757049823
0.5588516909584585 -1.0860430308397244
0.5726093365213522 -1.0860430308397244
0.5588516909584585 -1.10646439462341
0.6001246276471393 -1.10646439462341
0.6001246276471393 -1.0452003032723534
0.5726093365213522 -1.065621667056039
0.6001246276471393 -0.9839362119212969
0.6001246276471393 -0.9839362119212969
0.6001246276471393 -0.9635148481376113
0.6551552098987136 -1.065621667056039
0.6551552098987136 -1.065621667056039
0.6276399187729265 -1.024778939488668
0.6413975643358201 -1.0860430308397244
0.6276399187729265 -1.1268857584070955
0.6276399187729265 -1.065621667056039
0.6138822732100329 -1.10646439462341
0.6413975643358201 -1.065621667056039
0.6276399187729265 -1.024778939488668
0.6551552098987136 -1.0043575757049823
0.6689128554616072 -0.9430934843539258
0.6826705010245008 -0.9839362119212969
0.6551552098987136 -1.0043575757049823
0.6689128554616072 -1.0043575757049823
0.6689128554616072 -1.024778939488668
0.6689128554616072 -1.1268857584070955
0.6826705010245008 -1.10646439462341
0.6689128554616072 -1.10646439462341
0.6551552098987136 -1.065621667056039
0.6689128554616072 -1.0452003032723534
0.6551552098987136 -1.024778939488668
0.6964281465873944 -1.0043575757049823
0.7239434377131815 -0.9635148481376113
0.7239434377131815 -0.9839362119212969
0.7377010832760751 -1.0043575757049823
0.7652163744018623 -1.024778939488668
0.7377010832760751 -1.10646439462341
0.7239434377131815 -1.0860430308397244
0.710185792150288 -1.0860430308397244
0.710185792150288 -1.10646439462341
0.710185792150288 -1.10646439462341
0.7514587288389687 -1.10646439462341
0.7377010832760751 -1.065621667056039
0.7652163744018623 -1.024778939488668
0.7927316655276494 -0.9839362119212969
0.7927316655276494 -0.9839362119212969
0.8202469566534366 -1.0452003032723534
0.8202469566534366 -1.0452003032723534
0.8202469566534366 -1.065621667056039
0.8202469566534366 -1.147307122190781
0.806489311090543 -1.1268857584070955
0.8202469566534366 -1.10646439462341
0.8615198933421173 -1.10646439462341
0.8340046022163302 -1.10646439462341
0.8890351844679045 -1.10646439462341
0.9165504755936916 -1.10646439462341
0.9578234122823724 -1.065621667056039
0.971581057845266 -1.065621667056039
0.9578234122823724 -1.0860430308397244
0.971581057845266 -1.065621667056039
0.9440657667194788 -1.0860430308397244
0.9303081211565852 -1.147307122190781
0.9165504755936916 -1.147307122190781
0.9027928300307981 -1.2085712135418376
0.9578234122823724 -1.188149849758152
0.9440657667194788 -1.147307122190781
0.9853387034081595 -1.1268857584070955
0.9990963489710531 -1.1677284859744665
1.0266116400968404 -1.10646439462341
1.0541269312226276 -1.065621667056039
1.0678845767855212 -1.147307122190781
1.0678845767855212 -1.10646439462341
1.040369285659734 -1.1677284859744665
1.0266116400968404 -1.1268857584070955
0.971581057845266 -1.188149849758152
1.0266116400968404 -1.188149849758152
1.0266116400968404 -1.1677284859744665
1.0128539945339468 -1.1268857584070955
1.040369285659734 -1.0860430308397244
1.0541269312226276 -1.0452003032723534
1.0541269312226276 -1.0043575757049823
1.0541269312226276 -0.9839362119212969
1.040369285659734 -1.024778939488668
0.9853387034081595 -1.024778939488668
0.9578234122823724 -0.9839362119212969
0.8890351844679045 -1.024778939488668
0.806489311090543 -1.0043575757049823
0.7377010832760751 -1.0043575757049823
0.6551552098987136 -0.9635148481376113
0.6551552098987136 -0.9635148481376113
0.6276399187729265 -0.9226721205702403
0.6001246276471393 -0.9226721205702403
0.6001246276471393 -0.8614080292191838
0.5726093365213522 -0.8614080292191838
0.5450940453955649 -0.8818293930028693
0.476305817581097 -0.9022507567865548
0.4625481720182034 -0.9022507567865548
0.39375994420373556 -0.9635148481376113
0.3387293619521612 -0.9635148481376113
0.2836987797005869 -0.9430934843539258
0.2561834885747997 -0.9022507567865548
0.21491055188611896 -0.8818293930028693
0.2561834885747997 -0.8409866654354983
0.2561834885747997 -0.8614080292191838
0.24242584301190612 -0.8001439378681272
0.24242584301190612 -0.8001439378681272
0.21491055188611896 -0.8614080292191838
0.1736376151974382 -0.8409866654354983
0.18739526076033178 -0.8205653016518127
0.18739526076033178 -0.9022507567865548
0.14612232407165104 -0.9430934843539258
0.13236467850875747 -0.9022507567865548
0.13236467850875747 -0.8614080292191838
0.11860703294586387 -0.8818293930028693
0.1736376151974382 -0.8001439378681272
0.1736376151974382 -0.8001439378681272
0.20115290632322538 -0.8001439378681272
0.1736376151974382 -0.7797225740844417
0.21491055188611896 -0.7797225740844417
0.22866819744901254 -0.8205653016518127
0.22866819744901254 -0.8409866654354983
0.14612232407165104 -0.8614080292191838
0.1736376151974382 -0.8818293930028693
0.14612232407165104 -0.8614080292191838
0.13236467850875747 -0.8409866654354983
0.15987996963454462 -0.8614080292191838
0.18739526076033178 -0.8409866654354983
0.20115290632322538 -0.7797225740844417
0.24242584301190612 -0.7593012103007561
0.2561834885747997 -0.8001439378681272
0.29745642526348043 -0.8001439378681272
0.2561834885747997 -0.8205653016518127
0.2561834885747997 -0.8818293930028693
0.2699411341376933 -0.8409866654354983
0.2699411341376933 -0.9022507567865548
0.24242584301190612 -0.9022507567865548
0.24242584301190612 -0.8614080292191838
0.2699411341376933 -0.8614080292191838
0.24242584301190612 -0.8205653016518127
0.2836987797005869 -0.8409866654354983
0.29745642526348043 -0.7797225740844417
0.2836987797005869 -0.7797225740844417
0.32497171638926764 -0.8205653016518127
0.31121407082637403 -0.8409866654354983
0.29745642526348043 -0.8614080292191838
0.2836987797005869 -0.9022507567865548
0.2699411341376933 -0.9022507567865548
0.29745642526348043 -0.9430934843539258
0.2836987797005869 -0.9226721205702403
0.2836987797005869 -0.9022507567865548
0.31121407082637403 -0.8818293930028693
0.29745642526348043 -0.8205653016518127
0.32497171638926764 -0.8001439378681272
0.36624465307794835 -0.8001439378681272
0.3387293619521612 -0.8001439378681272
0.32497171638926764 -0.8818293930028693
0.29745642526348043 -0.8409866654354983
0.2836987797005869 -0.8818293930028693
0.2699411341376933 -0.9226721205702403
0.21491055188611896 -0.9226721205702403
0.22866819744901254 -0.8409866654354983
0.22866819744901254 -0.8818293930028693
0.2699411341376933 -0.8409866654354983
0.2561834885747997 -0.7593012103007561
0.2836987797005869 -0.8001439378681272
0.29745642526348043 -0.7593012103007561
0.2836987797005869 -0.7797225740844417
0.2836987797005869 -0.7184584827333852
0.24242584301190612 -0.7797225740844417
0.22866819744901254 -0.7797225740844417
0.20115290632322538 -0.7388798465170706
0.24242584301190612 -0.7388798465170706
0.21491055188611896 -0.6980371189496997
0.24242584301190612 -0.6367730275986431
0.2836987797005869 -0.6367730275986431
0.2699411341376933 -0.595930300031272
0.3387293619521612 -0.5755089362475866
0.39375994420373556 -0.5346662086802155
0.36624465307794835 -0.6163516638149575
0.36624465307794835 -0.6163516638149575
0.4075175897666291 -0.6776157551660141
0.4625481720182034 -0.7797225740844417
0.44879052645530987 -0.8409866654354983
0.4625481720182034 -0.8614080292191838
0.5588516909584585 -0.8409866654354983
0.6138822732100329 -0.8001439378681272
0.6276399187729265 -0.7593012103007561
0.6413975643358201 -0.7388798465170706
0.6551552098987136 -0.7388798465170706
0.6551552098987136 -0.7184584827333852
0.6138822732100329 -0.7388798465170706
0.6138822732100329 -0.7388798465170706
0.5588516909584585 -0.8001439378681272
0.5588516909584585 -0.8001439378681272
0.5588516909584585 -0.8001439378681272
0.5726093365213522 -0.8614080292191838
0.5863669820842456 -0.7797225740844417
0.49006346314399063 -0.8205653016518127
0.49006346314399063 -0.8614080292191838
0.476305817581097 -0.8001439378681272
0.44879052645530987 -0.7797225740844417
0.36624465307794835 -0.7797225740844417
0.3387293619521612 -0.8205653016518127
0.2836987797005869 -0.8409866654354983
0.21491055188611896 -0.8614080292191838
0.1736376151974382 -0.9226721205702403
0.14612232407165104 -0.9226721205702403
0.13236467850875747 -0.9430934843539258
0.13236467850875747 -0.9022507567865548
0.14612232407165104 -0.9022507567865548
0.13236467850875747 -0.8614080292191838
0.20115290632322538 -0.8409866654354983
0.1736376151974382 -0.8001439378681272
0.15987996963454462 -0.7797225740844417
0.13236467850875747 -0.8001439378681272
0.13236467850875747 -0.8614080292191838
0.0910917418200767 -0.9022507567865548
0.07733409625718313 -0.9022507567865548
0.0910917418200767 -0.9226721205702403
0.06357645069428955 -0.9430934843539258
0.04981880513139596 -0.8818293930028693
0.04981880513139596 -0.9022507567865548
0.04981880513139596 -0.8205653016518127
0.06357645069428955 -0.8205653016518127
0.0910917418200767 -0.7797225740844417
0.13236467850875747 -0.8001439378681272
0.13236467850875747 -0.8614080292191838
0.11860703294586387 -0.8205653016518127
0.11860703294586387 -0.8614080292191838
0.11860703294586387 -0.9022507567865548
0.1048493873829703 -0.9022507567865548
0.1048493873829703 -0.8818293930028693
0.1048493873829703 -0.8614080292191838
0.1048493873829703 -0.8409866654354983
0.14612232407165104 -0.8001439378681272
0.18739526076033178 -0.7388798465170706
