-0.41582262942120046 0.48433919979572115
-0.44900900282926853 0.46611454858334733
-0.4324158161252345 0.48433919979572115
-0.4324158161252345 0.44788989737097346
-0.4821953762373366 0.44788989737097346
-0.44900900282926853 0.48433919979572115
-0.3992294427171664 0.48433919979572115
-0.36604306930909836 0.48433919979572115
-0.36604306930909836 0.5936871070699643
-0.3992294427171664 0.6848103631318335
-0.36604306930909836 0.739484316768955
-0.3992294427171664 0.7577089679813289
-0.36604306930909836 0.7030350143442073
-0.41582262942120046 0.6483610607070858
-0.4324158161252345 0.5572378046452166
-0.44900900282926853 0.48433919979572115
-0.3992294427171664 0.46611454858334733
-0.41582262942120046 0.502563851008095
-0.3992294427171664 0.5207885022204689
-0.3992294427171664 0.502563851008095
-0.3826362560131324 0.502563851008095
-0.3494498826050643 0.37499129252147806
-0.3494498826050643 0.28386803645960884
-0.29967032249296216 0.265643385247235
-0.3494498826050643 0.28386803645960884
-0.3162635091969962 0.37499129252147806
-0.3826362560131324 0.502563851008095
-0.3992294427171664 0.6119117582823381
-0.41582262942120046 0.6848103631318335
-0.3992294427171664 0.7941582704060766
-0.36604306930909836 0.8306075728308243
-0.33285669590103023 0.7030350143442073
-0.2830771357889281 0.502563851008095
-0.24989076238086005 0.28386803645960884
-0.2830771357889281 0.21096943161011344
-0.33285669590103023 0.1927447803977396
-0.3494498826050643 0.24741873403486114
-0.3992294427171664 0.33854199009673036
-0.4324158161252345 0.48433919979572115
-0.41582262942120046 0.5207885022204689
-0.3992294427171664 0.5754624558575904
-0.3992294427171664 0.6119117582823381
-0.29967032249296216 0.6119117582823381
-0.23329757567682602 0.6119117582823381
-0.24989076238086005 0.5390131534328427
-0.2664839490848941 0.46611454858334733
-0.2830771357889281 0.46611454858334733
-0.3162635091969962 0.5390131534328427
-0.3162635091969962 0.5572378046452166
-0.36604306930909836 0.6483610607070858
-0.3992294427171664 0.6848103631318335
-0.33285669590103023 0.6848103631318335
-0.3162635091969962 0.630136409494712
-0.3162635091969962 0.6119117582823381
-0.3162635091969962 0.5572378046452166
-0.3162635091969962 0.502563851008095
-0.29967032249296216 0.46611454858334733
-0.2664839490848941 0.502563851008095
-0.2664839490848941 0.502563851008095
-0.2664839490848941 0.5207885022204689
-0.29967032249296216 0.502563851008095
-0.2830771357889281 0.46611454858334733
-0.29967032249296216 0.46611454858334733
-0.2664839490848941 0.48433919979572115
-0.24989076238086005 0.5572378046452166
-0.23329757567682602 0.6119117582823381
-0.16692482886068985 0.739484316768955
-0.16692482886068985 0.7577089679813289
-0.13373845545262178 0.7577089679813289
-0.1005520820445537 0.7030350143442073
-0.1005520820445537 0.630136409494712
-0.1005520820445537 0.46611454858334733
-0.1005520820445537 0.42966524615859963
-0.08395889534051965 0.39321594373385194
-0.03417933522841753 0.39321594373385194
-0.03417933522841753 0.5390131534328427
-0.01758614852438349 0.6119117582823381
-0.01758614852438349 0.6483610607070858
0.04878659829175267 0.5572378046452166
0.0985661584038548 0.41144059494622576
0.0985661584038548 0.3020926876719827
0.11515934510788883 0.21096943161011344
0.181532091924025 0.24741873403486114
0.19812527862805904 0.28386803645960884
0.13175253181192287 0.33854199009673036
0.13175253181192287 0.44788989737097346
0.0985661584038548 0.5390131534328427
0.06537978499578671 0.6119117582823381
0.04878659829175267 0.6119117582823381
0.01560022488368459 0.5754624558575904
-0.01758614852438349 0.5572378046452166
0.01560022488368459 0.5572378046452166
-0.0009929618203494508 0.5572378046452166
0.03219341158771863 0.630136409494712
-0.03417933522841753 0.6848103631318335
-0.06736570863648561 0.7030350143442073
-0.11714526874858773 0.6665857119194596
-0.21670438897279198 0.6848103631318335
-0.2664839490848941 0.6848103631318335
-0.2830771357889281 0.6848103631318335
-0.3162635091969962 0.7212596655565812
-0.3494498826050643 0.7212596655565812
-0.29967032249296216 0.7212596655565812
-0.33285669590103023 0.7212596655565812
-0.29967032249296216 0.7030350143442073
-0.2664839490848941 0.7212596655565812
-0.2830771357889281 0.630136409494712
-0.23329757567682602 0.6119117582823381
-0.2664839490848941 0.5572378046452166
-0.29967032249296216 0.502563851008095
-0.2830771357889281 0.5390131534328427
-0.29967032249296216 0.5936871070699643
-0.29967032249296216 0.7577089679813289
-0.2664839490848941 0.9217308288926935
-0.24989076238086005 1.0128540849545626
-0.23329757567682602 1.0310787361669367
-0.20011120226875792 0.9399554801050674
-0.18351801556472389 0.6848103631318335
-0.20011120226875792 0.39321594373385194
-0.20011120226875792 0.010498268274001136
-0.15033164215665581 -0.44511801203534507
-0.08395889534051965 -0.9007342923446913
0.08197297169982075 -1.4474738287159066
0.33087077226033135 -2.0488873187242436
0.6793276930450463 -2.6320761575202067
1.0941573606458972 -3.0330184841924313
1.5089870282467481 -3.21526499631617
1.9570030692556672 -3.1788156938914223
2.3220531767444164 -2.796098018431571
2.604137350712995 -2.26758313327273
2.7534760310493014 -1.6297203408396452
2.8530351512735055 -1.1012054556808035
2.9525942714977096 -0.7002631290085789
3.0023738316098116 -0.335770104761102
3.101932951834016 -0.02595103415074656
2.9857806449057778 0.265643385247235
2.786662404457369 0.5572378046452166
2.5543577906008927 0.8488322240431981
2.288866803336348 0.9946294337421889
1.9404098825516332 1.0857526898040581
1.5919529617669184 1.1222019922288058
1.1605301074620333 1.0857526898040581
0.8286663733813525 1.0675280385916843
0.4802094525966377 1.103977341016432
0.21471846533209307 1.1222019922288058
-0.0009929618203494508 1.1768759458659273
-0.1005520820445537 1.1222019922288058
-0.16692482886068985 1.0310787361669367
-0.20011120226875792 0.976404782529815
-0.24989076238086005 0.9399554801050674
-0.18351801556472389 0.9217308288926935
-0.21670438897279198 0.9399554801050674
-0.15033164215665581 1.0857526898040581
-0.13373845545262178 1.1404266434411796
-0.1005520820445537 1.2133252482906751
-0.08395889534051965 1.1951005970783013
-0.15033164215665581 1.1586512946535534
-0.15033164215665581 1.103977341016432
-0.16692482886068985 1.1586512946535534
-0.18351801556472389 1.1586512946535534
-0.18351801556472389 1.1951005970783013
-0.15033164215665581 1.1768759458659273
-0.16692482886068985 1.103977341016432
-0.16692482886068985 1.0310787361669367
-0.1005520820445537 1.0493033873793105
-0.08395889534051965 1.103977341016432
-0.08395889534051965 1.2497745507154228
-0.05077252193245157 1.340897806777292
-0.06736570863648561 1.340897806777292
-0.06736570863648561 1.2679992019277966
-0.11714526874858773 1.1404266434411796
-0.08395889534051965 1.0128540849545626
-0.11714526874858773 0.9946294337421889
-0.06736570863648561 1.0310787361669367
-0.05077252193245157 1.1586512946535534
-0.03417933522841753 1.2862238531401704
-0.01758614852438349 1.2862238531401704
-0.0009929618203494508 1.2497745507154228
-0.0009929618203494508 1.1586512946535534
-0.03417933522841753 1.1586512946535534
0.01560022488368459 1.1404266434411796
-0.05077252193245157 1.1222019922288058
-0.06736570863648561 1.1768759458659273
-0.06736570863648561 1.1586512946535534
-0.03417933522841753 1.2497745507154228
-0.03417933522841753 1.231549899503049
0.03219341158771863 1.2679992019277966
0.04878659829175267 1.231549899503049
0.04878659829175267 1.2862238531401704
0.08197297169982075 1.2862238531401704
0.04878659829175267 1.322673155564918
0.03219341158771863 1.322673155564918
0.03219341158771863 1.3044485043525442
-0.0009929618203494508 1.340897806777292
0.01560022488368459 1.3044485043525442
-0.03417933522841753 1.2862238531401704
0.03219341158771863 1.322673155564918
0.03219341158771863 1.340897806777292
0.08197297169982075 1.322673155564918
0.08197297169982075 1.340897806777292
0.0985661584038548 1.340897806777292
0.08197297169982075 1.2497745507154228
0.04878659829175267 1.1586512946535534
0.0985661584038548 1.2497745507154228
0.08197297169982075 1.3044485043525442
0.04878659829175267 1.359122457989666
0.06537978499578671 1.3773471092020397
0.08197297169982075 1.3955717604144136
0.08197297169982075 1.340897806777292
0.13175253181192287 1.2862238531401704
0.1483457185159569 1.2862238531401704
0.181532091924025 1.2862238531401704
0.16493890521999094 1.359122457989666
0.21471846533209307 1.359122457989666
0.181532091924025 1.322673155564918
0.16493890521999094 1.322673155564918
0.181532091924025 1.2679992019277966
0.19812527862805904 1.2679992019277966
0.21471846533209307 1.2679992019277966
0.1483457185159569 1.2862238531401704
0.181532091924025 1.322673155564918
0.19812527862805904 1.2862238531401704
0.16493890521999094 1.322673155564918
0.24790483874016114 1.2862238531401704
0.28109121214822924 1.359122457989666
0.28109121214822924 1.322673155564918
0.2976843988522633 1.359122457989666
0.24790483874016114 1.359122457989666
0.24790483874016114 1.3044485043525442
0.181532091924025 1.340897806777292
0.16493890521999094 1.322673155564918
0.1483457185159569 1.3044485043525442
0.11515934510788883 1.3044485043525442
0.13175253181192287 1.2862238531401704
0.13175253181192287 1.340897806777292
0.19812527862805904 1.3773471092020397
0.181532091924025 1.450245714051535
0.16493890521999094 1.3773471092020397
0.13175253181192287 1.340897806777292
0.11515934510788883 1.340897806777292
0.11515934510788883 1.3044485043525442
0.03219341158771863 1.322673155564918
-0.03417933522841753 1.2679992019277966
-0.08395889534051965 1.231549899503049
-0.06736570863648561 1.2133252482906751
-0.13373845545262178 1.2497745507154228
-0.11714526874858773 1.3044485043525442
-0.11714526874858773 1.3955717604144136
-0.16692482886068985 1.4137964116267874
-0.11714526874858773 1.4137964116267874
-0.15033164215665581 1.3955717604144136
-0.20011120226875792 1.359122457989666
-0.2664839490848941 1.3773471092020397
-0.33285669590103023 1.359122457989666
-0.36604306930909836 1.340897806777292
-0.3992294427171664 1.359122457989666
-0.3992294427171664 1.340897806777292
-0.4324158161252345 1.4320210628391612
-0.41582262942120046 1.4320210628391612
-0.41582262942120046 1.450245714051535
-0.3992294427171664 1.5231443189010305
-0.3826362560131324 1.4684703652639088
-0.3992294427171664 1.5049196676886567
-0.41582262942120046 1.5049196676886567
-0.4324158161252345 1.5049196676886567
-0.44900900282926853 1.5049196676886567
-0.44900900282926853 1.5049196676886567
-0.5153817496454047 1.4684703652639088
-0.5485681230534728 1.5231443189010305
-0.5153817496454047 1.5049196676886567
-0.49878856294137064 1.5049196676886567
-0.4821953762373366 1.4866950164762827
-0.44900900282926853 1.5595936213257782
-0.44900900282926853 1.5231443189010305
-0.4324158161252345 1.5049196676886567
-0.44900900282926853 1.5049196676886567
-0.4324158161252345 1.4866950164762827
-0.4821953762373366 1.5231443189010305
-0.49878856294137064 1.4684703652639088
-0.49878856294137064 1.5231443189010305
-0.5485681230534728 1.6507168773876475
-0.5485681230534728 1.6871661798123951
-0.5319749363494387 1.6689415286000213
-0.5153817496454047 1.6689415286000213
-0.5319749363494387 1.5960429237505258
-0.5319749363494387 1.5413689701134043
-0.5153817496454047 1.5595936213257782
-0.5817544964615409 1.5960429237505258
-0.5651613097575068 1.5595936213257782
-0.5319749363494387 1.5960429237505258
-0.5817544964615409 1.5960429237505258
-0.6149408698696089 1.577818272538152
-0.6647204299817111 1.6324922261752735
-0.631534056573643 1.6689415286000213
-0.6149408698696089 1.705390831024769
-0.5983476831655749 1.7418401334495166
-0.5983476831655749 1.7418401334495166
-0.5983476831655749 1.7418401334495166
-0.5817544964615409 1.7236154822371428
-0.5817544964615409 1.6507168773876475
-0.5817544964615409 1.6324922261752735
-0.6149408698696089 1.577818272538152
-0.648127243277677 1.577818272538152
-0.6647204299817111 1.5595936213257782
-0.648127243277677 1.5960429237505258
-0.631534056573643 1.6871661798123951
-0.5817544964615409 1.6871661798123951
-0.5817544964615409 1.7600647846618904
-0.5485681230534728 1.7782894358742642
-0.49878856294137064 1.7418401334495166
-0.5817544964615409 1.7600647846618904
-0.5485681230534728 1.7418401334495166
-0.5817544964615409 1.7236154822371428
-0.5983476831655749 1.6689415286000213
-0.631534056573643 1.6689415286000213
-0.631534056573643 1.6507168773876475
-0.6149408698696089 1.6689415286000213
-0.6647204299817111 1.7236154822371428
-0.5651613097575068 1.7236154822371428
-0.5319749363494387 1.7418401334495166
-0.5485681230534728 1.796514087086638
-0.5319749363494387 1.7782894358742642
-0.4821953762373366 1.7418401334495166
-0.49878856294137064 1.7236154822371428
-0.46560218953330257 1.7418401334495166
-0.5153817496454047 1.7236154822371428
-0.5485681230534728 1.705390831024769
-0.5651613097575068 1.7418401334495166
-0.5817544964615409 1.705390831024769
-0.5817544964615409 1.7418401334495166
-0.5485681230534728 1.7418401334495166
-0.5319749363494387 1.796514087086638
-0.5153817496454047 1.832963389511386
-0.44900900282926853 1.814738738299012
-0.4324158161252345 1.814738738299012
-0.4324158161252345 1.796514087086638
-0.46560218953330257 1.796514087086638
-0.46560218953330257 1.7600647846618904
-0.5319749363494387 1.7418401334495166
-0.5485681230534728 1.832963389511386
-0.5485681230534728 1.8511880407237598
-0.5153817496454047 1.8511880407237598
-0.49878856294137064 1.8511880407237598
-0.46560218953330257 1.814738738299012
-0.4821953762373366 1.796514087086638
-0.44900900282926853 1.796514087086638
-0.4324158161252345 1.796514087086638
-0.4324158161252345 1.814738738299012
-0.44900900282926853 1.7782894358742642
-0.4821953762373366 1.814738738299012
-0.49878856294137064 1.7782894358742642
-0.5319749363494387 1.7782894358742642
-0.5485681230534728 1.832963389511386
-0.5319749363494387 1.8511880407237598
-0.5153817496454047 1.924086645573255
-0.46560218953330257 1.960535947998003
-0.44900900282926853 1.960535947998003
-0.46560218953330257 1.9058619943608812
-0.46560218953330257 1.9058619943608812
-0.44900900282926853 1.796514087086638
-0.4821953762373366 1.814738738299012
-0.5153817496454047 1.796514087086638
-0.5153817496454047 1.8511880407237598
-0.5485681230534728 1.8511880407237598
-0.5651613097575068 1.8511880407237598
-0.5485681230534728 1.8694126919361336
-0.4821953762373366 1.924086645573255
-0.46560218953330257 1.924086645573255
-0.41582262942120046 1.960535947998003
-0.4324158161252345 1.960535947998003
-0.3992294427171664 1.9969852504227505
-0.46560218953330257 1.960535947998003
-0.4324158161252345 1.8694126919361336
-0.44900900282926853 1.814738738299012
-0.4821953762373366 1.7782894358742642
-0.46560218953330257 1.796514087086638
-0.4821953762373366 1.814738738299012
-0.4324158161252345 1.8511880407237598
-0.46560218953330257 1.9423112967856289
-0.4324158161252345 1.9058619943608812
-0.4324158161252345 1.960535947998003
-0.41582262942120046 1.9423112967856289
-0.3992294427171664 1.960535947998003
-0.41582262942120046 1.9423112967856289
-0.41582262942120046 1.9058619943608812
-0.4324158161252345 1.9058619943608812
-0.46560218953330257 1.8876373431485074
-0.4821953762373366 1.9058619943608812
-0.46560218953330257 1.8876373431485074
-0.4821953762373366 1.9423112967856289
-0.4821953762373366 1.960535947998003
-0.46560218953330257 2.0152099016351244
-0.3992294427171664 2.0152099016351244
-0.41582262942120046 1.9787605992103767
-0.3826362560131324 2.0152099016351244
-0.36604306930909836 1.9969852504227505
-0.41582262942120046 2.051659204059872
-0.4324158161252345 2.033434552847498
-0.4324158161252345 1.9787605992103767
-0.4821953762373366 1.9423112967856289
-0.4821953762373366 1.9058619943608812
-0.46560218953330257 1.924086645573255
-0.4821953762373366 1.960535947998003
-0.44900900282926853 1.9423112967856289
-0.41582262942120046 1.9969852504227505
-0.3826362560131324 2.069883855272246
-0.36604306930909836 2.0881085064846197
-0.3826362560131324 2.033434552847498
-0.3992294427171664 1.960535947998003
-0.44900900282926853 1.924086645573255
-0.44900900282926853 1.9058619943608812
-0.4821953762373366 1.960535947998003
-0.46560218953330257 1.960535947998003
-0.44900900282926853 2.0152099016351244
-0.3992294427171664 1.9787605992103767
-0.41582262942120046 1.924086645573255
-0.3826362560131324 1.924086645573255
-0.33285669590103023 1.9787605992103767
-0.33285669590103023 1.9969852504227505
-0.33285669590103023 2.033434552847498
-0.33285669590103023 2.0152099016351244
-0.36604306930909836 2.033434552847498
-0.41582262942120046 2.051659204059872
-0.3992294427171664 2.0881085064846197
-0.3826362560131324 2.0881085064846197
-0.33285669590103023 2.1063331576969935
-0.33285669590103023 2.1245578089093673
-0.20011120226875792 2.1063331576969935
-0.18351801556472389 2.161007111334115
-0.21670438897279198 2.1063331576969935
-0.15033164215665581 2.069883855272246
-0.08395889534051965 2.069883855272246
-0.1005520820445537 1.960535947998003
-0.06736570863648561 1.9058619943608812
-0.06736570863648561 1.8511880407237598
-0.03417933522841753 1.832963389511386
-0.03417933522841753 1.8511880407237598
-0.01758614852438349 1.814738738299012
0.01560022488368459 1.8511880407237598
0.08197297169982075 1.832963389511386
0.11515934510788883 1.8876373431485074
0.13175253181192287 1.8694126919361336
0.13175253181192287 1.8876373431485074
0.0985661584038548 1.9058619943608812
0.04878659829175267 1.8876373431485074
0.04878659829175267 1.8511880407237598
-0.01758614852438349 1.8694126919361336
-0.0009929618203494508 1.8511880407237598
-0.06736570863648561 1.9423112967856289
-0.1005520820445537 1.9787605992103767
-0.03417933522841753 2.0881085064846197
-0.06736570863648561 2.0881085064846197
-0.06736570863648561 2.161007111334115
-0.05077252193245157 2.142782460121741
-0.05077252193245157 2.1245578089093673
-0.06736570863648561 2.069883855272246
-0.13373845545262178 2.0881085064846197
-0.20011120226875792 2.051659204059872
-0.3162635091969962 2.1063331576969935
-0.36604306930909836 2.142782460121741
-0.3826362560131324 2.161007111334115
-0.3826362560131324 2.197456413758863
-0.3826362560131324 2.197456413758863
-0.3494498826050643 2.215681064971237
-0.33285669590103023 2.2339057161836107
-0.29967032249296216 2.1792317625464888
-0.2830771357889281 2.1792317625464888
-0.3162635091969962 2.1063331576969935
-0.3494498826050643 2.1063331576969935
-0.33285669590103023 2.0881085064846197
-0.3992294427171664 2.1063331576969935
-0.41582262942120046 2.142782460121741
-0.41582262942120046 2.2339057161836107
-0.41582262942120046 2.2703550186083583
-0.2830771357889281 2.3250289722454798
-0.2830771357889281 2.2703550186083583
-0.24989076238086005 2.2339057161836107
-0.24989076238086005 2.069883855272246
-0.20011120226875792 1.7418401334495166
-0.16692482886068985 1.2497745507154228
-0.06736570863648561 0.630136409494712
0.08197297169982075 -0.0806249877878681
0.3474639589643654 -0.7913863850704481
0.6461413196369781 -1.4656984799282804
1.0443778005337951 -1.884865457812879
1.4923938415427143 -2.1582352259984865
1.9238166958475993 -2.0488873187242436
2.272273616632314 -1.7755175505386358
2.537764603896859 -1.2652273165921681
2.7036964709371993 -0.6820384777962051
2.8032555911614034 -0.1170742902126158
2.919407898089642 0.41144059494622576
3.0023738316098116 0.9035061776803196
3.052153391721914 1.322673155564918
2.9525942714977096 1.6324922261752735
2.8530351512735055 1.8694126919361336
2.587544164008961 2.1245578089093673
2.355239550152484 2.2521303673959845
2.1229349362960077 2.306804321033106
1.874037135735497 2.3432536234578536
1.5255802149507822 2.3432536234578536
1.2269028542781695 2.3432536234578536
0.8452595600853866 2.397927577094975
0.5465821994127739 2.397927577094975
0.2313116520361271 2.416152228307349
0.03219341158771863 2.416152228307349
-0.11714526874858773 2.3797029258826012
-0.21670438897279198 2.397927577094975
-0.2830771357889281 2.4708261819444703
-0.2830771357889281 2.5072754843692184
-0.24989076238086005 2.489050833156844
-0.23329757567682602 2.56194943800634
-0.21670438897279198 2.5255001355815923
-0.15033164215665581 2.6166233916434614
-0.15033164215665581 2.5983987404310875
-0.15033164215665581 2.56194943800634
-0.15033164215665581 2.56194943800634
-0.20011120226875792 2.489050833156844
-0.23329757567682602 2.4526015307320965
-0.23329757567682602 2.416152228307349
-0.2664839490848941 2.416152228307349
-0.23329757567682602 2.489050833156844
-0.20011120226875792 2.489050833156844
-0.15033164215665581 2.5255001355815923
-0.08395889534051965 2.5801740892187137
-0.05077252193245157 2.5983987404310875
-0.03417933522841753 2.56194943800634
-0.06736570863648561 2.543724786793966
-0.08395889534051965 2.56194943800634
-0.11714526874858773 2.489050833156844
-0.08395889534051965 2.489050833156844
-0.16692482886068985 2.4526015307320965
-0.11714526874858773 2.489050833156844
-0.08395889534051965 2.4708261819444703
-0.08395889534051965 2.56194943800634
-0.03417933522841753 2.5801740892187137
-0.03417933522841753 2.653072694068209
-0.01758614852438349 2.634848042855835
-0.01758614852438349 2.6166233916434614
-0.03417933522841753 2.5801740892187137
-0.03417933522841753 2.543724786793966
-0.06736570863648561 2.5072754843692184
-0.11714526874858773 2.4708261819444703
-0.06736570863648561 2.489050833156844
-0.03417933522841753 2.4526015307320965
-0.03417933522841753 2.489050833156844
0.01560022488368459 2.5072754843692184
-0.03417933522841753 2.5801740892187137
0.03219341158771863 2.5801740892187137
0.04878659829175267 2.56194943800634
0.08197297169982075 2.5255001355815923
0.0985661584038548 2.489050833156844
0.04878659829175267 2.4708261819444703
0.03219341158771863 2.4526015307320965
0.03219341158771863 2.416152228307349
0.03219341158771863 2.4343768795197227
0.03219341158771863 2.489050833156844
0.06537978499578671 2.543724786793966
0.06537978499578671 2.56194943800634
0.0985661584038548 2.543724786793966
0.0985661584038548 2.6166233916434614
0.1483457185159569 2.6166233916434614
0.0985661584038548 2.653072694068209
0.16493890521999094 2.5801740892187137
0.1483457185159569 2.5801740892187137
0.11515934510788883 2.5255001355815923
0.11515934510788883 2.4526015307320965
0.0985661584038548 2.397927577094975
0.0985661584038548 2.397927577094975
0.0985661584038548 2.4526015307320965
0.1483457185159569 2.489050833156844
0.19812527862805904 2.543724786793966
0.19812527862805904 2.56194943800634
0.24790483874016114 2.6166233916434614
0.2644980254441952 2.5983987404310875
0.2313116520361271 2.5255001355815923
0.24790483874016114 2.5255001355815923
0.2644980254441952 2.4526015307320965
0.2313116520361271 2.4343768795197227
0.2313116520361271 2.4343768795197227
0.2313116520361271 2.4526015307320965
0.24790483874016114 2.4708261819444703
0.2644980254441952 2.489050833156844
0.2644980254441952 2.5255001355815923
0.3142775855562973 2.56194943800634
0.28109121214822924 2.56194943800634
0.2976843988522633 2.5255001355815923
0.2976843988522633 2.5255001355815923
0.2976843988522633 2.4708261819444703
0.28109121214822924 2.4343768795197227
0.2644980254441952 2.3797029258826012
0.24790483874016114 2.3614782746702274
0.24790483874016114 2.3614782746702274
0.24790483874016114 2.3797029258826012
0.24790483874016114 2.416152228307349
0.2313116520361271 2.4343768795197227
0.2644980254441952 2.416152228307349
0.24790483874016114 2.416152228307349
0.24790483874016114 2.3797029258826012
0.21471846533209307 2.397927577094975
0.16493890521999094 2.3614782746702274
0.1483457185159569 2.3432536234578536
0.04878659829175267 2.306804321033106
-0.0009929618203494508 2.3250289722454798
-0.01758614852438349 2.3614782746702274
-0.03417933522841753 2.3250289722454798
-0.03417933522841753 2.3614782746702274
-0.05077252193245157 2.397927577094975
-0.01758614852438349 2.3797029258826012
-0.05077252193245157 2.3250289722454798
-0.06736570863648561 2.3614782746702274
-0.11714526874858773 2.397927577094975
-0.16692482886068985 2.3614782746702274
-0.18351801556472389 2.306804321033106
-0.24989076238086005 2.3614782746702274
-0.2830771357889281 2.3432536234578536
-0.33285669590103023 2.3432536234578536
-0.3494498826050643 2.416152228307349
-0.3162635091969962 2.4526015307320965
-0.29967032249296216 2.4708261819444703
-0.2830771357889281 2.489050833156844
-0.29967032249296216 2.5072754843692184
-0.2664839490848941 2.4708261819444703
-0.33285669590103023 2.4708261819444703
-0.3494498826050643 2.3614782746702274
-0.41582262942120046 2.306804321033106
-0.3992294427171664 2.2703550186083583
-0.41582262942120046 2.2703550186083583
-0.4324158161252345 2.306804321033106
-0.41582262942120046 2.3432536234578536
-0.3826362560131324 2.397927577094975
-0.3826362560131324 2.416152228307349
-0.3826362560131324 2.4708261819444703
-0.3494498826050643 2.5072754843692184
-0.3494498826050643 2.489050833156844
-0.3826362560131324 2.4343768795197227
-0.41582262942120046 2.397927577094975
-0.41582262942120046 2.3614782746702274
-0.41582262942120046 2.3432536234578536
-0.44900900282926853 2.3797029258826012
-0.4324158161252345 2.416152228307349
-0.41582262942120046 2.4343768795197227
-0.44900900282926853 2.4526015307320965
-0.46560218953330257 2.416152228307349
-0.41582262942120046 2.4526015307320965
-0.4324158161252345 2.4343768795197227
-0.4324158161252345 2.4343768795197227
-0.44900900282926853 2.4343768795197227
-0.4821953762373366 2.397927577094975
-0.49878856294137064 2.4343768795197227
-0.5153817496454047 2.397927577094975
-0.5651613097575068 2.3797029258826012
-0.5485681230534728 2.4343768795197227
-0.5153817496454047 2.4343768795197227
-0.5319749363494387 2.4708261819444703
-0.5319749363494387 2.5072754843692184
-0.5319749363494387 2.543724786793966
-0.5153817496454047 2.5072754843692184
-0.5319749363494387 2.4708261819444703
-0.5485681230534728 2.4708261819444703
-0.5817544964615409 2.4708261819444703
-0.5817544964615409 2.4526015307320965
-0.5983476831655749 2.397927577094975
-0.5983476831655749 2.3797029258826012
-0.6149408698696089 2.3797029258826012
-0.648127243277677 2.416152228307349
-0.631534056573643 2.489050833156844
-0.5983476831655749 2.4708261819444703
-0.5983476831655749 2.4526015307320965
-0.5817544964615409 2.4708261819444703
-0.5651613097575068 2.4708261819444703
-0.5817544964615409 2.5072754843692184
-0.5817544964615409 2.416152228307349
-0.631534056573643 2.3797029258826012
-0.648127243277677 2.3432536234578536
-0.631534056573643 2.397927577094975
-0.648127243277677 2.3614782746702274
-0.631534056573643 2.397927577094975
-0.6149408698696089 2.4343768795197227
-0.5983476831655749 2.416152228307349
-0.5817544964615409 2.4343768795197227
-0.5485681230534728 2.3797029258826012
-0.5319749363494387 2.3797029258826012
-0.5485681230534728 2.3614782746702274
-0.5651613097575068 2.3250289722454798
-0.5983476831655749 2.288579669820732
-0.648127243277677 2.2339057161836107
-0.631534056573643 2.2521303673959845
-0.631534056573643 2.2703550186083583
-0.631534056573643 2.3250289722454798
-0.5651613097575068 2.397927577094975
-0.5485681230534728 2.3614782746702274
-0.5319749363494387 2.416152228307349
-0.4821953762373366 2.4343768795197227
-0.5153817496454047 2.4526015307320965
-0.46560218953330257 2.3797029258826012
-0.5319749363494387 2.3432536234578536
-0.5651613097575068 2.306804321033106
-0.5817544964615409 2.2703550186083583
-0.5817544964615409 2.2521303673959845
-0.5817544964615409 2.306804321033106
-0.5319749363494387 2.3797029258826012
-0.5983476831655749 2.3797029258826012
-0.5153817496454047 2.416152228307349
-0.4821953762373366 2.397927577094975
-0.44900900282926853 2.397927577094975
-0.4821953762373366 2.3250289722454798
-0.46560218953330257 2.288579669820732
-0.49878856294137064 2.2703550186083583
-0.5153817496454047 2.2703550186083583
-0.5485681230534728 2.2339057161836107
-0.5485681230534728 2.3250289722454798
-0.5817544964615409 2.2521303673959845
-0.5485681230534728 2.2703550186083583
-0.5153817496454047 2.288579669820732
-0.4821953762373366 2.2703550186083583
-0.49878856294137064 2.306804321033106
-0.46560218953330257 2.3614782746702274
-0.4821953762373366 2.3614782746702274
-0.44900900282926853 2.2703550186083583
-0.46560218953330257 2.1792317625464888
-0.49878856294137064 2.142782460121741
-0.46560218953330257 2.142782460121741
-0.5153817496454047 2.2521303673959845
-0.5651613097575068 2.3250289722454798
-0.5651613097575068 2.4343768795197227
-0.5485681230534728 2.5255001355815923
-0.5153817496454047 2.416152228307349
-0.4821953762373366 2.3432536234578536
-0.44900900282926853 2.161007111334115
-0.4821953762373366 2.1063331576969935
-0.49878856294137064 2.069883855272246
-0.4821953762373366 2.0881085064846197
-0.4821953762373366 2.1792317625464888
-0.4821953762373366 2.161007111334115
-0.46560218953330257 2.161007111334115
-0.49878856294137064 2.197456413758863
-0.46560218953330257 2.2703550186083583
-0.5153817496454047 2.288579669820732
-0.5319749363494387 2.3250289722454798
-0.49878856294137064 2.288579669820732
-0.46560218953330257 2.306804321033106
-0.44900900282926853 2.2339057161836107
-0.46560218953330257 2.161007111334115
-0.46560218953330257 2.1063331576969935
-0.4821953762373366 2.0881085064846197
-0.4821953762373366 2.069883855272246
-0.5153817496454047 2.1063331576969935
-0.4821953762373366 2.1063331576969935
-0.46560218953330257 2.161007111334115
-0.44900900282926853 2.1792317625464888
-0.41582262942120046 2.215681064971237
-0.3992294427171664 2.2703550186083583
-0.36604306930909836 2.215681064971237
-0.3826362560131324 2.215681064971237
-0.36604306930909836 2.197456413758863
-0.41582262942120046 2.1245578089093673
-0.49878856294137064 2.0881085064846197
-0.46560218953330257 2.069883855272246
-0.46560218953330257 2.051659204059872
-0.44900900282926853 2.033434552847498
-0.4324158161252345 2.1063331576969935
-0.4324158161252345 2.1063331576969935
-0.4324158161252345 2.142782460121741
-0.3992294427171664 2.161007111334115
-0.3992294427171664 2.197456413758863
-0.3992294427171664 2.161007111334115
-0.3826362560131324 2.161007111334115
-0.36604306930909836 2.1063331576969935
-0.3826362560131324 2.1063331576969935
-0.3826362560131324 2.051659204059872
-0.36604306930909836 2.051659204059872
-0.3826362560131324 2.0152099016351244
-0.3992294427171664 2.051659204059872
-0.3992294427171664 2.069883855272246
-0.3162635091969962 2.1245578089093673
-0.33285669590103023 2.142782460121741
-0.2830771357889281 2.1792317625464888
-0.29967032249296216 2.197456413758863
-0.2664839490848941 2.161007111334115
-0.29967032249296216 2.1792317625464888
-0.33285669590103023 2.0881085064846197
-0.33285669590103023 2.069883855272246
-0.3162635091969962 2.0881085064846197
-0.29967032249296216 2.069883855272246
-0.3494498826050643 2.1245578089093673
-0.24989076238086005 2.161007111334115
-0.23329757567682602 2.142782460121741
-0.16692482886068985 2.161007111334115
-0.05077252193245157 2.161007111334115
-0.06736570863648561 2.0881085064846197
-0.05077252193245157 2.051659204059872
-0.03417933522841753 2.033434552847498
-0.03417933522841753 1.924086645573255
-0.03417933522841753 1.832963389511386
0.04878659829175267 1.796514087086638
0.04878659829175267 1.7782894358742642
0.04878659829175267 1.7600647846618904
0.08197297169982075 1.796514087086638
0.1483457185159569 1.832963389511386
0.19812527862805904 1.814738738299012
0.24790483874016114 1.814738738299012
0.16493890521999094 1.832963389511386
0.1483457185159569 1.7782894358742642
0.13175253181192287 1.7236154822371428
0.08197297169982075 1.705390831024769
0.08197297169982075 1.7236154822371428
0.08197297169982075 1.7418401334495166
0.04878659829175267 1.832963389511386
0.03219341158771863 1.9423112967856289
0.01560022488368459 2.069883855272246
-0.03417933522841753 2.033434552847498
0.01560022488368459 2.1245578089093673
0.01560022488368459 2.1063331576969935
-0.0009929618203494508 1.9787605992103767
-0.03417933522841753 1.9423112967856289
-0.11714526874858773 1.8694126919361336
-0.15033164215665581 1.832963389511386
-0.2830771357889281 1.814738738299012
-0.29967032249296216 1.796514087086638
-0.36604306930909836 1.8511880407237598
-0.3494498826050643 1.8511880407237598
-0.3494498826050643 1.8876373431485074
-0.3162635091969962 1.924086645573255
-0.2830771357889281 1.960535947998003
-0.24989076238086005 1.9423112967856289
-0.24989076238086005 1.9423112967856289
-0.24989076238086005 1.9058619943608812
-0.24989076238086005 1.8876373431485074
-0.2664839490848941 1.8511880407237598
-0.3162635091969962 1.8876373431485074
-0.29967032249296216 1.9058619943608812
-0.3162635091969962 1.9787605992103767
-0.2830771357889281 2.0152099016351244
-0.29967032249296216 2.051659204059872
-0.24989076238086005 1.9423112967856289
-0.23329757567682602 1.7782894358742642
-0.18351801556472389 1.5049196676886567
-0.13373845545262178 1.0128540849545626
-0.05077252193245157 0.41144059494622576
0.11515934510788883 -0.2628714999116066
0.3142775855562973 -0.9918575484065605
0.596361759524876 -1.7026189456891405
0.9614118670136249 -2.2858077844851037
1.2932756010943056 -2.6685254599449544
1.6251393351749865 -2.7414240647944497
1.9570030692556672 -2.5409529014583376
2.222494056520212 -2.103561272361365
2.3884259235605523 -1.520372433565402
2.5045782304887907 -0.9189589435570651
2.5543577906008927 -0.37221940718584967
2.687103284233165 0.11984617554824421
2.8198487778654373 0.5207885022204689
2.8696283379775394 0.867056875255572
2.8696283379775394 1.1586512946535534
2.736882844345267 1.4320210628391612
2.537764603896859 1.6507168773876475
2.3220531767444164 1.814738738299012
2.0731553761839057 1.960535947998003
1.7578848288072588 1.9787605992103767
1.4758006548386802 2.0152099016351244
1.1107505473499313 1.9787605992103767
0.7788868132692505 1.924086645573255
0.49680263930067176 1.9423112967856289
0.24790483874016114 1.9423112967856289
-0.0009929618203494508 1.9423112967856289
-0.11714526874858773 1.9423112967856289
-0.23329757567682602 1.9423112967856289
-0.2664839490848941 1.9969852504227505
-0.2830771357889281 2.033434552847498
-0.2664839490848941 2.033434552847498
-0.21670438897279198 2.051659204059872
-0.23329757567682602 2.0881085064846197
-0.16692482886068985 2.0881085064846197
-0.13373845545262178 2.0881085064846197
-0.16692482886068985 2.1063331576969935
-0.20011120226875792 2.1063331576969935
-0.21670438897279198 2.0881085064846197
-0.24989076238086005 2.1063331576969935
-0.2664839490848941 2.0881085064846197
-0.2664839490848941 2.0881085064846197
-0.23329757567682602 1.9969852504227505
-0.18351801556472389 1.924086645573255
-0.15033164215665581 1.9787605992103767
-0.16692482886068985 1.9787605992103767
-0.15033164215665581 2.033434552847498
-0.18351801556472389 2.069883855272246
-0.16692482886068985 2.0881085064846197
-0.16692482886068985 2.0881085064846197
-0.16692482886068985 1.9969852504227505
-0.20011120226875792 2.0152099016351244
-0.21670438897279198 2.0152099016351244
-0.23329757567682602 1.9969852504227505
-0.21670438897279198 2.0152099016351244
-0.21670438897279198 1.9969852504227505
-0.18351801556472389 2.051659204059872
-0.11714526874858773 2.033434552847498
-0.05077252193245157 2.0152099016351244
-0.11714526874858773 2.051659204059872
-0.08395889534051965 2.033434552847498
-0.08395889534051965 1.9787605992103767
-0.1005520820445537 1.960535947998003
-0.13373845545262178 1.9969852504227505
-0.15033164215665581 1.9423112967856289
-0.16692482886068985 1.960535947998003
-0.15033164215665581 1.9969852504227505
-0.15033164215665581 2.0152099016351244
-0.06736570863648561 2.033434552847498
-0.06736570863648561 2.069883855272246
-0.05077252193245157 2.033434552847498
-0.06736570863648561 2.0152099016351244
-0.06736570863648561 1.9787605992103767
-0.06736570863648561 1.9058619943608812
-0.08395889534051965 1.9423112967856289
-0.11714526874858773 1.960535947998003
-0.08395889534051965 1.924086645573255
-0.08395889534051965 1.960535947998003
-0.06736570863648561 2.0152099016351244
-0.06736570863648561 1.924086645573255
-0.1005520820445537 1.960535947998003
-0.06736570863648561 1.9969852504227505
-0.0009929618203494508 2.0152099016351244
0.03219341158771863 1.9787605992103767
0.01560022488368459 1.9423112967856289
0.03219341158771863 1.9423112967856289
-0.0009929618203494508 1.8876373431485074
-0.05077252193245157 1.9058619943608812
-0.05077252193245157 1.8694126919361336
-0.03417933522841753 1.8876373431485074
-0.03417933522841753 1.8876373431485074
-0.0009929618203494508 1.960535947998003
0.03219341158771863 1.9969852504227505
-0.0009929618203494508 1.960535947998003
0.06537978499578671 1.960535947998003
0.04878659829175267 1.924086645573255
0.06537978499578671 1.9058619943608812
0.03219341158771863 1.8694126919361336
0.04878659829175267 1.832963389511386
0.04878659829175267 1.814738738299012
0.06537978499578671 1.832963389511386
0.0985661584038548 1.832963389511386
0.0985661584038548 1.8694126919361336
0.11515934510788883 1.8876373431485074
0.11515934510788883 1.9058619943608812
0.11515934510788883 1.8694126919361336
0.0985661584038548 1.8876373431485074
0.1483457185159569 1.8876373431485074
0.1483457185159569 1.8511880407237598
0.16493890521999094 1.814738738299012
0.1483457185159569 1.7418401334495166
0.11515934510788883 1.7236154822371428
0.11515934510788883 1.6871661798123951
0.08197297169982075 1.6507168773876475
0.06537978499578671 1.6871661798123951
0.04878659829175267 1.7418401334495166
0.0985661584038548 1.7418401334495166
0.08197297169982075 1.7782894358742642
0.0985661584038548 1.832963389511386
0.08197297169982075 1.7418401334495166
0.03219341158771863 1.7782894358742642
-0.0009929618203494508 1.6689415286000213
-0.01758614852438349 1.6142675749628996
-0.06736570863648561 1.5960429237505258
-0.11714526874858773 1.5595936213257782
-0.16692482886068985 1.5595936213257782
-0.18351801556472389 1.5960429237505258
-0.18351801556472389 1.6689415286000213
-0.16692482886068985 1.6689415286000213
-0.18351801556472389 1.7782894358742642
-0.16692482886068985 1.7600647846618904
-0.18351801556472389 1.7236154822371428
-0.24989076238086005 1.6689415286000213
-0.3162635091969962 1.5413689701134043
-0.36604306930909836 1.5231443189010305
-0.41582262942120046 1.4137964116267874
-0.4324158161252345 1.450245714051535
-0.4821953762373366 1.4684703652639088
-0.4821953762373366 1.5413689701134043
-0.44900900282926853 1.5413689701134043
-0.44900900282926853 1.6142675749628996
-0.44900900282926853 1.6142675749628996
-0.4324158161252345 1.6142675749628996
-0.46560218953330257 1.6507168773876475
-0.44900900282926853 1.6142675749628996
-0.5319749363494387 1.5595936213257782
-0.5485681230534728 1.5413689701134043
-0.5651613097575068 1.5595936213257782
-0.5817544964615409 1.5231443189010305
-0.631534056573643 1.5049196676886567
-0.6149408698696089 1.5413689701134043
-0.5651613097575068 1.5413689701134043
-0.5485681230534728 1.5413689701134043
-0.5319749363494387 1.577818272538152
-0.4821953762373366 1.5413689701134043
-0.4821953762373366 1.577818272538152
-0.49878856294137064 1.5595936213257782
-0.5319749363494387 1.5595936213257782
-0.5319749363494387 1.6142675749628996
-0.6149408698696089 1.4866950164762827
-0.5651613097575068 1.5231443189010305
-0.6149408698696089 1.5413689701134043
-0.5983476831655749 1.5231443189010305
-0.5983476831655749 1.5595936213257782
-0.5983476831655749 1.577818272538152
-0.5983476831655749 1.6142675749628996
-0.5651613097575068 1.6507168773876475
-0.5817544964615409 1.6689415286000213
-0.5817544964615409 1.6689415286000213
-0.5983476831655749 1.5595936213257782
-0.648127243277677 1.5960429237505258
-0.6647204299817111 1.5231443189010305
-0.7144999900938132 1.4866950164762827
-0.6979068033897792 1.5049196676886567
-0.7310931767978472 1.5049196676886567
-0.6979068033897792 1.5413689701134043
-0.6979068033897792 1.5960429237505258
-0.648127243277677 1.6689415286000213
-0.631534056573643 1.6507168773876475
-0.6647204299817111 1.6324922261752735
-0.6979068033897792 1.5595936213257782
-0.7144999900938132 1.4684703652639088
-0.7476863635018812 1.4866950164762827
-0.7642795502059153 1.4866950164762827
-0.7808727369099493 1.5231443189010305
-0.8140591103180175 1.5231443189010305
-0.8140591103180175 1.5595936213257782
-0.7974659236139834 1.5413689701134043
-0.7642795502059153 1.577818272538152
-0.7808727369099493 1.6142675749628996
-0.7310931767978472 1.5960429237505258
-0.7310931767978472 1.5231443189010305
-0.7476863635018812 1.4320210628391612
-0.7808727369099493 1.3773471092020397
-0.7974659236139834 1.322673155564918
-0.8306522970220515 1.359122457989666
-0.8306522970220515 1.3773471092020397
-0.8306522970220515 1.4137964116267874
-0.8306522970220515 1.4320210628391612
-0.7476863635018812 1.5049196676886567
-0.7642795502059153 1.5231443189010305
-0.7476863635018812 1.5049196676886567
-0.7310931767978472 1.5049196676886567
-0.7310931767978472 1.5413689701134043
-0.7144999900938132 1.5413689701134043
-0.7310931767978472 1.5049196676886567
-0.7476863635018812 1.450245714051535
-0.7642795502059153 1.340897806777292
-0.7974659236139834 1.322673155564918
-0.7974659236139834 1.322673155564918
-0.7808727369099493 1.340897806777292
-0.7974659236139834 1.3955717604144136
-0.7476863635018812 1.4137964116267874
-0.7144999900938132 1.450245714051535
-0.6647204299817111 1.4684703652639088
-0.648127243277677 1.3955717604144136
-0.6647204299817111 1.4137964116267874
-0.6813136166857451 1.4137964116267874
-0.7144999900938132 1.3773471092020397
-0.7642795502059153 1.340897806777292
-0.7476863635018812 1.359122457989666
-0.7974659236139834 1.322673155564918
-0.7310931767978472 1.2862238531401704
-0.7144999900938132 1.2679992019277966
-0.6813136166857451 1.2862238531401704
-0.6647204299817111 1.340897806777292
-0.6647204299817111 1.322673155564918
-0.631534056573643 1.359122457989666
-0.6149408698696089 1.322673155564918
-0.648127243277677 1.2862238531401704
-0.6979068033897792 1.3044485043525442
-0.6813136166857451 1.2862238531401704
-0.7310931767978472 1.2679992019277966
-0.7476863635018812 1.3044485043525442
-0.7310931767978472 1.3044485043525442
-0.6813136166857451 1.3044485043525442
-0.6647204299817111 1.322673155564918
-0.648127243277677 1.3773471092020397
-0.5983476831655749 1.3773471092020397
-0.5983476831655749 1.340897806777292
-0.5983476831655749 1.2862238531401704
-0.6149408698696089 1.2497745507154228
-0.5817544964615409 1.2133252482906751
-0.631534056573643 1.1586512946535534
-0.6647204299817111 1.1404266434411796
-0.648127243277677 1.231549899503049
-0.6647204299817111 1.2679992019277966
-0.6149408698696089 1.2679992019277966
-0.5983476831655749 1.2862238531401704
-0.5651613097575068 1.322673155564918
-0.5319749363494387 1.322673155564918
-0.5651613097575068 1.3044485043525442
-0.5153817496454047 1.2679992019277966
-0.5817544964615409 1.231549899503049
-0.5651613097575068 1.2133252482906751
-0.6149408698696089 1.1951005970783013
-0.631534056573643 1.1586512946535534
-0.648127243277677 1.1586512946535534
-0.6647204299817111 1.1586512946535534
-0.6647204299817111 1.2133252482906751
-0.5983476831655749 1.2133252482906751
-0.5817544964615409 1.1951005970783013
-0.5485681230534728 1.2862238531401704
-0.5319749363494387 1.2679992019277966
-0.5817544964615409 1.2679992019277966
-0.6149408698696089 1.2679992019277966
-0.6149408698696089 1.1768759458659273
-0.6149408698696089 1.1222019922288058
-0.6149408698696089 1.0857526898040581
-0.6149408698696089 1.103977341016432
-0.6149408698696089 1.0857526898040581
-0.5983476831655749 1.1951005970783013
-0.5485681230534728 1.1951005970783013
-0.5485681230534728 1.2133252482906751
-0.5319749363494387 1.1951005970783013
-0.5319749363494387 1.1768759458659273
-0.5817544964615409 1.1586512946535534
-0.5485681230534728 1.103977341016432
-0.5651613097575068 1.0857526898040581
-0.6149408698696089 1.0675280385916843
-0.631534056573643 1.0310787361669367
-0.631534056573643 1.1222019922288058
-0.6149408698696089 1.103977341016432
-0.5983476831655749 1.1222019922288058
-0.5817544964615409 1.1222019922288058
-0.5817544964615409 1.1586512946535534
-0.5651613097575068 1.1586512946535534
-0.5153817496454047 1.1222019922288058
-0.5153817496454047 1.103977341016432
-0.5153817496454047 1.0857526898040581
-0.5651613097575068 1.0493033873793105
-0.5485681230534728 0.976404782529815
-0.5651613097575068 0.9581801313174412
-0.5817544964615409 0.9399554801050674
-0.5817544964615409 1.0128540849545626
-0.5651613097575068 1.0128540849545626
-0.5319749363494387 1.0675280385916843
-0.5485681230534728 1.103977341016432
-0.4821953762373366 1.1222019922288058
-0.4821953762373366 1.0857526898040581
-0.49878856294137064 1.0310787361669367
-0.5153817496454047 0.9946294337421889
-0.5817544964615409 0.9581801313174412
-0.6149408698696089 1.0128540849545626
-0.6149408698696089 1.0310787361669367
-0.5817544964615409 1.0493033873793105
-0.5983476831655749 1.0493033873793105
-0.5817544964615409 1.0128540849545626
-0.5485681230534728 0.9946294337421889
-0.5153817496454047 0.9946294337421889
-0.4821953762373366 0.9946294337421889
-0.46560218953330257 0.9946294337421889
-0.49878856294137064 1.0675280385916843
-0.49878856294137064 1.0310787361669367
-0.49878856294137064 1.0493033873793105
-0.4821953762373366 1.0310787361669367
-0.4821953762373366 1.0493033873793105
-0.46560218953330257 1.0310787361669367
-0.3826362560131324 0.9946294337421889
-0.33285669590103023 1.0128540849545626
-0.2830771357889281 1.0310787361669367
-0.24989076238086005 0.9581801313174412
-0.16692482886068985 0.9217308288926935
-0.16692482886068985 0.8306075728308243
-0.15033164215665581 0.8123829216184504
-0.16692482886068985 0.7030350143442073
-0.13373845545262178 0.6483610607070858
-0.15033164215665581 0.630136409494712
-0.18351801556472389 0.5936871070699643
-0.11714526874858773 0.5936871070699643
-0.11714526874858773 0.5936871070699643
-0.08395889534051965 0.6848103631318335
-0.08395889534051965 0.6665857119194596
-0.1005520820445537 0.7577089679813289
-0.1005520820445537 0.7577089679813289
-0.1005520820445537 0.7212596655565812
-0.08395889534051965 0.739484316768955
-0.11714526874858773 0.7759336191937027
-0.15033164215665581 0.7759336191937027
-0.21670438897279198 0.8306075728308243
-0.29967032249296216 0.8306075728308243
-0.24989076238086005 0.8852815264679458
-0.3162635091969962 0.8852815264679458
-0.33285669590103023 0.8852815264679458
-0.2830771357889281 0.9035061776803196
-0.2664839490848941 0.9035061776803196
-0.33285669590103023 0.9035061776803196
-0.3826362560131324 0.8852815264679458
-0.4324158161252345 0.9035061776803196
-0.46560218953330257 0.8488322240431981
-0.5319749363494387 0.7941582704060766
-0.5485681230534728 0.7759336191937027
-0.5485681230534728 0.7759336191937027
-0.5651613097575068 0.8488322240431981
-0.5485681230534728 0.867056875255572
-0.5319749363494387 0.9217308288926935
-0.5153817496454047 0.9035061776803196
-0.5153817496454047 0.9035061776803196
-0.4821953762373366 0.9035061776803196
-0.44900900282926853 0.867056875255572
-0.46560218953330257 0.8852815264679458
-0.4821953762373366 0.9399554801050674
-0.4821953762373366 0.9581801313174412
-0.5319749363494387 0.867056875255572
-0.5153817496454047 0.8123829216184504
-0.49878856294137064 0.7030350143442073
-0.4821953762373366 0.42966524615859963
-0.3992294427171664 0.02872291948637498
-0.3162635091969962 -0.5180166168848405
-0.16692482886068985 -1.1923287117426729
0.0985661584038548 -1.8666408066005051
0.3474639589643654 -2.5591775526707115
0.7291072531571483 -3.2699389499532914
1.0941573606458972 -3.7620045326873854
1.459207468134646 -4.017149649660619
1.7412916421032247 -3.889577091174002
1.9072235091435652 -3.470410113289404
2.0565621894798713 -2.850771972068693
2.156121309704076 -2.2129091796356084
2.25568042992828 -1.6297203408396452
2.3718327368565184 -1.0829808044684297
2.5543577906008927 -0.6455891753714573
2.687103284233165 -0.335770104761102
2.7036964709371993 0.010498268274001136
2.604137350712995 0.24741873403486114
2.3718327368565184 0.502563851008095
2.0731553761839057 0.6665857119194596
1.7578848288072588 0.739484316768955
1.4260210947265781 0.7941582704060766
1.077564173941863 0.8306075728308243
0.7291072531571483 0.867056875255572
0.4138367057805016 0.9035061776803196
0.1483457185159569 0.9035061776803196
-0.06736570863648561 0.976404782529815
-0.21670438897279198 1.0128540849545626
-0.36604306930909836 1.0675280385916843
-0.41582262942120046 1.0310787361669367
-0.46560218953330257 0.9946294337421889
-0.5485681230534728 1.0128540849545626
-0.4821953762373366 0.9581801313174412
-0.46560218953330257 0.9581801313174412
-0.4324158161252345 0.9946294337421889
-0.44900900282926853 0.9581801313174412
-0.41582262942120046 1.0310787361669367
-0.44900900282926853 1.0128540849545626
-0.41582262942120046 1.0128540849545626
-0.3992294427171664 1.0128540849545626
-0.4324158161252345 1.0675280385916843
-0.3992294427171664 1.0310787361669367
-0.3826362560131324 0.9946294337421889
-0.41582262942120046 0.9946294337421889
-0.41582262942120046 0.8852815264679458
-0.4324158161252345 0.9035061776803196
-0.44900900282926853 0.9217308288926935
-0.44900900282926853 0.9399554801050674
-0.4324158161252345 0.9946294337421889
-0.41582262942120046 0.9946294337421889
-0.41582262942120046 1.0128540849545626
-0.33285669590103023 1.0310787361669367
-0.3162635091969962 0.976404782529815
-0.29967032249296216 1.0128540849545626
-0.33285669590103023 0.9581801313174412
-0.33285669590103023 0.9399554801050674
-0.33285669590103023 0.9217308288926935
-0.3826362560131324 0.9035061776803196
-0.36604306930909836 0.9217308288926935
-0.3494498826050643 0.9035061776803196
-0.29967032249296216 0.9399554801050674
-0.29967032249296216 0.976404782529815
-0.2664839490848941 1.0128540849545626
-0.2664839490848941 0.976404782529815
-0.23329757567682602 0.976404782529815
-0.23329757567682602 0.976404782529815
-0.24989076238086005 0.9581801313174412
-0.2830771357889281 0.8852815264679458
-0.29967032249296216 0.9035061776803196
-0.29967032249296216 0.8123829216184504
-0.29967032249296216 0.8488322240431981
-0.3162635091969962 0.7941582704060766
-0.29967032249296216 0.8123829216184504
-0.24989076238086005 0.867056875255572
-0.21670438897279198 0.8852815264679458
-0.20011120226875792 0.9217308288926935
-0.13373845545262178 0.9217308288926935
-0.18351801556472389 0.9217308288926935
-0.16692482886068985 0.9035061776803196
-0.21670438897279198 0.9035061776803196
-0.23329757567682602 0.8306075728308243
-0.24989076238086005 0.8123829216184504
-0.24989076238086005 0.8306075728308243
-0.23329757567682602 0.7941582704060766
-0.23329757567682602 0.8852815264679458
-0.18351801556472389 0.8488322240431981
-0.13373845545262178 0.8488322240431981
-0.15033164215665581 0.8488322240431981
-0.08395889534051965 0.8306075728308243
-0.08395889534051965 0.8488322240431981
-0.08395889534051965 0.8306075728308243
-0.1005520820445537 0.8123829216184504
-0.08395889534051965 0.8123829216184504
-0.15033164215665581 0.7941582704060766
-0.1005520820445537 0.8306075728308243
-0.11714526874858773 0.8123829216184504
-0.1005520820445537 0.867056875255572
-0.05077252193245157 0.976404782529815
-0.03417933522841753 0.9399554801050674
0.01560022488368459 0.9399554801050674
0.01560022488368459 0.9217308288926935
-0.0009929618203494508 0.8488322240431981
-0.0009929618203494508 0.7941582704060766
0.03219341158771863 0.7030350143442073
0.01560022488368459 0.6483610607070858
-0.0009929618203494508 0.6483610607070858
0.01560022488368459 0.6665857119194596
-0.01758614852438349 0.6848103631318335
0.03219341158771863 0.7212596655565812
0.03219341158771863 0.739484316768955
0.04878659829175267 0.8123829216184504
0.06537978499578671 0.7941582704060766
0.04878659829175267 0.7759336191937027
0.04878659829175267 0.7212596655565812
0.03219341158771863 0.739484316768955
-0.03417933522841753 0.7212596655565812
-0.03417933522841753 0.7030350143442073
-0.05077252193245157 0.630136409494712
-0.06736570863648561 0.6483610607070858
-0.06736570863648561 0.6119117582823381
-0.11714526874858773 0.6665857119194596
-0.1005520820445537 0.6665857119194596
-0.1005520820445537 0.6665857119194596
-0.1005520820445537 0.739484316768955
-0.1005520820445537 0.7212596655565812
-0.13373845545262178 0.739484316768955
-0.15033164215665581 0.6665857119194596
-0.20011120226875792 0.6665857119194596
-0.2664839490848941 0.6848103631318335
-0.33285669590103023 0.630136409494712
-0.3826362560131324 0.5936871070699643
-0.3826362560131324 0.5572378046452166
-0.3992294427171664 0.5390131534328427
-0.4324158161252345 0.5754624558575904
-0.4324158161252345 0.5754624558575904
-0.41582262942120046 0.5936871070699643
-0.41582262942120046 0.5936871070699643
-0.3992294427171664 0.5936871070699643
-0.44900900282926853 0.5572378046452166
-0.5153817496454047 0.5390131534328427
-0.5319749363494387 0.5390131534328427
-0.5651613097575068 0.5390131534328427
-0.6149408698696089 0.48433919979572115
-0.5651613097575068 0.5207885022204689
-0.5817544964615409 0.5572378046452166
-0.5817544964615409 0.5936871070699643
-0.5485681230534728 0.630136409494712
-0.5319749363494387 0.630136409494712
-0.5485681230534728 0.630136409494712
-0.5485681230534728 0.6483610607070858
-0.5817544964615409 0.630136409494712
-0.6149408698696089 0.5572378046452166
-0.6149408698696089 0.5390131534328427
-0.648127243277677 0.5572378046452166
-0.7144999900938132 0.6119117582823381
-0.7310931767978472 0.5390131534328427
-0.6647204299817111 0.5754624558575904
-0.6647204299817111 0.5754624558575904
-0.6647204299817111 0.6119117582823381
-0.631534056573643 0.630136409494712
-0.6149408698696089 0.6483610607070858
-0.6149408698696089 0.5936871070699643
-0.6149408698696089 0.630136409494712
-0.6813136166857451 0.5936871070699643
-0.648127243277677 0.5572378046452166
-0.7144999900938132 0.5754624558575904
-0.7476863635018812 0.5936871070699643
-0.7974659236139834 0.6119117582823381
-0.7808727369099493 0.6483610607070858
-0.8472454837260855 0.6848103631318335
-0.7974659236139834 0.6848103631318335
-0.7808727369099493 0.739484316768955
-0.7642795502059153 0.7577089679813289
-0.8306522970220515 0.7577089679813289
-0.8140591103180175 0.7030350143442073
-0.7974659236139834 0.7212596655565812
-0.8638386704301195 0.6848103631318335
-0.8638386704301195 0.6119117582823381
-0.8970250438381876 0.5754624558575904
-0.8970250438381876 0.630136409494712
-0.9302114172462557 0.5936871070699643
-0.8638386704301195 0.6483610607070858
-0.8472454837260855 0.7030350143442073
-0.8140591103180175 0.7212596655565812
-0.7974659236139834 0.7212596655565812
-0.7974659236139834 0.7941582704060766
-0.8140591103180175 0.7941582704060766
-0.8140591103180175 0.739484316768955
-0.8638386704301195 0.630136409494712
-0.8970250438381876 0.46611454858334733
-0.8970250438381876 0.33854199009673036
-0.9136182305422217 0.3020926876719827
-0.9136182305422217 0.37499129252147806
-0.8804318571341536 0.42966524615859963
-0.8638386704301195 0.502563851008095
-0.8306522970220515 0.630136409494712
-0.8140591103180175 0.5572378046452166
-0.8140591103180175 0.6119117582823381
-0.8638386704301195 0.6119117582823381
-0.8638386704301195 0.6119117582823381
-0.8638386704301195 0.5754624558575904
-0.8804318571341536 0.48433919979572115
-0.8804318571341536 0.48433919979572115
-0.8638386704301195 0.41144059494622576
-0.8472454837260855 0.33854199009673036
-0.8804318571341536 0.37499129252147806
-0.8306522970220515 0.41144059494622576
-0.7808727369099493 0.42966524615859963
-0.7808727369099493 0.41144059494622576
-0.8140591103180175 0.44788989737097346
-0.7808727369099493 0.46611454858334733
-0.7808727369099493 0.46611454858334733
-0.8306522970220515 0.44788989737097346
-0.8638386704301195 0.46611454858334733
-0.8970250438381876 0.44788989737097346
-0.8970250438381876 0.44788989737097346
-0.8306522970220515 0.42966524615859963
-0.8306522970220515 0.41144059494622576
-0.7808727369099493 0.41144059494622576
-0.7310931767978472 0.42966524615859963
-0.7144999900938132 0.41144059494622576
-0.6979068033897792 0.42966524615859963
-0.7144999900938132 0.37499129252147806
-0.7476863635018812 0.33854199009673036
-0.7642795502059153 0.3020926876719827
-0.8306522970220515 0.33854199009673036
-0.7974659236139834 0.35676664130910424
-0.7642795502059153 0.39321594373385194
-0.7808727369099493 0.39321594373385194
-0.7808727369099493 0.39321594373385194
-0.7808727369099493 0.39321594373385194
-0.7310931767978472 0.39321594373385194
-0.6979068033897792 0.28386803645960884
-0.6979068033897792 0.39321594373385194
-0.7310931767978472 0.37499129252147806
-0.7808727369099493 0.37499129252147806
-0.7476863635018812 0.35676664130910424
-0.7476863635018812 0.37499129252147806
-0.7476863635018812 0.41144059494622576
-0.7310931767978472 0.41144059494622576
-0.7476863635018812 0.37499129252147806
-0.6813136166857451 0.37499129252147806
-0.648127243277677 0.35676664130910424
-0.631534056573643 0.32031733888435654
-0.6149408698696089 0.24741873403486114
-0.5983476831655749 0.24741873403486114
-0.6149408698696089 0.24741873403486114
-0.5983476831655749 0.265643385247235
-0.631534056573643 0.265643385247235
-0.6813136166857451 0.28386803645960884
-0.6813136166857451 0.265643385247235
-0.7144999900938132 0.265643385247235
-0.6647204299817111 0.265643385247235
-0.6813136166857451 0.265643385247235
-0.631534056573643 0.3020926876719827
-0.631534056573643 0.35676664130910424
-0.6149408698696089 0.28386803645960884
-0.5983476831655749 0.32031733888435654
-0.5983476831655749 0.28386803645960884
-0.6149408698696089 0.2291940828224873
-0.5817544964615409 0.2291940828224873
-0.6149408698696089 0.21096943161011344
-0.6149408698696089 0.2291940828224873
-0.631534056573643 0.2291940828224873
-0.6149408698696089 0.28386803645960884
-0.5319749363494387 0.3020926876719827
-0.5817544964615409 0.32031733888435654
-0.5485681230534728 0.32031733888435654
-0.5153817496454047 0.28386803645960884
-0.5319749363494387 0.265643385247235
-0.49878856294137064 0.265643385247235
-0.5485681230534728 0.2291940828224873
-0.5817544964615409 0.2291940828224873
-0.6149408698696089 0.17452012918536577
-0.5485681230534728 0.21096943161011344
-0.5485681230534728 0.28386803645960884
-0.5319749363494387 0.33854199009673036
-0.5153817496454047 0.35676664130910424
-0.4821953762373366 0.42966524615859963
-0.44900900282926853 0.41144059494622576
-0.44900900282926853 0.35676664130910424
-0.41582262942120046 0.265643385247235
-0.44900900282926853 0.1927447803977396
-0.46560218953330257 0.10162152433587038
-0.4821953762373366 0.08339687312349653
-0.49878856294137064 0.02872291948637498
-0.5153817496454047 0.06517222191112268
-0.49878856294137064 0.13807082676061808
-0.4821953762373366 0.17452012918536577
-0.44900900282926853 0.265643385247235
-0.4324158161252345 0.28386803645960884
-0.41582262942120046 0.1927447803977396
-0.3992294427171664 0.21096943161011344
-0.41582262942120046 0.2291940828224873
-0.3992294427171664 0.17452012918536577
-0.3992294427171664 0.1927447803977396
-0.4324158161252345 0.15629547797299193
-0.46560218953330257 0.15629547797299193
-0.44900900282926853 0.1927447803977396
-0.3992294427171664 0.21096943161011344
-0.4324158161252345 0.32031733888435654
-0.4324158161252345 0.35676664130910424
-0.3826362560131324 0.42966524615859963
-0.36604306930909836 0.42966524615859963
-0.3494498826050643 0.32031733888435654
-0.2664839490848941 0.35676664130910424
-0.2830771357889281 0.24741873403486114
-0.24989076238086005 0.17452012918536577
-0.24989076238086005 0.11984617554824421
-0.2664839490848941 0.08339687312349653
-0.23329757567682602 0.11984617554824421
-0.16692482886068985 0.13807082676061808
-0.16692482886068985 0.08339687312349653
-0.13373845545262178 0.10162152433587038
-0.06736570863648561 0.06517222191112268
-0.01758614852438349 -0.04417568536312041
-0.03417933522841753 -0.1170742902126158
-0.01758614852438349 -0.15352359263736348
-0.0009929618203494508 -0.20819754627448503
0.04878659829175267 -0.20819754627448503
-0.0009929618203494508 -0.24464684869923273
-0.01758614852438349 -0.18997289506211118
-0.03417933522841753 -0.09884963900024195
-0.05077252193245157 -0.0077263829383727115
-0.05077252193245157 0.24741873403486114
-0.01758614852438349 0.3020926876719827
0.01560022488368459 0.39321594373385194
-0.0009929618203494508 0.265643385247235
-0.05077252193245157 0.08339687312349653
-0.08395889534051965 -0.0806249877878681
-0.1005520820445537 -0.13529894142498963
-0.15033164215665581 -0.18997289506211118
-0.13373845545262178 -0.1170742902126158
-0.16692482886068985 -0.09884963900024195
-0.21670438897279198 -0.09884963900024195
-0.2664839490848941 -0.09884963900024195
-0.29967032249296216 0.010498268274001136
-0.3162635091969962 -0.0077263829383727115
-0.3494498826050643 0.06517222191112268
-0.3162635091969962 0.13807082676061808
-0.3162635091969962 0.13807082676061808
-0.29967032249296216 0.10162152433587038
-0.3162635091969962 0.010498268274001136
-0.3494498826050643 -0.06240033657549426
-0.3826362560131324 -0.06240033657549426
-0.41582262942120046 -0.02595103415074656
-0.41582262942120046 0.02872291948637498
-0.41582262942120046 0.06517222191112268
-0.3992294427171664 0.1927447803977396
-0.3826362560131324 0.2291940828224873
-0.3494498826050643 0.265643385247235
-0.3162635091969962 0.32031733888435654
-0.2664839490848941 0.32031733888435654
-0.24989076238086005 0.2291940828224873
-0.2664839490848941 0.10162152433587038
-0.2830771357889281 0.010498268274001136
-0.2830771357889281 -0.22642219748685888
-0.23329757567682602 -0.5909152217343359
-0.20011120226875792 -1.1376547581055512
-0.01758614852438349 -1.8666408066005051
0.28109121214822924 -2.7778733672191973
0.6295481329329441 -3.7073305790502635
1.011191427125727 -4.39986732512047
1.409427908022544 -4.782585000580321
1.774478015511293 -4.727911046943199
2.0731553761839057 -4.363418022695722
2.305459990040382 -3.7620045326873854
2.3884259235605523 -3.1788156938914223
2.4547986703766886 -2.6685254599449544
2.4879850437847564 -2.2311338308479822
2.587544164008961 -1.7937422017510098
2.7700692177533353 -1.3381259214416636
2.8032555911614034 -0.9189589435570651
2.8530351512735055 -0.44511801203534507
2.736882844345267 -0.02595103415074656
2.587544164008961 0.265643385247235
2.272273616632314 0.28386803645960884
2.0067826293677693 0.35676664130910424
1.6749188952870886 0.39321594373385194
1.2932756010943056 0.41144059494622576
0.9282254936055568 0.41144059494622576
0.61295494622891 0.502563851008095
0.33087077226033135 0.5754624558575904
0.08197297169982075 0.5936871070699643
-0.08395889534051965 0.6119117582823381
-0.20011120226875792 0.5936871070699643
-0.3162635091969962 0.6483610607070858
-0.2830771357889281 0.630136409494712
-0.2664839490848941 0.502563851008095
-0.2830771357889281 0.24741873403486114
-0.21670438897279198 0.04694757069874883
-0.23329757567682602 -0.0806249877878681
-0.29967032249296216 -0.17174824384973733
-0.3162635091969962 -0.22642219748685888
-0.29967032249296216 -0.15352359263736348
-0.29967032249296216 -0.0806249877878681
-0.29967032249296216 -0.04417568536312041
-0.24989076238086005 0.04694757069874883
-0.2664839490848941 0.08339687312349653
-0.24989076238086005 0.11984617554824421
-0.18351801556472389 0.10162152433587038
-0.21670438897279198 0.15629547797299193
-0.20011120226875792 0.17452012918536577
-0.20011120226875792 0.17452012918536577
-0.21670438897279198 0.13807082676061808
-0.21670438897279198 0.11984617554824421
-0.24989076238086005 0.13807082676061808
-0.2664839490848941 0.13807082676061808
-0.24989076238086005 0.21096943161011344
-0.23329757567682602 0.2291940828224873
-0.20011120226875792 0.265643385247235
-0.13373845545262178 0.28386803645960884
-0.11714526874858773 0.24741873403486114
-0.11714526874858773 0.24741873403486114
-0.13373845545262178 0.17452012918536577
-0.20011120226875792 0.15629547797299193
-0.18351801556472389 0.11984617554824421
-0.21670438897279198 0.10162152433587038
-0.21670438897279198 0.17452012918536577
-0.16692482886068985 0.17452012918536577
-0.18351801556472389 0.21096943161011344
-0.16692482886068985 0.21096943161011344
-0.16692482886068985 0.24741873403486114
-0.11714526874858773 0.24741873403486114
-0.13373845545262178 0.24741873403486114
-0.11714526874858773 0.17452012918536577
-0.08395889534051965 0.11984617554824421
-0.11714526874858773 0.17452012918536577
-0.08395889534051965 0.13807082676061808
-0.16692482886068985 0.13807082676061808
-0.16692482886068985 0.08339687312349653
-0.21670438897279198 0.13807082676061808
-0.15033164215665581 0.15629547797299193
-0.13373845545262178 0.17452012918536577
-0.1005520820445537 0.1927447803977396
-0.06736570863648561 0.21096943161011344
-0.03417933522841753 0.21096943161011344
-0.05077252193245157 0.21096943161011344
-0.03417933522841753 0.21096943161011344
-0.1005520820445537 0.15629547797299193
-0.1005520820445537 0.08339687312349653
-0.1005520820445537 0.08339687312349653
-0.1005520820445537 0.02872291948637498
-0.06736570863648561 0.08339687312349653
-0.05077252193245157 0.15629547797299193
-0.03417933522841753 0.13807082676061808
-0.01758614852438349 0.1927447803977396
0.03219341158771863 0.21096943161011344
0.06537978499578671 0.17452012918536577
0.08197297169982075 0.17452012918536577
0.06537978499578671 0.17452012918536577
0.08197297169982075 0.11984617554824421
0.06537978499578671 0.11984617554824421
0.06537978499578671 0.10162152433587038
0.04878659829175267 0.08339687312349653
0.04878659829175267 0.08339687312349653
0.0985661584038548 0.08339687312349653
0.1483457185159569 0.11984617554824421
0.181532091924025 0.08339687312349653
0.2313116520361271 0.10162152433587038
0.21471846533209307 0.11984617554824421
0.19812527862805904 0.08339687312349653
0.2313116520361271 0.06517222191112268
0.16493890521999094 -0.0077263829383727115
0.21471846533209307 0.010498268274001136
0.16493890521999094 -0.04417568536312041
0.13175253181192287 -0.06240033657549426
0.11515934510788883 -0.0077263829383727115
0.11515934510788883 0.010498268274001136
0.13175253181192287 0.08339687312349653
0.181532091924025 0.08339687312349653
0.181532091924025 0.13807082676061808
0.19812527862805904 0.1927447803977396
0.19812527862805904 0.24741873403486114
0.13175253181192287 0.21096943161011344
0.06537978499578671 0.10162152433587038
0.06537978499578671 -0.04417568536312041
0.01560022488368459 -0.09884963900024195
-0.05077252193245157 -0.0806249877878681
-0.08395889534051965 0.04694757069874883
-0.1005520820445537 0.13807082676061808
-0.11714526874858773 -0.0077263829383727115
-0.1005520820445537 -0.18997289506211118
-0.1005520820445537 -0.335770104761102
-0.13373845545262178 -0.48156731446009277
-0.13373845545262178 -0.5180166168848405
-0.18351801556472389 -0.44511801203534507
-0.23329757567682602 -0.3539947559734758
-0.2664839490848941 -0.22642219748685888
-0.33285669590103023 -0.2628714999116066
-0.33285669590103023 -0.18997289506211118
-0.36604306930909836 -0.17174824384973733
-0.36604306930909836 -0.06240033657549426
-0.3494498826050643 -0.04417568536312041
-0.3494498826050643 -0.02595103415074656
-0.3162635091969962 -0.0806249877878681
-0.33285669590103023 -0.15352359263736348
-0.3494498826050643 -0.22642219748685888
-0.33285669590103023 -0.2993208023363543
-0.3992294427171664 -0.2993208023363543
-0.41582262942120046 -0.24464684869923273
-0.3992294427171664 -0.17174824384973733
-0.4324158161252345 -0.0806249877878681
-0.46560218953330257 -0.0077263829383727115
-0.44900900282926853 0.010498268274001136
-0.46560218953330257 -0.04417568536312041
-0.44900900282926853 -0.09884963900024195
-0.4324158161252345 -0.13529894142498963
-0.4324158161252345 -0.20819754627448503
-0.41582262942120046 -0.22642219748685888
-0.4821953762373366 -0.24464684869923273
-0.4821953762373366 -0.13529894142498963
-0.4821953762373366 -0.02595103415074656
-0.49878856294137064 0.10162152433587038
-0.49878856294137064 0.15629547797299193
-0.5319749363494387 0.2291940828224873
-0.49878856294137064 0.28386803645960884
-0.4821953762373366 0.24741873403486114
-0.49878856294137064 0.13807082676061808
-0.49878856294137064 -0.02595103415074656
-0.5153817496454047 -0.15352359263736348
-0.5153817496454047 -0.2993208023363543
-0.5485681230534728 -0.2810961511239804
-0.5485681230534728 -0.20819754627448503
-0.5485681230534728 -0.1170742902126158
-0.5817544964615409 -0.09884963900024195
-0.5817544964615409 -0.02595103415074656
-0.6149408698696089 0.010498268274001136
-0.5983476831655749 0.1927447803977396
-0.6149408698696089 0.17452012918536577
-0.5651613097575068 0.11984617554824421
-0.5485681230534728 -0.0077263829383727115
-0.5319749363494387 -0.06240033657549426
-0.5485681230534728 -0.06240033657549426
-0.5983476831655749 0.02872291948637498
-0.6149408698696089 -0.0077263829383727115
-0.648127243277677 -0.0806249877878681
-0.6813136166857451 -0.24464684869923273
-0.7144999900938132 -0.3175454535487281
-0.7310931767978472 -0.3904440583982235
-0.7144999900938132 -0.3539947559734758
-0.6979068033897792 -0.20819754627448503
-0.6647204299817111 -0.13529894142498963
-0.6149408698696089 -0.04417568536312041
-0.648127243277677 -0.06240033657549426
-0.6647204299817111 -0.06240033657549426
-0.6979068033897792 -0.06240033657549426
-0.6979068033897792 -0.15352359263736348
-0.7310931767978472 -0.15352359263736348
-0.7144999900938132 -0.13529894142498963
-0.7642795502059153 -0.18997289506211118
-0.7642795502059153 -0.17174824384973733
-0.7808727369099493 -0.1170742902126158
-0.6979068033897792 -0.1170742902126158
-0.6647204299817111 -0.0806249877878681
-0.648127243277677 -0.02595103415074656
-0.5983476831655749 -0.02595103415074656
-0.5983476831655749 0.02872291948637498
-0.631534056573643 -0.0077263829383727115
-0.6647204299817111 -0.04417568536312041
-0.6979068033897792 -0.09884963900024195
-0.6813136166857451 -0.18997289506211118
-0.6979068033897792 -0.24464684869923273
-0.7310931767978472 -0.2628714999116066
-0.6979068033897792 -0.24464684869923273
-0.6647204299817111 -0.18997289506211118
-0.6149408698696089 -0.0806249877878681
-0.5983476831655749 0.010498268274001136
-0.5485681230534728 0.02872291948637498
-0.5485681230534728 0.04694757069874883
-0.5817544964615409 -0.02595103415074656
-0.6149408698696089 -0.20819754627448503
-0.631534056573643 -0.3539947559734758
-0.648127243277677 -0.4268933608229712
-0.6979068033897792 -0.48156731446009277
-0.6813136166857451 -0.44511801203534507
-0.6647204299817111 -0.3539947559734758
-0.648127243277677 -0.24464684869923273
-0.5983476831655749 -0.17174824384973733
-0.5319749363494387 -0.13529894142498963
-0.4821953762373366 -0.13529894142498963
-0.5651613097575068 -0.18997289506211118
-0.5485681230534728 -0.22642219748685888
-0.5485681230534728 -0.2993208023363543
-0.5983476831655749 -0.2810961511239804
-0.6149408698696089 -0.2993208023363543
-0.5983476831655749 -0.3175454535487281
-0.5983476831655749 -0.2993208023363543
-0.6149408698696089 -0.18997289506211118
-0.5817544964615409 -0.18997289506211118
-0.631534056573643 -0.1170742902126158
-0.5651613097575068 -0.09884963900024195
-0.49878856294137064 -0.13529894142498963
-0.5153817496454047 -0.13529894142498963
-0.5153817496454047 -0.18997289506211118
-0.49878856294137064 -0.18997289506211118
-0.5319749363494387 -0.20819754627448503
-0.6149408698696089 -0.13529894142498963
-0.6149408698696089 -0.06240033657549426
-0.6149408698696089 0.04694757069874883
-0.5983476831655749 0.08339687312349653
-0.5485681230534728 0.08339687312349653
-0.5651613097575068 -0.09884963900024195
-0.5319749363494387 -0.24464684869923273
-0.49878856294137064 -0.3539947559734758
-0.5153817496454047 -0.48156731446009277
-0.5153817496454047 -0.48156731446009277
-0.5485681230534728 -0.40866870961059737
-0.5319749363494387 -0.2628714999116066
-0.5817544964615409 -0.20819754627448503
-0.6149408698696089 -0.17174824384973733
-0.631534056573643 -0.2810961511239804
-0.5817544964615409 -0.37221940718584967
-0.5817544964615409 -0.4268933608229712
-0.5651613097575068 -0.40866870961059737
-0.5319749363494387 -0.18997289506211118
-0.5153817496454047 -0.0806249877878681
-0.5485681230534728 0.02872291948637498
-0.5651613097575068 -0.0077263829383727115
-0.5485681230534728 -0.15352359263736348
-0.5817544964615409 -0.2993208023363543
-0.648127243277677 -0.48156731446009277
-0.5983476831655749 -0.4997919656724666
-0.5817544964615409 -0.4268933608229712
-0.5817544964615409 -0.2993208023363543
-0.5153817496454047 -0.2628714999116066
-0.46560218953330257 -0.24464684869923273
-0.4324158161252345 -0.18997289506211118
-0.44900900282926853 -0.09884963900024195
-0.3992294427171664 0.010498268274001136
-0.41582262942120046 0.13807082676061808
-0.44900900282926853 0.04694757069874883
-0.4821953762373366 -0.13529894142498963
-0.5153817496454047 -0.3539947559734758
-0.5319749363494387 -0.5544659193095881
-0.5817544964615409 -0.6638138265838313
-0.5983476831655749 -0.5909152217343359
-0.5651613097575068 -0.48156731446009277
-0.5319749363494387 -0.4268933608229712
-0.46560218953330257 -0.3175454535487281
-0.3992294427171664 -0.22642219748685888
-0.41582262942120046 -0.13529894142498963
-0.41582262942120046 -0.04417568536312041
-0.4324158161252345 0.06517222191112268
-0.46560218953330257 0.08339687312349653
-0.49878856294137064 -0.0077263829383727115
-0.5485681230534728 -0.20819754627448503
-0.5153817496454047 -0.48156731446009277
-0.5153817496454047 -0.6638138265838313
-0.4821953762373366 -0.7002631290085789
-0.46560218953330257 -0.6638138265838313
-0.41582262942120046 -0.5909152217343359
-0.3494498826050643 -0.5180166168848405
-0.3494498826050643 -0.40866870961059737
-0.3494498826050643 -0.3175454535487281
-0.41582262942120046 -0.17174824384973733
-0.44900900282926853 -0.02595103415074656
-0.44900900282926853 0.10162152433587038
-0.46560218953330257 0.10162152433587038
-0.4324158161252345 -0.02595103415074656
-0.3992294427171664 -0.2628714999116066
-0.3826362560131324 -0.44511801203534507
-0.29967032249296216 -0.5362412680972143
-0.24989076238086005 -0.5180166168848405
-0.24989076238086005 -0.44511801203534507
-0.18351801556472389 -0.37221940718584967
-0.15033164215665581 -0.335770104761102
-0.13373845545262178 -0.44511801203534507
-0.15033164215665581 -0.5362412680972143
-0.16692482886068985 -0.6820384777962051
-0.15033164215665581 -0.7913863850704481
-0.11714526874858773 -0.8096110362828219
-0.16692482886068985 -0.8096110362828219
-0.08395889534051965 -0.8096110362828219
-0.05077252193245157 -0.6638138265838313
-0.01758614852438349 -0.48156731446009277
-0.0009929618203494508 -0.44511801203534507
-0.0009929618203494508 -0.40866870961059737
-0.0009929618203494508 -0.48156731446009277
-0.03417933522841753 -0.6455891753714573
-0.01758614852438349 -0.8096110362828219
-0.06736570863648561 -0.8278356874951959
-0.1005520820445537 -0.7731617338580743
-0.15033164215665581 -0.5909152217343359
-0.13373845545262178 -0.48156731446009277
-0.16692482886068985 -0.335770104761102
-0.15033164215665581 -0.3539947559734758
-0.13373845545262178 -0.3175454535487281
-0.15033164215665581 -0.3539947559734758
-0.16692482886068985 -0.4268933608229712
-0.18351801556472389 -0.4268933608229712
-0.24989076238086005 -0.4268933608229712
-0.36604306930909836 -0.40866870961059737
-0.4324158161252345 -0.44511801203534507
-0.44900900282926853 -0.4633426632477189
-0.4821953762373366 -0.4268933608229712
-0.4821953762373366 -0.4268933608229712
-0.4324158161252345 -0.3904440583982235
-0.3992294427171664 -0.3539947559734758
-0.3494498826050643 -0.335770104761102
-0.33285669590103023 -0.335770104761102
-0.3494498826050643 -0.37221940718584967
-0.3992294427171664 -0.3904440583982235
-0.3992294427171664 -0.4268933608229712
-0.41582262942120046 -0.4268933608229712
-0.3992294427171664 -0.44511801203534507
-0.41582262942120046 -0.3904440583982235
-0.3826362560131324 -0.2993208023363543
-0.3494498826050643 -0.3539947559734758
-0.3162635091969962 -0.2993208023363543
-0.2664839490848941 -0.4997919656724666
-0.23329757567682602 -0.7549370826457005
-0.15033164215665581 -1.3199012702292898
-0.03417933522841753 -1.994213365087122
0.08197297169982075 -2.7414240647944497
0.33087077226033135 -3.561533369351273
0.6295481329329441 -4.272294766633853
0.9780050537176589 -4.855483605429816
1.3430551612064079 -5.1106287224030496
1.7246984553991906 -5.092404071190676
2.0067826293677693 -4.764360349367947
2.156121309704076 -4.217620812996731
2.272273616632314 -3.579758020563647
2.355239550152484 -2.97834453055531
2.5045782304887907 -2.4316049941840943
2.670510097529131 -2.0488873187242436
2.7700692177533353 -1.6661696432643929
2.8198487778654373 -1.2470026653797943
2.687103284233165 -0.9189589435570651
2.4879850437847564 -0.7184877802209527
2.222494056520212 -0.5544659193095881
1.9238166958475993 -0.3904440583982235
1.6085461484709525 -0.335770104761102
1.2932756010943056 -0.3175454535487281
1.0609709872378292 -0.2810961511239804
0.7788868132692505 -0.2810961511239804
0.596361759524876 -0.2628714999116066
0.39724351907646754 -0.24464684869923273
0.24790483874016114 -0.24464684869923273
0.06537978499578671 -0.24464684869923273
-0.1005520820445537 -0.18997289506211118
-0.23329757567682602 -0.13529894142498963
-0.3494498826050643 -0.1170742902126158
-0.36604306930909836 -0.15352359263736348
-0.3826362560131324 -0.18997289506211118
-0.3494498826050643 -0.20819754627448503
-0.29967032249296216 -0.20819754627448503
-0.24989076238086005 -0.20819754627448503
-0.18351801556472389 -0.13529894142498963
-0.20011120226875792 -0.0806249877878681
-0.21670438897279198 -0.09884963900024195
-0.20011120226875792 -0.09884963900024195
-0.24989076238086005 -0.06240033657549426
-0.3162635091969962 -0.09884963900024195
-0.24989076238086005 -0.1170742902126158
-0.2830771357889281 -0.1170742902126158
-0.23329757567682602 -0.13529894142498963
-0.23329757567682602 -0.15352359263736348
-0.18351801556472389 -0.1170742902126158
-0.16692482886068985 -0.13529894142498963
-0.16692482886068985 -0.17174824384973733
-0.15033164215665581 -0.17174824384973733
-0.15033164215665581 -0.17174824384973733
-0.16692482886068985 -0.13529894142498963
-0.15033164215665581 -0.13529894142498963
-0.18351801556472389 -0.13529894142498963
-0.21670438897279198 -0.13529894142498963
-0.18351801556472389 -0.17174824384973733
-0.16692482886068985 -0.15352359263736348
-0.1005520820445537 -0.1170742902126158
-0.08395889534051965 -0.09884963900024195
-0.05077252193245157 -0.06240033657549426
-0.08395889534051965 -0.04417568536312041
-0.05077252193245157 -0.06240033657549426
-0.05077252193245157 -0.02595103415074656
-0.08395889534051965 -0.0806249877878681
-0.06736570863648561 -0.13529894142498963
-0.13373845545262178 -0.18997289506211118
-0.15033164215665581 -0.22642219748685888
-0.20011120226875792 -0.18997289506211118
-0.16692482886068985 -0.09884963900024195
-0.15033164215665581 -0.04417568536312041
-0.06736570863648561 -0.0077263829383727115
-0.03417933522841753 -0.0077263829383727115
0.01560022488368459 -0.13529894142498963
-0.01758614852438349 -0.20819754627448503
-0.03417933522841753 -0.22642219748685888
-0.03417933522841753 -0.2993208023363543
-0.05077252193245157 -0.2810961511239804
-0.05077252193245157 -0.18997289506211118
-0.05077252193245157 -0.18997289506211118
-0.03417933522841753 -0.1170742902126158
-0.01758614852438349 -0.09884963900024195
0.06537978499578671 -0.09884963900024195
0.08197297169982075 -0.1170742902126158
0.11515934510788883 -0.04417568536312041
0.11515934510788883 -0.0806249877878681
0.13175253181192287 -0.09884963900024195
0.13175253181192287 -0.0806249877878681
0.0985661584038548 -0.06240033657549426
0.08197297169982075 -0.02595103415074656
0.01560022488368459 -0.0077263829383727115
-0.0009929618203494508 -0.09884963900024195
-0.01758614852438349 -0.15352359263736348
0.03219341158771863 -0.18997289506211118
0.11515934510788883 -0.20819754627448503
0.13175253181192287 -0.22642219748685888
0.1483457185159569 -0.1170742902126158
0.181532091924025 -0.0806249877878681
0.13175253181192287 -0.06240033657549426
0.13175253181192287 -0.15352359263736348
0.1483457185159569 -0.17174824384973733
0.181532091924025 -0.22642219748685888
0.16493890521999094 -0.24464684869923273
0.16493890521999094 -0.22642219748685888
0.19812527862805904 -0.18997289506211118
0.2313116520361271 -0.15352359263736348
0.181532091924025 -0.1170742902126158
0.2976843988522633 -0.1170742902126158
0.2976843988522633 0.010498268274001136
0.2976843988522633 -0.0077263829383727115
0.2976843988522633 -0.04417568536312041
0.2644980254441952 -0.1170742902126158
0.28109121214822924 -0.24464684869923273
0.28109121214822924 -0.335770104761102
0.2313116520361271 -0.3904440583982235
0.2313116520361271 -0.40866870961059737
0.19812527862805904 -0.335770104761102
0.21471846533209307 -0.24464684869923273
0.21471846533209307 -0.24464684869923273
0.2644980254441952 -0.22642219748685888
0.24790483874016114 -0.24464684869923273
0.28109121214822924 -0.2628714999116066
0.24790483874016114 -0.2810961511239804
0.2313116520361271 -0.2810961511239804
0.21471846533209307 -0.3175454535487281
0.181532091924025 -0.335770104761102
0.1483457185159569 -0.40866870961059737
0.11515934510788883 -0.37221940718584967
0.06537978499578671 -0.37221940718584967
0.06537978499578671 -0.3904440583982235
0.03219341158771863 -0.3539947559734758
0.03219341158771863 -0.2993208023363543
-0.0009929618203494508 -0.2993208023363543
0.01560022488368459 -0.335770104761102
-0.03417933522841753 -0.2993208023363543
-0.05077252193245157 -0.3175454535487281
-0.13373845545262178 -0.3904440583982235
-0.20011120226875792 -0.40866870961059737
-0.21670438897279198 -0.4268933608229712
-0.24989076238086005 -0.40866870961059737
-0.2664839490848941 -0.40866870961059737
-0.24989076238086005 -0.3539947559734758
-0.2830771357889281 -0.335770104761102
-0.2664839490848941 -0.335770104761102
-0.29967032249296216 -0.3175454535487281
-0.2664839490848941 -0.3539947559734758
-0.2664839490848941 -0.335770104761102
-0.2830771357889281 -0.3539947559734758
-0.29967032249296216 -0.40866870961059737
-0.3162635091969962 -0.4268933608229712
-0.3826362560131324 -0.4633426632477189
-0.3826362560131324 -0.4268933608229712
-0.3992294427171664 -0.3904440583982235
-0.41582262942120046 -0.3539947559734758
-0.41582262942120046 -0.335770104761102
-0.3494498826050643 -0.2628714999116066
-0.3494498826050643 -0.2810961511239804
-0.3494498826050643 -0.2993208023363543
-0.36604306930909836 -0.2993208023363543
-0.3826362560131324 -0.3175454535487281
-0.3826362560131324 -0.3175454535487281
-0.4324158161252345 -0.335770104761102
-0.41582262942120046 -0.37221940718584967
-0.4324158161252345 -0.335770104761102
-0.46560218953330257 -0.37221940718584967
-0.46560218953330257 -0.2993208023363543
-0.46560218953330257 -0.2993208023363543
-0.4324158161252345 -0.22642219748685888
-0.44900900282926853 -0.22642219748685888
-0.44900900282926853 -0.24464684869923273
-0.4324158161252345 -0.2628714999116066
-0.44900900282926853 -0.24464684869923273
-0.46560218953330257 -0.2810961511239804
-0.4821953762373366 -0.2810961511239804
-0.5319749363494387 -0.335770104761102
-0.5651613097575068 -0.335770104761102
-0.5651613097575068 -0.2993208023363543
-0.5651613097575068 -0.2628714999116066
-0.5485681230534728 -0.24464684869923273
-0.5651613097575068 -0.20819754627448503
-0.5319749363494387 -0.18997289506211118
-0.5153817496454047 -0.18997289506211118
-0.5319749363494387 -0.18997289506211118
-0.5485681230534728 -0.18997289506211118
-0.5651613097575068 -0.24464684869923273
-0.6149408698696089 -0.2993208023363543
-0.631534056573643 -0.335770104761102
-0.648127243277677 -0.2810961511239804
-0.6647204299817111 -0.2993208023363543
-0.648127243277677 -0.3175454535487281
-0.648127243277677 -0.2628714999116066
-0.6149408698696089 -0.2993208023363543
-0.5651613097575068 -0.22642219748685888
-0.5485681230534728 -0.24464684869923273
-0.5319749363494387 -0.2810961511239804
-0.5485681230534728 -0.2628714999116066
-0.5983476831655749 -0.2993208023363543
-0.5817544964615409 -0.335770104761102
-0.6647204299817111 -0.3904440583982235
-0.6979068033897792 -0.37221940718584967
-0.7310931767978472 -0.3539947559734758
-0.6647204299817111 -0.335770104761102
-0.6979068033897792 -0.3175454535487281
-0.6813136166857451 -0.24464684869923273
-0.631534056573643 -0.2628714999116066
-0.5983476831655749 -0.2810961511239804
-0.6149408698696089 -0.2810961511239804
-0.6149408698696089 -0.2810961511239804
-0.648127243277677 -0.37221940718584967
-0.6647204299817111 -0.3539947559734758
-0.6647204299817111 -0.40866870961059737
-0.6813136166857451 -0.40866870961059737
-0.6647204299817111 -0.4268933608229712
-0.6813136166857451 -0.37221940718584967
-0.6813136166857451 -0.3175454535487281
-0.6647204299817111 -0.335770104761102
-0.6149408698696089 -0.2810961511239804
-0.5817544964615409 -0.3175454535487281
-0.6149408698696089 -0.37221940718584967
-0.6149408698696089 -0.3539947559734758
-0.631534056573643 -0.3904440583982235
-0.648127243277677 -0.40866870961059737
-0.6647204299817111 -0.4268933608229712
-0.6647204299817111 -0.44511801203534507
-0.648127243277677 -0.4633426632477189
-0.6647204299817111 -0.44511801203534507
-0.631534056573643 -0.40866870961059737
-0.6149408698696089 -0.3904440583982235
-0.5983476831655749 -0.37221940718584967
-0.5817544964615409 -0.37221940718584967
-0.5817544964615409 -0.40866870961059737
-0.5485681230534728 -0.4268933608229712
-0.5983476831655749 -0.4268933608229712
-0.631534056573643 -0.4633426632477189
-0.6647204299817111 -0.5180166168848405
-0.6813136166857451 -0.5180166168848405
-0.648127243277677 -0.5180166168848405
-0.6813136166857451 -0.4997919656724666
-0.631534056573643 -0.4268933608229712
-0.631534056573643 -0.40866870961059737
-0.5651613097575068 -0.3904440583982235
-0.5485681230534728 -0.3904440583982235
-0.5485681230534728 -0.40866870961059737
-0.5817544964615409 -0.4268933608229712
-0.5485681230534728 -0.4633426632477189
-0.5983476831655749 -0.48156731446009277
-0.648127243277677 -0.5180166168848405
-0.6647204299817111 -0.5180166168848405
-0.6813136166857451 -0.48156731446009277
-0.631534056573643 -0.4997919656724666
-0.5817544964615409 -0.4633426632477189
-0.5983476831655749 -0.40866870961059737
-0.5485681230534728 -0.37221940718584967
-0.5153817496454047 -0.40866870961059737
-0.5153817496454047 -0.44511801203534507
-0.49878856294137064 -0.44511801203534507
-0.5319749363494387 -0.4997919656724666
-0.5485681230534728 -0.5180166168848405
-0.5817544964615409 -0.5544659193095881
-0.5817544964615409 -0.5362412680972143
-0.6149408698696089 -0.5180166168848405
-0.6149408698696089 -0.48156731446009277
-0.6149408698696089 -0.4633426632477189
-0.5983476831655749 -0.44511801203534507
-0.5817544964615409 -0.48156731446009277
-0.5485681230534728 -0.5180166168848405
-0.5153817496454047 -0.5180166168848405
-0.5817544964615409 -0.5726905705219619
-0.5651613097575068 -0.5726905705219619
-0.5319749363494387 -0.5544659193095881
-0.5651613097575068 -0.5544659193095881
-0.6149408698696089 -0.5726905705219619
-0.5983476831655749 -0.5180166168848405
-0.5817544964615409 -0.5362412680972143
-0.5485681230534728 -0.48156731446009277
-0.5153817496454047 -0.4633426632477189
-0.49878856294137064 -0.44511801203534507
-0.46560218953330257 -0.4633426632477189
-0.46560218953330257 -0.4997919656724666
-0.4821953762373366 -0.5362412680972143
-0.5319749363494387 -0.5544659193095881
-0.5319749363494387 -0.6091398729467097
-0.5983476831655749 -0.6455891753714573
-0.5817544964615409 -0.5909152217343359
-0.5651613097575068 -0.6091398729467097
-0.5651613097575068 -0.5909152217343359
-0.5319749363494387 -0.4997919656724666
-0.49878856294137064 -0.4997919656724666
-0.4324158161252345 -0.48156731446009277
-0.4324158161252345 -0.4633426632477189
-0.46560218953330257 -0.5180166168848405
-0.46560218953330257 -0.5726905705219619
-0.4821953762373366 -0.6091398729467097
-0.49878856294137064 -0.6638138265838313
-0.49878856294137064 -0.6638138265838313
-0.4821953762373366 -0.6455891753714573
-0.5153817496454047 -0.6273645241590835
-0.5153817496454047 -0.6091398729467097
-0.4821953762373366 -0.5544659193095881
-0.44900900282926853 -0.4997919656724666
-0.46560218953330257 -0.48156731446009277
-0.3826362560131324 -0.48156731446009277
-0.3826362560131324 -0.48156731446009277
-0.3992294427171664 -0.4633426632477189
-0.3992294427171664 -0.48156731446009277
-0.3826362560131324 -0.4633426632477189
-0.3826362560131324 -0.4997919656724666
-0.3826362560131324 -0.5180166168848405
-0.3494498826050643 -0.48156731446009277
-0.2830771357889281 -0.44511801203534507
-0.24989076238086005 -0.4268933608229712
-0.21670438897279198 -0.4268933608229712
-0.16692482886068985 -0.4633426632477189
-0.15033164215665581 -0.4997919656724666
-0.13373845545262178 -0.6091398729467097
-0.13373845545262178 -0.6455891753714573
-0.13373845545262178 -0.7184877802209527
-0.11714526874858773 -0.8096110362828219
-0.1005520820445537 -0.8460603387075697
-0.11714526874858773 -0.9007342923446913
-0.08395889534051965 -0.8278356874951959
-0.03417933522841753 -0.8278356874951959
0.04878659829175267 -0.8278356874951959
0.06537978499578671 -0.7731617338580743
0.0985661584038548 -0.7367124314333267
0.0985661584038548 -0.7184877802209527
0.08197297169982075 -0.7184877802209527
0.0985661584038548 -0.7002631290085789
0.06537978499578671 -0.7184877802209527
0.06537978499578671 -0.6455891753714573
-0.0009929618203494508 -0.6455891753714573
-0.08395889534051965 -0.6091398729467097
-0.11714526874858773 -0.5909152217343359
-0.13373845545262178 -0.5726905705219619
-0.13373845545262178 -0.5362412680972143
-0.11714526874858773 -0.5180166168848405
-0.11714526874858773 -0.5362412680972143
-0.13373845545262178 -0.5362412680972143
-0.18351801556472389 -0.5362412680972143
-0.2664839490848941 -0.5544659193095881
-0.33285669590103023 -0.5726905705219619
-0.46560218953330257 -0.5726905705219619
-0.5319749363494387 -0.6091398729467097
-0.5319749363494387 -0.6638138265838313
-0.5153817496454047 -0.6638138265838313
-0.49878856294137064 -0.5909152217343359
-0.46560218953330257 -0.5726905705219619
-0.41582262942120046 -0.5362412680972143
-0.3826362560131324 -0.48156731446009277
-0.36604306930909836 -0.4997919656724666
-0.36604306930909836 -0.5362412680972143
-0.41582262942120046 -0.48156731446009277
-0.41582262942120046 -0.48156731446009277
-0.41582262942120046 -0.44511801203534507
-0.41582262942120046 -0.48156731446009277
-0.3992294427171664 -0.5180166168848405
-0.3494498826050643 -0.6820384777962051
-0.3494498826050643 -0.9007342923446913
-0.2830771357889281 -1.3016766190169158
-0.13373845545262178 -1.9213147602376266
0.01560022488368459 -2.522728250245964
0.33087077226033135 -3.2334896475285437
0.7291072531571483 -3.8531277887492545
1.1937164808701015 -4.363418022695722
1.6749188952870886 -4.655012442093704
2.0897485628879395 -4.691461744518452
2.4382054836726543 -4.381642673908096
2.7036964709371993 -3.9442510448111237
2.8530351512735055 -3.3428375548027867
2.9360010847936757 -2.7778733672191973
3.0023738316098116 -2.249358482060356
3.085339765129982 -1.8484161553881313
3.1351193252420844 -1.4292491775035328
3.068746578425948 -1.1376547581055512
2.9028147113856075 -0.9371835947694389
2.620730537417029 -0.7549370826457005
2.288866803336348 -0.6820384777962051
2.0399690027758375 -0.6455891753714573
1.7578848288072588 -0.6455891753714573
1.4923938415427143 -0.6091398729467097
1.2103096675741354 -0.5726905705219619
0.9282254936055568 -0.5180166168848405
0.6627345063410122 -0.3904440583982235
0.4138367057805016 -0.335770104761102
0.19812527862805904 -0.2993208023363543
0.03219341158771863 -0.2993208023363543
-0.15033164215665581 -0.3539947559734758
-0.3162635091969962 -0.2993208023363543
-0.3992294427171664 -0.335770104761102
-0.41582262942120046 -0.37221940718584967
-0.3826362560131324 -0.3539947559734758
-0.3494498826050643 -0.3539947559734758
-0.33285669590103023 -0.3175454535487281
-0.29967032249296216 -0.2628714999116066
-0.3162635091969962 -0.24464684869923273
-0.23329757567682602 -0.20819754627448503
-0.21670438897279198 -0.22642219748685888
-0.18351801556472389 -0.22642219748685888
-0.21670438897279198 -0.2628714999116066
-0.20011120226875792 -0.2993208023363543
-0.20011120226875792 -0.335770104761102
-0.23329757567682602 -0.3175454535487281
-0.23329757567682602 -0.2993208023363543
-0.24989076238086005 -0.2993208023363543
-0.24989076238086005 -0.24464684869923273
-0.2664839490848941 -0.24464684869923273
-0.20011120226875792 -0.24464684869923273
-0.18351801556472389 -0.24464684869923273
-0.13373845545262178 -0.17174824384973733
-0.1005520820445537 -0.17174824384973733
-0.08395889534051965 -0.15352359263736348
-0.11714526874858773 -0.18997289506211118
-0.16692482886068985 -0.2628714999116066
-0.16692482886068985 -0.2628714999116066
-0.20011120226875792 -0.3539947559734758
-0.18351801556472389 -0.335770104761102
-0.18351801556472389 -0.335770104761102
-0.13373845545262178 -0.3539947559734758
-0.11714526874858773 -0.2993208023363543
-0.05077252193245157 -0.2810961511239804
-0.05077252193245157 -0.22642219748685888
-0.01758614852438349 -0.24464684869923273
-0.05077252193245157 -0.18997289506211118
-0.05077252193245157 -0.2810961511239804
-0.06736570863648561 -0.2993208023363543
-0.08395889534051965 -0.335770104761102
-0.11714526874858773 -0.3175454535487281
-0.1005520820445537 -0.40866870961059737
-0.06736570863648561 -0.3539947559734758
-0.03417933522841753 -0.2993208023363543
0.01560022488368459 -0.24464684869923273
-0.0009929618203494508 -0.2810961511239804
0.06537978499578671 -0.2628714999116066
0.06537978499578671 -0.2628714999116066
0.01560022488368459 -0.3175454535487281
0.04878659829175267 -0.2810961511239804
0.03219341158771863 -0.2810961511239804
0.04878659829175267 -0.2810961511239804
0.03219341158771863 -0.3175454535487281
0.03219341158771863 -0.3539947559734758
0.03219341158771863 -0.2993208023363543
0.04878659829175267 -0.3539947559734758
0.0985661584038548 -0.335770104761102
0.11515934510788883 -0.3175454535487281
0.13175253181192287 -0.3539947559734758
0.181532091924025 -0.3539947559734758
0.181532091924025 -0.2993208023363543
0.1483457185159569 -0.2993208023363543
0.16493890521999094 -0.2993208023363543
0.21471846533209307 -0.335770104761102
0.181532091924025 -0.335770104761102
0.181532091924025 -0.3539947559734758
0.16493890521999094 -0.37221940718584967
0.19812527862805904 -0.3904440583982235
0.19812527862805904 -0.3539947559734758
0.21471846533209307 -0.3175454535487281
0.2644980254441952 -0.335770104761102
0.2976843988522633 -0.2810961511239804
0.3142775855562973 -0.335770104761102
0.3142775855562973 -0.335770104761102
0.33087077226033135 -0.37221940718584967
0.28109121214822924 -0.4268933608229712
0.24790483874016114 -0.48156731446009277
0.21471846533209307 -0.48156731446009277
0.2313116520361271 -0.48156731446009277
0.28109121214822924 -0.3904440583982235
0.3142775855562973 -0.3539947559734758
0.33087077226033135 -0.3539947559734758
0.33087077226033135 -0.335770104761102
0.33087077226033135 -0.335770104761102
0.3142775855562973 -0.3539947559734758
0.3142775855562973 -0.3539947559734758
0.24790483874016114 -0.40866870961059737
0.19812527862805904 -0.40866870961059737
0.1483457185159569 -0.4268933608229712
0.1483457185159569 -0.44511801203534507
0.08197297169982075 -0.4268933608229712
0.06537978499578671 -0.37221940718584967
0.08197297169982075 -0.335770104761102
0.0985661584038548 -0.335770104761102
0.0985661584038548 -0.2993208023363543
0.11515934510788883 -0.2993208023363543
0.04878659829175267 -0.3175454535487281
0.01560022488368459 -0.3539947559734758
-0.05077252193245157 -0.3904440583982235
-0.15033164215665581 -0.3904440583982235
-0.21670438897279198 -0.40866870961059737
-0.24989076238086005 -0.4268933608229712
-0.3162635091969962 -0.3904440583982235
-0.29967032249296216 -0.3904440583982235
-0.29967032249296216 -0.2993208023363543
-0.2830771357889281 -0.335770104761102
-0.3162635091969962 -0.3175454535487281
-0.33285669590103023 -0.3175454535487281
-0.3162635091969962 -0.2810961511239804
-0.3162635091969962 -0.2993208023363543
-0.41582262942120046 -0.335770104761102
-0.3992294427171664 -0.335770104761102
-0.4324158161252345 -0.3539947559734758
-0.46560218953330257 -0.37221940718584967
-0.4821953762373366 -0.3539947559734758
-0.44900900282926853 -0.2993208023363543
-0.41582262942120046 -0.335770104761102
-0.41582262942120046 -0.3175454535487281
-0.41582262942120046 -0.2628714999116066
-0.3494498826050643 -0.2628714999116066
-0.36604306930909836 -0.22642219748685888
-0.3826362560131324 -0.24464684869923273
-0.3826362560131324 -0.2810961511239804
-0.4324158161252345 -0.2628714999116066
-0.4821953762373366 -0.3904440583982235
-0.46560218953330257 -0.37221940718584967
-0.5319749363494387 -0.335770104761102
-0.4821953762373366 -0.3175454535487281
-0.49878856294137064 -0.2993208023363543
-0.4821953762373366 -0.2810961511239804
-0.44900900282926853 -0.18997289506211118
-0.41582262942120046 -0.20819754627448503
-0.3826362560131324 -0.2993208023363543
-0.3494498826050643 -0.2628714999116066
-0.4324158161252345 -0.335770104761102
-0.4324158161252345 -0.2993208023363543
-0.5153817496454047 -0.2993208023363543
-0.5153817496454047 -0.2993208023363543
-0.5485681230534728 -0.2993208023363543
-0.5153817496454047 -0.2993208023363543
-0.44900900282926853 -0.22642219748685888
-0.4821953762373366 -0.18997289506211118
-0.5153817496454047 -0.22642219748685888
-0.49878856294137064 -0.24464684869923273
-0.4324158161252345 -0.24464684869923273
-0.44900900282926853 -0.2628714999116066
-0.44900900282926853 -0.24464684869923273
-0.49878856294137064 -0.3175454535487281
-0.4821953762373366 -0.2628714999116066
-0.5485681230534728 -0.2810961511239804
-0.5153817496454047 -0.3175454535487281
-0.49878856294137064 -0.2993208023363543
-0.4821953762373366 -0.2628714999116066
-0.4821953762373366 -0.2810961511239804
-0.4821953762373366 -0.24464684869923273
-0.46560218953330257 -0.24464684869923273
-0.44900900282926853 -0.24464684869923273
-0.4821953762373366 -0.2993208023363543
-0.5485681230534728 -0.2993208023363543
-0.5485681230534728 -0.335770104761102
-0.5485681230534728 -0.3539947559734758
-0.5485681230534728 -0.335770104761102
-0.5319749363494387 -0.335770104761102
-0.5485681230534728 -0.335770104761102
-0.5319749363494387 -0.2993208023363543
-0.5319749363494387 -0.24464684869923273
-0.5153817496454047 -0.2628714999116066
-0.46560218953330257 -0.24464684869923273
-0.46560218953330257 -0.2810961511239804
-0.4821953762373366 -0.2993208023363543
-0.46560218953330257 -0.335770104761102
-0.5485681230534728 -0.3904440583982235
-0.5485681230534728 -0.37221940718584967
-0.5651613097575068 -0.40866870961059737
-0.5817544964615409 -0.3904440583982235
-0.5651613097575068 -0.335770104761102
-0.5485681230534728 -0.3175454535487281
-0.49878856294137064 -0.2810961511239804
-0.46560218953330257 -0.3175454535487281
-0.4324158161252345 -0.2810961511239804
-0.44900900282926853 -0.2993208023363543
-0.44900900282926853 -0.335770104761102
-0.49878856294137064 -0.3539947559734758
-0.5319749363494387 -0.3539947559734758
-0.5485681230534728 -0.3539947559734758
-0.5485681230534728 -0.40866870961059737
-0.5817544964615409 -0.37221940718584967
-0.5485681230534728 -0.3539947559734758
-0.5485681230534728 -0.335770104761102
-0.49878856294137064 -0.3175454535487281
-0.44900900282926853 -0.2810961511239804
-0.46560218953330257 -0.2628714999116066
-0.4821953762373366 -0.335770104761102
-0.44900900282926853 -0.335770104761102
-0.49878856294137064 -0.335770104761102
-0.44900900282926853 -0.37221940718584967
-0.4821953762373366 -0.37221940718584967
-0.49878856294137064 -0.3904440583982235
-0.49878856294137064 -0.4268933608229712
-0.4821953762373366 -0.40866870961059737
-0.46560218953330257 -0.3539947559734758
-0.4324158161252345 -0.335770104761102
-0.41582262942120046 -0.3175454535487281
-0.3826362560131324 -0.335770104761102
-0.3992294427171664 -0.37221940718584967
-0.46560218953330257 -0.3539947559734758
-0.4324158161252345 -0.3904440583982235
-0.44900900282926853 -0.3904440583982235
-0.46560218953330257 -0.48156731446009277
-0.46560218953330257 -0.44511801203534507
-0.46560218953330257 -0.48156731446009277
-0.4324158161252345 -0.40866870961059737
-0.4324158161252345 -0.37221940718584967
-0.3992294427171664 -0.37221940718584967
-0.3826362560131324 -0.335770104761102
-0.3826362560131324 -0.2810961511239804
-0.36604306930909836 -0.335770104761102
-0.36604306930909836 -0.37221940718584967
-0.3826362560131324 -0.3904440583982235
-0.3826362560131324 -0.4268933608229712
-0.46560218953330257 -0.4268933608229712
-0.4821953762373366 -0.4268933608229712
-0.41582262942120046 -0.40866870961059737
-0.4324158161252345 -0.3904440583982235
-0.41582262942120046 -0.3539947559734758
-0.3826362560131324 -0.3904440583982235
-0.3494498826050643 -0.3539947559734758
-0.36604306930909836 -0.3175454535487281
-0.3494498826050643 -0.3539947559734758
-0.36604306930909836 -0.3539947559734758
-0.44900900282926853 -0.3904440583982235
-0.41582262942120046 -0.37221940718584967
-0.3992294427171664 -0.40866870961059737
-0.4324158161252345 -0.4268933608229712
-0.46560218953330257 -0.44511801203534507
-0.44900900282926853 -0.3904440583982235
-0.41582262942120046 -0.3904440583982235
-0.3826362560131324 -0.37221940718584967
-0.3826362560131324 -0.3539947559734758
-0.3162635091969962 -0.37221940718584967
-0.3494498826050643 -0.40866870961059737
-0.36604306930909836 -0.3904440583982235
-0.36604306930909836 -0.40866870961059737
-0.3826362560131324 -0.40866870961059737
-0.3826362560131324 -0.44511801203534507
-0.3494498826050643 -0.3904440583982235
-0.3826362560131324 -0.4268933608229712
-0.36604306930909836 -0.4268933608229712
-0.36604306930909836 -0.40866870961059737
-0.3494498826050643 -0.3904440583982235
-0.33285669590103023 -0.3175454535487281
-0.3162635091969962 -0.335770104761102
-0.2664839490848941 -0.2993208023363543
-0.3162635091969962 -0.3175454535487281
-0.2830771357889281 -0.3539947559734758
-0.2830771357889281 -0.3539947559734758
-0.29967032249296216 -0.37221940718584967
-0.2664839490848941 -0.37221940718584967
-0.23329757567682602 -0.3904440583982235
-0.21670438897279198 -0.3539947559734758
-0.16692482886068985 -0.3175454535487281
-0.11714526874858773 -0.2810961511239804
-0.1005520820445537 -0.2993208023363543
-0.06736570863648561 -0.335770104761102
-0.06736570863648561 -0.4268933608229712
-0.06736570863648561 -0.4633426632477189
-0.05077252193245157 -0.5180166168848405
-0.03417933522841753 -0.5544659193095881
-0.03417933522841753 -0.6638138265838313
-0.03417933522841753 -0.6273645241590835
-0.0009929618203494508 -0.6273645241590835
0.03219341158771863 -0.6273645241590835
0.11515934510788883 -0.5909152217343359
0.1483457185159569 -0.6091398729467097
0.19812527862805904 -0.5544659193095881
0.19812527862805904 -0.5726905705219619
0.181532091924025 -0.5726905705219619
0.1483457185159569 -0.5544659193095881
0.1483457185159569 -0.5909152217343359
0.16493890521999094 -0.5362412680972143
0.0985661584038548 -0.5180166168848405
0.04878659829175267 -0.5362412680972143
-0.0009929618203494508 -0.4633426632477189
-0.08395889534051965 -0.40866870961059737
-0.08395889534051965 -0.3904440583982235
-0.06736570863648561 -0.40866870961059737
-0.06736570863648561 -0.3904440583982235
-0.01758614852438349 -0.3539947559734758
-0.08395889534051965 -0.40866870961059737
-0.11714526874858773 -0.37221940718584967
-0.18351801556472389 -0.4268933608229712
-0.2830771357889281 -0.4268933608229712
-0.2830771357889281 -0.4997919656724666
-0.36604306930909836 -0.48156731446009277
-0.46560218953330257 -0.4997919656724666
-0.4324158161252345 -0.4268933608229712
-0.36604306930909836 -0.4268933608229712
-0.29967032249296216 -0.4268933608229712
-0.29967032249296216 -0.3904440583982235
-0.3162635091969962 -0.37221940718584967
-0.29967032249296216 -0.37221940718584967
-0.33285669590103023 -0.3904440583982235
-0.33285669590103023 -0.37221940718584967
-0.3162635091969962 -0.40866870961059737
-0.3494498826050643 -0.37221940718584967
-0.33285669590103023 -0.37221940718584967
-0.33285669590103023 -0.3539947559734758
-0.3494498826050643 -0.335770104761102
-0.33285669590103023 -0.2810961511239804
-0.3162635091969962 -0.37221940718584967
-0.2664839490848941 -0.40866870961059737
-0.16692482886068985 -0.6820384777962051
-0.15033164215665581 -1.1376547581055512
-0.01758614852438349 -1.647944992052019
0.16493890521999094 -2.340481738122225
0.39724351907646754 -3.0876924378295527
0.7622936265652164 -3.7620045326873854
1.1937164808701015 -4.3087440690586005
1.6749188952870886 -4.582113837244209
2.1229349362960077 -4.545664534819461
2.5045782304887907 -4.144722208147236
2.8032555911614034 -3.579758020563647
2.9857806449057778 -2.9236705769181883
3.1351193252420844 -2.2858077844851037
3.218085258762254 -1.7390682481138882
3.1848988853541864 -1.3016766190169158
3.085339765129982 -1.0100821996189344
2.9360010847936757 -0.7913863850704481
2.637323724121063 -0.6273645241590835
2.3884259235605523 -0.5180166168848405
2.1395281230000416 -0.4633426632477189
1.874037135735497 -0.4268933608229712
1.5753597750628843 -0.40866870961059737
1.3264619745023738 -0.37221940718584967
1.0443778005337951 -0.2993208023363543
0.7954799999732844 -0.2628714999116066
0.5133958260047058 -0.22642219748685888
0.2644980254441952 -0.24464684869923273
0.08197297169982075 -0.2628714999116066
-0.06736570863648561 -0.24464684869923273
-0.16692482886068985 -0.2993208023363543
-0.21670438897279198 -0.2810961511239804
-0.23329757567682602 -0.3175454535487281
-0.20011120226875792 -0.2628714999116066
-0.16692482886068985 -0.20819754627448503
-0.15033164215665581 -0.22642219748685888
-0.06736570863648561 -0.20819754627448503
-0.03417933522841753 -0.18997289506211118
-0.01758614852438349 -0.18997289506211118
-0.03417933522841753 -0.22642219748685888
-0.08395889534051965 -0.24464684869923273
-0.1005520820445537 -0.24464684869923273
-0.08395889534051965 -0.2628714999116066
-0.06736570863648561 -0.24464684869923273
-0.1005520820445537 -0.22642219748685888
-0.06736570863648561 -0.20819754627448503
-0.06736570863648561 -0.17174824384973733
-0.03417933522841753 -0.17174824384973733
-0.05077252193245157 -0.17174824384973733
-0.05077252193245157 -0.17174824384973733
-0.01758614852438349 -0.18997289506211118
-0.0009929618203494508 -0.18997289506211118
0.01560022488368459 -0.18997289506211118
-0.01758614852438349 -0.20819754627448503
-0.06736570863648561 -0.22642219748685888
-0.05077252193245157 -0.20819754627448503
-0.03417933522841753 -0.20819754627448503
-0.01758614852438349 -0.18997289506211118
0.01560022488368459 -0.20819754627448503
0.04878659829175267 -0.18997289506211118
0.06537978499578671 -0.18997289506211118
0.1483457185159569 -0.17174824384973733
0.11515934510788883 -0.15352359263736348
0.11515934510788883 -0.13529894142498963
0.13175253181192287 -0.15352359263736348
0.0985661584038548 -0.24464684869923273
0.06537978499578671 -0.2810961511239804
0.08197297169982075 -0.3175454535487281
0.06537978499578671 -0.37221940718584967
0.04878659829175267 -0.37221940718584967
0.11515934510788883 -0.2993208023363543
0.1483457185159569 -0.3175454535487281
0.11515934510788883 -0.2810961511239804
0.1483457185159569 -0.2993208023363543
0.1483457185159569 -0.2628714999116066
0.16493890521999094 -0.3539947559734758
0.13175253181192287 -0.37221940718584967
0.13175253181192287 -0.37221940718584967
0.16493890521999094 -0.3904440583982235
0.16493890521999094 -0.3539947559734758
0.13175253181192287 -0.335770104761102
0.1483457185159569 -0.3539947559734758
0.19812527862805904 -0.2993208023363543
0.2313116520361271 -0.24464684869923273
0.24790483874016114 -0.24464684869923273
0.2976843988522633 -0.24464684869923273
0.3142775855562973 -0.22642219748685888
0.2976843988522633 -0.2810961511239804
0.2976843988522633 -0.37221940718584967
0.2644980254441952 -0.40866870961059737
0.24790483874016114 -0.3904440583982235
0.2313116520361271 -0.3904440583982235
0.24790483874016114 -0.40866870961059737
0.28109121214822924 -0.37221940718584967
0.28109121214822924 -0.335770104761102
0.2976843988522633 -0.3175454535487281
0.33087077226033135 -0.2993208023363543
0.38065033237243345 -0.2810961511239804
0.3640571456683994 -0.2810961511239804
0.38065033237243345 -0.2993208023363543
0.4138367057805016 -0.335770104761102
0.38065033237243345 -0.335770104761102
0.38065033237243345 -0.4268933608229712
0.39724351907646754 -0.44511801203534507
0.38065033237243345 -0.4633426632477189
0.3142775855562973 -0.4268933608229712
0.39724351907646754 -0.40866870961059737
0.4138367057805016 -0.37221940718584967
0.4304298924845356 -0.3175454535487281
0.39724351907646754 -0.3175454535487281
0.4138367057805016 -0.3904440583982235
0.4304298924845356 -0.3539947559734758
0.39724351907646754 -0.4268933608229712
0.4138367057805016 -0.44511801203534507
0.3640571456683994 -0.48156731446009277
0.3640571456683994 -0.5362412680972143
0.3142775855562973 -0.4997919656724666
0.28109121214822924 -0.5180166168848405
0.3142775855562973 -0.4268933608229712
0.3142775855562973 -0.4268933608229712
0.2644980254441952 -0.40866870961059737
0.2976843988522633 -0.37221940718584967
0.24790483874016114 -0.40866870961059737
0.21471846533209307 -0.4633426632477189
0.181532091924025 -0.4997919656724666
0.1483457185159569 -0.5362412680972143
0.0985661584038548 -0.5362412680972143
0.08197297169982075 -0.5544659193095881
-0.0009929618203494508 -0.5180166168848405
-0.0009929618203494508 -0.4268933608229712
-0.03417933522841753 -0.3904440583982235
-0.05077252193245157 -0.40866870961059737
-0.03417933522841753 -0.3904440583982235
-0.05077252193245157 -0.3904440583982235
-0.05077252193245157 -0.4268933608229712
-0.11714526874858773 -0.4268933608229712
-0.13373845545262178 -0.44511801203534507
-0.16692482886068985 -0.4268933608229712
-0.16692482886068985 -0.4633426632477189
-0.21670438897279198 -0.48156731446009277
-0.2664839490848941 -0.5180166168848405
-0.24989076238086005 -0.5180166168848405
-0.24989076238086005 -0.5180166168848405
-0.23329757567682602 -0.4633426632477189
-0.20011120226875792 -0.37221940718584967
-0.18351801556472389 -0.3539947559734758
-0.20011120226875792 -0.3539947559734758
-0.23329757567682602 -0.37221940718584967
-0.23329757567682602 -0.40866870961059737
-0.24989076238086005 -0.3904440583982235
-0.2830771357889281 -0.44511801203534507
-0.2830771357889281 -0.40866870961059737
-0.2830771357889281 -0.4268933608229712
-0.2664839490848941 -0.4268933608229712
-0.2830771357889281 -0.37221940718584967
-0.24989076238086005 -0.3904440583982235
-0.21670438897279198 -0.335770104761102
-0.20011120226875792 -0.335770104761102
-0.20011120226875792 -0.2810961511239804
-0.20011120226875792 -0.3175454535487281
-0.20011120226875792 -0.3539947559734758
-0.24989076238086005 -0.3539947559734758
-0.2830771357889281 -0.37221940718584967
-0.24989076238086005 -0.44511801203534507
-0.2830771357889281 -0.40866870961059737
-0.3162635091969962 -0.3904440583982235
-0.2830771357889281 -0.3175454535487281
-0.2664839490848941 -0.335770104761102
-0.2664839490848941 -0.2993208023363543
-0.21670438897279198 -0.24464684869923273
-0.23329757567682602 -0.2810961511239804
-0.2664839490848941 -0.2628714999116066
-0.2830771357889281 -0.2628714999116066
-0.29967032249296216 -0.3175454535487281
-0.3162635091969962 -0.40866870961059737
-0.3494498826050643 -0.44511801203534507
-0.3992294427171664 -0.44511801203534507
-0.46560218953330257 -0.44511801203534507
-0.41582262942120046 -0.37221940718584967
-0.33285669590103023 -0.3175454535487281
-0.3494498826050643 -0.3175454535487281
-0.33285669590103023 -0.2810961511239804
-0.3494498826050643 -0.3175454535487281
-0.36604306930909836 -0.3175454535487281
-0.3826362560131324 -0.335770104761102
-0.3826362560131324 -0.40866870961059737
-0.44900900282926853 -0.40866870961059737
-0.4324158161252345 -0.4268933608229712
-0.41582262942120046 -0.40866870961059737
-0.4324158161252345 -0.40866870961059737
-0.3826362560131324 -0.3904440583982235
-0.3826362560131324 -0.37221940718584967
-0.3494498826050643 -0.3175454535487281
-0.3494498826050643 -0.335770104761102
-0.3162635091969962 -0.37221940718584967
-0.3162635091969962 -0.40866870961059737
-0.3494498826050643 -0.4268933608229712
-0.3826362560131324 -0.4633426632477189
-0.41582262942120046 -0.48156731446009277
-0.44900900282926853 -0.4633426632477189
-0.44900900282926853 -0.44511801203534507
-0.46560218953330257 -0.44511801203534507
-0.41582262942120046 -0.40866870961059737
-0.3992294427171664 -0.335770104761102
-0.36604306930909836 -0.335770104761102
-0.36604306930909836 -0.335770104761102
-0.36604306930909836 -0.335770104761102
-0.3162635091969962 -0.3175454535487281
-0.3826362560131324 -0.37221940718584967
-0.3992294427171664 -0.4268933608229712
-0.33285669590103023 -0.4268933608229712
-0.41582262942120046 -0.48156731446009277
-0.3826362560131324 -0.48156731446009277
-0.41582262942120046 -0.44511801203534507
-0.3826362560131324 -0.3904440583982235
-0.3826362560131324 -0.335770104761102
-0.3494498826050643 -0.3539947559734758
-0.29967032249296216 -0.37221940718584967
-0.33285669590103023 -0.44511801203534507
-0.3494498826050643 -0.4268933608229712
-0.36604306930909836 -0.40866870961059737
-0.3826362560131324 -0.4268933608229712
-0.3826362560131324 -0.48156731446009277
-0.41582262942120046 -0.48156731446009277
-0.3992294427171664 -0.4268933608229712
-0.4324158161252345 -0.40866870961059737
-0.3826362560131324 -0.40866870961059737
-0.3162635091969962 -0.3904440583982235
-0.36604306930909836 -0.3539947559734758
-0.3162635091969962 -0.3539947559734758
-0.29967032249296216 -0.3539947559734758
-0.29967032249296216 -0.335770104761102
-0.3162635091969962 -0.40866870961059737
-0.29967032249296216 -0.4633426632477189
-0.33285669590103023 -0.4633426632477189
-0.36604306930909836 -0.40866870961059737
-0.36604306930909836 -0.4633426632477189
-0.36604306930909836 -0.3904440583982235
-0.3494498826050643 -0.3904440583982235
-0.3162635091969962 -0.37221940718584967
-0.33285669590103023 -0.3175454535487281
-0.2830771357889281 -0.37221940718584967
-0.2830771357889281 -0.40866870961059737
-0.29967032249296216 -0.4268933608229712
-0.29967032249296216 -0.40866870961059737
-0.3162635091969962 -0.48156731446009277
-0.33285669590103023 -0.4633426632477189
-0.3494498826050643 -0.4633426632477189
-0.36604306930909836 -0.48156731446009277
-0.33285669590103023 -0.40866870961059737
-0.3162635091969962 -0.335770104761102
-0.2830771357889281 -0.3539947559734758
-0.29967032249296216 -0.335770104761102
-0.2830771357889281 -0.3539947559734758
-0.23329757567682602 -0.3904440583982235
-0.24989076238086005 -0.40866870961059737
-0.2664839490848941 -0.37221940718584967
-0.2830771357889281 -0.44511801203534507
-0.29967032249296216 -0.40866870961059737
-0.3162635091969962 -0.44511801203534507
-0.33285669590103023 -0.44511801203534507
-0.3162635091969962 -0.3904440583982235
-0.3162635091969962 -0.3539947559734758
-0.24989076238086005 -0.3539947559734758
-0.24989076238086005 -0.335770104761102
-0.2664839490848941 -0.335770104761102
-0.29967032249296216 -0.335770104761102
-0.2664839490848941 -0.335770104761102
-0.24989076238086005 -0.37221940718584967
-0.29967032249296216 -0.3904440583982235
-0.29967032249296216 -0.4633426632477189
-0.3162635091969962 -0.44511801203534507
-0.3162635091969962 -0.40866870961059737
-0.3162635091969962 -0.3539947559734758
-0.29967032249296216 -0.3904440583982235
-0.3162635091969962 -0.37221940718584967
-0.3162635091969962 -0.2993208023363543
-0.24989076238086005 -0.2810961511239804
-0.23329757567682602 -0.2993208023363543
-0.23329757567682602 -0.3539947559734758
-0.24989076238086005 -0.40866870961059737
-0.2830771357889281 -0.3904440583982235
-0.2664839490848941 -0.40866870961059737
-0.2830771357889281 -0.4268933608229712
-0.36604306930909836 -0.37221940718584967
-0.2664839490848941 -0.3539947559734758
-0.2664839490848941 -0.2993208023363543
-0.24989076238086005 -0.24464684869923273
-0.23329757567682602 -0.17174824384973733
-0.11714526874858773 -0.20819754627448503
-0.11714526874858773 -0.20819754627448503
-0.05077252193245157 -0.2628714999116066
-0.05077252193245157 -0.2993208023363543
-0.06736570863648561 -0.3904440583982235
-0.06736570863648561 -0.4268933608229712
-0.08395889534051965 -0.4997919656724666
-0.03417933522841753 -0.6091398729467097
-0.05077252193245157 -0.5726905705219619
0.01560022488368459 -0.5726905705219619
0.04878659829175267 -0.5909152217343359
0.08197297169982075 -0.6091398729467097
0.1483457185159569 -0.5362412680972143
0.19812527862805904 -0.5544659193095881
0.19812527862805904 -0.6273645241590835
0.13175253181192287 -0.5544659193095881
0.06537978499578671 -0.6091398729467097
0.08197297169982075 -0.6091398729467097
0.06537978499578671 -0.5909152217343359
0.04878659829175267 -0.5544659193095881
0.01560022488368459 -0.48156731446009277
-0.01758614852438349 -0.4268933608229712
-0.08395889534051965 -0.3539947559734758
-0.06736570863648561 -0.2810961511239804
-0.0009929618203494508 -0.2810961511239804
-0.06736570863648561 -0.2628714999116066
-0.1005520820445537 -0.335770104761102
-0.11714526874858773 -0.335770104761102
-0.20011120226875792 -0.4268933608229712
-0.2664839490848941 -0.4633426632477189
-0.3162635091969962 -0.4633426632477189
-0.3162635091969962 -0.40866870961059737
-0.41582262942120046 -0.3539947559734758
-0.3992294427171664 -0.335770104761102
-0.3826362560131324 -0.335770104761102
-0.36604306930909836 -0.2993208023363543
-0.3162635091969962 -0.335770104761102
-0.3162635091969962 -0.3539947559734758
-0.33285669590103023 -0.37221940718584967
-0.3494498826050643 -0.3539947559734758
-0.3494498826050643 -0.3539947559734758
-0.3826362560131324 -0.335770104761102
-0.3992294427171664 -0.335770104761102
-0.3826362560131324 -0.2993208023363543
-0.36604306930909836 -0.2628714999116066
-0.36604306930909836 -0.22642219748685888
-0.3494498826050643 -0.18997289506211118
-0.3162635091969962 -0.335770104761102
-0.29967032249296216 -0.4633426632477189
-0.24989076238086005 -0.7913863850704481
-0.16692482886068985 -1.3016766190169158
-0.1005520820445537 -1.9759887138747483
0.11515934510788883 -2.6685254599449544
0.38065033237243345 -3.433960810864656
0.7125140664531143 -4.16294685935961
1.077564173941863 -4.63678779088133
1.5089870282467481 -4.819034303005068
1.874037135735497 -4.746135698155573
2.1727144964081098 -4.3087440690586005
2.4382054836726543 -3.7437798814750116
2.5543577906008927 -3.051243135404805
2.670510097529131 -2.468054296608842
2.8696283379775394 -1.994213365087122
3.052153391721914 -1.5932710384148974
3.101932951834016 -1.3563505726540375
3.085339765129982 -1.046531502043682
2.8862215246815737 -0.8096110362828219
2.687103284233165 -0.5726905705219619
2.4547986703766886 -0.3539947559734758
2.239087243224246 -0.24464684869923273
2.0233758160718036 -0.18997289506211118
1.7246984553991906 -0.15352359263736348
1.4260210947265781 -0.13529894142498963
1.0443778005337951 -0.15352359263736348
0.6793276930450463 -0.15352359263736348
0.38065033237243345 -0.17174824384973733
0.11515934510788883 -0.17174824384973733
-0.1005520820445537 -0.20819754627448503
-0.24989076238086005 -0.13529894142498963
-0.2830771357889281 -0.1170742902126158
-0.3162635091969962 -0.0806249877878681
-0.29967032249296216 -0.02595103415074656
-0.24989076238086005 0.02872291948637498
-0.23329757567682602 -0.0077263829383727115
-0.18351801556472389 0.04694757069874883
-0.18351801556472389 0.010498268274001136
-0.18351801556472389 -0.02595103415074656
-0.18351801556472389 -0.02595103415074656
-0.24989076238086005 -0.0806249877878681
-0.23329757567682602 -0.02595103415074656
-0.2664839490848941 -0.06240033657549426
-0.24989076238086005 -0.04417568536312041
-0.23329757567682602 -0.0806249877878681
-0.21670438897279198 -0.0077263829383727115
-0.13373845545262178 -0.04417568536312041
-0.13373845545262178 -0.0077263829383727115
-0.1005520820445537 0.02872291948637498
-0.1005520820445537 0.04694757069874883
-0.13373845545262178 0.04694757069874883
-0.15033164215665581 0.04694757069874883
-0.15033164215665581 0.02872291948637498
-0.20011120226875792 -0.0077263829383727115
-0.18351801556472389 -0.0077263829383727115
-0.18351801556472389 -0.02595103415074656
-0.16692482886068985 0.010498268274001136
-0.15033164215665581 0.08339687312349653
-0.11714526874858773 0.04694757069874883
-0.1005520820445537 0.08339687312349653
-0.06736570863648561 0.04694757069874883
-0.06736570863648561 0.010498268274001136
-0.06736570863648561 0.010498268274001136
-0.05077252193245157 -0.04417568536312041
-0.08395889534051965 -0.0077263829383727115
