-0.5485681230534728 -1.3016766190169158
-0.631534056573643 -1.2652273165921681
-0.5817544964615409 -1.1923287117426729
-0.49878856294137064 -1.1923287117426729
-0.5485681230534728 -1.1923287117426729
-0.5485681230534728 -1.2652273165921681
-0.5651613097575068 -1.3199012702292898
-0.5817544964615409 -1.3745752238664113
-0.5485681230534728 -1.3563505726540375
-0.5319749363494387 -1.3563505726540375
-0.5153817496454047 -1.3563505726540375
-0.46560218953330257 -1.3563505726540375
-0.4324158161252345 -1.3563505726540375
-0.36604306930909836 -1.3016766190169158
-0.33285669590103023 -1.283451967804542
-0.2830771357889281 -1.283451967804542
-0.3162635091969962 -1.3199012702292898
-0.3162635091969962 -1.3563505726540375
-0.33285669590103023 -1.5021477823530283
-0.3992294427171664 -1.538597084777776
-0.4324158161252345 -1.5750463872025235
-0.41582262942120046 -1.6297203408396452
-0.46560218953330257 -1.6661696432643929
-0.41582262942120046 -1.6114956896272712
-0.3992294427171664 -1.538597084777776
-0.3494498826050643 -1.4839231311406544
-0.33285669590103023 -1.4474738287159066
-0.3162635091969962 -1.4656984799282804
-0.3162635091969962 -1.4474738287159066
-0.2664839490848941 -1.4839231311406544
-0.2830771357889281 -1.520372433565402
-0.2830771357889281 -1.5932710384148974
-0.3162635091969962 -1.647944992052019
-0.3494498826050643 -1.538597084777776
-0.3826362560131324 -1.538597084777776
-0.3826362560131324 -1.4292491775035328
-0.3826362560131324 -1.411024526291159
-0.36604306930909836 -1.4474738287159066
-0.3826362560131324 -1.3563505726540375
-0.3826362560131324 -1.3199012702292898
-0.4324158161252345 -1.3199012702292898
-0.4821953762373366 -1.2470026653797943
-0.5319749363494387 -1.2470026653797943
-0.4821953762373366 -1.2470026653797943
-0.5319749363494387 -1.3381259214416636
-0.5817544964615409 -1.4474738287159066
-0.5651613097575068 -1.520372433565402
-0.5817544964615409 -1.4656984799282804
-0.5485681230534728 -1.392799875078785
-0.4821953762373366 -1.3199012702292898
-0.49878856294137064 -1.2287780141674205
-0.4821953762373366 -1.283451967804542
-0.49878856294137064 -1.3199012702292898
-0.4821953762373366 -1.3563505726540375
-0.5153817496454047 -1.392799875078785
-0.5319749363494387 -1.3745752238664113
-0.5485681230534728 -1.4292491775035328
-0.5485681230534728 -1.2652273165921681
-0.5319749363494387 -1.3016766190169158
-0.5153817496454047 -1.3381259214416636
-0.44900900282926853 -1.4656984799282804
-0.3826362560131324 -1.7390682481138882
-0.2830771357889281 -2.1946845284232346
-0.1005520820445537 -2.704974762369702
0.08197297169982075 -3.324612903590413
0.3474639589643654 -3.8713524399616284
0.6793276930450463 -4.4180919763328435
0.994598240421693 -4.891932907854564
1.3264619745023738 -5.165302676040172
1.6085461484709525 -5.165302676040172
1.824257575623395 -4.928382210279311
2.0067826293677693 -4.454541278757591
2.106341749591974 -3.907801742386376
2.189307683112144 -3.3792868572275343
2.25568042992828 -2.9965691817676836
2.3220531767444164 -2.6320761575202067
2.4382054836726543 -2.4133803429717204
2.4713918570807225 -2.1764598772108608
2.4382054836726543 -1.9030901090252528
2.3386463634484502 -1.7208435969015143
2.1727144964081098 -1.5021477823530283
2.0233758160718036 -1.2652273165921681
1.840850762327429 -1.1012054556808035
1.6749188952870886 -1.046531502043682
1.409427908022544 -1.0829808044684297
1.1771232941660674 -1.2105533629550467
0.8950391201974888 -1.3199012702292898
0.6627345063410122 -1.4474738287159066
0.38065033237243345 -1.4474738287159066
0.1483457185159569 -1.3563505726540375
-0.06736570863648561 -1.2652273165921681
-0.2664839490848941 -1.174104060530299
-0.46560218953330257 -1.1376547581055512
-0.5983476831655749 -1.1194301068931773
-0.6979068033897792 -1.1012054556808035
-0.6647204299817111 -1.0829808044684297
-0.5983476831655749 -1.046531502043682
-0.5153817496454047 -1.1012054556808035
-0.4821953762373366 -1.0829808044684297
-0.41582262942120046 -1.046531502043682
-0.4324158161252345 -1.0647561532560559
-0.46560218953330257 -1.0100821996189344
-0.4821953762373366 -1.0647561532560559
-0.5153817496454047 -1.0647561532560559
-0.5817544964615409 -1.0829808044684297
-0.5651613097575068 -1.1376547581055512
-0.5983476831655749 -1.1376547581055512
-0.5651613097575068 -1.1923287117426729
-0.5651613097575068 -1.1376547581055512
-0.5319749363494387 -1.046531502043682
-0.46560218953330257 -0.9554082459818127
-0.4324158161252345 -0.8825096411323173
-0.44900900282926853 -0.9007342923446913
-0.44900900282926853 -0.9918575484065605
-0.46560218953330257 -1.1012054556808035
-0.4821953762373366 -1.1376547581055512
-0.46560218953330257 -1.1923287117426729
-0.4821953762373366 -1.174104060530299
-0.5319749363494387 -1.1194301068931773
-0.49878856294137064 -0.9554082459818127
-0.44900900282926853 -0.9189589435570651
-0.41582262942120046 -0.8096110362828219
-0.3826362560131324 -0.8278356874951959
-0.3992294427171664 -0.9371835947694389
-0.3992294427171664 -1.0829808044684297
-0.4324158161252345 -1.1194301068931773
-0.3992294427171664 -1.1194301068931773
-0.41582262942120046 -1.1012054556808035
-0.4324158161252345 -1.0647561532560559
-0.4324158161252345 -1.0647561532560559
-0.41582262942120046 -1.0647561532560559
-0.41582262942120046 -1.046531502043682
-0.3826362560131324 -1.0283068508313082
-0.3494498826050643 -0.9554082459818127
-0.36604306930909836 -0.9371835947694389
-0.2830771357889281 -0.9189589435570651
-0.29967032249296216 -0.9371835947694389
-0.2830771357889281 -0.9007342923446913
-0.2664839490848941 -0.9918575484065605
-0.2664839490848941 -1.046531502043682
-0.3494498826050643 -1.046531502043682
-0.2830771357889281 -1.0283068508313082
-0.33285669590103023 -0.9371835947694389
-0.3494498826050643 -0.8460603387075697
-0.33285669590103023 -0.8825096411323173
-0.29967032249296216 -0.8642849899199435
-0.2664839490848941 -0.9371835947694389
-0.23329757567682602 -1.0647561532560559
-0.24989076238086005 -1.046531502043682
-0.20011120226875792 -0.9736328971941867
-0.23329757567682602 -0.9371835947694389
-0.24989076238086005 -0.9007342923446913
-0.2664839490848941 -0.9189589435570651
-0.24989076238086005 -0.9371835947694389
-0.2664839490848941 -1.0283068508313082
-0.23329757567682602 -1.0829808044684297
-0.18351801556472389 -1.0283068508313082
-0.16692482886068985 -1.0283068508313082
-0.21670438897279198 -0.9371835947694389
-0.13373845545262178 -0.8825096411323173
-0.13373845545262178 -0.8642849899199435
-0.15033164215665581 -0.8278356874951959
-0.15033164215665581 -0.8825096411323173
-0.18351801556472389 -0.9189589435570651
-0.20011120226875792 -0.9918575484065605
-0.18351801556472389 -0.9554082459818127
-0.23329757567682602 -0.9189589435570651
-0.18351801556472389 -0.8642849899199435
-0.16692482886068985 -0.8278356874951959
-0.11714526874858773 -0.8096110362828219
-0.11714526874858773 -0.8278356874951959
-0.06736570863648561 -0.8460603387075697
-0.08395889534051965 -0.9554082459818127
-0.06736570863648561 -1.0829808044684297
-0.08395889534051965 -1.174104060530299
-0.11714526874858773 -1.2105533629550467
-0.15033164215665581 -1.1376547581055512
-0.15033164215665581 -1.1376547581055512
-0.16692482886068985 -1.0647561532560559
-0.21670438897279198 -1.0829808044684297
-0.20011120226875792 -1.0100821996189344
-0.20011120226875792 -0.9736328971941867
-0.23329757567682602 -0.9918575484065605
-0.18351801556472389 -1.0100821996189344
-0.20011120226875792 -1.0829808044684297
-0.18351801556472389 -1.1376547581055512
-0.24989076238086005 -1.174104060530299
-0.24989076238086005 -1.1376547581055512
-0.2830771357889281 -1.1194301068931773
-0.3494498826050643 -1.1012054556808035
-0.3494498826050643 -1.046531502043682
-0.36604306930909836 -1.0647561532560559
-0.3826362560131324 -1.0829808044684297
-0.3992294427171664 -1.1376547581055512
-0.36604306930909836 -1.1923287117426729
-0.3494498826050643 -1.2652273165921681
-0.3992294427171664 -1.3016766190169158
-0.41582262942120046 -1.283451967804542
-0.44900900282926853 -1.2105533629550467
-0.49878856294137064 -1.1923287117426729
-0.5485681230534728 -1.1012054556808035
-0.5485681230534728 -1.046531502043682
-0.5817544964615409 -1.046531502043682
-0.5817544964615409 -1.0647561532560559
-0.5817544964615409 -1.0647561532560559
-0.5485681230534728 -1.174104060530299
-0.5319749363494387 -1.1923287117426729
-0.49878856294137064 -1.1923287117426729
-0.49878856294137064 -1.1376547581055512
-0.5319749363494387 -1.1012054556808035
-0.5651613097575068 -1.046531502043682
-0.5817544964615409 -1.0100821996189344
-0.6149408698696089 -1.046531502043682
-0.6149408698696089 -1.0829808044684297
-0.648127243277677 -1.1194301068931773
-0.631534056573643 -1.0829808044684297
-0.5817544964615409 -1.0100821996189344
-0.5651613097575068 -0.9189589435570651
-0.5651613097575068 -0.8642849899199435
-0.5153817496454047 -0.8642849899199435
-0.5319749363494387 -0.8825096411323173
-0.5319749363494387 -0.9554082459818127
-0.5485681230534728 -1.0283068508313082
-0.5651613097575068 -1.1194301068931773
-0.5485681230534728 -1.1923287117426729
-0.5817544964615409 -1.155879409317925
-0.5983476831655749 -1.0829808044684297
-0.6149408698696089 -0.9918575484065605
-0.6149408698696089 -0.8825096411323173
-0.5983476831655749 -0.8642849899199435
-0.5651613097575068 -0.8642849899199435
-0.5319749363494387 -0.8460603387075697
-0.5319749363494387 -0.8642849899199435
-0.5485681230534728 -0.8460603387075697
-0.5817544964615409 -0.9007342923446913
-0.5485681230534728 -0.9007342923446913
-0.5651613097575068 -0.9371835947694389
-0.6149408698696089 -0.9736328971941867
-0.631534056573643 -0.9371835947694389
-0.5983476831655749 -0.9371835947694389
-0.5983476831655749 -0.9007342923446913
-0.5651613097575068 -0.8825096411323173
-0.5817544964615409 -0.8096110362828219
-0.5817544964615409 -0.7184877802209527
-0.5817544964615409 -0.7184877802209527
-0.5983476831655749 -0.8460603387075697
-0.5983476831655749 -0.9736328971941867
-0.6149408698696089 -1.0647561532560559
-0.631534056573643 -1.1012054556808035
-0.631534056573643 -1.1012054556808035
-0.648127243277677 -1.0283068508313082
-0.6647204299817111 -1.0100821996189344
-0.631534056573643 -0.9007342923446913
-0.648127243277677 -0.8278356874951959
-0.6149408698696089 -0.7731617338580743
-0.5983476831655749 -0.7731617338580743
-0.6149408698696089 -0.9007342923446913
-0.631534056573643 -0.9554082459818127
-0.631534056573643 -0.9554082459818127
-0.6813136166857451 -1.0283068508313082
-0.7144999900938132 -1.0829808044684297
-0.6647204299817111 -1.0829808044684297
-0.6647204299817111 -1.0100821996189344
-0.6647204299817111 -0.8825096411323173
-0.6149408698696089 -0.8460603387075697
-0.5817544964615409 -0.8460603387075697
-0.5817544964615409 -0.9736328971941867
-0.5153817496454047 -1.0829808044684297
-0.5485681230534728 -1.155879409317925
-0.5319749363494387 -1.0647561532560559
-0.5485681230534728 -1.046531502043682
-0.5983476831655749 -1.046531502043682
-0.5817544964615409 -1.0100821996189344
-0.6149408698696089 -1.0100821996189344
-0.6647204299817111 -1.0283068508313082
-0.6149408698696089 -1.0283068508313082
-0.5817544964615409 -0.9918575484065605
-0.5319749363494387 -0.9736328971941867
-0.5153817496454047 -0.9371835947694389
-0.4821953762373366 -0.9371835947694389
-0.46560218953330257 -1.0100821996189344
-0.4821953762373366 -0.9189589435570651
-0.5319749363494387 -0.9736328971941867
-0.5153817496454047 -0.9554082459818127
-0.5817544964615409 -1.046531502043682
-0.5485681230534728 -1.1012054556808035
-0.5485681230534728 -1.1012054556808035
-0.5651613097575068 -1.1376547581055512
-0.5651613097575068 -1.046531502043682
-0.5651613097575068 -1.0283068508313082
-0.5153817496454047 -0.9554082459818127
-0.49878856294137064 -0.9007342923446913
-0.5153817496454047 -0.8825096411323173
-0.5153817496454047 -0.8278356874951959
-0.4821953762373366 -0.8460603387075697
-0.5319749363494387 -0.9371835947694389
-0.5651613097575068 -1.0829808044684297
-0.6149408698696089 -1.2105533629550467
-0.5651613097575068 -1.2287780141674205
-0.5153817496454047 -1.1923287117426729
-0.4821953762373366 -1.1012054556808035
-0.49878856294137064 -0.9554082459818127
-0.4821953762373366 -0.8825096411323173
-0.46560218953330257 -0.8825096411323173
-0.4324158161252345 -0.9007342923446913
-0.44900900282926853 -0.9371835947694389
-0.46560218953330257 -1.046531502043682
-0.4821953762373366 -1.1012054556808035
-0.4821953762373366 -1.155879409317925
-0.5153817496454047 -1.1376547581055512
-0.5485681230534728 -1.0647561532560559
-0.5319749363494387 -1.0100821996189344
-0.4821953762373366 -0.9554082459818127
-0.46560218953330257 -0.9007342923446913
-0.41582262942120046 -0.9189589435570651
-0.36604306930909836 -0.9554082459818127
-0.3826362560131324 -1.0283068508313082
-0.44900900282926853 -1.0647561532560559
-0.4324158161252345 -1.1012054556808035
-0.44900900282926853 -1.0647561532560559
-0.49878856294137064 -1.0829808044684297
-0.4821953762373366 -1.0829808044684297
-0.5153817496454047 -0.9918575484065605
-0.5153817496454047 -0.9371835947694389
-0.46560218953330257 -0.8825096411323173
-0.41582262942120046 -0.8278356874951959
-0.3992294427171664 -0.8825096411323173
-0.3992294427171664 -0.9371835947694389
-0.3494498826050643 -1.046531502043682
-0.36604306930909836 -1.1012054556808035
-0.36604306930909836 -1.1194301068931773
-0.4324158161252345 -1.0829808044684297
-0.44900900282926853 -1.1376547581055512
-0.5319749363494387 -1.0647561532560559
-0.5319749363494387 -0.9736328971941867
-0.4821953762373366 -0.9736328971941867
-0.46560218953330257 -0.9189589435570651
-0.4821953762373366 -0.9736328971941867
-0.4324158161252345 -0.9736328971941867
-0.3494498826050643 -0.9554082459818127
-0.3826362560131324 -0.9918575484065605
-0.36604306930909836 -1.0100821996189344
-0.36604306930909836 -0.9736328971941867
-0.3494498826050643 -0.9918575484065605
-0.41582262942120046 -1.0100821996189344
-0.44900900282926853 -0.9736328971941867
-0.46560218953330257 -0.9371835947694389
-0.3992294427171664 -0.8825096411323173
-0.3826362560131324 -0.8642849899199435
-0.3494498826050643 -0.8825096411323173
-0.3162635091969962 -0.9371835947694389
-0.2830771357889281 -0.9736328971941867
-0.21670438897279198 -0.9736328971941867
-0.23329757567682602 -0.9554082459818127
-0.21670438897279198 -0.9736328971941867
-0.16692482886068985 -0.9371835947694389
-0.20011120226875792 -0.9371835947694389
-0.18351801556472389 -0.9918575484065605
-0.20011120226875792 -1.0829808044684297
-0.20011120226875792 -1.174104060530299
-0.16692482886068985 -1.2287780141674205
-0.16692482886068985 -1.2287780141674205
-0.1005520820445537 -1.2287780141674205
-0.11714526874858773 -1.1194301068931773
-0.08395889534051965 -1.1194301068931773
-0.11714526874858773 -1.1012054556808035
-0.11714526874858773 -1.1012054556808035
-0.13373845545262178 -1.1376547581055512
-0.18351801556472389 -1.174104060530299
-0.20011120226875792 -1.2287780141674205
-0.21670438897279198 -1.2287780141674205
-0.20011120226875792 -1.2105533629550467
-0.18351801556472389 -1.2105533629550467
-0.13373845545262178 -1.0829808044684297
-0.08395889534051965 -0.9918575484065605
-0.1005520820445537 -0.9371835947694389
-0.1005520820445537 -0.9554082459818127
-0.13373845545262178 -0.9736328971941867
-0.15033164215665581 -1.0100821996189344
-0.20011120226875792 -1.0100821996189344
-0.21670438897279198 -1.0100821996189344
-0.3162635091969962 -1.0283068508313082
-0.3162635091969962 -1.0283068508313082
-0.36604306930909836 -0.9918575484065605
-0.36604306930909836 -0.9554082459818127
-0.3826362560131324 -0.9736328971941867
-0.36604306930909836 -0.9371835947694389
-0.3494498826050643 -0.9189589435570651
-0.3826362560131324 -0.9371835947694389
-0.3826362560131324 -0.9736328971941867
-0.33285669590103023 -1.0100821996189344
-0.3162635091969962 -1.0100821996189344
-0.33285669590103023 -0.9189589435570651
-0.36604306930909836 -0.8096110362828219
-0.3494498826050643 -0.7184877802209527
-0.3826362560131324 -0.6455891753714573
-0.3494498826050643 -0.6820384777962051
-0.29967032249296216 -0.8096110362828219
-0.24989076238086005 -0.8825096411323173
-0.18351801556472389 -1.1376547581055512
-0.18351801556472389 -1.3199012702292898
-0.1005520820445537 -1.647944992052019
-0.05077252193245157 -2.0671119699366174
0.0985661584038548 -2.5591775526707115
0.2644980254441952 -3.1059170890419265
0.61295494622891 -3.6162073229883944
0.9448186803095908 -4.053598952085367
1.3264619745023738 -4.3087440690586005
1.6915120819911227 -4.290519417846227
2.0399690027758375 -4.071823603297741
2.239087243224246 -3.7437798814750116
2.3884259235605523 -3.324612903590413
2.4879850437847564 -2.832547320856319
2.4879850437847564 -2.3951556917593466
2.5543577906008927 -2.0488873187242436
2.604137350712995 -1.757292899326262
2.587544164008961 -1.5568217359901497
2.4879850437847564 -1.3745752238664113
2.4382054836726543 -1.2105533629550467
2.288866803336348 -1.0283068508313082
2.189307683112144 -0.9189589435570651
2.0399690027758375 -0.8278356874951959
1.824257575623395 -0.6820384777962051
1.5421734016548163 -0.5909152217343359
1.2269028542781695 -0.5362412680972143
0.8618527467894207 -0.6091398729467097
0.5465821994127739 -0.7002631290085789
0.21471846533209307 -0.9007342923446913
-0.01758614852438349 -1.046531502043682
-0.20011120226875792 -1.0100821996189344
-0.33285669590103023 -0.9371835947694389
-0.3826362560131324 -0.7731617338580743
-0.3826362560131324 -0.6273645241590835
-0.36604306930909836 -0.5544659193095881
-0.33285669590103023 -0.5362412680972143
-0.23329757567682602 -0.6091398729467097
-0.24989076238086005 -0.6820384777962051
-0.2830771357889281 -0.6455891753714573
-0.3162635091969962 -0.6638138265838313
-0.3162635091969962 -0.6455891753714573
-0.2664839490848941 -0.6455891753714573
-0.29967032249296216 -0.6091398729467097
-0.29967032249296216 -0.6638138265838313
-0.33285669590103023 -0.6820384777962051
-0.2830771357889281 -0.7731617338580743
-0.21670438897279198 -0.7731617338580743
-0.21670438897279198 -0.7549370826457005
-0.16692482886068985 -0.6638138265838313
-0.20011120226875792 -0.6273645241590835
-0.16692482886068985 -0.5544659193095881
-0.18351801556472389 -0.4997919656724666
-0.23329757567682602 -0.5726905705219619
-0.24989076238086005 -0.6091398729467097
-0.23329757567682602 -0.7184877802209527
-0.24989076238086005 -0.7731617338580743
-0.23329757567682602 -0.8096110362828219
-0.24989076238086005 -0.7913863850704481
-0.21670438897279198 -0.7367124314333267
-0.18351801556472389 -0.5909152217343359
-0.18351801556472389 -0.5544659193095881
-0.20011120226875792 -0.5362412680972143
-0.18351801556472389 -0.5726905705219619
-0.21670438897279198 -0.6273645241590835
-0.20011120226875792 -0.6455891753714573
-0.20011120226875792 -0.6820384777962051
-0.16692482886068985 -0.6273645241590835
-0.20011120226875792 -0.6091398729467097
-0.18351801556472389 -0.5909152217343359
-0.18351801556472389 -0.5544659193095881
-0.13373845545262178 -0.5180166168848405
-0.11714526874858773 -0.5362412680972143
-0.1005520820445537 -0.5909152217343359
-0.08395889534051965 -0.7002631290085789
-0.1005520820445537 -0.7367124314333267
-0.11714526874858773 -0.7913863850704481
-0.11714526874858773 -0.7184877802209527
-0.15033164215665581 -0.7367124314333267
-0.16692482886068985 -0.7002631290085789
-0.20011120226875792 -0.6820384777962051
-0.20011120226875792 -0.5909152217343359
-0.15033164215665581 -0.5726905705219619
-0.1005520820445537 -0.5544659193095881
-0.06736570863648561 -0.4997919656724666
-0.0009929618203494508 -0.4633426632477189
-0.05077252193245157 -0.4633426632477189
-0.08395889534051965 -0.48156731446009277
-0.08395889534051965 -0.48156731446009277
-0.08395889534051965 -0.5726905705219619
-0.08395889534051965 -0.7184877802209527
-0.11714526874858773 -0.7731617338580743
-0.06736570863648561 -0.7913863850704481
-0.05077252193245157 -0.7549370826457005
-0.05077252193245157 -0.6638138265838313
-0.01758614852438349 -0.6273645241590835
0.01560022488368459 -0.5909152217343359
0.04878659829175267 -0.5362412680972143
0.01560022488368459 -0.5180166168848405
-0.0009929618203494508 -0.4997919656724666
-0.0009929618203494508 -0.4633426632477189
-0.05077252193245157 -0.4633426632477189
0.01560022488368459 -0.48156731446009277
-0.0009929618203494508 -0.6091398729467097
-0.0009929618203494508 -0.7184877802209527
-0.01758614852438349 -0.7913863850704481
0.03219341158771863 -0.7731617338580743
0.06537978499578671 -0.7367124314333267
0.08197297169982075 -0.6273645241590835
0.11515934510788883 -0.5909152217343359
0.06537978499578671 -0.5362412680972143
0.03219341158771863 -0.5362412680972143
0.01560022488368459 -0.6273645241590835
-0.01758614852438349 -0.7002631290085789
-0.03417933522841753 -0.7731617338580743
-0.01758614852438349 -0.7549370826457005
-0.03417933522841753 -0.7002631290085789
-0.03417933522841753 -0.6273645241590835
-0.03417933522841753 -0.6820384777962051
-0.03417933522841753 -0.7549370826457005
-0.01758614852438349 -0.8642849899199435
-0.0009929618203494508 -0.9007342923446913
-0.01758614852438349 -0.8642849899199435
-0.05077252193245157 -0.8096110362828219
-0.13373845545262178 -0.7184877802209527
-0.18351801556472389 -0.7367124314333267
-0.20011120226875792 -0.7731617338580743
-0.23329757567682602 -0.7731617338580743
-0.23329757567682602 -0.8642849899199435
-0.24989076238086005 -0.8460603387075697
-0.24989076238086005 -0.8460603387075697
-0.23329757567682602 -0.8460603387075697
-0.2830771357889281 -0.8460603387075697
-0.2664839490848941 -0.8825096411323173
-0.3162635091969962 -0.8460603387075697
-0.33285669590103023 -0.7367124314333267
-0.3826362560131324 -0.7367124314333267
-0.3992294427171664 -0.6638138265838313
-0.44900900282926853 -0.6455891753714573
-0.46560218953330257 -0.6091398729467097
-0.4821953762373366 -0.6820384777962051
-0.46560218953330257 -0.8096110362828219
-0.44900900282926853 -0.8825096411323173
-0.44900900282926853 -0.9371835947694389
-0.44900900282926853 -0.8825096411323173
-0.4324158161252345 -0.8096110362828219
-0.4324158161252345 -0.7913863850704481
-0.46560218953330257 -0.7367124314333267
-0.4821953762373366 -0.6820384777962051
-0.5153817496454047 -0.7002631290085789
-0.5319749363494387 -0.7002631290085789
-0.5485681230534728 -0.7184877802209527
-0.5319749363494387 -0.7731617338580743
-0.5153817496454047 -0.8460603387075697
-0.49878856294137064 -0.8642849899199435
-0.46560218953330257 -0.8825096411323173
-0.4821953762373366 -0.7367124314333267
-0.44900900282926853 -0.7184877802209527
-0.46560218953330257 -0.6273645241590835
-0.46560218953330257 -0.6091398729467097
-0.4821953762373366 -0.6638138265838313
-0.49878856294137064 -0.6638138265838313
-0.5651613097575068 -0.6820384777962051
-0.5817544964615409 -0.6820384777962051
-0.5817544964615409 -0.7184877802209527
-0.5319749363494387 -0.6638138265838313
-0.49878856294137064 -0.6273645241590835
-0.4821953762373366 -0.5544659193095881
-0.46560218953330257 -0.4997919656724666
-0.44900900282926853 -0.44511801203534507
-0.4821953762373366 -0.4633426632477189
-0.46560218953330257 -0.5180166168848405
-0.5153817496454047 -0.6273645241590835
-0.5319749363494387 -0.7002631290085789
-0.5153817496454047 -0.7549370826457005
-0.5485681230534728 -0.7367124314333267
-0.5485681230534728 -0.6273645241590835
-0.5485681230534728 -0.5726905705219619
-0.5485681230534728 -0.5726905705219619
-0.5319749363494387 -0.6273645241590835
-0.49878856294137064 -0.5909152217343359
-0.44900900282926853 -0.5726905705219619
-0.44900900282926853 -0.5544659193095881
-0.44900900282926853 -0.5909152217343359
-0.49878856294137064 -0.6091398729467097
-0.5319749363494387 -0.6455891753714573
-0.5485681230534728 -0.6820384777962051
-0.5983476831655749 -0.6820384777962051
-0.6149408698696089 -0.6455891753714573
-0.5817544964615409 -0.5362412680972143
-0.5485681230534728 -0.44511801203534507
-0.5319749363494387 -0.5180166168848405
-0.5153817496454047 -0.4997919656724666
-0.49878856294137064 -0.5362412680972143
-0.5153817496454047 -0.5909152217343359
-0.5153817496454047 -0.6455891753714573
-0.5153817496454047 -0.6820384777962051
-0.5319749363494387 -0.6091398729467097
-0.5817544964615409 -0.5544659193095881
-0.5983476831655749 -0.5362412680972143
-0.6149408698696089 -0.44511801203534507
-0.648127243277677 -0.4633426632477189
-0.6149408698696089 -0.5544659193095881
-0.5485681230534728 -0.5544659193095881
-0.5153817496454047 -0.6091398729467097
-0.5153817496454047 -0.5909152217343359
-0.49878856294137064 -0.6638138265838313
-0.49878856294137064 -0.5909152217343359
-0.5319749363494387 -0.6091398729467097
-0.5485681230534728 -0.5909152217343359
-0.5983476831655749 -0.6455891753714573
-0.5983476831655749 -0.7184877802209527
-0.5983476831655749 -0.7549370826457005
-0.631534056573643 -0.7002631290085789
-0.5983476831655749 -0.6455891753714573
-0.5817544964615409 -0.5909152217343359
-0.5651613097575068 -0.5362412680972143
-0.49878856294137064 -0.4633426632477189
-0.49878856294137064 -0.44511801203534507
-0.49878856294137064 -0.4997919656724666
-0.5153817496454047 -0.5726905705219619
-0.5319749363494387 -0.6638138265838313
-0.5485681230534728 -0.7367124314333267
-0.5651613097575068 -0.7002631290085789
-0.631534056573643 -0.7367124314333267
-0.6149408698696089 -0.7002631290085789
-0.6149408698696089 -0.6820384777962051
-0.5651613097575068 -0.6273645241590835
-0.5817544964615409 -0.5362412680972143
-0.49878856294137064 -0.44511801203534507
-0.4821953762373366 -0.40866870961059737
-0.49878856294137064 -0.37221940718584967
-0.49878856294137064 -0.4268933608229712
-0.49878856294137064 -0.44511801203534507
-0.5153817496454047 -0.5362412680972143
-0.5319749363494387 -0.5544659193095881
-0.5651613097575068 -0.6455891753714573
-0.5485681230534728 -0.5726905705219619
-0.5153817496454047 -0.5726905705219619
-0.49878856294137064 -0.5180166168848405
-0.46560218953330257 -0.5544659193095881
-0.4324158161252345 -0.6091398729467097
-0.4324158161252345 -0.6455891753714573
-0.44900900282926853 -0.6091398729467097
-0.46560218953330257 -0.6455891753714573
-0.4821953762373366 -0.5909152217343359
-0.5153817496454047 -0.5726905705219619
-0.5485681230534728 -0.48156731446009277
-0.5485681230534728 -0.4997919656724666
-0.5319749363494387 -0.5362412680972143
-0.4821953762373366 -0.5726905705219619
-0.46560218953330257 -0.5909152217343359
-0.44900900282926853 -0.5544659193095881
-0.41582262942120046 -0.48156731446009277
-0.44900900282926853 -0.4633426632477189
-0.4821953762373366 -0.4633426632477189
-0.46560218953330257 -0.4997919656724666
-0.4821953762373366 -0.5180166168848405
-0.49878856294137064 -0.5544659193095881
-0.5319749363494387 -0.5544659193095881
-0.5319749363494387 -0.5544659193095881
-0.5485681230534728 -0.5180166168848405
-0.5319749363494387 -0.40866870961059737
-0.46560218953330257 -0.3539947559734758
-0.5153817496454047 -0.3539947559734758
-0.4821953762373366 -0.4633426632477189
-0.44900900282926853 -0.5909152217343359
-0.46560218953330257 -0.6638138265838313
-0.4324158161252345 -0.7002631290085789
-0.49878856294137064 -0.6273645241590835
-0.49878856294137064 -0.5726905705219619
-0.5153817496454047 -0.5726905705219619
-0.5319749363494387 -0.4997919656724666
-0.5651613097575068 -0.5180166168848405
-0.49878856294137064 -0.4633426632477189
-0.49878856294137064 -0.4633426632477189
-0.44900900282926853 -0.4268933608229712
-0.44900900282926853 -0.3904440583982235
-0.41582262942120046 -0.37221940718584967
-0.41582262942120046 -0.3175454535487281
-0.4324158161252345 -0.37221940718584967
-0.49878856294137064 -0.44511801203534507
-0.5153817496454047 -0.5362412680972143
-0.5651613097575068 -0.5180166168848405
-0.5651613097575068 -0.5909152217343359
-0.5319749363494387 -0.5362412680972143
-0.5153817496454047 -0.5544659193095881
-0.4821953762373366 -0.5544659193095881
-0.4324158161252345 -0.4997919656724666
-0.4324158161252345 -0.44511801203534507
-0.44900900282926853 -0.44511801203534507
-0.44900900282926853 -0.44511801203534507
-0.4324158161252345 -0.4633426632477189
-0.44900900282926853 -0.4633426632477189
-0.44900900282926853 -0.4633426632477189
-0.44900900282926853 -0.3904440583982235
-0.4324158161252345 -0.3539947559734758
-0.46560218953330257 -0.335770104761102
-0.41582262942120046 -0.40866870961059737
-0.3992294427171664 -0.4268933608229712
-0.36604306930909836 -0.4268933608229712
-0.29967032249296216 -0.40866870961059737
-0.2664839490848941 -0.3904440583982235
-0.24989076238086005 -0.40866870961059737
-0.20011120226875792 -0.3904440583982235
-0.21670438897279198 -0.4268933608229712
-0.21670438897279198 -0.4633426632477189
-0.23329757567682602 -0.3904440583982235
-0.24989076238086005 -0.48156731446009277
-0.29967032249296216 -0.6091398729467097
-0.2664839490848941 -0.6455891753714573
-0.23329757567682602 -0.7002631290085789
-0.21670438897279198 -0.6273645241590835
-0.16692482886068985 -0.5180166168848405
-0.16692482886068985 -0.5180166168848405
-0.18351801556472389 -0.48156731446009277
-0.24989076238086005 -0.48156731446009277
-0.24989076238086005 -0.5544659193095881
-0.24989076238086005 -0.5362412680972143
-0.21670438897279198 -0.5909152217343359
-0.29967032249296216 -0.5362412680972143
-0.2830771357889281 -0.5544659193095881
-0.2664839490848941 -0.6091398729467097
-0.18351801556472389 -0.6820384777962051
-0.20011120226875792 -0.6273645241590835
-0.15033164215665581 -0.5909152217343359
-0.18351801556472389 -0.5180166168848405
-0.21670438897279198 -0.44511801203534507
-0.2664839490848941 -0.2993208023363543
-0.2830771357889281 -0.2628714999116066
-0.3162635091969962 -0.335770104761102
-0.3494498826050643 -0.37221940718584967
-0.3992294427171664 -0.4268933608229712
-0.3826362560131324 -0.4268933608229712
-0.3992294427171664 -0.3904440583982235
-0.41582262942120046 -0.2993208023363543
-0.41582262942120046 -0.2993208023363543
-0.41582262942120046 -0.2993208023363543
-0.3826362560131324 -0.2810961511239804
-0.36604306930909836 -0.2993208023363543
-0.3992294427171664 -0.3175454535487281
-0.41582262942120046 -0.44511801203534507
-0.4324158161252345 -0.5180166168848405
-0.4821953762373366 -0.5180166168848405
-0.4821953762373366 -0.4268933608229712
-0.46560218953330257 -0.2628714999116066
-0.4821953762373366 -0.13529894142498963
-0.46560218953330257 -0.0077263829383727115
-0.3826362560131324 -0.0806249877878681
-0.3494498826050643 -0.13529894142498963
-0.33285669590103023 -0.2993208023363543
-0.29967032249296216 -0.44511801203534507
-0.3162635091969962 -0.7184877802209527
-0.2830771357889281 -1.0283068508313082
-0.20011120226875792 -1.4474738287159066
-0.06736570863648561 -1.994213365087122
0.16493890521999094 -2.5774022038830853
0.5299890127087399 -3.197040345103796
1.011191427125727 -3.6344319742007682
1.4260210947265781 -3.8349031375368807
1.824257575623395 -3.7255552302626374
2.156121309704076 -3.288163601165665
2.3386463634484502 -2.704974762369702
2.4382054836726543 -2.1764598772108608
2.4879850437847564 -1.7026189456891405
2.5543577906008927 -1.3381259214416636
2.5045782304887907 -1.0100821996189344
2.5211714171928246 -0.8278356874951959
2.4050191102645866 -0.5909152217343359
2.25568042992828 -0.3904440583982235
2.0897485628879395 -0.2628714999116066
1.9072235091435652 -0.17174824384973733
1.7081052686951568 -0.0806249877878681
1.4260210947265781 0.010498268274001136
1.0941573606458972 -0.02595103415074656
0.8120731866773185 -0.04417568536312041
0.4636162658926037 -0.09884963900024195
0.16493890521999094 -0.15352359263736348
-0.08395889534051965 -0.15352359263736348
-0.2830771357889281 -0.1170742902126158
-0.3826362560131324 -0.06240033657549426
-0.4821953762373366 -0.1170742902126158
-0.4821953762373366 -0.13529894142498963
-0.4324158161252345 -0.17174824384973733
-0.3992294427171664 -0.1170742902126158
-0.33285669590103023 -0.02595103415074656
-0.3162635091969962 -0.0077263829383727115
-0.41582262942120046 0.06517222191112268
-0.4324158161252345 0.06517222191112268
-0.41582262942120046 -0.0077263829383727115
-0.44900900282926853 -0.09884963900024195
-0.4821953762373366 -0.15352359263736348
-0.44900900282926853 -0.20819754627448503
-0.4821953762373366 -0.15352359263736348
-0.44900900282926853 -0.0077263829383727115
-0.41582262942120046 0.11984617554824421
-0.3826362560131324 0.21096943161011344
-0.3494498826050643 0.13807082676061808
-0.3494498826050643 0.08339687312349653
-0.36604306930909836 -0.06240033657549426
-0.3826362560131324 -0.04417568536312041
-0.3992294427171664 -0.06240033657549426
-0.3826362560131324 -0.0077263829383727115
-0.3826362560131324 0.10162152433587038
-0.36604306930909836 0.17452012918536577
-0.36604306930909836 0.1927447803977396
-0.3826362560131324 0.15629547797299193
-0.33285669590103023 0.06517222191112268
-0.2830771357889281 0.010498268274001136
-0.2830771357889281 -0.06240033657549426
-0.2830771357889281 -0.0077263829383727115
-0.2664839490848941 -0.0077263829383727115
-0.2664839490848941 -0.04417568536312041
-0.29967032249296216 0.010498268274001136
-0.3162635091969962 0.010498268274001136
-0.3494498826050643 0.02872291948637498
-0.3494498826050643 0.02872291948637498
-0.3826362560131324 0.10162152433587038
-0.3494498826050643 0.10162152433587038
-0.29967032249296216 0.06517222191112268
-0.2664839490848941 0.010498268274001136
-0.23329757567682602 -0.02595103415074656
-0.2664839490848941 -0.0077263829383727115
-0.24989076238086005 0.02872291948637498
-0.24989076238086005 0.10162152433587038
-0.24989076238086005 0.11984617554824421
-0.33285669590103023 0.08339687312349653
-0.3162635091969962 0.02872291948637498
-0.33285669590103023 -0.02595103415074656
-0.29967032249296216 0.010498268274001136
-0.29967032249296216 -0.0077263829383727115
-0.24989076238086005 0.04694757069874883
-0.23329757567682602 0.11984617554824421
-0.21670438897279198 0.15629547797299193
-0.24989076238086005 0.15629547797299193
-0.16692482886068985 0.2291940828224873
-0.18351801556472389 0.15629547797299193
-0.23329757567682602 0.08339687312349653
-0.2664839490848941 0.02872291948637498
-0.29967032249296216 0.02872291948637498
-0.2830771357889281 -0.0077263829383727115
-0.2830771357889281 -0.0077263829383727115
-0.24989076238086005 -0.04417568536312041
-0.2664839490848941 0.02872291948637498
-0.23329757567682602 0.06517222191112268
-0.18351801556472389 0.10162152433587038
-0.16692482886068985 0.08339687312349653
-0.15033164215665581 0.02872291948637498
-0.15033164215665581 0.04694757069874883
-0.15033164215665581 -0.0077263829383727115
-0.16692482886068985 0.02872291948637498
-0.18351801556472389 0.08339687312349653
-0.21670438897279198 0.04694757069874883
-0.21670438897279198 -0.02595103415074656
-0.18351801556472389 -0.0806249877878681
-0.16692482886068985 -0.09884963900024195
-0.13373845545262178 -0.09884963900024195
-0.1005520820445537 0.010498268274001136
-0.11714526874858773 0.04694757069874883
-0.08395889534051965 -0.0077263829383727115
-0.06736570863648561 0.010498268274001136
-0.11714526874858773 -0.06240033657549426
-0.13373845545262178 -0.04417568536312041
-0.16692482886068985 -0.04417568536312041
-0.20011120226875792 -0.0806249877878681
-0.18351801556472389 -0.06240033657549426
-0.18351801556472389 -0.06240033657549426
-0.18351801556472389 -0.0806249877878681
-0.16692482886068985 -0.04417568536312041
-0.20011120226875792 -0.0806249877878681
-0.20011120226875792 -0.06240033657549426
-0.21670438897279198 -0.13529894142498963
-0.24989076238086005 -0.13529894142498963
-0.2664839490848941 -0.15352359263736348
-0.2664839490848941 -0.17174824384973733
-0.29967032249296216 -0.18997289506211118
-0.36604306930909836 -0.20819754627448503
-0.41582262942120046 -0.17174824384973733
-0.41582262942120046 -0.13529894142498963
-0.3826362560131324 -0.1170742902126158
-0.36604306930909836 -0.15352359263736348
-0.3992294427171664 -0.18997289506211118
-0.41582262942120046 -0.24464684869923273
-0.41582262942120046 -0.24464684869923273
-0.44900900282926853 -0.24464684869923273
-0.49878856294137064 -0.18997289506211118
-0.5485681230534728 -0.15352359263736348
-0.5485681230534728 -0.17174824384973733
-0.5983476831655749 -0.18997289506211118
-0.5983476831655749 -0.06240033657549426
-0.5485681230534728 -0.0077263829383727115
-0.5485681230534728 0.02872291948637498
-0.5319749363494387 0.04694757069874883
-0.5153817496454047 -0.04417568536312041
-0.5153817496454047 -0.09884963900024195
-0.5319749363494387 -0.15352359263736348
-0.5651613097575068 -0.18997289506211118
-0.6149408698696089 -0.13529894142498963
-0.5983476831655749 -0.15352359263736348
-0.5983476831655749 -0.0806249877878681
-0.6813136166857451 -0.1170742902126158
-0.631534056573643 -0.09884963900024195
-0.6149408698696089 -0.0806249877878681
-0.5817544964615409 -0.06240033657549426
-0.5485681230534728 -0.02595103415074656
-0.5983476831655749 0.02872291948637498
-0.5651613097575068 0.02872291948637498
-0.5817544964615409 0.02872291948637498
-0.5651613097575068 0.04694757069874883
-0.631534056573643 -0.0077263829383727115
-0.631534056573643 -0.06240033657549426
-0.5983476831655749 -0.09884963900024195
-0.648127243277677 -0.0077263829383727115
-0.648127243277677 0.08339687312349653
-0.6647204299817111 0.11984617554824421
-0.631534056573643 0.10162152433587038
-0.6149408698696089 0.10162152433587038
-0.5817544964615409 0.08339687312349653
-0.5485681230534728 0.02872291948637498
-0.5651613097575068 0.04694757069874883
-0.5319749363494387 0.04694757069874883
-0.5983476831655749 -0.0077263829383727115
-0.631534056573643 -0.02595103415074656
-0.631534056573643 -0.06240033657549426
-0.6979068033897792 0.02872291948637498
-0.6979068033897792 0.10162152433587038
-0.7144999900938132 0.1927447803977396
-0.648127243277677 0.21096943161011344
-0.631534056573643 0.17452012918536577
-0.6149408698696089 0.10162152433587038
-0.6149408698696089 0.04694757069874883
-0.5983476831655749 0.02872291948637498
-0.5983476831655749 -0.02595103415074656
-0.631534056573643 0.02872291948637498
-0.6813136166857451 0.010498268274001136
-0.6813136166857451 0.08339687312349653
-0.6979068033897792 0.11984617554824421
-0.6979068033897792 0.13807082676061808
-0.6979068033897792 0.15629547797299193
-0.6647204299817111 0.11984617554824421
-0.6149408698696089 0.11984617554824421
-0.631534056573643 0.11984617554824421
-0.5983476831655749 0.15629547797299193
-0.631534056573643 0.1927447803977396
-0.6149408698696089 0.24741873403486114
-0.6647204299817111 0.2291940828224873
-0.648127243277677 0.10162152433587038
-0.6813136166857451 -0.0077263829383727115
-0.6647204299817111 -0.09884963900024195
-0.6647204299817111 -0.18997289506211118
-0.631534056573643 -0.09884963900024195
-0.5983476831655749 -0.0077263829383727115
-0.648127243277677 0.08339687312349653
-0.631534056573643 0.24741873403486114
-0.631534056573643 0.17452012918536577
-0.6647204299817111 0.1927447803977396
-0.648127243277677 0.06517222191112268
-0.6647204299817111 0.02872291948637498
-0.6647204299817111 -0.09884963900024195
-0.648127243277677 -0.1170742902126158
-0.6813136166857451 -0.1170742902126158
-0.6813136166857451 -0.02595103415074656
-0.648127243277677 0.02872291948637498
-0.648127243277677 0.06517222191112268
-0.6149408698696089 0.11984617554824421
-0.6149408698696089 0.1927447803977396
-0.5651613097575068 0.15629547797299193
-0.5651613097575068 0.13807082676061808
-0.5651613097575068 0.08339687312349653
-0.631534056573643 0.06517222191112268
-0.631534056573643 0.06517222191112268
-0.648127243277677 0.04694757069874883
-0.648127243277677 0.06517222191112268
-0.6979068033897792 0.13807082676061808
-0.6647204299817111 0.11984617554824421
-0.631534056573643 0.010498268274001136
-0.5817544964615409 0.010498268274001136
-0.5651613097575068 -0.06240033657549426
-0.5319749363494387 -0.04417568536312041
-0.5319749363494387 -0.04417568536312041
-0.5651613097575068 -0.0077263829383727115
-0.5651613097575068 0.02872291948637498
-0.5983476831655749 0.08339687312349653
-0.6149408698696089 0.10162152433587038
-0.6149408698696089 0.13807082676061808
-0.5651613097575068 0.10162152433587038
-0.5651613097575068 0.08339687312349653
-0.5153817496454047 0.08339687312349653
-0.5153817496454047 0.17452012918536577
-0.46560218953330257 0.1927447803977396
-0.4821953762373366 0.10162152433587038
-0.5153817496454047 -0.0077263829383727115
-0.5319749363494387 -0.09884963900024195
-0.5319749363494387 -0.17174824384973733
-0.5651613097575068 -0.09884963900024195
-0.5817544964615409 -0.04417568536312041
-0.5651613097575068 0.010498268274001136
-0.5983476831655749 0.10162152433587038
-0.5817544964615409 0.13807082676061808
-0.5319749363494387 0.11984617554824421
-0.4821953762373366 0.06517222191112268
-0.46560218953330257 0.06517222191112268
-0.4821953762373366 0.06517222191112268
-0.4821953762373366 0.08339687312349653
-0.5153817496454047 0.11984617554824421
-0.5153817496454047 0.13807082676061808
-0.5153817496454047 0.11984617554824421
-0.5319749363494387 0.08339687312349653
-0.5817544964615409 0.010498268274001136
-0.5651613097575068 -0.04417568536312041
-0.5319749363494387 -0.02595103415074656
-0.4821953762373366 0.02872291948637498
-0.4324158161252345 0.11984617554824421
-0.41582262942120046 0.13807082676061808
-0.4324158161252345 0.2291940828224873
-0.4821953762373366 0.17452012918536577
-0.46560218953330257 0.04694757069874883
-0.4821953762373366 -0.06240033657549426
-0.4821953762373366 -0.04417568536312041
-0.46560218953330257 -0.0077263829383727115
-0.46560218953330257 0.10162152433587038
-0.49878856294137064 0.17452012918536577
-0.5153817496454047 0.1927447803977396
-0.49878856294137064 0.11984617554824421
-0.4821953762373366 0.08339687312349653
-0.44900900282926853 0.02872291948637498
-0.4324158161252345 0.04694757069874883
-0.44900900282926853 0.08339687312349653
-0.4324158161252345 0.11984617554824421
-0.46560218953330257 0.04694757069874883
-0.4821953762373366 0.10162152433587038
-0.4821953762373366 0.13807082676061808
-0.5319749363494387 0.15629547797299193
-0.5319749363494387 0.15629547797299193
-0.4821953762373366 0.1927447803977396
-0.44900900282926853 0.10162152433587038
-0.44900900282926853 0.10162152433587038
-0.3992294427171664 0.02872291948637498
-0.4324158161252345 0.010498268274001136
-0.41582262942120046 0.13807082676061808
-0.4324158161252345 0.13807082676061808
-0.44900900282926853 0.15629547797299193
-0.5153817496454047 0.15629547797299193
-0.5651613097575068 0.13807082676061808
-0.4821953762373366 0.11984617554824421
-0.4821953762373366 0.10162152433587038
-0.4324158161252345 0.10162152433587038
-0.41582262942120046 0.10162152433587038
-0.3992294427171664 0.1927447803977396
-0.36604306930909836 0.24741873403486114
-0.3494498826050643 0.32031733888435654
-0.24989076238086005 0.28386803645960884
-0.21670438897279198 0.24741873403486114
-0.23329757567682602 0.13807082676061808
-0.20011120226875792 0.08339687312349653
-0.23329757567682602 0.02872291948637498
-0.2664839490848941 0.010498268274001136
-0.2830771357889281 -0.04417568536312041
-0.24989076238086005 -0.09884963900024195
-0.23329757567682602 -0.09884963900024195
-0.20011120226875792 -0.09884963900024195
-0.18351801556472389 -0.13529894142498963
-0.15033164215665581 -0.06240033657549426
-0.18351801556472389 -0.04417568536312041
-0.20011120226875792 -0.04417568536312041
-0.24989076238086005 -0.04417568536312041
-0.23329757567682602 -0.0806249877878681
-0.24989076238086005 -0.0806249877878681
-0.2664839490848941 -0.1170742902126158
-0.24989076238086005 -0.09884963900024195
-0.21670438897279198 -0.02595103415074656
-0.16692482886068985 0.02872291948637498
-0.15033164215665581 0.08339687312349653
-0.11714526874858773 0.11984617554824421
-0.16692482886068985 0.21096943161011344
-0.16692482886068985 0.1927447803977396
-0.18351801556472389 0.15629547797299193
-0.18351801556472389 0.13807082676061808
-0.24989076238086005 0.15629547797299193
-0.29967032249296216 0.13807082676061808
-0.3162635091969962 0.17452012918536577
-0.3494498826050643 0.13807082676061808
-0.36604306930909836 0.2291940828224873
-0.36604306930909836 0.2291940828224873
-0.33285669590103023 0.28386803645960884
-0.29967032249296216 0.24741873403486114
-0.29967032249296216 0.1927447803977396
-0.2830771357889281 0.08339687312349653
-0.29967032249296216 0.08339687312349653
-0.29967032249296216 0.06517222191112268
-0.3494498826050643 0.13807082676061808
-0.3826362560131324 0.17452012918536577
-0.3992294427171664 0.21096943161011344
-0.3992294427171664 0.2291940828224873
-0.41582262942120046 0.3020926876719827
-0.3826362560131324 0.32031733888435654
-0.33285669590103023 0.39321594373385194
-0.2664839490848941 0.41144059494622576
-0.24989076238086005 0.39321594373385194
-0.23329757567682602 0.32031733888435654
-0.16692482886068985 0.010498268274001136
-0.16692482886068985 -0.4633426632477189
-0.08395889534051965 -1.0283068508313082
0.08197297169982075 -1.6297203408396452
0.3142775855562973 -2.249358482060356
0.6959208797490802 -2.796098018431571
0.994598240421693 -3.2699389499532914
1.442614281430612 -3.579758020563647
1.824257575623395 -3.561533369351273
2.0897485628879395 -3.2334896475285437
2.3220531767444164 -2.7414240647944497
2.4050191102645866 -2.1400105747861127
2.4713918570807225 -1.6661696432643929
2.4879850437847564 -1.1923287117426729
2.537764603896859 -0.9371835947694389
2.620730537417029 -0.6273645241590835
2.653916910825097 -0.3904440583982235
2.620730537417029 -0.1170742902126158
2.4713918570807225 0.08339687312349653
2.3386463634484502 0.265643385247235
2.106341749591974 0.41144059494622576
1.8574439490314631 0.37499129252147806
1.5587665883588504 0.35676664130910424
1.2269028542781695 0.265643385247235
0.9116323069015227 0.15629547797299193
0.5797685728208419 0.21096943161011344
0.2976843988522633 0.265643385247235
0.03219341158771863 0.32031733888435654
-0.18351801556472389 0.44788989737097346
-0.3162635091969962 0.46611454858334733
-0.3992294427171664 0.5207885022204689
-0.36604306930909836 0.502563851008095
-0.3494498826050643 0.46611454858334733
-0.2664839490848941 0.46611454858334733
-0.23329757567682602 0.46611454858334733
-0.24989076238086005 0.5390131534328427
-0.23329757567682602 0.5572378046452166
-0.24989076238086005 0.48433919979572115
-0.29967032249296216 0.37499129252147806
-0.29967032249296216 0.35676664130910424
-0.3162635091969962 0.35676664130910424
-0.2830771357889281 0.42966524615859963
-0.33285669590103023 0.5207885022204689
-0.2664839490848941 0.5207885022204689
-0.2664839490848941 0.5390131534328427
-0.20011120226875792 0.502563851008095
-0.2664839490848941 0.41144059494622576
-0.20011120226875792 0.42966524615859963
-0.20011120226875792 0.46611454858334733
-0.23329757567682602 0.46611454858334733
-0.2664839490848941 0.46611454858334733
-0.2830771357889281 0.44788989737097346
-0.2830771357889281 0.46611454858334733
-0.24989076238086005 0.5390131534328427
-0.24989076238086005 0.5207885022204689
-0.21670438897279198 0.5754624558575904
-0.18351801556472389 0.6119117582823381
-0.13373845545262178 0.6665857119194596
-0.13373845545262178 0.630136409494712
-0.11714526874858773 0.6119117582823381
-0.1005520820445537 0.5207885022204689
-0.08395889534051965 0.46611454858334733
-0.18351801556472389 0.41144059494622576
-0.16692482886068985 0.42966524615859963
-0.18351801556472389 0.48433919979572115
-0.18351801556472389 0.5572378046452166
-0.15033164215665581 0.502563851008095
-0.1005520820445537 0.5390131534328427
-0.1005520820445537 0.5207885022204689
-0.13373845545262178 0.5390131534328427
-0.11714526874858773 0.5754624558575904
-0.11714526874858773 0.5390131534328427
-0.13373845545262178 0.502563851008095
-0.15033164215665581 0.5390131534328427
-0.11714526874858773 0.5390131534328427
-0.15033164215665581 0.5754624558575904
-0.15033164215665581 0.5754624558575904
-0.1005520820445537 0.5936871070699643
-0.08395889534051965 0.5572378046452166
-0.1005520820445537 0.5754624558575904
-0.06736570863648561 0.5207885022204689
-0.01758614852438349 0.5390131534328427
-0.03417933522841753 0.5207885022204689
-0.05077252193245157 0.5390131534328427
-0.03417933522841753 0.48433919979572115
-0.06736570863648561 0.46611454858334733
-0.05077252193245157 0.44788989737097346
-0.06736570863648561 0.48433919979572115
-0.1005520820445537 0.42966524615859963
-0.08395889534051965 0.5207885022204689
-0.06736570863648561 0.5207885022204689
-0.03417933522841753 0.5572378046452166
0.03219341158771863 0.6119117582823381
0.03219341158771863 0.630136409494712
0.06537978499578671 0.6483610607070858
0.04878659829175267 0.7030350143442073
0.04878659829175267 0.630136409494712
0.01560022488368459 0.5207885022204689
0.03219341158771863 0.46611454858334733
0.01560022488368459 0.37499129252147806
0.03219341158771863 0.41144059494622576
0.04878659829175267 0.42966524615859963
0.06537978499578671 0.5207885022204689
0.0985661584038548 0.6483610607070858
0.08197297169982075 0.630136409494712
0.06537978499578671 0.5936871070699643
0.0985661584038548 0.5207885022204689
0.11515934510788883 0.44788989737097346
0.11515934510788883 0.39321594373385194
0.0985661584038548 0.37499129252147806
0.06537978499578671 0.44788989737097346
0.03219341158771863 0.42966524615859963
0.03219341158771863 0.37499129252147806
0.04878659829175267 0.35676664130910424
0.06537978499578671 0.33854199009673036
0.01560022488368459 0.28386803645960884
0.08197297169982075 0.32031733888435654
0.06537978499578671 0.35676664130910424
0.04878659829175267 0.35676664130910424
0.01560022488368459 0.37499129252147806
-0.01758614852438349 0.37499129252147806
-0.1005520820445537 0.3020926876719827
-0.11714526874858773 0.3020926876719827
-0.16692482886068985 0.24741873403486114
-0.15033164215665581 0.17452012918536577
-0.16692482886068985 0.2291940828224873
-0.11714526874858773 0.21096943161011344
-0.11714526874858773 0.2291940828224873
-0.13373845545262178 0.3020926876719827
-0.15033164215665581 0.33854199009673036
-0.15033164215665581 0.28386803645960884
-0.21670438897279198 0.32031733888435654
-0.2830771357889281 0.28386803645960884
-0.3162635091969962 0.265643385247235
-0.36604306930909836 0.2291940828224873
-0.36604306930909836 0.24741873403486114
-0.3826362560131324 0.2291940828224873
-0.3826362560131324 0.2291940828224873
-0.3826362560131324 0.265643385247235
-0.3826362560131324 0.3020926876719827
-0.36604306930909836 0.33854199009673036
-0.3826362560131324 0.35676664130910424
-0.36604306930909836 0.35676664130910424
-0.4324158161252345 0.3020926876719827
-0.46560218953330257 0.3020926876719827
-0.44900900282926853 0.2291940828224873
-0.4821953762373366 0.21096943161011344
-0.49878856294137064 0.265643385247235
-0.4821953762373366 0.28386803645960884
-0.46560218953330257 0.33854199009673036
-0.4324158161252345 0.39321594373385194
-0.41582262942120046 0.46611454858334733
-0.36604306930909836 0.5207885022204689
-0.3494498826050643 0.6119117582823381
-0.36604306930909836 0.5390131534328427
-0.3826362560131324 0.39321594373385194
-0.3992294427171664 0.21096943161011344
-0.4324158161252345 0.17452012918536577
-0.4324158161252345 0.17452012918536577
-0.41582262942120046 0.265643385247235
-0.4821953762373366 0.42966524615859963
-0.4821953762373366 0.5207885022204689
-0.46560218953330257 0.5572378046452166
-0.4324158161252345 0.46611454858334733
-0.41582262942120046 0.35676664130910424
-0.44900900282926853 0.37499129252147806
-0.46560218953330257 0.39321594373385194
-0.44900900282926853 0.42966524615859963
-0.44900900282926853 0.41144059494622576
-0.46560218953330257 0.41144059494622576
-0.44900900282926853 0.39321594373385194
-0.49878856294137064 0.39321594373385194
-0.5153817496454047 0.39321594373385194
-0.5485681230534728 0.42966524615859963
-0.5485681230534728 0.44788989737097346
-0.5319749363494387 0.5207885022204689
-0.5319749363494387 0.5754624558575904
-0.5153817496454047 0.6119117582823381
-0.4821953762373366 0.5572378046452166
-0.46560218953330257 0.5572378046452166
-0.44900900282926853 0.502563851008095
-0.5153817496454047 0.46611454858334733
-0.5319749363494387 0.39321594373385194
-0.5485681230534728 0.3020926876719827
-0.6149408698696089 0.3020926876719827
-0.5983476831655749 0.32031733888435654
-0.5651613097575068 0.41144059494622576
-0.5651613097575068 0.48433919979572115
-0.5319749363494387 0.5754624558575904
-0.46560218953330257 0.5207885022204689
-0.46560218953330257 0.46611454858334733
-0.49878856294137064 0.37499129252147806
-0.44900900282926853 0.3020926876719827
-0.44900900282926853 0.28386803645960884
-0.5153817496454047 0.28386803645960884
-0.5485681230534728 0.37499129252147806
-0.5485681230534728 0.42966524615859963
-0.5651613097575068 0.48433919979572115
-0.5485681230534728 0.5207885022204689
-0.5485681230534728 0.42966524615859963
-0.49878856294137064 0.42966524615859963
-0.44900900282926853 0.37499129252147806
-0.44900900282926853 0.35676664130910424
-0.4324158161252345 0.35676664130910424
-0.4324158161252345 0.42966524615859963
-0.46560218953330257 0.46611454858334733
-0.49878856294137064 0.44788989737097346
-0.5319749363494387 0.39321594373385194
-0.5319749363494387 0.35676664130910424
-0.49878856294137064 0.32031733888435654
-0.4821953762373366 0.35676664130910424
-0.41582262942120046 0.41144059494622576
-0.4324158161252345 0.48433919979572115
-0.41582262942120046 0.5572378046452166
-0.3826362560131324 0.5207885022204689
-0.3992294427171664 0.37499129252147806
-0.3992294427171664 0.265643385247235
-0.41582262942120046 0.24741873403486114
-0.36604306930909836 0.21096943161011344
-0.4324158161252345 0.21096943161011344
-0.44900900282926853 0.24741873403486114
-0.44900900282926853 0.28386803645960884
-0.46560218953330257 0.33854199009673036
-0.4324158161252345 0.37499129252147806
-0.4324158161252345 0.39321594373385194
-0.3826362560131324 0.42966524615859963
-0.36604306930909836 0.41144059494622576
-0.36604306930909836 0.39321594373385194
-0.36604306930909836 0.39321594373385194
-0.4324158161252345 0.32031733888435654
-0.3992294427171664 0.3020926876719827
-0.41582262942120046 0.265643385247235
-0.44900900282926853 0.265643385247235
-0.41582262942120046 0.32031733888435654
-0.4324158161252345 0.3020926876719827
-0.3992294427171664 0.33854199009673036
-0.36604306930909836 0.37499129252147806
-0.36604306930909836 0.41144059494622576
-0.3162635091969962 0.42966524615859963
-0.3162635091969962 0.37499129252147806
-0.33285669590103023 0.35676664130910424
-0.3494498826050643 0.37499129252147806
-0.3992294427171664 0.3020926876719827
-0.44900900282926853 0.3020926876719827
-0.44900900282926853 0.265643385247235
-0.41582262942120046 0.28386803645960884
-0.4324158161252345 0.32031733888435654
-0.3826362560131324 0.39321594373385194
-0.3494498826050643 0.46611454858334733
-0.33285669590103023 0.5207885022204689
-0.33285669590103023 0.48433919979572115
-0.33285669590103023 0.46611454858334733
-0.33285669590103023 0.41144059494622576
-0.3494498826050643 0.35676664130910424
-0.36604306930909836 0.3020926876719827
-0.3826362560131324 0.24741873403486114
-0.3826362560131324 0.3020926876719827
-0.3992294427171664 0.32031733888435654
-0.3826362560131324 0.35676664130910424
-0.3826362560131324 0.39321594373385194
-0.33285669590103023 0.39321594373385194
-0.3494498826050643 0.41144059494622576
-0.24989076238086005 0.42966524615859963
-0.3162635091969962 0.32031733888435654
-0.29967032249296216 0.24741873403486114
-0.33285669590103023 0.24741873403486114
-0.3494498826050643 0.3020926876719827
-0.3826362560131324 0.28386803645960884
-0.41582262942120046 0.28386803645960884
-0.3826362560131324 0.2291940828224873
-0.3826362560131324 0.32031733888435654
-0.3826362560131324 0.37499129252147806
-0.36604306930909836 0.44788989737097346
-0.33285669590103023 0.44788989737097346
-0.2830771357889281 0.48433919979572115
-0.2830771357889281 0.44788989737097346
-0.33285669590103023 0.44788989737097346
-0.29967032249296216 0.41144059494622576
-0.3494498826050643 0.42966524615859963
-0.3494498826050643 0.44788989737097346
-0.3494498826050643 0.46611454858334733
-0.3494498826050643 0.41144059494622576
-0.33285669590103023 0.37499129252147806
-0.33285669590103023 0.32031733888435654
-0.3162635091969962 0.265643385247235
-0.24989076238086005 0.33854199009673036
-0.2830771357889281 0.42966524615859963
-0.2664839490848941 0.5207885022204689
-0.2664839490848941 0.5207885022204689
-0.2830771357889281 0.46611454858334733
-0.3162635091969962 0.33854199009673036
-0.2830771357889281 0.24741873403486114
-0.3494498826050643 0.21096943161011344
-0.3162635091969962 0.2291940828224873
-0.33285669590103023 0.28386803645960884
-0.33285669590103023 0.41144059494622576
-0.33285669590103023 0.48433919979572115
-0.3162635091969962 0.5754624558575904
-0.2664839490848941 0.5572378046452166
-0.24989076238086005 0.5390131534328427
-0.24989076238086005 0.502563851008095
-0.24989076238086005 0.46611454858334733
-0.21670438897279198 0.41144059494622576
-0.20011120226875792 0.42966524615859963
-0.20011120226875792 0.42966524615859963
-0.16692482886068985 0.42966524615859963
-0.13373845545262178 0.42966524615859963
-0.1005520820445537 0.35676664130910424
-0.08395889534051965 0.32031733888435654
-0.1005520820445537 0.265643385247235
-0.1005520820445537 0.11984617554824421
-0.13373845545262178 0.08339687312349653
-0.08395889534051965 0.15629547797299193
-0.11714526874858773 0.1927447803977396
-0.11714526874858773 0.24741873403486114
-0.15033164215665581 0.2291940828224873
-0.16692482886068985 0.1927447803977396
-0.13373845545262178 0.13807082676061808
-0.11714526874858773 0.13807082676061808
-0.06736570863648561 0.15629547797299193
-0.03417933522841753 0.1927447803977396
-0.06736570863648561 0.32031733888435654
-0.01758614852438349 0.3020926876719827
-0.01758614852438349 0.28386803645960884
-0.06736570863648561 0.2291940828224873
-0.1005520820445537 0.28386803645960884
-0.13373845545262178 0.28386803645960884
-0.16692482886068985 0.33854199009673036
-0.23329757567682602 0.35676664130910424
-0.21670438897279198 0.39321594373385194
-0.2664839490848941 0.42966524615859963
-0.20011120226875792 0.48433919979572115
-0.21670438897279198 0.5390131534328427
-0.20011120226875792 0.6119117582823381
-0.2664839490848941 0.502563851008095
-0.2664839490848941 0.41144059494622576
-0.2830771357889281 0.28386803645960884
-0.3162635091969962 0.3020926876719827
-0.3162635091969962 0.3020926876719827
-0.3494498826050643 0.3020926876719827
-0.3826362560131324 0.28386803645960884
-0.3992294427171664 0.42966524615859963
-0.33285669590103023 0.5936871070699643
-0.29967032249296216 0.6665857119194596
-0.2830771357889281 0.7212596655565812
-0.23329757567682602 0.6483610607070858
-0.21670438897279198 0.42966524615859963
-0.23329757567682602 0.28386803645960884
-0.21670438897279198 0.24741873403486114
-0.21670438897279198 0.24741873403486114
-0.24989076238086005 0.265643385247235
-0.2664839490848941 0.24741873403486114
-0.29967032249296216 0.11984617554824421
-0.21670438897279198 -0.24464684869923273
-0.08395889534051965 -0.6638138265838313
0.11515934510788883 -1.174104060530299
0.38065033237243345 -1.7755175505386358
0.7457004398611824 -2.358706389334599
1.1605301074620333 -2.8872212744934407
1.5421734016548163 -3.21526499631617
1.9072235091435652 -3.2699389499532914
2.156121309704076 -2.9965691817676836
2.3220531767444164 -2.5774022038830853
2.4216122969686205 -1.994213365087122
2.4713918570807225 -1.520372433565402
2.537764603896859 -1.0829808044684297
2.5709509773049266 -0.6820384777962051
2.653916910825097 -0.3539947559734758
2.620730537417029 -0.04417568536312041
2.5045782304887907 0.24741873403486114
2.4382054836726543 0.42966524615859963
2.272273616632314 0.502563851008095
2.0731553761839057 0.5207885022204689
1.840850762327429 0.5207885022204689
1.5919529617669184 0.48433919979572115
1.2600892276862377 0.48433919979572115
0.9780050537176589 0.5207885022204689
0.6461413196369781 0.5754624558575904
0.4636162658926037 0.8123829216184504
0.2313116520361271 0.8123829216184504
-0.0009929618203494508 0.7577089679813289
-0.18351801556472389 0.7030350143442073
-0.24989076238086005 0.5207885022204689
-0.2830771357889281 0.48433919979572115
-0.29967032249296216 0.48433919979572115
-0.29967032249296216 0.5390131534328427
-0.2664839490848941 0.5390131534328427
-0.2830771357889281 0.630136409494712
-0.29967032249296216 0.6848103631318335
-0.2664839490848941 0.7030350143442073
-0.2664839490848941 0.739484316768955
-0.23329757567682602 0.739484316768955
-0.23329757567682602 0.7577089679813289
-0.23329757567682602 0.7759336191937027
-0.18351801556472389 0.7030350143442073
-0.20011120226875792 0.6483610607070858
-0.23329757567682602 0.5936871070699643
-0.21670438897279198 0.6119117582823381
-0.24989076238086005 0.6483610607070858
-0.24989076238086005 0.6483610607070858
-0.24989076238086005 0.6848103631318335
-0.2830771357889281 0.7212596655565812
-0.2830771357889281 0.7941582704060766
-0.2830771357889281 0.7941582704060766
-0.21670438897279198 0.7759336191937027
-0.16692482886068985 0.7941582704060766
-0.11714526874858773 0.7759336191937027
-0.13373845545262178 0.7941582704060766
-0.16692482886068985 0.739484316768955
-0.18351801556472389 0.7212596655565812
-0.21670438897279198 0.7030350143442073
-0.18351801556472389 0.6848103631318335
-0.21670438897279198 0.630136409494712
-0.21670438897279198 0.7212596655565812
-0.21670438897279198 0.7212596655565812
-0.13373845545262178 0.7577089679813289
-0.15033164215665581 0.867056875255572
-0.16692482886068985 0.9217308288926935
-0.15033164215665581 0.976404782529815
-0.13373845545262178 0.9035061776803196
-0.13373845545262178 0.7759336191937027
-0.16692482886068985 0.630136409494712
-0.18351801556472389 0.5936871070699643
-0.18351801556472389 0.5572378046452166
-0.15033164215665581 0.5936871070699643
-0.15033164215665581 0.5572378046452166
-0.15033164215665581 0.6483610607070858
-0.11714526874858773 0.7030350143442073
-0.08395889534051965 0.7212596655565812
-0.01758614852438349 0.7577089679813289
-0.03417933522841753 0.8306075728308243
-0.06736570863648561 0.8306075728308243
-0.03417933522841753 0.867056875255572
-0.1005520820445537 0.8306075728308243
-0.1005520820445537 0.7212596655565812
-0.11714526874858773 0.630136409494712
-0.13373845545262178 0.630136409494712
-0.11714526874858773 0.7030350143442073
-0.13373845545262178 0.7212596655565812
-0.1005520820445537 0.7577089679813289
-0.1005520820445537 0.7759336191937027
-0.08395889534051965 0.739484316768955
-0.01758614852438349 0.7759336191937027
-0.01758614852438349 0.7759336191937027
-0.01758614852438349 0.6848103631318335
-0.03417933522841753 0.6483610607070858
-0.0009929618203494508 0.6848103631318335
-0.05077252193245157 0.6665857119194596
-0.03417933522841753 0.6665857119194596
-0.01758614852438349 0.6665857119194596
-0.01758614852438349 0.7577089679813289
0.01560022488368459 0.7759336191937027
0.06537978499578671 0.9946294337421889
0.06537978499578671 0.9946294337421889
0.08197297169982075 0.9581801313174412
0.08197297169982075 0.8488322240431981
0.03219341158771863 0.6848103631318335
0.03219341158771863 0.5936871070699643
-0.01758614852438349 0.5572378046452166
-0.0009929618203494508 0.502563851008095
-0.0009929618203494508 0.5207885022204689
-0.0009929618203494508 0.5390131534328427
0.03219341158771863 0.5936871070699643
0.06537978499578671 0.6119117582823381
0.08197297169982075 0.7030350143442073
0.0985661584038548 0.7212596655565812
0.11515934510788883 0.7212596655565812
0.0985661584038548 0.739484316768955
0.0985661584038548 0.6848103631318335
0.06537978499578671 0.6119117582823381
0.06537978499578671 0.5207885022204689
0.04878659829175267 0.5207885022204689
-0.0009929618203494508 0.5572378046452166
-0.05077252193245157 0.6119117582823381
-0.05077252193245157 0.5754624558575904
-0.01758614852438349 0.5390131534328427
-0.0009929618203494508 0.42966524615859963
-0.0009929618203494508 0.39321594373385194
0.03219341158771863 0.37499129252147806
-0.01758614852438349 0.39321594373385194
-0.08395889534051965 0.41144059494622576
-0.1005520820445537 0.46611454858334733
-0.20011120226875792 0.5390131534328427
-0.21670438897279198 0.5390131534328427
-0.24989076238086005 0.502563851008095
-0.2664839490848941 0.46611454858334733
-0.24989076238086005 0.42966524615859963
-0.23329757567682602 0.42966524615859963
-0.20011120226875792 0.502563851008095
-0.20011120226875792 0.6119117582823381
-0.18351801556472389 0.6848103631318335
-0.2664839490848941 0.6848103631318335
-0.29967032249296216 0.5754624558575904
-0.33285669590103023 0.41144059494622576
-0.33285669590103023 0.3020926876719827
-0.36604306930909836 0.2291940828224873
-0.36604306930909836 0.265643385247235
-0.3826362560131324 0.35676664130910424
-0.3826362560131324 0.46611454858334733
-0.3826362560131324 0.5207885022204689
-0.3826362560131324 0.5572378046452166
-0.3992294427171664 0.5754624558575904
-0.4324158161252345 0.5754624558575904
-0.3992294427171664 0.5754624558575904
-0.3992294427171664 0.5936871070699643
-0.3992294427171664 0.502563851008095
-0.3826362560131324 0.5207885022204689
-0.3992294427171664 0.5207885022204689
-0.3992294427171664 0.5572378046452166
-0.4324158161252345 0.6119117582823381
-0.3826362560131324 0.6665857119194596
-0.3826362560131324 0.7030350143442073
-0.3826362560131324 0.7030350143442073
-0.3826362560131324 0.6665857119194596
-0.36604306930909836 0.5936871070699643
-0.3494498826050643 0.6665857119194596
-0.3992294427171664 0.6665857119194596
-0.41582262942120046 0.6848103631318335
-0.46560218953330257 0.7759336191937027
-0.46560218953330257 0.7577089679813289
-0.49878856294137064 0.7212596655565812
-0.49878856294137064 0.6665857119194596
-0.46560218953330257 0.6119117582823381
-0.4324158161252345 0.5754624558575904
-0.3992294427171664 0.630136409494712
-0.3992294427171664 0.6483610607070858
-0.33285669590103023 0.7212596655565812
-0.3494498826050643 0.7212596655565812
-0.3992294427171664 0.7030350143442073
-0.4324158161252345 0.6665857119194596
-0.44900900282926853 0.7577089679813289
-0.4324158161252345 0.7577089679813289
-0.46560218953330257 0.739484316768955
-0.5153817496454047 0.6848103631318335
-0.49878856294137064 0.630136409494712
-0.44900900282926853 0.7212596655565812
-0.4324158161252345 0.7759336191937027
-0.41582262942120046 0.9217308288926935
-0.36604306930909836 0.976404782529815
-0.3992294427171664 0.8852815264679458
-0.41582262942120046 0.8306075728308243
-0.4324158161252345 0.6665857119194596
-0.4324158161252345 0.6119117582823381
-0.49878856294137064 0.5936871070699643
-0.4821953762373366 0.739484316768955
-0.49878856294137064 0.8123829216184504
-0.49878856294137064 0.8306075728308243
-0.5485681230534728 0.739484316768955
-0.5153817496454047 0.6119117582823381
-0.46560218953330257 0.5572378046452166
-0.4821953762373366 0.5572378046452166
-0.44900900282926853 0.6119117582823381
-0.44900900282926853 0.630136409494712
-0.4821953762373366 0.6483610607070858
-0.4821953762373366 0.7030350143442073
-0.5153817496454047 0.6483610607070858
-0.49878856294137064 0.6848103631318335
-0.5153817496454047 0.6483610607070858
-0.5319749363494387 0.6665857119194596
-0.44900900282926853 0.6848103631318335
-0.44900900282926853 0.7759336191937027
-0.3992294427171664 0.8488322240431981
-0.3992294427171664 0.8852815264679458
-0.3992294427171664 0.7941582704060766
-0.3826362560131324 0.7577089679813289
-0.4324158161252345 0.7212596655565812
-0.46560218953330257 0.6665857119194596
-0.49878856294137064 0.6848103631318335
-0.49878856294137064 0.6483610607070858
-0.4821953762373366 0.6848103631318335
-0.4324158161252345 0.6119117582823381
-0.4324158161252345 0.630136409494712
-0.3992294427171664 0.630136409494712
-0.3826362560131324 0.7030350143442073
-0.41582262942120046 0.6483610607070858
-0.3826362560131324 0.739484316768955
-0.44900900282926853 0.7030350143442073
-0.4324158161252345 0.7759336191937027
-0.41582262942120046 0.7759336191937027
-0.44900900282926853 0.7212596655565812
-0.4821953762373366 0.7212596655565812
-0.4821953762373366 0.6848103631318335
-0.44900900282926853 0.6848103631318335
-0.4324158161252345 0.6848103631318335
-0.3826362560131324 0.6848103631318335
-0.33285669590103023 0.7577089679813289
-0.3162635091969962 0.7577089679813289
-0.3494498826050643 0.739484316768955
-0.3494498826050643 0.7759336191937027
-0.36604306930909836 0.7030350143442073
-0.41582262942120046 0.6483610607070858
-0.4324158161252345 0.7030350143442073
-0.41582262942120046 0.630136409494712
-0.44900900282926853 0.6848103631318335
-0.44900900282926853 0.7212596655565812
-0.4324158161252345 0.7212596655565812
-0.3826362560131324 0.7759336191937027
-0.33285669590103023 0.8488322240431981
-0.3494498826050643 0.8123829216184504
-0.3494498826050643 0.8306075728308243
-0.3494498826050643 0.7577089679813289
-0.33285669590103023 0.6665857119194596
-0.36604306930909836 0.6665857119194596
-0.36604306930909836 0.6665857119194596
-0.41582262942120046 0.739484316768955
-0.3992294427171664 0.7941582704060766
-0.3826362560131324 0.7577089679813289
-0.36604306930909836 0.7577089679813289
-0.36604306930909836 0.6848103631318335
-0.33285669590103023 0.6848103631318335
-0.3162635091969962 0.6119117582823381
-0.29967032249296216 0.5572378046452166
-0.3162635091969962 0.502563851008095
-0.3826362560131324 0.5390131534328427
-0.3826362560131324 0.5572378046452166
-0.41582262942120046 0.6483610607070858
-0.41582262942120046 0.7030350143442073
-0.3992294427171664 0.739484316768955
-0.44900900282926853 0.739484316768955
-0.33285669590103023 0.7030350143442073
-0.29967032249296216 0.7577089679813289
-0.24989076238086005 0.739484316768955
-0.23329757567682602 0.7030350143442073
-0.24989076238086005 0.6848103631318335
-0.2830771357889281 0.5936871070699643
-0.2664839490848941 0.630136409494712
-0.33285669590103023 0.6119117582823381
-0.36604306930909836 0.6665857119194596
-0.36604306930909836 0.630136409494712
-0.3826362560131324 0.630136409494712
-0.33285669590103023 0.630136409494712
-0.2830771357889281 0.6848103631318335
-0.24989076238086005 0.6848103631318335
-0.2830771357889281 0.7212596655565812
-0.24989076238086005 0.6119117582823381
-0.2830771357889281 0.5936871070699643
-0.2830771357889281 0.5754624558575904
-0.2830771357889281 0.6483610607070858
-0.3162635091969962 0.7212596655565812
-0.3162635091969962 0.739484316768955
-0.3494498826050643 0.6848103631318335
-0.29967032249296216 0.5936871070699643
-0.2830771357889281 0.502563851008095
-0.24989076238086005 0.5572378046452166
-0.24989076238086005 0.5754624558575904
-0.24989076238086005 0.7212596655565812
-0.2664839490848941 0.7941582704060766
-0.21670438897279198 0.867056875255572
-0.23329757567682602 0.8488322240431981
-0.2830771357889281 0.7212596655565812
-0.2664839490848941 0.5936871070699643
-0.2664839490848941 0.46611454858334733
-0.24989076238086005 0.46611454858334733
-0.2664839490848941 0.5390131534328427
-0.18351801556472389 0.630136409494712
-0.1005520820445537 0.7577089679813289
-0.1005520820445537 0.8123829216184504
-0.06736570863648561 0.8852815264679458
-0.05077252193245157 0.867056875255572
-0.1005520820445537 0.7941582704060766
-0.1005520820445537 0.6665857119194596
-0.13373845545262178 0.41144059494622576
-0.15033164215665581 0.24741873403486114
-0.15033164215665581 0.13807082676061808
-0.13373845545262178 0.15629547797299193
-0.1005520820445537 0.2291940828224873
-0.13373845545262178 0.39321594373385194
-0.1005520820445537 0.46611454858334733
-0.1005520820445537 0.630136409494712
-0.1005520820445537 0.7030350143442073
-0.1005520820445537 0.6665857119194596
-0.08395889534051965 0.5936871070699643
-0.1005520820445537 0.48433919979572115
-0.06736570863648561 0.32031733888435654
-0.06736570863648561 0.3020926876719827
-0.1005520820445537 0.3020926876719827
-0.13373845545262178 0.42966524615859963
-0.1005520820445537 0.5390131534328427
-0.15033164215665581 0.7212596655565812
-0.1005520820445537 0.8306075728308243
-0.06736570863648561 0.7941582704060766
-0.08395889534051965 0.7212596655565812
-0.1005520820445537 0.6119117582823381
-0.13373845545262178 0.5207885022204689
-0.11714526874858773 0.6119117582823381
-0.23329757567682602 0.5936871070699643
-0.23329757567682602 0.5754624558575904
-0.29967032249296216 0.630136409494712
-0.33285669590103023 0.5572378046452166
-0.29967032249296216 0.5936871070699643
-0.2830771357889281 0.6848103631318335
-0.29967032249296216 0.7577089679813289
-0.2830771357889281 0.7577089679813289
-0.24989076238086005 0.739484316768955
-0.20011120226875792 0.6665857119194596
-0.20011120226875792 0.6483610607070858
-0.20011120226875792 0.630136409494712
-0.23329757567682602 0.6483610607070858
-0.24989076238086005 0.7212596655565812
-0.24989076238086005 0.7941582704060766
-0.2664839490848941 0.8123829216184504
-0.2830771357889281 0.7941582704060766
-0.23329757567682602 0.5390131534328427
-0.11714526874858773 0.24741873403486114
-0.03417933522841753 -0.1170742902126158
0.08197297169982075 -0.5362412680972143
0.28109121214822924 -1.0283068508313082
0.563175386116808 -1.5750463872025235
0.8784459334934547 -2.121785923573739
1.2434960409822036 -2.5774022038830853
1.5919529617669184 -2.796098018431571
1.9072235091435652 -2.796098018431571
2.239087243224246 -2.50450359903359
2.4547986703766886 -2.0671119699366174
2.587544164008961 -1.538597084777776
2.670510097529131 -1.1376547581055512
2.720289657641233 -0.7367124314333267
2.786662404457369 -0.40866870961059737
2.8198487778654373 -0.13529894142498963
2.786662404457369 0.1927447803977396
2.687103284233165 0.44788989737097346
2.537764603896859 0.630136409494712
2.355239550152484 0.7759336191937027
2.222494056520212 0.7759336191937027
1.9570030692556672 0.7577089679813289
1.7081052686951568 0.7941582704060766
1.39283472131851 0.8488322240431981
1.0443778005337951 0.8488322240431981
0.7457004398611824 0.8306075728308243
0.4304298924845356 0.8852815264679458
0.19812527862805904 0.8123829216184504
-0.03417933522841753 0.7941582704060766
-0.15033164215665581 0.7212596655565812
-0.2664839490848941 0.7759336191937027
-0.3494498826050643 0.7759336191937027
-0.3162635091969962 0.8123829216184504
-0.29967032249296216 0.8488322240431981
-0.2830771357889281 0.9581801313174412
-0.21670438897279198 1.0128540849545626
-0.18351801556472389 1.0675280385916843
-0.16692482886068985 1.1222019922288058
-0.15033164215665581 1.0857526898040581
-0.13373845545262178 1.0493033873793105
-0.15033164215665581 0.976404782529815
-0.13373845545262178 0.9581801313174412
-0.16692482886068985 0.8488322240431981
-0.18351801556472389 0.7941582704060766
-0.23329757567682602 0.8123829216184504
-0.21670438897279198 0.8306075728308243
-0.23329757567682602 0.9217308288926935
-0.21670438897279198 0.9581801313174412
-0.21670438897279198 1.0128540849545626
-0.13373845545262178 1.0675280385916843
-0.11714526874858773 1.1222019922288058
-0.06736570863648561 1.0675280385916843
-0.11714526874858773 1.0128540849545626
-0.13373845545262178 1.0310787361669367
-0.13373845545262178 1.0310787361669367
-0.13373845545262178 0.9946294337421889
-0.15033164215665581 0.9946294337421889
-0.16692482886068985 0.9399554801050674
-0.15033164215665581 0.867056875255572
-0.13373845545262178 0.8488322240431981
-0.15033164215665581 0.867056875255572
-0.1005520820445537 0.9581801313174412
-0.05077252193245157 1.0493033873793105
-0.01758614852438349 1.0675280385916843
-0.01758614852438349 1.0675280385916843
-0.0009929618203494508 1.0128540849545626
-0.01758614852438349 0.9946294337421889
-0.05077252193245157 0.9581801313174412
-0.1005520820445537 0.9217308288926935
-0.13373845545262178 0.9217308288926935
-0.11714526874858773 1.0128540849545626
-0.1005520820445537 1.0493033873793105
-0.05077252193245157 1.103977341016432
-0.0009929618203494508 0.9581801313174412
0.01560022488368459 1.0310787361669367
0.03219341158771863 0.9581801313174412
0.04878659829175267 0.9217308288926935
0.04878659829175267 0.9217308288926935
0.03219341158771863 0.9217308288926935
0.01560022488368459 0.9217308288926935
-0.03417933522841753 1.0310787361669367
-0.01758614852438349 0.9946294337421889
-0.01758614852438349 1.0675280385916843
-0.01758614852438349 1.1768759458659273
0.01560022488368459 1.1951005970783013
0.04878659829175267 1.1404266434411796
0.06537978499578671 1.0128540849545626
0.0985661584038548 0.867056875255572
0.0985661584038548 0.867056875255572
0.06537978499578671 0.8852815264679458
0.04878659829175267 0.976404782529815
0.04878659829175267 1.0310787361669367
0.04878659829175267 1.0857526898040581
-0.01758614852438349 1.0493033873793105
0.03219341158771863 1.0128540849545626
0.04878659829175267 0.9581801313174412
0.11515934510788883 0.9217308288926935
0.11515934510788883 0.9399554801050674
0.19812527862805904 0.976404782529815
0.19812527862805904 0.9946294337421889
0.16493890521999094 0.9946294337421889
0.16493890521999094 0.9946294337421889
0.11515934510788883 0.976404782529815
0.1483457185159569 0.976404782529815
0.13175253181192287 0.976404782529815
0.13175253181192287 0.976404782529815
0.11515934510788883 0.9217308288926935
0.0985661584038548 0.9399554801050674
0.16493890521999094 0.8852815264679458
0.181532091924025 0.8123829216184504
0.19812527862805904 0.8306075728308243
0.21471846533209307 0.8123829216184504
0.19812527862805904 0.8123829216184504
0.1483457185159569 0.8488322240431981
0.13175253181192287 0.9035061776803196
0.06537978499578671 0.976404782529815
0.06537978499578671 1.0857526898040581
0.03219341158771863 1.0310787361669367
0.03219341158771863 0.8123829216184504
0.03219341158771863 0.7030350143442073
0.01560022488368459 0.5754624558575904
0.04878659829175267 0.5754624558575904
0.04878659829175267 0.7030350143442073
-0.0009929618203494508 0.7941582704060766
-0.05077252193245157 0.8123829216184504
-0.1005520820445537 0.8852815264679458
-0.11714526874858773 0.8123829216184504
-0.18351801556472389 0.7941582704060766
-0.23329757567682602 0.7212596655565812
-0.2664839490848941 0.6848103631318335
-0.3162635091969962 0.739484316768955
-0.3162635091969962 0.8852815264679458
-0.3162635091969962 0.976404782529815
-0.2830771357889281 0.9399554801050674
-0.2830771357889281 0.867056875255572
-0.2830771357889281 0.739484316768955
-0.29967032249296216 0.6665857119194596
-0.2830771357889281 0.7212596655565812
-0.33285669590103023 0.8123829216184504
-0.3992294427171664 0.867056875255572
-0.4324158161252345 0.8123829216184504
-0.46560218953330257 0.7759336191937027
-0.49878856294137064 0.739484316768955
-0.46560218953330257 0.7212596655565812
-0.41582262942120046 0.7577089679813289
-0.3826362560131324 0.8306075728308243
-0.3494498826050643 0.9035061776803196
-0.3494498826050643 0.9217308288926935
-0.3494498826050643 0.9399554801050674
-0.3494498826050643 0.867056875255572
-0.36604306930909836 0.8852815264679458
-0.3826362560131324 0.8852815264679458
-0.3992294427171664 0.9217308288926935
-0.36604306930909836 0.9399554801050674
-0.3992294427171664 0.8488322240431981
-0.3992294427171664 0.8306075728308243
-0.36604306930909836 0.7577089679813289
-0.3494498826050643 0.867056875255572
-0.3162635091969962 0.9035061776803196
-0.3162635091969962 0.9217308288926935
-0.33285669590103023 0.976404782529815
-0.36604306930909836 0.9217308288926935
-0.36604306930909836 0.9035061776803196
-0.3826362560131324 0.8488322240431981
-0.3992294427171664 0.8123829216184504
-0.3992294427171664 0.8488322240431981
-0.3826362560131324 0.8852815264679458
-0.3826362560131324 0.9946294337421889
-0.33285669590103023 1.0493033873793105
-0.33285669590103023 1.1768759458659273
-0.3162635091969962 1.1586512946535534
-0.29967032249296216 1.1222019922288058
-0.3494498826050643 0.9946294337421889
-0.3162635091969962 0.8123829216184504
-0.33285669590103023 0.7759336191937027
-0.36604306930909836 0.7759336191937027
-0.3826362560131324 0.8123829216184504
-0.3826362560131324 0.867056875255572
-0.3992294427171664 0.9581801313174412
-0.3992294427171664 0.9946294337421889
-0.36604306930909836 1.0857526898040581
-0.3494498826050643 1.1222019922288058
-0.33285669590103023 1.0857526898040581
-0.3162635091969962 1.0493033873793105
-0.3494498826050643 1.0857526898040581
-0.3162635091969962 1.0128540849545626
-0.33285669590103023 0.9399554801050674
-0.3162635091969962 0.8123829216184504
-0.3826362560131324 0.739484316768955
-0.3826362560131324 0.7759336191937027
-0.4324158161252345 0.8306075728308243
-0.41582262942120046 0.9581801313174412
-0.3992294427171664 1.0128540849545626
-0.3992294427171664 1.0493033873793105
-0.3162635091969962 1.1222019922288058
-0.29967032249296216 1.1222019922288058
-0.2664839490848941 1.0857526898040581
-0.2664839490848941 0.976404782529815
-0.3162635091969962 0.9035061776803196
-0.3826362560131324 0.8306075728308243
-0.3826362560131324 0.8123829216184504
-0.3494498826050643 0.9217308288926935
-0.3494498826050643 1.0128540849545626
-0.3494498826050643 1.0675280385916843
-0.3162635091969962 1.0128540849545626
-0.29967032249296216 1.0310787361669367
-0.2830771357889281 0.9946294337421889
-0.23329757567682602 0.9946294337421889
-0.24989076238086005 0.9581801313174412
-0.2664839490848941 0.9217308288926935
-0.2830771357889281 0.867056875255572
-0.2830771357889281 0.867056875255572
-0.2830771357889281 0.9399554801050674
-0.2830771357889281 0.9399554801050674
-0.29967032249296216 0.976404782529815
-0.2830771357889281 0.9217308288926935
-0.21670438897279198 0.8852815264679458
-0.24989076238086005 0.8852815264679458
-0.23329757567682602 0.8488322240431981
-0.16692482886068985 0.867056875255572
-0.18351801556472389 0.9217308288926935
-0.20011120226875792 1.0128540849545626
-0.23329757567682602 1.0493033873793105
-0.21670438897279198 1.0310787361669367
-0.23329757567682602 0.9399554801050674
-0.23329757567682602 0.9399554801050674
-0.18351801556472389 0.867056875255572
-0.20011120226875792 0.867056875255572
-0.20011120226875792 0.9581801313174412
-0.18351801556472389 0.9946294337421889
-0.13373845545262178 0.9946294337421889
-0.1005520820445537 0.8852815264679458
-0.1005520820445537 0.9035061776803196
-0.13373845545262178 0.8488322240431981
-0.11714526874858773 0.8306075728308243
-0.16692482886068985 0.8852815264679458
-0.18351801556472389 1.0128540849545626
-0.15033164215665581 0.9399554801050674
-0.16692482886068985 0.976404782529815
-0.15033164215665581 0.9399554801050674
-0.11714526874858773 0.9399554801050674
-0.06736570863648561 0.976404782529815
-0.03417933522841753 0.976404782529815
-0.05077252193245157 1.0493033873793105
-0.06736570863648561 0.976404782529815
-0.08395889534051965 1.0128540849545626
-0.08395889534051965 1.0128540849545626
-0.08395889534051965 0.9581801313174412
-0.06736570863648561 0.9035061776803196
-0.1005520820445537 0.8306075728308243
-0.15033164215665581 0.8306075728308243
-0.16692482886068985 0.8488322240431981
-0.06736570863648561 0.8852815264679458
-0.08395889534051965 0.9217308288926935
-0.06736570863648561 1.0128540849545626
-0.05077252193245157 1.0128540849545626
-0.08395889534051965 1.0675280385916843
-0.03417933522841753 1.0857526898040581
-0.05077252193245157 0.9946294337421889
-0.1005520820445537 0.9399554801050674
-0.06736570863648561 0.7941582704060766
-0.1005520820445537 0.7759336191937027
-0.1005520820445537 0.8488322240431981
-0.06736570863648561 0.8852815264679458
-0.03417933522841753 0.9946294337421889
-0.03417933522841753 1.0310787361669367
0.01560022488368459 1.0675280385916843
0.06537978499578671 1.0493033873793105
0.04878659829175267 1.0128540849545626
0.04878659829175267 1.0310787361669367
-0.01758614852438349 0.9946294337421889
0.01560022488368459 0.9399554801050674
-0.03417933522841753 0.9035061776803196
-0.05077252193245157 0.9217308288926935
-0.01758614852438349 0.9946294337421889
0.01560022488368459 1.0675280385916843
0.03219341158771863 1.0675280385916843
0.01560022488368459 1.0128540849545626
0.03219341158771863 0.9399554801050674
0.06537978499578671 0.9035061776803196
0.01560022488368459 0.9035061776803196
0.03219341158771863 0.9035061776803196
0.04878659829175267 0.9581801313174412
0.03219341158771863 0.9399554801050674
0.03219341158771863 0.9217308288926935
0.03219341158771863 0.9217308288926935
0.01560022488368459 0.8852815264679458
0.01560022488368459 0.8852815264679458
0.03219341158771863 0.9035061776803196
0.11515934510788883 0.9217308288926935
0.0985661584038548 0.9581801313174412
0.11515934510788883 0.976404782529815
0.1483457185159569 1.0128540849545626
0.11515934510788883 1.0493033873793105
0.11515934510788883 1.0128540849545626
0.08197297169982075 0.976404782529815
0.06537978499578671 0.9946294337421889
0.03219341158771863 0.976404782529815
0.06537978499578671 0.9946294337421889
0.11515934510788883 0.976404782529815
0.16493890521999094 1.0310787361669367
0.19812527862805904 1.0128540849545626
0.2644980254441952 1.0493033873793105
0.2976843988522633 1.0493033873793105
0.3474639589643654 1.0675280385916843
0.39724351907646754 1.0310787361669367
0.38065033237243345 0.9946294337421889
0.38065033237243345 0.976404782529815
0.38065033237243345 0.8852815264679458
0.3474639589643654 0.9217308288926935
0.3474639589643654 0.8123829216184504
0.3474639589643654 0.8488322240431981
0.3474639589643654 0.8488322240431981
0.3474639589643654 0.8852815264679458
0.3640571456683994 0.8488322240431981
0.4138367057805016 0.7759336191937027
0.39724351907646754 0.6848103631318335
0.38065033237243345 0.630136409494712
0.3640571456683994 0.6119117582823381
0.39724351907646754 0.6848103631318335
0.3640571456683994 0.7212596655565812
0.39724351907646754 0.8123829216184504
0.3474639589643654 0.8852815264679458
0.4304298924845356 0.867056875255572
0.5133958260047058 0.8852815264679458
0.49680263930067176 0.7941582704060766
0.5465821994127739 0.7941582704060766
0.563175386116808 0.7941582704060766
0.5299890127087399 0.8306075728308243
0.49680263930067176 0.9399554801050674
0.4304298924845356 0.9399554801050674
0.38065033237243345 0.9946294337421889
0.38065033237243345 0.9946294337421889
0.2976843988522633 0.976404782529815
0.2644980254441952 0.9581801313174412
0.24790483874016114 0.9399554801050674
0.24790483874016114 0.9217308288926935
0.28109121214822924 0.9946294337421889
0.33087077226033135 0.9946294337421889
0.33087077226033135 1.0310787361669367
0.38065033237243345 1.0128540849545626
0.38065033237243345 0.976404782529815
0.3474639589643654 0.9399554801050674
0.3142775855562973 0.9399554801050674
0.33087077226033135 0.976404782529815
0.28109121214822924 0.976404782529815
0.28109121214822924 1.0493033873793105
0.3142775855562973 1.1222019922288058
0.33087077226033135 1.0675280385916843
0.3474639589643654 0.9946294337421889
0.4138367057805016 0.9581801313174412
0.4636162658926037 0.9399554801050674
0.5299890127087399 0.8488322240431981
0.563175386116808 0.5572378046452166
0.6627345063410122 0.11984617554824421
0.7788868132692505 -0.48156731446009277
0.9448186803095908 -1.2105533629550467
1.2600892276862377 -1.8484161553881313
1.6915120819911227 -2.3951556917593466
2.106341749591974 -2.7778733672191973
2.4879850437847564 -2.832547320856319
2.8032555911614034 -2.6320761575202067
3.052153391721914 -2.2311338308479822
3.1517125119461182 -1.757292899326262
3.2014920720582203 -1.1376547581055512
3.3176443789864587 -0.7184877802209527
3.3674239390985607 -0.3175454535487281
3.466983059322765 0.04694757069874883
3.500169432730833 0.28386803645960884
3.417203499210663 0.5572378046452166
3.3010511922824244 0.7759336191937027
3.168305698650152 0.8852815264679458
3.085339765129982 0.9035061776803196
2.8530351512735055 0.9035061776803196
2.587544164008961 0.9399554801050674
2.305459990040382 1.0310787361669367
1.9901894426637354 1.0675280385916843
1.6251393351749865 1.1951005970783013
1.3264619745023738 1.2133252482906751
1.027784613829761 1.1951005970783013
0.8120731866773185 1.1404266434411796
0.61295494622891 1.1222019922288058
0.49680263930067176 1.1404266434411796
0.44702307918856965 1.1951005970783013
0.44702307918856965 1.2497745507154228
0.5299890127087399 1.3044485043525442
0.5797685728208419 1.3773471092020397
0.6295481329329441 1.3955717604144136
0.6793276930450463 1.359122457989666
0.6627345063410122 1.2497745507154228
0.6627345063410122 1.0675280385916843
0.6793276930450463 1.0310787361669367
0.6461413196369781 1.0493033873793105
0.61295494622891 1.1404266434411796
0.596361759524876 1.2679992019277966
0.5797685728208419 1.322673155564918
0.5797685728208419 1.359122457989666
0.6461413196369781 1.3955717604144136
0.6793276930450463 1.340897806777292
0.7125140664531143 1.231549899503049
0.7291072531571483 1.231549899503049
0.7457004398611824 1.1586512946535534
0.7291072531571483 1.1951005970783013
0.7125140664531143 1.2497745507154228
0.6793276930450463 1.2497745507154228
0.6959208797490802 1.2862238531401704
0.6295481329329441 1.359122457989666
0.6627345063410122 1.322673155564918
0.6959208797490802 1.340897806777292
0.7457004398611824 1.2679992019277966
0.7954799999732844 1.2133252482906751
0.8452595600853866 1.1768759458659273
0.8286663733813525 1.1404266434411796
0.7788868132692505 1.2133252482906751
0.7622936265652164 1.2679992019277966
0.7457004398611824 1.2497745507154228
0.7291072531571483 1.2679992019277966
0.7622936265652164 1.2497745507154228
0.7457004398611824 1.2679992019277966
0.7457004398611824 1.3044485043525442
0.8120731866773185 1.3044485043525442
0.8452595600853866 1.2679992019277966
0.8286663733813525 1.3044485043525442
0.8286663733813525 1.2862238531401704
0.8120731866773185 1.2862238531401704
0.8618527467894207 1.2862238531401704
0.8452595600853866 1.231549899503049
0.8618527467894207 1.231549899503049
0.8618527467894207 1.231549899503049
0.8618527467894207 1.2497745507154228
0.8120731866773185 1.2133252482906751
0.8286663733813525 1.2497745507154228
0.8452595600853866 1.2862238531401704
0.8286663733813525 1.3044485043525442
0.8618527467894207 1.322673155564918
0.8950391201974888 1.3044485043525442
0.9116323069015227 1.322673155564918
0.9448186803095908 1.340897806777292
0.9780050537176589 1.2679992019277966
0.9448186803095908 1.2497745507154228
0.9614118670136249 1.2497745507154228
0.9614118670136249 1.2497745507154228
0.9282254936055568 1.2679992019277966
0.9282254936055568 1.322673155564918
0.9448186803095908 1.4137964116267874
0.9614118670136249 1.4137964116267874
1.011191427125727 1.3955717604144136
1.0443778005337951 1.4320210628391612
1.027784613829761 1.4137964116267874
1.011191427125727 1.3955717604144136
1.0609709872378292 1.340897806777292
1.077564173941863 1.1951005970783013
1.0609709872378292 1.0493033873793105
1.0609709872378292 0.9946294337421889
1.1273437340539654 1.1222019922288058
1.0941573606458972 1.1951005970783013
1.1107505473499313 1.3044485043525442
1.1771232941660674 1.2679992019277966
1.1605301074620333 1.1951005970783013
1.1107505473499313 1.1586512946535534
1.1605301074620333 1.1222019922288058
1.1771232941660674 1.1768759458659273
1.1273437340539654 1.1586512946535534
1.0941573606458972 1.1768759458659273
1.0941573606458972 1.0857526898040581
1.0609709872378292 0.976404782529815
1.0443778005337951 0.9581801313174412
1.0443778005337951 0.9581801313174412
1.027784613829761 0.9946294337421889
1.027784613829761 1.1222019922288058
1.0443778005337951 1.231549899503049
1.0443778005337951 1.2497745507154228
1.0443778005337951 1.231549899503049
1.027784613829761 1.1768759458659273
0.994598240421693 1.0675280385916843
0.994598240421693 0.9399554801050674
0.9448186803095908 0.9035061776803196
0.9116323069015227 0.9581801313174412
0.8784459334934547 0.9946294337421889
0.8950391201974888 1.0128540849545626
0.8784459334934547 0.9946294337421889
0.8618527467894207 0.9946294337421889
0.8618527467894207 0.9217308288926935
0.8618527467894207 0.9035061776803196
0.8618527467894207 0.867056875255572
0.8120731866773185 0.8306075728308243
0.7457004398611824 0.8123829216184504
0.7125140664531143 0.8123829216184504
0.6793276930450463 0.7941582704060766
0.6627345063410122 0.7759336191937027
0.6295481329329441 0.8306075728308243
0.61295494622891 0.8852815264679458
0.6627345063410122 0.9217308288926935
0.7125140664531143 1.0310787361669367
0.6793276930450463 1.1222019922288058
0.7291072531571483 1.1222019922288058
0.7125140664531143 1.0857526898040581
0.7291072531571483 0.9946294337421889
0.7291072531571483 0.9035061776803196
0.6461413196369781 0.8123829216184504
0.5797685728208419 0.8306075728308243
0.6295481329329441 0.9581801313174412
0.6295481329329441 1.0493033873793105
0.6793276930450463 1.103977341016432
0.6793276930450463 1.1222019922288058
0.6627345063410122 1.1404266434411796
0.6793276930450463 1.0493033873793105
0.7457004398611824 0.9946294337421889
0.7457004398611824 0.867056875255572
0.7788868132692505 0.739484316768955
0.7954799999732844 0.739484316768955
0.7125140664531143 0.8306075728308243
0.7125140664531143 0.9217308288926935
0.7125140664531143 0.9581801313174412
0.6793276930450463 1.0493033873793105
0.6627345063410122 1.1222019922288058
0.6793276930450463 1.1586512946535534
0.6793276930450463 1.2679992019277966
0.7622936265652164 1.2679992019277966
0.7622936265652164 1.2497745507154228
0.7788868132692505 1.1404266434411796
0.7622936265652164 0.9946294337421889
0.7457004398611824 1.0128540849545626
0.7125140664531143 1.0310787361669367
0.6793276930450463 1.0675280385916843
0.6959208797490802 0.9946294337421889
0.6627345063410122 1.0310787361669367
0.6461413196369781 1.0128540849545626
0.7125140664531143 1.0857526898040581
0.7291072531571483 1.1586512946535534
0.7954799999732844 1.231549899503049
0.8120731866773185 1.1222019922288058
0.7954799999732844 0.976404782529815
0.7954799999732844 0.8852815264679458
0.7788868132692505 0.867056875255572
0.7291072531571483 0.9399554801050674
0.7125140664531143 1.0128540849545626
0.6793276930450463 1.0310787361669367
0.6627345063410122 1.0310787361669367
0.6793276930450463 1.0675280385916843
0.7291072531571483 1.0493033873793105
0.7788868132692505 1.0675280385916843
0.7788868132692505 1.0857526898040581
0.7954799999732844 1.0675280385916843
0.7457004398611824 1.0675280385916843
0.7457004398611824 0.976404782529815
0.7622936265652164 0.9035061776803196
0.7622936265652164 0.9217308288926935
0.7457004398611824 0.8488322240431981
0.7291072531571483 0.8488322240431981
0.7125140664531143 0.8306075728308243
0.7125140664531143 0.8488322240431981
0.7125140664531143 0.9217308288926935
0.7457004398611824 0.9946294337421889
0.7457004398611824 1.0493033873793105
0.8120731866773185 1.0857526898040581
0.7954799999732844 1.0310787361669367
0.7954799999732844 0.9035061776803196
0.7291072531571483 0.8306075728308243
0.7457004398611824 0.7941582704060766
0.7457004398611824 0.7941582704060766
0.7622936265652164 0.8306075728308243
0.7291072531571483 0.9399554801050674
0.7291072531571483 0.9217308288926935
0.7457004398611824 0.9399554801050674
0.7125140664531143 0.9399554801050674
0.7291072531571483 0.9581801313174412
0.8120731866773185 0.9217308288926935
0.7954799999732844 0.9399554801050674
0.8120731866773185 0.9035061776803196
0.8120731866773185 0.9217308288926935
0.7788868132692505 0.9035061776803196
0.7954799999732844 0.8488322240431981
0.7457004398611824 0.8488322240431981
0.7954799999732844 0.8852815264679458
0.8120731866773185 0.867056875255572
0.8452595600853866 0.867056875255572
0.8784459334934547 0.9581801313174412
0.8950391201974888 1.0128540849545626
0.9116323069015227 1.0493033873793105
0.8784459334934547 0.9946294337421889
0.8784459334934547 0.9217308288926935
0.8784459334934547 0.7759336191937027
0.8452595600853866 0.7577089679813289
0.7954799999732844 0.7212596655565812
0.8452595600853866 0.739484316768955
0.7954799999732844 0.7577089679813289
0.7954799999732844 0.8123829216184504
0.8286663733813525 0.8306075728308243
0.8120731866773185 0.867056875255572
0.8784459334934547 0.867056875255572
0.8950391201974888 0.8488322240431981
0.8618527467894207 0.8852815264679458
0.8784459334934547 0.9035061776803196
0.8784459334934547 0.9035061776803196
0.8286663733813525 0.9035061776803196
0.8784459334934547 0.8488322240431981
0.8784459334934547 0.7577089679813289
0.8784459334934547 0.739484316768955
0.8618527467894207 0.7941582704060766
0.8618527467894207 0.867056875255572
0.8784459334934547 1.0128540849545626
0.8950391201974888 0.976404782529815
0.8950391201974888 0.8123829216184504
0.9448186803095908 0.6483610607070858
0.9282254936055568 0.6119117582823381
0.9282254936055568 0.6665857119194596
0.9116323069015227 0.6848103631318335
0.9116323069015227 0.739484316768955
0.8784459334934547 0.7577089679813289
0.8452595600853866 0.7577089679813289
0.8784459334934547 0.7212596655565812
0.8950391201974888 0.7759336191937027
0.8784459334934547 0.8123829216184504
0.9116323069015227 0.8123829216184504
0.9282254936055568 0.8123829216184504
0.9282254936055568 0.8306075728308243
0.9116323069015227 0.7759336191937027
0.9448186803095908 0.867056875255572
0.9282254936055568 0.8306075728308243
0.9282254936055568 0.8488322240431981
0.8784459334934547 0.739484316768955
0.8286663733813525 0.7030350143442073
0.8618527467894207 0.6119117582823381
0.9116323069015227 0.630136409494712
0.9614118670136249 0.7212596655565812
0.9780050537176589 0.867056875255572
1.011191427125727 1.0128540849545626
0.994598240421693 1.0128540849545626
0.994598240421693 0.867056875255572
0.9614118670136249 0.7030350143442073
0.9780050537176589 0.5936871070699643
0.9614118670136249 0.5207885022204689
0.9614118670136249 0.5207885022204689
0.9116323069015227 0.6119117582823381
0.9282254936055568 0.6665857119194596
0.8950391201974888 0.7212596655565812
0.9116323069015227 0.8123829216184504
0.9614118670136249 0.8306075728308243
0.994598240421693 0.8852815264679458
1.011191427125727 0.9035061776803196
0.994598240421693 0.9399554801050674
0.994598240421693 0.9217308288926935
0.9448186803095908 0.9035061776803196
0.9614118670136249 0.7759336191937027
0.9780050537176589 0.630136409494712
0.9614118670136249 0.5572378046452166
0.994598240421693 0.5936871070699643
1.0443778005337951 0.739484316768955
1.077564173941863 0.8306075728308243
1.0941573606458972 0.867056875255572
1.1605301074620333 0.976404782529815
1.1439369207579992 0.9581801313174412
1.1771232941660674 0.867056875255572
1.2103096675741354 0.8123829216184504
1.1771232941660674 0.7212596655565812
1.2103096675741354 0.5754624558575904
1.1771232941660674 0.48433919979572115
1.1439369207579992 0.39321594373385194
1.1439369207579992 0.39321594373385194
1.1771232941660674 0.48433919979572115
1.1937164808701015 0.5390131534328427
1.1605301074620333 0.48433919979572115
1.2434960409822036 0.48433919979572115
1.2766824143902717 0.46611454858334733
1.2932756010943056 0.5207885022204689
1.2766824143902717 0.5390131534328427
1.2600892276862377 0.630136409494712
1.1771232941660674 0.5207885022204689
1.1605301074620333 0.44788989737097346
1.1605301074620333 0.41144059494622576
1.1605301074620333 0.44788989737097346
1.2103096675741354 0.5207885022204689
1.2434960409822036 0.5754624558575904
1.2600892276862377 0.6848103631318335
1.2600892276862377 0.6665857119194596
1.2600892276862377 0.630136409494712
1.2103096675741354 0.5572378046452166
1.1937164808701015 0.5572378046452166
1.1771232941660674 0.5754624558575904
1.1273437340539654 0.5754624558575904
1.077564173941863 0.6483610607070858
1.027784613829761 0.6848103631318335
1.011191427125727 0.6483610607070858
0.9614118670136249 0.6848103631318335
1.011191427125727 0.630136409494712
1.0443778005337951 0.6119117582823381
1.1107505473499313 0.6119117582823381
1.077564173941863 0.6483610607070858
1.077564173941863 0.630136409494712
1.027784613829761 0.630136409494712
1.011191427125727 0.7030350143442073
0.994598240421693 0.6665857119194596
0.9614118670136249 0.6848103631318335
0.9614118670136249 0.6848103631318335
0.9780050537176589 0.7212596655565812
1.0443778005337951 0.7577089679813289
1.077564173941863 0.7759336191937027
1.1107505473499313 0.7577089679813289
1.1605301074620333 0.6665857119194596
1.1937164808701015 0.6119117582823381
1.1937164808701015 0.5207885022204689
1.2600892276862377 0.41144059494622576
1.2600892276862377 0.11984617554824421
1.3596483479104418 -0.3175454535487281
1.4758006548386802 -0.9554082459818127
1.7578848288072588 -1.538597084777776
2.1229349362960077 -2.1946845284232346
2.587544164008961 -2.7414240647944497
3.018967018313846 -2.960119879342936
3.466983059322765 -2.868996623281067
3.7656604199953776 -2.6320761575202067
3.9979650338518544 -2.249358482060356
4.147303714188161 -1.8119668529633837
4.163896900892195 -1.3381259214416636
4.163896900892195 -0.9554082459818127
4.163896900892195 -0.6273645241590835
4.147303714188161 -0.2810961511239804
4.047744593963956 0.010498268274001136
3.948185473739752 0.32031733888435654
3.832033166811514 0.5572378046452166
3.7158808598832755 0.6665857119194596
3.599728552955037 0.739484316768955
3.400610312506629 0.739484316768955
3.101932951834016 0.7212596655565812
2.7700692177533353 0.7577089679813289
2.4879850437847564 0.8123829216184504
2.156121309704076 0.8488322240431981
1.8574439490314631 0.8123829216184504
1.6085461484709525 0.739484316768955
1.442614281430612 0.739484316768955
1.2269028542781695 0.6665857119194596
1.1605301074620333 0.7030350143442073
1.1273437340539654 0.6848103631318335
1.0609709872378292 0.8306075728308243
1.1439369207579992 0.9581801313174412
1.1439369207579992 0.976404782529815
1.1605301074620333 0.9035061776803196
1.1771232941660674 0.7577089679813289
1.1439369207579992 0.739484316768955
1.1273437340539654 0.6848103631318335
1.1107505473499313 0.7212596655565812
1.1439369207579992 0.867056875255572
1.1439369207579992 0.976404782529815
1.1439369207579992 1.0493033873793105
1.1937164808701015 0.9946294337421889
1.2269028542781695 0.9399554801050674
1.2434960409822036 0.8306075728308243
1.2600892276862377 0.8306075728308243
1.2600892276862377 0.8306075728308243
1.2103096675741354 0.8488322240431981
1.2269028542781695 0.9217308288926935
1.2103096675741354 1.0310787361669367
1.2103096675741354 1.0493033873793105
1.1937164808701015 1.103977341016432
1.1937164808701015 1.0675280385916843
1.2269028542781695 1.0310787361669367
1.2434960409822036 0.9217308288926935
1.2766824143902717 0.8488322240431981
1.2932756010943056 0.8306075728308243
1.2269028542781695 0.8306075728308243
1.2103096675741354 0.8488322240431981
1.2434960409822036 0.8852815264679458
1.2103096675741354 0.867056875255572
1.1937164808701015 0.8123829216184504
1.2269028542781695 0.8123829216184504
1.1937164808701015 0.7759336191937027
1.2600892276862377 0.8306075728308243
1.2434960409822036 0.9217308288926935
1.2766824143902717 0.9946294337421889
1.3098687877983397 0.976404782529815
1.3264619745023738 0.9946294337421889
1.3098687877983397 0.9035061776803196
1.3098687877983397 0.9035061776803196
1.2600892276862377 0.8488322240431981
1.2103096675741354 0.867056875255572
1.2269028542781695 0.9217308288926935
1.2269028542781695 0.9217308288926935
1.2269028542781695 0.9399554801050674
1.2103096675741354 0.9581801313174412
1.2269028542781695 0.9581801313174412
1.2434960409822036 0.976404782529815
1.2932756010943056 0.9946294337421889
1.3264619745023738 1.0128540849545626
1.3430551612064079 0.9581801313174412
1.3264619745023738 0.9581801313174412
1.3762415346144758 0.9035061776803196
1.3098687877983397 0.8852815264679458
1.3264619745023738 0.8488322240431981
1.3264619745023738 0.7941582704060766
1.3264619745023738 0.7941582704060766
1.2600892276862377 0.8123829216184504
1.3264619745023738 0.8852815264679458
1.3430551612064079 0.9581801313174412
1.409427908022544 1.0310787361669367
1.442614281430612 1.0675280385916843
1.442614281430612 1.103977341016432
1.442614281430612 1.1222019922288058
1.4758006548386802 1.0857526898040581
1.442614281430612 0.9946294337421889
1.409427908022544 0.9035061776803196
1.459207468134646 0.8123829216184504
1.39283472131851 0.7759336191937027
1.409427908022544 0.7941582704060766
1.409427908022544 0.9217308288926935
1.459207468134646 1.0128540849545626
1.4758006548386802 1.0493033873793105
1.459207468134646 1.0493033873793105
1.4923938415427143 0.9581801313174412
1.4758006548386802 0.9399554801050674
1.4923938415427143 0.8306075728308243
1.4260210947265781 0.8123829216184504
1.4758006548386802 0.7759336191937027
1.4758006548386802 0.8123829216184504
1.442614281430612 0.7941582704060766
1.442614281430612 0.8123829216184504
1.442614281430612 0.867056875255572
1.4758006548386802 0.8488322240431981
1.442614281430612 0.9035061776803196
1.459207468134646 0.9217308288926935
1.459207468134646 0.8852815264679458
1.409427908022544 0.8488322240431981
1.39283472131851 0.7941582704060766
1.3264619745023738 0.6848103631318335
1.2932756010943056 0.6483610607070858
1.2766824143902717 0.6848103631318335
1.2600892276862377 0.7759336191937027
1.2434960409822036 0.7577089679813289
1.2103096675741354 0.8123829216184504
1.2269028542781695 0.8306075728308243
1.1937164808701015 0.9217308288926935
1.1937164808701015 0.9946294337421889
1.1605301074620333 0.9035061776803196
1.1771232941660674 0.8306075728308243
1.1273437340539654 0.6848103631318335
1.1107505473499313 0.6665857119194596
1.0443778005337951 0.630136409494712
1.027784613829761 0.6665857119194596
0.994598240421693 0.7212596655565812
0.9448186803095908 0.7759336191937027
0.9780050537176589 0.7577089679813289
0.9614118670136249 0.7941582704060766
0.9614118670136249 0.7941582704060766
0.9614118670136249 0.7941582704060766
0.9780050537176589 0.8123829216184504
0.9780050537176589 0.9035061776803196
0.9448186803095908 0.9217308288926935
0.8950391201974888 0.976404782529815
0.8950391201974888 0.9399554801050674
0.8784459334934547 0.867056875255572
0.8950391201974888 0.7577089679813289
0.8618527467894207 0.7030350143442073
0.8950391201974888 0.739484316768955
0.9116323069015227 0.8488322240431981
0.9448186803095908 0.976404782529815
0.9282254936055568 1.0310787361669367
0.9448186803095908 0.9946294337421889
0.8950391201974888 0.8852815264679458
0.8950391201974888 0.8123829216184504
0.8784459334934547 0.8123829216184504
0.8950391201974888 0.8488322240431981
0.9116323069015227 0.9399554801050674
0.8286663733813525 0.9581801313174412
0.8452595600853866 0.9946294337421889
0.8618527467894207 0.976404782529815
0.9282254936055568 0.8852815264679458
0.9116323069015227 0.9217308288926935
0.9780050537176589 0.9035061776803196
0.9282254936055568 0.9217308288926935
0.9116323069015227 0.976404782529815
0.8950391201974888 0.9946294337421889
0.8452595600853866 1.0493033873793105
0.8120731866773185 1.0310787361669367
0.8120731866773185 1.0310787361669367
0.8120731866773185 0.9581801313174412
0.8452595600853866 0.9217308288926935
0.8784459334934547 0.9217308288926935
0.8784459334934547 0.9035061776803196
0.8784459334934547 1.0128540849545626
0.9282254936055568 1.0493033873793105
0.9116323069015227 1.0857526898040581
0.9116323069015227 1.0675280385916843
0.9116323069015227 1.0128540849545626
0.8784459334934547 1.0128540849545626
0.8286663733813525 0.976404782529815
0.8618527467894207 0.976404782529815
0.8120731866773185 1.0128540849545626
0.8120731866773185 1.0128540849545626
0.8784459334934547 1.0857526898040581
0.8950391201974888 1.103977341016432
0.8618527467894207 1.1404266434411796
0.8950391201974888 1.103977341016432
0.8784459334934547 1.103977341016432
0.8452595600853866 1.103977341016432
0.8618527467894207 1.0857526898040581
0.8618527467894207 1.1222019922288058
0.8618527467894207 1.0493033873793105
0.8618527467894207 1.0310787361669367
0.8452595600853866 0.976404782529815
0.8618527467894207 0.976404782529815
0.8452595600853866 1.0310787361669367
0.8618527467894207 1.0310787361669367
0.8452595600853866 1.0857526898040581
0.9116323069015227 1.1404266434411796
0.8784459334934547 1.1222019922288058
0.8950391201974888 1.1768759458659273
0.8618527467894207 1.1404266434411796
0.8784459334934547 1.0857526898040581
0.8618527467894207 1.0128540849545626
0.8950391201974888 1.0675280385916843
0.8950391201974888 1.1222019922288058
0.8286663733813525 1.1404266434411796
0.8784459334934547 1.1586512946535534
0.9116323069015227 1.0857526898040581
0.9282254936055568 1.103977341016432
0.9614118670136249 1.0493033873793105
0.9614118670136249 1.0493033873793105
0.9614118670136249 1.103977341016432
0.9448186803095908 1.0675280385916843
0.9448186803095908 1.1586512946535534
0.9282254936055568 1.1951005970783013
0.8950391201974888 1.1586512946535534
0.8950391201974888 1.1586512946535534
0.8784459334934547 1.1768759458659273
0.9116323069015227 1.1768759458659273
0.9780050537176589 1.231549899503049
0.9614118670136249 1.231549899503049
0.994598240421693 1.2862238531401704
0.994598240421693 1.340897806777292
0.9780050537176589 1.340897806777292
0.9614118670136249 1.340897806777292
0.9614118670136249 1.2862238531401704
0.9448186803095908 1.1222019922288058
0.9282254936055568 0.9946294337421889
0.9116323069015227 0.9217308288926935
0.9282254936055568 0.9217308288926935
0.9448186803095908 1.0128540849545626
0.9448186803095908 1.1768759458659273
0.8950391201974888 1.322673155564918
0.994598240421693 1.3955717604144136
1.011191427125727 1.359122457989666
0.994598240421693 1.2679992019277966
1.027784613829761 1.2133252482906751
0.9780050537176589 1.1768759458659273
0.9282254936055568 1.2133252482906751
0.9282254936055568 1.322673155564918
0.9282254936055568 1.3955717604144136
0.9282254936055568 1.4137964116267874
0.9116323069015227 1.359122457989666
0.9614118670136249 1.231549899503049
0.994598240421693 1.1768759458659273
1.0443778005337951 1.2133252482906751
1.027784613829761 1.2497745507154228
1.077564173941863 1.2497745507154228
1.0609709872378292 1.2133252482906751
1.011191427125727 1.1951005970783013
0.9780050537176589 1.1404266434411796
0.9780050537176589 1.1404266434411796
0.8950391201974888 1.1586512946535534
0.8950391201974888 1.1951005970783013
0.9448186803095908 1.3773471092020397
1.011191427125727 1.4137964116267874
0.9448186803095908 1.450245714051535
1.011191427125727 1.4137964116267874
1.027784613829761 1.2862238531401704
1.0443778005337951 1.231549899503049
1.027784613829761 1.1768759458659273
1.011191427125727 1.2133252482906751
0.9448186803095908 1.2679992019277966
0.9282254936055568 1.340897806777292
0.9614118670136249 1.340897806777292
0.9780050537176589 1.3773471092020397
0.994598240421693 1.4684703652639088
1.011191427125727 1.4684703652639088
0.994598240421693 1.4866950164762827
1.0609709872378292 1.4320210628391612
1.0443778005337951 1.359122457989666
1.027784613829761 1.3044485043525442
1.0443778005337951 1.322673155564918
1.027784613829761 1.3955717604144136
1.027784613829761 1.3773471092020397
0.994598240421693 1.3773471092020397
0.9614118670136249 1.4137964116267874
0.9780050537176589 1.3955717604144136
0.994598240421693 1.4137964116267874
0.9780050537176589 1.4320210628391612
0.9780050537176589 1.450245714051535
1.0443778005337951 1.5049196676886567
1.0609709872378292 1.5049196676886567
1.027784613829761 1.450245714051535
1.011191427125727 1.3955717604144136
1.027784613829761 1.340897806777292
1.027784613829761 1.3044485043525442
0.994598240421693 1.322673155564918
0.9614118670136249 1.340897806777292
0.9282254936055568 1.3955717604144136
0.9780050537176589 1.4684703652639088
0.994598240421693 1.5413689701134043
1.011191427125727 1.5960429237505258
1.077564173941863 1.6324922261752735
1.0609709872378292 1.5595936213257782
1.0443778005337951 1.4684703652639088
0.994598240421693 1.4320210628391612
0.994598240421693 1.340897806777292
0.994598240421693 1.359122457989666
0.9448186803095908 1.359122457989666
0.9116323069015227 1.3773471092020397
0.9448186803095908 1.450245714051535
0.9614118670136249 1.450245714051535
1.011191427125727 1.5231443189010305
1.0443778005337951 1.6142675749628996
1.0941573606458972 1.6689415286000213
1.1439369207579992 1.6871661798123951
1.1439369207579992 1.6871661798123951
1.1771232941660674 1.6507168773876475
1.1771232941660674 1.6324922261752735
1.1937164808701015 1.5413689701134043
1.1605301074620333 1.450245714051535
1.1439369207579992 1.340897806777292
1.1605301074620333 1.340897806777292
1.1771232941660674 1.340897806777292
1.1605301074620333 1.3773471092020397
1.1771232941660674 1.5049196676886567
1.2434960409822036 1.5595936213257782
1.2269028542781695 1.450245714051535
1.1937164808701015 1.3044485043525442
1.2269028542781695 1.2679992019277966
1.1937164808701015 1.322673155564918
1.1937164808701015 1.4137964116267874
1.1439369207579992 1.4320210628391612
1.1605301074620333 1.359122457989666
1.1605301074620333 1.2862238531401704
1.1771232941660674 1.231549899503049
1.2103096675741354 1.322673155564918
1.2269028542781695 1.450245714051535
1.2434960409822036 1.6324922261752735
1.2434960409822036 1.6507168773876475
1.1771232941660674 1.7418401334495166
1.1605301074620333 1.705390831024769
1.1439369207579992 1.6689415286000213
1.077564173941863 1.5960429237505258
1.0609709872378292 1.577818272538152
0.9780050537176589 1.6142675749628996
0.9780050537176589 1.7236154822371428
0.9780050537176589 1.796514087086638
1.011191427125727 1.924086645573255
1.011191427125727 1.960535947998003
1.027784613829761 1.9423112967856289
1.0443778005337951 1.7418401334495166
0.9780050537176589 1.5413689701134043
0.994598240421693 1.4320210628391612
0.9448186803095908 1.4137964116267874
0.9282254936055568 1.4684703652639088
0.8950391201974888 1.5231443189010305
0.8784459334934547 1.6689415286000213
0.8784459334934547 1.796514087086638
0.8784459334934547 1.8876373431485074
0.9116323069015227 1.8876373431485074
0.9116323069015227 1.8876373431485074
0.9780050537176589 1.832963389511386
0.9780050537176589 1.7600647846618904
0.9780050537176589 1.6324922261752735
1.0609709872378292 1.577818272538152
1.0609709872378292 1.3773471092020397
1.1107505473499313 1.1222019922288058
1.1771232941660674 0.6848103631318335
1.3430551612064079 0.17452012918536577
1.5919529617669184 -0.37221940718584967
1.874037135735497 -0.9189589435570651
2.25568042992828 -1.411024526291159
2.653916910825097 -1.7208435969015143
3.0023738316098116 -1.884865457812879
3.3010511922824244 -1.757292899326262
3.5665421795469694 -1.4656984799282804
3.6826944864752074 -1.0100821996189344
3.782253606699412 -0.4268933608229712
3.865219540219582 0.10162152433587038
3.881812726923616 0.6483610607070858
3.89840591362765 1.103977341016432
3.832033166811514 1.5231443189010305
3.7158808598832755 1.7600647846618904
3.5831353662510033 1.8876373431485074
3.433796685914697 1.960535947998003
3.2512716321703223 1.924086645573255
2.9360010847936757 1.924086645573255
2.5543577906008927 1.9058619943608812
2.205900869816178 1.924086645573255
1.840850762327429 1.9787605992103767
1.5255802149507822 1.9787605992103767
1.2600892276862377 1.924086645573255
1.0609709872378292 1.924086645573255
0.8950391201974888 1.9423112967856289
0.8618527467894207 1.9969852504227505
0.8618527467894207 2.051659204059872
0.8950391201974888 2.142782460121741
0.9448186803095908 2.1792317625464888
0.994598240421693 2.1792317625464888
0.994598240421693 2.215681064971237
0.9780050537176589 2.215681064971237
0.9614118670136249 2.1792317625464888
0.9448186803095908 2.161007111334115
0.9614118670136249 2.1063331576969935
0.9448186803095908 2.033434552847498
0.9614118670136249 1.9969852504227505
0.994598240421693 1.9969852504227505
1.011191427125727 1.9787605992103767
0.994598240421693 2.069883855272246
1.011191427125727 2.0881085064846197
0.994598240421693 2.142782460121741
0.9780050537176589 2.142782460121741
0.9780050537176589 2.1792317625464888
0.994598240421693 2.161007111334115
0.9780050537176589 2.215681064971237
0.9614118670136249 2.2339057161836107
0.9614118670136249 2.2339057161836107
0.9780050537176589 2.3250289722454798
1.011191427125727 2.3250289722454798
1.027784613829761 2.2339057161836107
1.0609709872378292 2.161007111334115
1.0609709872378292 2.0881085064846197
1.011191427125727 2.0881085064846197
1.027784613829761 2.1245578089093673
1.077564173941863 2.1792317625464888
0.9780050537176589 2.2339057161836107
0.9614118670136249 2.2703550186083583
0.9282254936055568 2.1792317625464888
0.9282254936055568 2.197456413758863
0.9448186803095908 2.161007111334115
1.0443778005337951 2.1792317625464888
1.1107505473499313 2.215681064971237
1.1273437340539654 2.2521303673959845
1.1439369207579992 2.306804321033106
1.1273437340539654 2.3614782746702274
1.1107505473499313 2.3432536234578536
1.0941573606458972 2.288579669820732
1.027784613829761 2.2703550186083583
1.0443778005337951 2.1792317625464888
1.027784613829761 2.1792317625464888
0.9614118670136249 2.197456413758863
1.0609709872378292 2.215681064971237
1.077564173941863 2.1792317625464888
1.077564173941863 2.197456413758863
1.1273437340539654 2.2339057161836107
1.1771232941660674 2.2521303673959845
1.2103096675741354 2.306804321033106
1.1937164808701015 2.2703550186083583
1.1605301074620333 2.2703550186083583
1.1107505473499313 2.288579669820732
1.1273437340539654 2.197456413758863
1.1107505473499313 2.197456413758863
1.0941573606458972 2.2703550186083583
1.1273437340539654 2.2703550186083583
1.1439369207579992 2.288579669820732
1.1771232941660674 2.306804321033106
1.1937164808701015 2.306804321033106
1.2434960409822036 2.397927577094975
1.2434960409822036 2.3432536234578536
1.2269028542781695 2.3797029258826012
1.2269028542781695 2.3250289722454798
1.2269028542781695 2.3432536234578536
1.2269028542781695 2.2339057161836107
1.1937164808701015 2.142782460121741
1.1937164808701015 2.197456413758863
1.1771232941660674 2.2703550186083583
1.2103096675741354 2.3250289722454798
1.2269028542781695 2.416152228307349
1.2434960409822036 2.4343768795197227
1.2766824143902717 2.397927577094975
1.2600892276862377 2.3250289722454798
1.2600892276862377 2.215681064971237
1.2434960409822036 2.1245578089093673
1.2434960409822036 2.1245578089093673
1.2103096675741354 2.1063331576969935
1.1273437340539654 2.1245578089093673
1.1273437340539654 2.142782460121741
1.1273437340539654 2.161007111334115
1.1439369207579992 2.161007111334115
1.1605301074620333 2.215681064971237
1.1439369207579992 2.2339057161836107
1.1771232941660674 2.3250289722454798
1.1439369207579992 2.306804321033106
1.1605301074620333 2.2703550186083583
1.1107505473499313 2.069883855272246
1.1107505473499313 1.8694126919361336
1.0443778005337951 1.832963389511386
1.011191427125727 1.796514087086638
0.9448186803095908 1.9058619943608812
0.9448186803095908 1.9969852504227505
0.8784459334934547 2.1245578089093673
0.9448186803095908 2.142782460121741
0.8950391201974888 2.197456413758863
0.8784459334934547 2.1792317625464888
0.8452595600853866 2.1063331576969935
0.8452595600853866 2.142782460121741
0.7954799999732844 2.051659204059872
0.7788868132692505 2.0881085064846197
0.7457004398611824 2.051659204059872
0.6959208797490802 1.9969852504227505
0.7125140664531143 1.9787605992103767
0.6959208797490802 1.9423112967856289
0.6627345063410122 1.9969852504227505
0.7125140664531143 2.033434552847498
0.7125140664531143 2.0881085064846197
0.7125140664531143 2.1245578089093673
0.7457004398611824 2.142782460121741
0.6793276930450463 2.1245578089093673
0.6793276930450463 2.069883855272246
0.6461413196369781 2.0881085064846197
0.6295481329329441 2.0881085064846197
0.6295481329329441 2.142782460121741
0.6295481329329441 2.2339057161836107
0.596361759524876 2.161007111334115
0.6627345063410122 2.142782460121741
0.6627345063410122 2.069883855272246
0.6793276930450463 2.051659204059872
0.6959208797490802 2.033434552847498
0.6627345063410122 2.1245578089093673
0.6793276930450463 2.2521303673959845
0.6461413196369781 2.2703550186083583
0.6461413196369781 2.2521303673959845
0.6295481329329441 2.1792317625464888
0.5797685728208419 2.0881085064846197
0.5797685728208419 2.051659204059872
0.563175386116808 2.0881085064846197
0.5797685728208419 2.1245578089093673
0.563175386116808 2.1792317625464888
0.6295481329329441 2.2339057161836107
0.6627345063410122 2.2703550186083583
0.6627345063410122 2.306804321033106
0.6793276930450463 2.3250289722454798
0.6627345063410122 2.2521303673959845
0.6295481329329441 2.2339057161836107
0.563175386116808 2.161007111334115
0.49680263930067176 2.142782460121741
0.5465821994127739 2.161007111334115
0.5465821994127739 2.161007111334115
0.563175386116808 2.306804321033106
0.563175386116808 2.3250289722454798
0.5465821994127739 2.416152228307349
0.5797685728208419 2.416152228307349
0.61295494622891 2.3432536234578536
0.596361759524876 2.2339057161836107
0.563175386116808 2.142782460121741
0.5465821994127739 2.1245578089093673
0.5465821994127739 2.161007111334115
0.5299890127087399 2.197456413758863
0.4802094525966377 2.288579669820732
0.4802094525966377 2.306804321033106
0.49680263930067176 2.306804321033106
0.5133958260047058 2.2521303673959845
0.5465821994127739 2.306804321033106
0.563175386116808 2.2521303673959845
0.563175386116808 2.2339057161836107
0.5465821994127739 2.215681064971237
