0.11196344906533302 -0.7673702351390257
0.17845200152846621 -0.7871716060738225
0.17845200152846621 -0.7970722915412211
0.09534131094954972 -0.8069729770086195
-0.004391517745150069 -0.8267743479434163
0.028852758486416528 -0.8168736624760179
0.14520772529689963 -0.8366750334108148
0.17845200152846621 -0.8366750334108148
0.14520772529689963 -0.8564764043456117
0.07871917283376642 -0.8762777752804086
0.012230620370633228 -0.8663770898130102
0.028852758486416528 -0.8663770898130102
0.09534131094954972 -0.8267743479434163
0.12858558718111632 -0.7871716060738225
0.11196344906533302 -0.8267743479434163
0.09534131094954972 -0.8366750334108148
0.028852758486416528 -0.8564764043456117
0.012230620370633228 -0.8069729770086195
0.06209703471798313 -0.7871716060738225
0.09534131094954972 -0.7673702351390257
0.12858558718111632 -0.7574695496716272
0.11196344906533302 -0.7772709206064241
0.11196344906533302 -0.8366750334108148
0.12858558718111632 -0.8663770898130102
0.14520772529689963 -0.8366750334108148
0.12858558718111632 -0.8168736624760179
0.12858558718111632 -0.8069729770086195
0.11196344906533302 -0.8366750334108148
0.06209703471798313 -0.8465757188782133
0.028852758486416528 -0.8069729770086195
0.028852758486416528 -0.7970722915412211
0.07871917283376642 -0.7673702351390257
0.12858558718111632 -0.7277674932694318
0.09534131094954972 -0.7475688642042287
0.09534131094954972 -0.8366750334108148
0.14520772529689963 -0.9158805171500024
0.3114291064547326 -1.0049866863565886
0.5441390400756988 -1.1534969683675653
0.893203940507148 -1.321808621313339
1.1757802884754642 -1.5396237015961052
1.491600912675347 -1.8069422092158633
1.9736429180330626 -2.0346579749660276
2.339329956580295 -2.262373740716192
2.389196370927645 -2.4405860791293645
2.2894635422329452 -2.519791562868552
2.3559520946960784 -2.5296922483359503
2.5554177520854777 -2.519791562868552
2.7715055475906607 -2.4900895064663566
2.9211047906327106 -2.47028813553156
3.1039483099063268 -2.4405860791293645
3.27016969106416 -2.4405860791293645
3.336658243527293 -2.410884022727169
3.4862574865693428 -2.3514799099227783
3.685723143958742 -2.282175111650989
3.785455972653442 -2.2227709988465985
3.785455972653442 -2.1732675715096064
3.669101005842959 -2.153466200574809
3.353280381643076 -2.123764144172614
2.8712383762853606 -2.044558660433426
2.4390627852749946 -1.9455518057594416
2.0401314704961955 -1.8564456365528557
1.6578222938331797 -1.8069422092158633
1.1591581503596808 -1.7475380964114726
0.4942726257283489 -1.648531241737488
-0.25372358948189955 -1.5198223306613081
-0.8022541473027484 -1.361411363182933
-1.167941185849981 -1.2327024521067529
-1.2842961526604642 -1.1732983393023622
-1.1014526333868477 -1.0940928555631746
-0.9019869759974481 -1.014887371823987
-0.7856320091869651 -0.8960791462152056
-0.8022541473027484 -0.7970722915412211
-0.7690098710711818 -0.6683633804650411
-0.669277042376482 -0.5198530984540642
-0.5695442136817822 -0.4406476147148766
-0.48643352310286575 -0.3713428164430875
-0.43656710875551585 -0.361442130975689
-0.35345641817659934 -0.3416407600408921
-0.28696786571346616 -0.3713428164430875
-0.20385717513454965 -0.42084624378007973
-0.25372358948189955 -0.41094555831268126
-0.33683428006081606 -0.3416407600408921
-0.40332283252394924 -0.29213733270389985
-0.38670069440816596 -0.24263390536690757
-0.35345641817659934 -0.22283253443211065
-0.3700785562923826 -0.252534590834306
-0.38670069440816596 -0.252534590834306
-0.40332283252394924 -0.24263390536690757
-0.45318924687129913 -0.252534590834306
-0.33683428006081606 -0.2327332198995091
-0.30359000382924944 -0.20303116349731373
-0.30359000382924944 -0.16342842162771992
-0.33683428006081606 -0.18322979256251684
-0.4199449706397325 -0.18322979256251684
-0.43656710875551585 -0.12382567975812611
-0.45318924687129913 -0.04462019601893847
-0.4199449706397325 -0.024818825084141564
-0.4199449706397325 -0.10402430882332919
-0.4698113849870824 -0.18322979256251684
-0.4698113849870824 -0.2129318489647122
-0.4199449706397325 -0.17332910709511837
-0.3700785562923826 -0.1931304780299153
-0.38670069440816596 -0.22283253443211065
-0.38670069440816596 -0.1931304780299153
-0.4199449706397325 -0.143627050692923
-0.43656710875551585 -0.15352773616032148
-0.45318924687129913 -0.16342842162771992
-0.45318924687129913 -0.1931304780299153
-0.4199449706397325 -0.15352773616032148
-0.40332283252394924 -0.13372636522552456
-0.43656710875551585 -0.06442156695373538
-0.503055661218649 -0.06442156695373538
-0.4698113849870824 -0.09412362335593075
-0.45318924687129913 -0.06442156695373538
-0.45318924687129913 0.0048832313180537995
-0.45318924687129913 -0.03471951055154002
-0.45318924687129913 -0.07432225242113384
-0.43656710875551585 -0.08422293788853229
-0.38670069440816596 -0.12382567975812611
-0.40332283252394924 -0.13372636522552456
-0.38670069440816596 -0.07432225242113384
-0.30359000382924944 -0.09412362335593075
-0.33683428006081606 -0.12382567975812611
-0.35345641817659934 -0.143627050692923
-0.3700785562923826 -0.10402430882332919
-0.38670069440816596 -0.10402430882332919
-0.35345641817659934 -0.08422293788853229
-0.3202121419450327 -0.10402430882332919
-0.35345641817659934 -0.10402430882332919
-0.35345641817659934 -0.11392499429072765
-0.33683428006081606 -0.09412362335593075
-0.3202121419450327 -0.07432225242113384
-0.33683428006081606 -0.05452088148633693
-0.28696786571346616 -0.05452088148633693
-0.27034572759768283 -0.04462019601893847
-0.27034572759768283 -0.06442156695373538
-0.27034572759768283 -0.08422293788853229
-0.20385717513454965 -0.05452088148633693
-0.12074648455563317 -0.01491813961674311
-0.08750220832406656 -0.024818825084141564
-0.13736862267141645 -0.024818825084141564
-0.13736862267141645 -0.04462019601893847
-0.18723503701876634 -0.08422293788853229
-0.18723503701876634 -0.10402430882332919
-0.08750220832406656 -0.09412362335593075
-0.07088007020828327 -0.07432225242113384
-0.05425793209249997 -0.10402430882332919
-0.10412434643984986 -0.08422293788853229
-0.12074648455563317 -0.09412362335593075
-0.08750220832406656 -0.07432225242113384
-0.02101365586093337 -0.08422293788853229
0.09534131094954972 -0.09412362335593075
0.14520772529689963 -0.11392499429072765
0.1618298634126829 -0.143627050692923
0.12858558718111632 -0.16342842162771992
0.12858558718111632 -0.09412362335593075
0.17845200152846621 -0.09412362335593075
0.1618298634126829 -0.07432225242113384
0.14520772529689963 -0.08422293788853229
0.14520772529689963 -0.08422293788853229
0.17845200152846621 -0.13372636522552456
0.24494055399159942 -0.143627050692923
0.24494055399159942 -0.1931304780299153
0.2948069683389493 -0.24263390536690757
0.3114291064547326 -0.2723359617691029
0.3446733826862992 -0.29213733270389985
0.3779176589178658 -0.3020380181712983
0.3612955208020825 -0.24263390536690757
0.3446733826862992 -0.22283253443211065
0.3114291064547326 -0.2624352763017045
0.3280512445705159 -0.29213733270389985
0.3446733826862992 -0.3218393891060952
0.3446733826862992 -0.3020380181712983
0.4111619351494324 -0.252534590834306
0.3945397970336491 -0.252534590834306
0.4111619351494324 -0.2723359617691029
0.3779176589178658 -0.2723359617691029
0.3779176589178658 -0.2822366472365014
0.3280512445705159 -0.31193870363869675
0.3612955208020825 -0.2822366472365014
0.3446733826862992 -0.2822366472365014
0.3945397970336491 -0.29213733270389985
0.4111619351494324 -0.33174007457349364
0.3945397970336491 -0.3020380181712983
0.3280512445705159 -0.2822366472365014
0.3779176589178658 -0.20303116349731373
0.3945397970336491 -0.143627050692923
0.3779176589178658 -0.17332910709511837
0.3945397970336491 -0.2624352763017045
0.3945397970336491 -0.361442130975689
0.3779176589178658 -0.3713428164430875
0.3612955208020825 -0.31193870363869675
0.3779176589178658 -0.22283253443211065
0.3779176589178658 -0.2129318489647122
0.3280512445705159 -0.20303116349731373
0.2948069683389493 -0.1931304780299153
0.2615626921073827 -0.2129318489647122
0.2948069683389493 -0.252534590834306
0.2948069683389493 -0.2624352763017045
0.3280512445705159 -0.24263390536690757
0.2948069683389493 -0.252534590834306
0.3114291064547326 -0.2822366472365014
0.2615626921073827 -0.2624352763017045
0.278184830223166 -0.252534590834306
0.3114291064547326 -0.22283253443211065
0.278184830223166 -0.22283253443211065
0.2615626921073827 -0.1931304780299153
0.2615626921073827 -0.20303116349731373
0.2116962777600328 -0.20303116349731373
0.2283184158758161 -0.17332910709511837
0.2615626921073827 -0.12382567975812611
0.24494055399159942 -0.143627050692923
0.12858558718111632 -0.15352773616032148
0.14520772529689963 -0.143627050692923
0.14520772529689963 -0.15352773616032148
0.1618298634126829 -0.15352773616032148
0.1618298634126829 -0.15352773616032148
0.12858558718111632 -0.15352773616032148
0.09534131094954972 -0.11392499429072765
0.06209703471798313 -0.11392499429072765
0.045474896602199825 -0.15352773616032148
0.09534131094954972 -0.20303116349731373
0.1618298634126829 -0.2129318489647122
0.1618298634126829 -0.20303116349731373
0.12858558718111632 -0.2129318489647122
0.07871917283376642 -0.18322979256251684
0.045474896602199825 -0.17332910709511837
0.06209703471798313 -0.12382567975812611
0.11196344906533302 -0.08422293788853229
0.06209703471798313 -0.08422293788853229
0.045474896602199825 -0.12382567975812611
-0.02101365586093337 -0.15352773616032148
-0.004391517745150069 -0.17332910709511837
0.012230620370633228 -0.17332910709511837
0.012230620370633228 -0.18322979256251684
0.06209703471798313 -0.17332910709511837
0.045474896602199825 -0.16342842162771992
0.045474896602199825 -0.17332910709511837
-0.02101365586093337 -0.18322979256251684
-0.004391517745150069 -0.17332910709511837
0.07871917283376642 -0.15352773616032148
0.09534131094954972 -0.143627050692923
0.06209703471798313 -0.143627050692923
0.045474896602199825 -0.16342842162771992
-0.004391517745150069 -0.18322979256251684
-0.004391517745150069 -0.17332910709511837
0.012230620370633228 -0.143627050692923
0.07871917283376642 -0.15352773616032148
0.12858558718111632 -0.11392499429072765
0.09534131094954972 -0.12382567975812611
0.06209703471798313 -0.15352773616032148
0.09534131094954972 -0.16342842162771992
0.14520772529689963 -0.12382567975812611
0.1618298634126829 -0.09412362335593075
0.11196344906533302 -0.06442156695373538
0.09534131094954972 -0.05452088148633693
0.07871917283376642 -0.01491813961674311
0.12858558718111632 -0.024818825084141564
0.1618298634126829 -0.03471951055154002
0.17845200152846621 -0.11392499429072765
0.24494055399159942 -0.18322979256251684
0.2116962777600328 -0.24263390536690757
0.2116962777600328 -0.16342842162771992
0.19507413964424952 -0.10402430882332919
0.24494055399159942 -0.12382567975812611
0.3280512445705159 -0.1931304780299153
0.3446733826862992 -0.22283253443211065
0.3612955208020825 -0.2129318489647122
0.3446733826862992 -0.17332910709511837
0.278184830223166 -0.16342842162771992
0.278184830223166 -0.11392499429072765
0.2615626921073827 -0.13372636522552456
0.2948069683389493 -0.11392499429072765
0.3114291064547326 -0.143627050692923
0.24494055399159942 -0.12382567975812611
0.2615626921073827 -0.09412362335593075
0.2948069683389493 -0.09412362335593075
0.3779176589178658 -0.08422293788853229
0.4111619351494324 -0.10402430882332919
0.3779176589178658 -0.10402430882332919
0.2948069683389493 -0.04462019601893847
0.278184830223166 -0.03471951055154002
0.3114291064547326 -0.005017454149344655
0.3446733826862992 -0.08422293788853229
0.3446733826862992 -0.16342842162771992
0.3446733826862992 -0.17332910709511837
0.3114291064547326 -0.143627050692923
0.3280512445705159 -0.12382567975812611
0.3612955208020825 -0.07432225242113384
0.3779176589178658 -0.09412362335593075
0.3612955208020825 -0.12382567975812611
0.3114291064547326 -0.11392499429072765
0.278184830223166 -0.08422293788853229
0.3280512445705159 -0.07432225242113384
0.3114291064547326 -0.024818825084141564
0.2948069683389493 -0.005017454149344655
0.24494055399159942 -0.05452088148633693
0.278184830223166 -0.09412362335593075
0.278184830223166 -0.09412362335593075
0.3612955208020825 -0.07432225242113384
0.42778407326521567 -0.06442156695373538
0.4111619351494324 -0.12382567975812611
0.3612955208020825 -0.143627050692923
0.3446733826862992 -0.15352773616032148
0.3446733826862992 -0.13372636522552456
0.444406211380999 -0.09412362335593075
0.47765048761256557 -0.08422293788853229
0.47765048761256557 -0.09412362335593075
0.4111619351494324 -0.08422293788853229
0.3612955208020825 -0.09412362335593075
0.3779176589178658 -0.05452088148633693
0.3779176589178658 -0.04462019601893847
0.3945397970336491 -0.005017454149344655
0.3945397970336491 -0.01491813961674311
0.3945397970336491 0.0048832313180537995
0.3779176589178658 0.014783916785452253
0.3779176589178658 0.0048832313180537995
0.4111619351494324 -0.04462019601893847
0.4111619351494324 -0.04462019601893847
0.3779176589178658 -0.07432225242113384
0.3779176589178658 -0.04462019601893847
0.3612955208020825 -0.01491813961674311
0.3446733826862992 0.02468460225285071
0.4111619351494324 0.06428734412244452
0.444406211380999 0.02468460225285071
0.5108947638441322 -0.06442156695373538
0.4942726257283489 -0.10402430882332919
0.4610283494967823 -0.10402430882332919
0.4111619351494324 -0.07432225242113384
0.47765048761256557 -0.024818825084141564
0.5275169019599155 0.014783916785452253
0.4942726257283489 0.014783916785452253
0.42778407326521567 0.034585287720249165
0.42778407326521567 0.02468460225285071
0.42778407326521567 0.014783916785452253
0.444406211380999 0.014783916785452253
0.4610283494967823 0.04448597318764762
0.5108947638441322 0.04448597318764762
0.5108947638441322 0.02468460225285071
0.47765048761256557 0.014783916785452253
0.4610283494967823 0.02468460225285071
0.47765048761256557 0.05438665865504607
0.5108947638441322 0.1335921423942337
0.5275169019599155 0.09398940052463989
0.5275169019599155 0.08408871505724143
0.610627592538832 0.06428734412244452
0.6272497306546153 0.05438665865504607
0.6604940068861819 0.07418802958984298
0.6937382831177484 0.14349282786163217
0.7602268355808817 0.14349282786163217
0.8100932499282316 0.16329419879642906
0.7602268355808817 0.18309556973122598
0.7436046974650984 0.21279762613342135
0.8100932499282316 0.2226983116008198
0.8599596642755815 0.2226983116008198
0.9098260786229313 0.17319488426382754
1.0095589073176312 0.11379077145943679
1.059425321664981 0.12369145692683525
1.0760474597807643 0.11379077145943679
1.1259138741281143 0.14349282786163217
1.1591581503596808 0.18309556973122598
1.225646702822814 0.15339351332903062
1.225646702822814 0.17319488426382754
1.225646702822814 0.15339351332903062
1.2422688409385974 0.1335921423942337
1.275513117170164 0.18309556973122598
1.3586238077490804 0.20289694066602287
1.4251123602122135 0.15339351332903062
1.45835663644378 0.12369145692683525
1.3586238077490804 0.11379077145943679
1.2422688409385974 0.10389008599203835
1.1092917360123309 0.11379077145943679
1.0095589073176312 0.16329419879642906
0.943070354854498 0.17319488426382754
0.8599596642755815 0.15339351332903062
0.7602268355808817 0.14349282786163217
0.5773833163072654 0.1335921423942337
0.42778407326521567 0.12369145692683525
0.42778407326521567 0.1335921423942337
0.4942726257283489 0.1335921423942337
0.4942726257283489 0.11379077145943679
0.4942726257283489 0.12369145692683525
0.47765048761256557 0.12369145692683525
0.444406211380999 0.15339351332903062
0.4610283494967823 0.16329419879642906
0.47765048761256557 0.1335921423942337
0.4610283494967823 0.15339351332903062
0.4610283494967823 0.12369145692683525
0.4111619351494324 0.16329419879642906
0.444406211380999 0.10389008599203835
0.47765048761256557 0.1335921423942337
0.5108947638441322 0.1335921423942337
0.4942726257283489 0.16329419879642906
0.47765048761256557 0.16329419879642906
0.4610283494967823 0.20289694066602287
0.47765048761256557 0.23259899706821824
0.444406211380999 0.18309556973122598
0.4942726257283489 0.12369145692683525
0.4942726257283489 0.09398940052463989
0.4610283494967823 0.09398940052463989
0.3945397970336491 0.12369145692683525
0.4111619351494324 0.15339351332903062
0.47765048761256557 0.19299625519862443
0.5108947638441322 0.15339351332903062
0.4610283494967823 0.16329419879642906
0.4610283494967823 0.15339351332903062
0.47765048761256557 0.15339351332903062
0.4942726257283489 0.14349282786163217
0.4942726257283489 0.16329419879642906
0.5108947638441322 0.12369145692683525
0.4942726257283489 0.1335921423942337
0.47765048761256557 0.12369145692683525
0.444406211380999 0.1335921423942337
0.4111619351494324 0.21279762613342135
0.444406211380999 0.2821024244052105
0.444406211380999 0.2722017389378121
0.444406211380999 0.16329419879642906
0.42778407326521567 -0.04462019601893847
0.5108947638441322 -0.2129318489647122
0.7269825593493151 -0.3218393891060952
0.9929367692018478 -0.49015104205186893
1.3752459458648638 -0.7475688642042287
1.774177260643663 -1.0940928555631746
2.1398642991908954 -1.450517532389519
2.3559520946960784 -1.7277367254766758
2.4390627852749946 -1.8366442656180586
2.3559520946960784 -1.8366442656180586
2.4390627852749946 -1.8168428946832618
2.6883948570117444 -1.8366442656180586
2.8712383762853606 -1.8366442656180586
2.9709712049800605 -1.797041523748465
3.054081895558977 -1.757438781878871
3.27016969106416 -1.6782332981396835
3.3699025197588597 -1.648531241737488
3.519501762800909 -1.6089284998678943
3.602612453379826 -1.5693257579983004
3.602612453379826 -1.5297230161287065
3.552746039032476 -1.5198223306613081
3.386524657874643 -1.4307161614547221
3.054081895558977 -1.3812127341177298
2.5720398902012613 -1.3119079358459407
2.106620022959329 -1.2426031375741515
1.674444431948963 -1.1732983393023622
1.2588909790543805 -1.054490113693581
0.7103604212335318 -0.9356818880847994
0.028852758486416528 -0.7772709206064241
-0.6360327661449154 -0.6287606385954473
-1.0349640809237146 -0.470349671117072
-1.1513190477341977 -0.3713428164430875
-0.835498423534315 -0.2723359617691029
-0.5695442136817822 -0.17332910709511837
-0.33683428006081606 -0.04462019601893847
-0.30359000382924944 0.04448597318764762
-0.28696786571346616 0.1335921423942337
-0.27034572759768283 0.2226983116008198
-0.13736862267141645 0.3316058517422028
-0.07088007020828327 0.4207120209487889
0.012230620370633228 0.4405133918835858
0.09534131094954972 0.4603147628183827
0.11196344906533302 0.509818190155375
0.06209703471798313 0.509818190155375
0.012230620370633228 0.5791229884271641
-0.004391517745150069 0.6286264157641565
0.028852758486416528 0.6682291576337502
0.06209703471798313 0.6385271012315549
0.06209703471798313 0.5494209320249688
0.06209703471798313 0.5296195610901718
0.11196344906533302 0.5494209320249688
0.09534131094954972 0.6088250448293595
0.028852758486416528 0.5890236738945626
0.045474896602199825 0.6088250448293595
0.045474896602199825 0.6286264157641565
0.012230620370633228 0.6385271012315549
0.012230620370633228 0.6880305285685472
-0.02101365586093337 0.727633270438141
0.012230620370633228 0.7177325849707425
0.045474896602199825 0.6880305285685472
0.045474896602199825 0.6286264157641565
-0.004391517745150069 0.6385271012315549
-0.004391517745150069 0.6781298431011487
-0.004391517745150069 0.727633270438141
-0.02101365586093337 0.7474346413729379
0.012230620370633228 0.7375339559055394
0.06209703471798313 0.7375339559055394
-0.004391517745150069 0.707831899503344
0.045474896602199825 0.7375339559055394
0.028852758486416528 0.7474346413729379
0.012230620370633228 0.7573353268403363
-0.03763579397671667 0.7771366977751333
-0.05425793209249997 0.7573353268403363
-0.08750220832406656 0.7573353268403363
-0.07088007020828327 0.7672360123077347
-0.02101365586093337 0.8068387541773286
0.09534131094954972 0.7969380687099301
0.09534131094954972 0.8167394396447271
0.045474896602199825 0.8662428669817194
0.028852758486416528 0.8860442379165162
0.06209703471798313 0.8266401251121255
0.09534131094954972 0.7672360123077347
0.09534131094954972 0.707831899503344
0.09534131094954972 0.707831899503344
0.09534131094954972 0.727633270438141
0.07871917283376642 0.7672360123077347
0.06209703471798313 0.7969380687099301
0.07871917283376642 0.7771366977751333
0.06209703471798313 0.7573353268403363
0.09534131094954972 0.7375339559055394
0.09534131094954972 0.707831899503344
0.07871917283376642 0.7474346413729379
0.09534131094954972 0.7870373832425317
0.1618298634126829 0.7969380687099301
0.2116962777600328 0.7870373832425317
0.24494055399159942 0.7870373832425317
0.19507413964424952 0.7771366977751333
0.14520772529689963 0.7771366977751333
0.17845200152846621 0.7969380687099301
0.2615626921073827 0.8068387541773286
0.3280512445705159 0.7870373832425317
0.3280512445705159 0.7771366977751333
0.3280512445705159 0.8068387541773286
0.3280512445705159 0.8068387541773286
0.3612955208020825 0.8266401251121255
0.3446733826862992 0.836540810579524
0.3779176589178658 0.8068387541773286
0.3779176589178658 0.8068387541773286
0.42778407326521567 0.7870373832425317
0.42778407326521567 0.7474346413729379
0.4111619351494324 0.7573353268403363
0.47765048761256557 0.7870373832425317
0.5275169019599155 0.7771366977751333
0.5275169019599155 0.7771366977751333
0.47765048761256557 0.7375339559055394
0.444406211380999 0.727633270438141
0.5441390400756988 0.707831899503344
0.5773833163072654 0.6880305285685472
0.5940054544230486 0.6781298431011487
0.5607611781914821 0.6583284721663518
0.5441390400756988 0.6385271012315549
0.5441390400756988 0.6583284721663518
0.5773833163072654 0.7177325849707425
0.6438718687703986 0.7573353268403363
0.6771161450019652 0.6880305285685472
0.7269825593493151 0.5692223029597657
0.7602268355808817 0.47021544828578116
0.7436046974650984 0.4603147628183827
0.7269825593493151 0.4999175046879765
0.776848973696665 0.5296195610901718
0.776848973696665 0.509818190155375
0.776848973696665 0.5296195610901718
0.7436046974650984 0.5395202465575704
0.6604940068861819 0.509818190155375
0.6771161450019652 0.48011613375317963
0.7269825593493151 0.49001681922057805
0.8100932499282316 0.48011613375317963
0.7934711118124482 0.45041407735098427
0.7103604212335318 0.4603147628183827
0.6438718687703986 0.4603147628183827
0.6438718687703986 0.48011613375317963
0.7269825593493151 0.4999175046879765
0.776848973696665 0.4999175046879765
0.6937382831177484 0.48011613375317963
0.6604940068861819 0.4603147628183827
0.6272497306546153 0.47021544828578116
0.6604940068861819 0.49001681922057805
0.6604940068861819 0.49001681922057805
0.6438718687703986 0.48011613375317963
0.5275169019599155 0.47021544828578116
0.5773833163072654 0.4207120209487889
0.5773833163072654 0.45041407735098427
0.5773833163072654 0.49001681922057805
0.6438718687703986 0.509818190155375
0.6272497306546153 0.5197188756227734
0.5773833163072654 0.509818190155375
0.5275169019599155 0.5296195610901718
0.47765048761256557 0.5494209320249688
0.5607611781914821 0.5395202465575704
0.5940054544230486 0.5296195610901718
0.5940054544230486 0.509818190155375
0.5441390400756988 0.5197188756227734
0.5275169019599155 0.5197188756227734
0.4942726257283489 0.5296195610901718
0.4942726257283489 0.5692223029597657
0.47765048761256557 0.5692223029597657
0.4942726257283489 0.5692223029597657
0.5275169019599155 0.5593216174923672
0.42778407326521567 0.5197188756227734
0.3612955208020825 0.509818190155375
0.3779176589178658 0.5593216174923672
0.4111619351494324 0.5890236738945626
0.4111619351494324 0.5692223029597657
0.4111619351494324 0.5494209320249688
0.3446733826862992 0.5494209320249688
0.2948069683389493 0.5692223029597657
0.3280512445705159 0.5791229884271641
0.278184830223166 0.5890236738945626
0.24494055399159942 0.5791229884271641
0.2615626921073827 0.6187257302967579
0.2615626921073827 0.6088250448293595
0.278184830223166 0.6583284721663518
0.278184830223166 0.6484277866989533
0.2948069683389493 0.6286264157641565
0.2116962777600328 0.5692223029597657
0.2283184158758161 0.509818190155375
0.2116962777600328 0.5197188756227734
0.14520772529689963 0.5494209320249688
0.14520772529689963 0.5593216174923672
0.2116962777600328 0.6088250448293595
0.2116962777600328 0.6088250448293595
0.2283184158758161 0.6187257302967579
0.1618298634126829 0.5593216174923672
0.1618298634126829 0.5197188756227734
0.19507413964424952 0.4999175046879765
0.1618298634126829 0.4999175046879765
0.1618298634126829 0.5494209320249688
0.14520772529689963 0.5296195610901718
0.1618298634126829 0.5296195610901718
0.1618298634126829 0.5197188756227734
0.1618298634126829 0.5494209320249688
0.17845200152846621 0.5494209320249688
0.19507413964424952 0.5692223029597657
0.2116962777600328 0.5593216174923672
0.2116962777600328 0.5296195610901718
0.14520772529689963 0.5395202465575704
0.14520772529689963 0.5593216174923672
0.1618298634126829 0.5494209320249688
0.17845200152846621 0.5395202465575704
0.2116962777600328 0.5197188756227734
0.2116962777600328 0.5395202465575704
0.19507413964424952 0.5692223029597657
0.2116962777600328 0.5890236738945626
0.24494055399159942 0.6088250448293595
0.2615626921073827 0.5890236738945626
0.24494055399159942 0.5395202465575704
0.24494055399159942 0.48011613375317963
0.24494055399159942 0.47021544828578116
0.2615626921073827 0.4603147628183827
0.2615626921073827 0.5197188756227734
0.3114291064547326 0.5494209320249688
0.3446733826862992 0.5593216174923672
0.3446733826862992 0.5593216174923672
0.3114291064547326 0.5494209320249688
0.3280512445705159 0.5197188756227734
0.3280512445705159 0.5395202465575704
0.3612955208020825 0.5494209320249688
0.3612955208020825 0.5593216174923672
0.3446733826862992 0.509818190155375
0.3612955208020825 0.509818190155375
0.3779176589178658 0.509818190155375
0.4111619351494324 0.5395202465575704
0.4111619351494324 0.5395202465575704
0.4111619351494324 0.5296195610901718
0.3779176589178658 0.4999175046879765
0.3114291064547326 0.5494209320249688
0.3280512445705159 0.5494209320249688
0.42778407326521567 0.5791229884271641
0.4111619351494324 0.5593216174923672
0.42778407326521567 0.5494209320249688
0.3446733826862992 0.5296195610901718
0.3612955208020825 0.5395202465575704
0.3779176589178658 0.5890236738945626
0.444406211380999 0.5692223029597657
0.4610283494967823 0.5494209320249688
0.3779176589178658 0.5395202465575704
0.3779176589178658 0.4999175046879765
0.3446733826862992 0.509818190155375
0.3945397970336491 0.5197188756227734
0.444406211380999 0.5494209320249688
0.4610283494967823 0.5296195610901718
0.4111619351494324 0.48011613375317963
0.3779176589178658 0.45041407735098427
0.3280512445705159 0.4603147628183827
0.3779176589178658 0.49001681922057805
0.444406211380999 0.5296195610901718
0.5108947638441322 0.5197188756227734
0.47765048761256557 0.5395202465575704
0.4610283494967823 0.4999175046879765
0.3945397970336491 0.5197188756227734
0.4111619351494324 0.5593216174923672
0.444406211380999 0.5989243593619611
0.4610283494967823 0.6286264157641565
0.3945397970336491 0.5989243593619611
0.42778407326521567 0.5296195610901718
0.42778407326521567 0.48011613375317963
0.47765048761256557 0.48011613375317963
0.5275169019599155 0.509818190155375
0.5275169019599155 0.509818190155375
0.4610283494967823 0.4999175046879765
0.42778407326521567 0.49001681922057805
0.4610283494967823 0.49001681922057805
0.5275169019599155 0.509818190155375
0.5275169019599155 0.5296195610901718
0.4942726257283489 0.5395202465575704
0.5275169019599155 0.5197188756227734
0.5108947638441322 0.49001681922057805
0.444406211380999 0.5197188756227734
0.4610283494967823 0.5197188756227734
0.42778407326521567 0.5494209320249688
0.47765048761256557 0.5593216174923672
0.5108947638441322 0.5593216174923672
0.5275169019599155 0.5197188756227734
0.4610283494967823 0.49001681922057805
0.42778407326521567 0.5296195610901718
0.4942726257283489 0.5890236738945626
0.5441390400756988 0.6286264157641565
0.4942726257283489 0.5692223029597657
0.444406211380999 0.47021544828578116
0.4111619351494324 0.45041407735098427
0.4942726257283489 0.49001681922057805
0.5607611781914821 0.4999175046879765
0.5108947638441322 0.509818190155375
0.4942726257283489 0.509818190155375
0.47765048761256557 0.48011613375317963
0.4942726257283489 0.509818190155375
0.5607611781914821 0.5494209320249688
0.5108947638441322 0.5395202465575704
0.5275169019599155 0.6088250448293595
0.5108947638441322 0.5692223029597657
0.4610283494967823 0.5395202465575704
0.4111619351494324 0.4999175046879765
0.4942726257283489 0.49001681922057805
0.5275169019599155 0.509818190155375
0.5607611781914821 0.4999175046879765
0.5773833163072654 0.509818190155375
0.5108947638441322 0.4999175046879765
0.4610283494967823 0.4999175046879765
0.4610283494967823 0.5395202465575704
0.5108947638441322 0.5791229884271641
0.5940054544230486 0.5494209320249688
0.610627592538832 0.5296195610901718
0.5275169019599155 0.509818190155375
0.47765048761256557 0.5395202465575704
0.5275169019599155 0.509818190155375
0.5773833163072654 0.509818190155375
0.5940054544230486 0.509818190155375
0.6604940068861819 0.5296195610901718
0.6937382831177484 0.5296195610901718
0.6604940068861819 0.5593216174923672
0.6604940068861819 0.5692223029597657
0.7436046974650984 0.5890236738945626
0.8100932499282316 0.5791229884271641
0.776848973696665 0.5791229884271641
0.7934711118124482 0.5791229884271641
0.8599596642755815 0.5692223029597657
0.9763146310860645 0.5890236738945626
1.059425321664981 0.6187257302967579
1.059425321664981 0.6187257302967579
1.0760474597807643 0.5692223029597657
1.0926695978965477 0.5692223029597657
1.0926695978965477 0.5593216174923672
1.1425360122438974 0.5197188756227734
1.1092917360123309 0.5395202465575704
1.1092917360123309 0.5593216174923672
1.2090245647070308 0.5692223029597657
1.3253795315175139 0.5593216174923672
1.3586238077490804 0.5395202465575704
1.3752459458648638 0.5593216174923672
1.3586238077490804 0.5494209320249688
1.275513117170164 0.5494209320249688
1.1757802884754642 0.5593216174923672
1.0760474597807643 0.5296195610901718
0.9596924929702813 0.5197188756227734
0.8599596642755815 0.5296195610901718
0.8267153880440149 0.5494209320249688
0.7436046974650984 0.5296195610901718
0.5441390400756988 0.509818190155375
0.3779176589178658 0.4603147628183827
0.278184830223166 0.48011613375317963
0.3280512445705159 0.5296195610901718
0.3612955208020825 0.5791229884271641
0.42778407326521567 0.5395202465575704
0.4111619351494324 0.4603147628183827
0.3446733826862992 0.3712085936117966
0.3280512445705159 0.3712085936117966
0.3612955208020825 0.4108113354813904
0.3612955208020825 0.4405133918835858
0.3945397970336491 0.4405133918835858
0.3945397970336491 0.4306127064161873
0.3446733826862992 0.4207120209487889
0.2615626921073827 0.4306127064161873
0.2948069683389493 0.4405133918835858
0.4111619351494324 0.47021544828578116
0.444406211380999 0.48011613375317963
0.444406211380999 0.4603147628183827
0.3945397970336491 0.4405133918835858
0.3280512445705159 0.4603147628183827
0.3280512445705159 0.47021544828578116
0.3779176589178658 0.49001681922057805
0.4111619351494324 0.4603147628183827
0.4111619351494324 0.45041407735098427
0.3114291064547326 0.45041407735098427
0.278184830223166 0.45041407735098427
0.278184830223166 0.45041407735098427
0.3280512445705159 0.509818190155375
0.3446733826862992 0.5197188756227734
0.3779176589178658 0.49001681922057805
0.3446733826862992 0.45041407735098427
0.3114291064547326 0.45041407735098427
0.3446733826862992 0.49001681922057805
0.3779176589178658 0.5395202465575704
0.3612955208020825 0.5494209320249688
0.3945397970336491 0.47021544828578116
0.2948069683389493 0.39100996454659354
0.2116962777600328 0.4108113354813904
0.17845200152846621 0.4207120209487889
0.17845200152846621 0.3712085936117966
0.2116962777600328 0.2424996825356167
0.3612955208020825 0.07418802958984298
0.5607611781914821 -0.13372636522552456
0.8765818023913647 -0.33174007457349364
1.3752459458648638 -0.5891578967258535
1.8240436749910127 -0.905979831682604
2.1564864373066785 -1.2723051939763468
2.2728414041171616 -1.5297230161287065
2.2063528516540285 -1.6287298708026912
2.2063528516540285 -1.5792264434656988
2.389196370927645 -1.559425072530902
2.6219063045486113 -1.5495243870635036
2.7382612713590944 -1.5693257579983004
2.9377269287484937 -1.5495243870635036
3.0873261717905436 -1.5198223306613081
3.1538147242536767 -1.4406168469221206
3.22030327671681 -1.3911134195851282
3.353280381643076 -1.361411363182933
3.3200361054115097 -1.3812127341177298
3.27016969106416 -1.341609992248136
3.0873261717905436 -1.2723051939763468
2.7382612713590944 -1.1633976538349637
2.2562192660013785 -1.0346887427587839
1.8739100893383627 -0.9554832590195963
1.5248451889069135 -0.8663770898130102
0.9929367692018478 -0.7772709206064241
0.3114291064547326 -0.6683633804650411
-0.38670069440816596 -0.5000517275192674
-0.835498423534315 -0.3713428164430875
-1.0183419428079312 -0.252534590834306
-1.0183419428079312 -0.12382567975812611
-0.8022541473027484 -0.03471951055154002
-0.6858991804922653 0.05438665865504607
-0.6027884899133488 0.16329419879642906
-0.5861663517975655 0.2722017389378121
-0.5529220755659989 0.4108113354813904
-0.48643352310286575 0.5197188756227734
-0.38670069440816596 0.5989243593619611
-0.25372358948189955 0.6187257302967579
-0.18723503701876634 0.6583284721663518
-0.18723503701876634 0.7474346413729379
-0.15399076078719975 0.8266401251121255
-0.08750220832406656 0.8662428669817194
-0.07088007020828327 0.836540810579524
-0.03763579397671667 0.7573353268403363
-0.07088007020828327 0.7375339559055394
-0.12074648455563317 0.7672360123077347
-0.10412434643984986 0.8167394396447271
-0.07088007020828327 0.8167394396447271
-0.12074648455563317 0.8068387541773286
-0.15399076078719975 0.8266401251121255
-0.25372358948189955 0.8662428669817194
-0.25372358948189955 0.8662428669817194
-0.22047931325033296 0.8860442379165162
-0.15399076078719975 0.8761435524491178
-0.13736862267141645 0.8959449233839147
-0.15399076078719975 0.8662428669817194
-0.18723503701876634 0.8959449233839147
-0.15399076078719975 0.9355476652535085
-0.15399076078719975 0.9256469797861101
-0.10412434643984986 0.9454483507209069
-0.10412434643984986 0.9256469797861101
-0.17061289890298306 0.9058456088513132
-0.22047931325033296 0.9355476652535085
-0.25372358948189955 0.9652497216557039
-0.30359000382924944 0.9751504071231023
-0.35345641817659934 0.9652497216557039
-0.35345641817659934 0.9652497216557039
-0.27034572759768283 0.9454483507209069
-0.23710145136611624 0.9652497216557039
-0.13736862267141645 0.9751504071231023
-0.08750220832406656 0.9949517780578992
-0.05425793209249997 0.9949517780578992
-0.15399076078719975 0.9652497216557039
-0.23710145136611624 0.9355476652535085
-0.25372358948189955 0.9553490361883055
-0.23710145136611624 0.9652497216557039
-0.20385717513454965 0.9652497216557039
-0.20385717513454965 0.9850510925905008
-0.27034572759768283 1.0048524635252978
-0.28696786571346616 0.9949517780578992
-0.28696786571346616 1.074157261797087
-0.27034572759768283 1.1533627455362745
-0.20385717513454965 1.1731641164710713
-0.13736862267141645 1.0642565763296885
-0.15399076078719975 0.9355476652535085
-0.22047931325033296 0.8662428669817194
-0.30359000382924944 0.9355476652535085
-0.22047931325033296 1.0147531489926962
-0.18723503701876634 1.0543558908622899
-0.12074648455563317 1.0147531489926962
-0.13736862267141645 0.9256469797861101
-0.17061289890298306 0.8563421815143208
-0.17061289890298306 0.8860442379165162
-0.07088007020828327 0.9058456088513132
-0.07088007020828327 0.9157462943187116
-0.03763579397671667 0.9454483507209069
-0.08750220832406656 1.0543558908622899
-0.17061289890298306 1.0840579472644853
-0.20385717513454965 1.163263431003673
-0.13736862267141645 1.1137600036666806
-0.05425793209249997 1.034554519927493
-0.02101365586093337 0.9949517780578992
-0.03763579397671667 0.9355476652535085
-0.05425793209249997 0.8860442379165162
-0.03763579397671667 0.8662428669817194
0.06209703471798313 0.8464414960469224
0.09534131094954972 0.836540810579524
0.06209703471798313 0.8464414960469224
0.06209703471798313 0.8464414960469224
0.028852758486416528 0.9058456088513132
0.028852758486416528 0.9553490361883055
0.06209703471798313 0.9751504071231023
0.19507413964424952 0.9157462943187116
0.1618298634126829 0.8662428669817194
0.12858558718111632 0.7969380687099301
0.12858558718111632 0.7969380687099301
0.12858558718111632 0.8167394396447271
0.19507413964424952 0.7969380687099301
0.19507413964424952 0.7870373832425317
0.2283184158758161 0.7573353268403363
0.24494055399159942 0.727633270438141
0.19507413964424952 0.7177325849707425
0.2615626921073827 0.7177325849707425
0.2615626921073827 0.707831899503344
0.278184830223166 0.7375339559055394
0.3114291064547326 0.707831899503344
0.2948069683389493 0.6781298431011487
0.24494055399159942 0.6682291576337502
0.2615626921073827 0.6880305285685472
0.2615626921073827 0.6880305285685472
0.3280512445705159 0.6781298431011487
0.3612955208020825 0.6286264157641565
0.3779176589178658 0.5593216174923672
0.3612955208020825 0.48011613375317963
0.3114291064547326 0.4405133918835858
0.2948069683389493 0.4405133918835858
0.3280512445705159 0.4999175046879765
0.3446733826862992 0.4603147628183827
0.2948069683389493 0.4405133918835858
0.3280512445705159 0.4306127064161873
0.3612955208020825 0.4108113354813904
0.4111619351494324 0.4207120209487889
0.42778407326521567 0.4207120209487889
0.4111619351494324 0.4108113354813904
0.3280512445705159 0.3712085936117966
0.2948069683389493 0.3712085936117966
0.2615626921073827 0.39100996454659354
0.2283184158758161 0.45041407735098427
0.2948069683389493 0.49001681922057805
0.3280512445705159 0.49001681922057805
0.3446733826862992 0.48011613375317963
0.3114291064547326 0.4405133918835858
0.2948069683389493 0.40091065001399195
0.3114291064547326 0.3316058517422028
0.3446733826862992 0.31180448080740586
0.3280512445705159 0.2821024244052105
0.3114291064547326 0.31180448080740586
0.2948069683389493 0.30190379534000744
0.24494055399159942 0.31180448080740586
0.2283184158758161 0.32170516627480433
0.24494055399159942 0.3316058517422028
0.24494055399159942 0.3316058517422028
0.14520772529689963 0.3514072226769997
0.12858558718111632 0.3514072226769997
0.11196344906533302 0.3514072226769997
0.12858558718111632 0.38110927907919506
0.14520772529689963 0.38110927907919506
0.12858558718111632 0.38110927907919506
0.12858558718111632 0.38110927907919506
0.12858558718111632 0.38110927907919506
0.06209703471798313 0.39100996454659354
0.11196344906533302 0.38110927907919506
0.09534131094954972 0.4108113354813904
0.09534131094954972 0.4207120209487889
0.09534131094954972 0.40091065001399195
0.12858558718111632 0.40091065001399195
0.11196344906533302 0.4207120209487889
0.07871917283376642 0.4207120209487889
0.028852758486416528 0.45041407735098427
0.028852758486416528 0.48011613375317963
-0.07088007020828327 0.509818190155375
-0.05425793209249997 0.5197188756227734
-0.12074648455563317 0.509818190155375
-0.10412434643984986 0.4999175046879765
-0.05425793209249997 0.509818190155375
-0.12074648455563317 0.4999175046879765
-0.07088007020828327 0.5197188756227734
-0.02101365586093337 0.4306127064161873
-0.05425793209249997 0.36130790814439817
-0.07088007020828327 0.32170516627480433
-0.08750220832406656 0.3316058517422028
-0.13736862267141645 0.3316058517422028
-0.18723503701876634 0.3415065372096012
-0.30359000382924944 0.3514072226769997
-0.30359000382924944 0.39100996454659354
-0.25372358948189955 0.4306127064161873
-0.22047931325033296 0.45041407735098427
-0.23710145136611624 0.4603147628183827
-0.17061289890298306 0.45041407735098427
-0.20385717513454965 0.4108113354813904
-0.25372358948189955 0.39100996454659354
-0.25372358948189955 0.4207120209487889
-0.25372358948189955 0.4306127064161873
-0.28696786571346616 0.4306127064161873
-0.35345641817659934 0.38110927907919506
-0.45318924687129913 0.3514072226769997
-0.4698113849870824 0.3415065372096012
-0.38670069440816596 0.36130790814439817
-0.35345641817659934 0.39100996454659354
-0.3202121419450327 0.40091065001399195
-0.3700785562923826 0.4108113354813904
-0.40332283252394924 0.47021544828578116
-0.4199449706397325 0.5395202465575704
-0.43656710875551585 0.4999175046879765
-0.45318924687129913 0.39100996454659354
-0.48643352310286575 0.18309556973122598
-0.38670069440816596 0.05438665865504607
-0.25372358948189955 0.11379077145943679
-0.18723503701876634 0.18309556973122598
-0.17061289890298306 0.2424996825356167
-0.23710145136611624 0.2623010534704136
-0.30359000382924944 0.2623010534704136
-0.35345641817659934 0.2424996825356167
-0.35345641817659934 0.23259899706821824
-0.35345641817659934 0.23259899706821824
-0.35345641817659934 0.2623010534704136
-0.30359000382924944 0.2821024244052105
-0.25372358948189955 0.30190379534000744
-0.3202121419450327 0.29200310987260897
-0.3700785562923826 0.31180448080740586
-0.40332283252394924 0.31180448080740586
-0.3202121419450327 0.3514072226769997
-0.27034572759768283 0.3415065372096012
-0.23710145136611624 0.31180448080740586
-0.38670069440816596 0.2424996825356167
-0.38670069440816596 0.2524003680030152
-0.38670069440816596 0.2821024244052105
-0.20385717513454965 0.3316058517422028
-0.12074648455563317 0.3415065372096012
-0.17061289890298306 0.3415065372096012
-0.25372358948189955 0.36130790814439817
-0.25372358948189955 0.29200310987260897
-0.22047931325033296 0.23259899706821824
-0.13736862267141645 0.19299625519862443
-0.10412434643984986 0.19299625519862443
-0.12074648455563317 0.19299625519862443
-0.13736862267141645 0.16329419879642906
-0.20385717513454965 0.18309556973122598
-0.22047931325033296 0.2226983116008198
-0.22047931325033296 0.2226983116008198
-0.23710145136611624 0.23259899706821824
-0.22047931325033296 0.2424996825356167
-0.23710145136611624 0.2226983116008198
-0.20385717513454965 0.21279762613342135
-0.20385717513454965 0.2226983116008198
-0.22047931325033296 0.2524003680030152
-0.23710145136611624 0.2722017389378121
-0.22047931325033296 0.2722017389378121
-0.20385717513454965 0.2623010534704136
-0.28696786571346616 0.2524003680030152
-0.40332283252394924 0.2623010534704136
-0.45318924687129913 0.2424996825356167
-0.4199449706397325 0.2821024244052105
-0.27034572759768283 0.2722017389378121
-0.13736862267141645 0.29200310987260897
-0.08750220832406656 0.2524003680030152
-0.23710145136611624 0.2226983116008198
-0.28696786571346616 0.21279762613342135
-0.3700785562923826 0.2623010534704136
-0.22047931325033296 0.23259899706821824
-0.15399076078719975 0.2623010534704136
-0.10412434643984986 0.2524003680030152
-0.15399076078719975 0.30190379534000744
-0.23710145136611624 0.30190379534000744
-0.3202121419450327 0.30190379534000744
-0.28696786571346616 0.32170516627480433
-0.18723503701876634 0.3415065372096012
-0.13736862267141645 0.2821024244052105
-0.23710145136611624 0.19299625519862443
-0.27034572759768283 0.17319488426382754
-0.20385717513454965 0.20289694066602287
-0.10412434643984986 0.29200310987260897
0.06209703471798313 0.30190379534000744
0.06209703471798313 0.21279762613342135
-0.10412434643984986 0.17319488426382754
-0.23710145136611624 0.1335921423942337
-0.27034572759768283 0.15339351332903062
-0.27034572759768283 0.19299625519862443
-0.25372358948189955 0.2424996825356167
-0.25372358948189955 0.2623010534704136
-0.23710145136611624 0.2623010534704136
-0.23710145136611624 0.2722017389378121
-0.23710145136611624 0.29200310987260897
-0.20385717513454965 0.29200310987260897
-0.20385717513454965 0.2821024244052105
-0.28696786571346616 0.2821024244052105
-0.3202121419450327 0.2623010534704136
-0.27034572759768283 0.17319488426382754
-0.17061289890298306 0.08408871505724143
-0.17061289890298306 0.014783916785452253
-0.20385717513454965 0.04448597318764762
-0.27034572759768283 0.05438665865504607
-0.33683428006081606 0.09398940052463989
-0.3202121419450327 0.11379077145943679
-0.3202121419450327 0.14349282786163217
-0.35345641817659934 0.17319488426382754
-0.30359000382924944 0.15339351332903062
-0.25372358948189955 0.15339351332903062
-0.27034572759768283 0.10389008599203835
-0.30359000382924944 0.10389008599203835
-0.3202121419450327 0.18309556973122598
-0.3202121419450327 0.21279762613342135
-0.3202121419450327 0.16329419879642906
-0.35345641817659934 0.02468460225285071
-0.35345641817659934 -0.005017454149344655
-0.40332283252394924 -0.01491813961674311
-0.4698113849870824 0.05438665865504607
-0.3700785562923826 0.08408871505724143
-0.27034572759768283 0.12369145692683525
-0.17061289890298306 0.1335921423942337
-0.23710145136611624 0.18309556973122598
-0.40332283252394924 0.2623010534704136
-0.38670069440816596 0.3712085936117966
-0.3202121419450327 0.39100996454659354
-0.20385717513454965 0.31180448080740586
-0.17061289890298306 0.2424996825356167
-0.20385717513454965 0.21279762613342135
-0.22047931325033296 0.18309556973122598
-0.20385717513454965 0.2424996825356167
-0.17061289890298306 0.4108113354813904
0.028852758486416528 0.4405133918835858
0.2116962777600328 0.15339351332903062
0.3446733826862992 -0.22283253443211065
0.444406211380999 -0.3812435019104859
0.42778407326521567 -0.33174007457349364
0.444406211380999 -0.20303116349731373
0.4111619351494324 -0.143627050692923
0.3114291064547326 -0.13372636522552456
0.24494055399159942 -0.08422293788853229
0.2948069683389493 -0.07432225242113384
0.42778407326521567 -0.024818825084141564
0.5441390400756988 -0.024818825084141564
0.610627592538832 -0.04462019601893847
0.5441390400756988 -0.05452088148633693
0.42778407326521567 -0.04462019601893847
0.2116962777600328 -0.06442156695373538
0.09534131094954972 -0.06442156695373538
0.012230620370633228 -0.06442156695373538
-0.08750220832406656 -0.07432225242113384
-0.27034572759768283 -0.08422293788853229
-0.4199449706397325 -0.08422293788853229
-0.5362999374502156 -0.01491813961674311
-0.6027884899133488 -0.024818825084141564
-0.5362999374502156 -0.06442156695373538
-0.4199449706397325 -0.16342842162771992
-0.45318924687129913 -0.2129318489647122
-0.48643352310286575 -0.2129318489647122
-0.4698113849870824 -0.143627050692923
-0.43656710875551585 -0.11392499429072765
-0.45318924687129913 -0.10402430882332919
-0.48643352310286575 -0.11392499429072765
-0.4698113849870824 -0.12382567975812611
-0.4199449706397325 -0.09412362335593075
-0.3202121419450327 -0.07432225242113384
-0.3202121419450327 -0.11392499429072765
-0.33683428006081606 -0.11392499429072765
-0.38670069440816596 -0.13372636522552456
-0.40332283252394924 -0.15352773616032148
-0.503055661218649 -0.143627050692923
-0.45318924687129913 -0.13372636522552456
-0.3700785562923826 -0.10402430882332919
-0.33683428006081606 -0.12382567975812611
-0.3202121419450327 -0.12382567975812611
-0.35345641817659934 -0.15352773616032148
-0.45318924687129913 -0.15352773616032148
-0.43656710875551585 -0.143627050692923
-0.38670069440816596 -0.11392499429072765
-0.35345641817659934 -0.10402430882332919
-0.33683428006081606 -0.13372636522552456
-0.30359000382924944 -0.15352773616032148
-0.35345641817659934 -0.13372636522552456
-0.3202121419450327 -0.10402430882332919
-0.3202121419450327 -0.11392499429072765
-0.28696786571346616 -0.08422293788853229
-0.27034572759768283 -0.10402430882332919
-0.3202121419450327 -0.12382567975812611
-0.3700785562923826 -0.12382567975812611
-0.33683428006081606 -0.09412362335593075
-0.3202121419450327 -0.07432225242113384
-0.27034572759768283 -0.005017454149344655
-0.33683428006081606 0.014783916785452253
-0.35345641817659934 0.04448597318764762
-0.35345641817659934 0.07418802958984298
-0.3202121419450327 0.02468460225285071
-0.23710145136611624 -0.12382567975812611
-0.12074648455563317 -0.3020380181712983
0.07871917283376642 -0.4307469292474782
0.2948069683389493 -0.5198530984540642
0.7103604212335318 -0.6485620095302442
1.1259138741281143 -0.7970722915412211
1.55808946513848 -1.054490113693581
1.7907993987594462 -1.341609992248136
1.7907993987594462 -1.5891271289330973
1.724310846296313 -1.7178360400092774
1.6910665700647465 -1.7079353545418787
1.9736429180330626 -1.668332612672285
2.1564864373066785 -1.6386305562700896
2.2063528516540285 -1.668332612672285
2.2395971278855953 -1.6584319272048866
2.4224406471592115 -1.6287298708026912
2.6883948570117444 -1.5891271289330973
2.9377269287484937 -1.5396237015961052
3.3034139672957266 -1.4604182178569174
3.5361239009166927 -1.4010141050525267
3.602612453379826 -1.361411363182933
3.4862574865693428 -1.2822058794437452
3.1039483099063268 -1.2030003957045576
2.6052841664328277 -1.1534969683675653
2.123242161075112 -1.1930997102371592
1.6910665700647465 -1.2030003957045576
1.225646702822814 -1.2228017666393545
0.7269825593493151 -1.2327024521067529
0.17845200152846621 -1.143596282900167
-0.30359000382924944 -0.9554832590195963
-0.835498423534315 -0.7475688642042287
-1.2510518764288974 -0.5693565257910566
-1.5834946387445634 -0.5297537839214628
-1.733093881786613 -0.5495551548562596
-1.6499831912076965 -0.4406476147148766
-1.450517533818297 -0.3713428164430875
-1.2676740145446808 -0.31193870363869675
-1.1513190477341977 -0.2723359617691029
-1.2178076001973308 -0.2327332198995091
-1.2510518764288974 -0.16342842162771992
-1.2510518764288974 -0.07432225242113384
-1.0848304952710646 0.034585287720249165
-0.8521205616500983 0.09398940052463989
-0.8188762854185317 0.12369145692683525
-0.9019869759974481 0.11379077145943679
-0.9850976665763647 0.11379077145943679
-0.9684755284605814 0.16329419879642906
-0.8022541473027484 0.19299625519862443
-0.6360327661449154 0.2424996825356167
-0.5529220755659989 0.2722017389378121
-0.7025213186080486 0.2623010534704136
-0.835498423534315 0.2524003680030152
-0.8687426997658816 0.2722017389378121
-0.835498423534315 0.2821024244052105
-0.7523877329553985 0.3316058517422028
-0.7690098710711818 0.3415065372096012
-0.835498423534315 0.36130790814439817
-0.9352312522290148 0.3514072226769997
-1.001719804692148 0.39100996454659354
-0.9186091141132315 0.3514072226769997
-0.835498423534315 0.3514072226769997
-0.8188762854185317 0.32170516627480433
-0.8521205616500983 0.31180448080740586
-0.9019869759974481 0.3415065372096012
-0.9518533903447981 0.36130790814439817
-0.9352312522290148 0.3514072226769997
-0.9019869759974481 0.36130790814439817
-0.9019869759974481 0.3712085936117966
-0.9019869759974481 0.38110927907919506
-0.9518533903447981 0.36130790814439817
-0.9850976665763647 0.3514072226769997
-0.9684755284605814 0.40091065001399195
-0.9352312522290148 0.4207120209487889
-0.9352312522290148 0.4306127064161873
-0.9518533903447981 0.4207120209487889
-0.9850976665763647 0.4405133918835858
-1.0183419428079312 0.4603147628183827
-0.9850976665763647 0.48011613375317963
-0.9684755284605814 0.47021544828578116
-0.9352312522290148 0.45041407735098427
-0.9019869759974481 0.47021544828578116
-0.9352312522290148 0.5395202465575704
-1.0848304952710646 0.6781298431011487
-1.0848304952710646 0.7177325849707425
-1.001719804692148 0.6385271012315549
-0.9352312522290148 0.49001681922057805
-0.8853648378816649 0.32170516627480433
-0.8521205616500983 0.2524003680030152
-0.835498423534315 0.32170516627480433
-0.7523877329553985 0.40091065001399195
-0.719143456723832 0.45041407735098427
-0.7690098710711818 0.45041407735098427
-0.835498423534315 0.4207120209487889
-0.8521205616500983 0.4108113354813904
-0.9019869759974481 0.40091065001399195
-0.8022541473027484 0.4405133918835858
-0.7690098710711818 0.47021544828578116
-0.7357655948396152 0.49001681922057805
-0.7523877329553985 0.48011613375317963
-0.8188762854185317 0.49001681922057805
-0.9019869759974481 0.48011613375317963
-0.9850976665763647 0.509818190155375
-1.0183419428079312 0.5494209320249688
-0.9518533903447981 0.5494209320249688
-0.8022541473027484 0.5494209320249688
-0.6858991804922653 0.49001681922057805
-0.6858991804922653 0.4405133918835858
-0.7523877329553985 0.4405133918835858
-0.7856320091869651 0.4603147628183827
-0.8022541473027484 0.4405133918835858
-0.7690098710711818 0.4207120209487889
-0.719143456723832 0.4207120209487889
-0.6526549042606987 0.4405133918835858
-0.5695442136817822 0.4603147628183827
-0.503055661218649 0.49001681922057805
-0.503055661218649 0.45041407735098427
-0.45318924687129913 0.38110927907919506
-0.45318924687129913 0.3514072226769997
-0.5196777993344324 0.3316058517422028
-0.5362999374502156 0.3712085936117966
-0.5861663517975655 0.38110927907919506
-0.5362999374502156 0.38110927907919506
-0.4698113849870824 0.36130790814439817
-0.4698113849870824 0.3316058517422028
-0.48643352310286575 0.3316058517422028
-0.48643352310286575 0.3316058517422028
-0.4698113849870824 0.3712085936117966
-0.4698113849870824 0.32170516627480433
-0.40332283252394924 0.30190379534000744
-0.33683428006081606 0.2821024244052105
-0.30359000382924944 0.2722017389378121
-0.17061289890298306 0.2722017389378121
-0.17061289890298306 0.2821024244052105
-0.17061289890298306 0.2623010534704136
-0.17061289890298306 0.2722017389378121
-0.18723503701876634 0.2424996825356167
-0.18723503701876634 0.21279762613342135
-0.17061289890298306 0.18309556973122598
-0.10412434643984986 0.18309556973122598
-0.10412434643984986 0.18309556973122598
-0.10412434643984986 0.16329419879642906
-0.12074648455563317 0.19299625519862443
-0.08750220832406656 0.17319488426382754
-0.05425793209249997 0.21279762613342135
-0.05425793209249997 0.2424996825356167
-0.08750220832406656 0.23259899706821824
-0.05425793209249997 0.19299625519862443
0.012230620370633228 0.08408871505724143
0.09534131094954972 0.02468460225285071
0.1618298634126829 -0.03471951055154002
0.11196344906533302 -0.06442156695373538
0.028852758486416528 -0.04462019601893847
0.028852758486416528 -0.04462019601893847
0.045474896602199825 0.0048832313180537995
-0.004391517745150069 -0.01491813961674311
0.028852758486416528 0.0048832313180537995
0.028852758486416528 0.0048832313180537995
0.07871917283376642 0.014783916785452253
0.028852758486416528 0.02468460225285071
-0.02101365586093337 0.05438665865504607
-0.15399076078719975 0.1335921423942337
-0.18723503701876634 0.30190379534000744
-0.13736862267141645 0.40091065001399195
-0.02101365586093337 0.3316058517422028
0.045474896602199825 0.10389008599203835
0.045474896602199825 -0.08422293788853229
0.028852758486416528 -0.12382567975812611
0.09534131094954972 -0.11392499429072765
0.11196344906533302 -0.06442156695373538
0.06209703471798313 -0.024818825084141564
-0.10412434643984986 0.02468460225285071
-0.18723503701876634 0.034585287720249165
-0.12074648455563317 0.06428734412244452
0.06209703471798313 0.0048832313180537995
0.14520772529689963 -0.04462019601893847
0.09534131094954972 -0.024818825084141564
0.012230620370633228 -0.024818825084141564
-0.05425793209249997 0.014783916785452253
-0.12074648455563317 0.05438665865504607
-0.20385717513454965 0.12369145692683525
-0.25372358948189955 0.21279762613342135
-0.30359000382924944 0.2722017389378121
-0.30359000382924944 0.2821024244052105
-0.18723503701876634 0.2424996825356167
0.012230620370633228 0.11379077145943679
0.12858558718111632 -0.01491813961674311
0.09534131094954972 -0.05452088148633693
-0.05425793209249997 -0.03471951055154002
-0.18723503701876634 0.014783916785452253
-0.22047931325033296 0.05438665865504607
-0.18723503701876634 0.09398940052463989
-0.13736862267141645 0.12369145692683525
-0.13736862267141645 0.11379077145943679
-0.17061289890298306 0.14349282786163217
-0.23710145136611624 0.10389008599203835
-0.28696786571346616 0.09398940052463989
-0.30359000382924944 0.11379077145943679
-0.27034572759768283 0.15339351332903062
-0.23710145136611624 0.16329419879642906
-0.25372358948189955 0.1335921423942337
-0.25372358948189955 0.09398940052463989
-0.27034572759768283 0.09398940052463989
-0.28696786571346616 0.10389008599203835
-0.27034572759768283 0.14349282786163217
-0.28696786571346616 0.15339351332903062
-0.3202121419450327 0.15339351332903062
-0.30359000382924944 0.12369145692683525
-0.38670069440816596 0.09398940052463989
-0.4199449706397325 0.11379077145943679
-0.40332283252394924 0.1335921423942337
-0.33683428006081606 0.11379077145943679
-0.3202121419450327 0.11379077145943679
-0.30359000382924944 0.09398940052463989
-0.3700785562923826 0.07418802958984298
-0.33683428006081606 0.09398940052463989
-0.22047931325033296 0.11379077145943679
-0.22047931325033296 0.10389008599203835
-0.22047931325033296 0.09398940052463989
-0.25372358948189955 0.08408871505724143
-0.27034572759768283 0.06428734412244452
-0.28696786571346616 0.07418802958984298
-0.20385717513454965 0.07418802958984298
-0.18723503701876634 0.10389008599203835
-0.17061289890298306 0.09398940052463989
-0.20385717513454965 0.07418802958984298
-0.23710145136611624 0.08408871505724143
-0.25372358948189955 0.12369145692683525
-0.22047931325033296 0.12369145692683525
-0.17061289890298306 0.19299625519862443
-0.18723503701876634 0.21279762613342135
-0.20385717513454965 0.20289694066602287
-0.15399076078719975 0.15339351332903062
-0.10412434643984986 0.07418802958984298
-0.07088007020828327 0.04448597318764762
-0.03763579397671667 0.07418802958984298
-0.10412434643984986 0.12369145692683525
-0.12074648455563317 0.14349282786163217
-0.10412434643984986 0.1335921423942337
-0.08750220832406656 0.034585287720249165
-0.07088007020828327 -0.06442156695373538
-0.03763579397671667 -0.22283253443211065
-0.03763579397671667 -0.252534590834306
-0.07088007020828327 -0.1931304780299153
-0.07088007020828327 -0.143627050692923
-0.12074648455563317 -0.07432225242113384
-0.08750220832406656 -0.01491813961674311
-0.05425793209249997 -0.01491813961674311
-0.07088007020828327 0.014783916785452253
-0.10412434643984986 0.034585287720249165
-0.08750220832406656 0.02468460225285071
-0.02101365586093337 0.02468460225285071
0.06209703471798313 0.07418802958984298
0.07871917283376642 0.08408871505724143
0.012230620370633228 0.06428734412244452
-0.02101365586093337 0.04448597318764762
-0.08750220832406656 0.034585287720249165
-0.07088007020828327 0.05438665865504607
0.028852758486416528 0.05438665865504607
0.028852758486416528 0.09398940052463989
0.06209703471798313 0.10389008599203835
0.06209703471798313 0.04448597318764762
0.012230620370633228 0.05438665865504607
0.012230620370633228 0.07418802958984298
0.028852758486416528 0.12369145692683525
0.07871917283376642 0.09398940052463989
0.045474896602199825 0.1335921423942337
0.11196344906533302 0.1335921423942337
0.11196344906533302 0.10389008599203835
0.09534131094954972 0.12369145692683525
0.09534131094954972 0.16329419879642906
0.07871917283376642 0.18309556973122598
0.06209703471798313 0.16329419879642906
0.012230620370633228 0.1335921423942337
-0.08750220832406656 0.15339351332903062
-0.08750220832406656 0.21279762613342135
-0.07088007020828327 0.32170516627480433
0.012230620370633228 0.48011613375317963
0.07871917283376642 0.5593216174923672
0.14520772529689963 0.4207120209487889
0.1618298634126829 0.17319488426382754
0.1618298634126829 0.034585287720249165
0.12858558718111632 0.05438665865504607
0.09534131094954972 0.14349282786163217
0.12858558718111632 0.17319488426382754
0.09534131094954972 0.10389008599203835
0.11196344906533302 0.06428734412244452
0.12858558718111632 0.09398940052463989
0.14520772529689963 0.16329419879642906
0.19507413964424952 0.20289694066602287
0.1618298634126829 0.21279762613342135
0.12858558718111632 0.20289694066602287
0.045474896602199825 0.21279762613342135
0.09534131094954972 0.23259899706821824
0.14520772529689963 0.2524003680030152
0.17845200152846621 0.2821024244052105
0.12858558718111632 0.2821024244052105
0.11196344906533302 0.2623010534704136
0.045474896602199825 0.2623010534704136
-0.004391517745150069 0.2623010534704136
0.012230620370633228 0.2821024244052105
0.07871917283376642 0.30190379534000744
0.1618298634126829 0.29200310987260897
0.17845200152846621 0.2722017389378121
0.14520772529689963 0.2722017389378121
0.12858558718111632 0.31180448080740586
0.12858558718111632 0.3712085936117966
0.12858558718111632 0.4207120209487889
0.12858558718111632 0.48011613375317963
0.12858558718111632 0.40091065001399195
0.12858558718111632 0.2623010534704136
0.09534131094954972 0.18309556973122598
0.12858558718111632 0.2524003680030152
0.2283184158758161 0.29200310987260897
0.278184830223166 0.31180448080740586
0.278184830223166 0.3316058517422028
0.278184830223166 0.3514072226769997
0.24494055399159942 0.4108113354813904
0.2948069683389493 0.47021544828578116
0.3114291064547326 0.48011613375317963
0.3446733826862992 0.40091065001399195
0.444406211380999 0.3514072226769997
0.4610283494967823 0.32170516627480433
0.47765048761256557 0.40091065001399195
0.4610283494967823 0.509818190155375
0.4610283494967823 0.5593216174923672
0.5108947638441322 0.5296195610901718
0.5275169019599155 0.38110927907919506
0.6272497306546153 0.29200310987260897
0.7103604212335318 0.29200310987260897
0.8765818023913647 0.3712085936117966
0.9596924929702813 0.40091065001399195
0.8765818023913647 0.4207120209487889
0.8433375261597982 0.4603147628183827
0.8100932499282316 0.48011613375317963
0.8599596642755815 0.49001681922057805
1.0261810454334144 0.38110927907919506
1.1259138741281143 0.29200310987260897
1.1092917360123309 0.2623010534704136
1.0926695978965477 0.2524003680030152
1.059425321664981 0.2424996825356167
0.9596924929702813 0.2821024244052105
0.7934711118124482 0.32170516627480433
0.6937382831177484 0.3415065372096012
0.5275169019599155 0.38110927907919506
0.4111619351494324 0.3415065372096012
0.3114291064547326 0.2821024244052105
0.17845200152846621 0.2821024244052105
0.11196344906533302 0.2821024244052105
0.012230620370633228 0.2821024244052105
-0.004391517745150069 0.2722017389378121
-0.004391517745150069 0.2623010534704136
0.028852758486416528 0.29200310987260897
0.06209703471798313 0.2821024244052105
0.028852758486416528 0.31180448080740586
0.07871917283376642 0.32170516627480433
0.07871917283376642 0.3415065372096012
0.028852758486416528 0.3316058517422028
0.028852758486416528 0.32170516627480433
-0.02101365586093337 0.36130790814439817
0.028852758486416528 0.3712085936117966
-0.004391517745150069 0.45041407735098427
-0.07088007020828327 0.4603147628183827
-0.08750220832406656 0.4306127064161873
-0.03763579397671667 0.4306127064161873
0.028852758486416528 0.4207120209487889
0.06209703471798313 0.4108113354813904
0.012230620370633228 0.4603147628183827
-0.004391517745150069 0.4207120209487889
0.028852758486416528 0.29200310987260897
0.11196344906533302 0.17319488426382754
0.2116962777600328 0.11379077145943679
0.1618298634126829 0.15339351332903062
0.09534131094954972 0.21279762613342135
0.12858558718111632 0.2524003680030152
0.12858558718111632 0.2722017389378121
0.06209703471798313 0.2821024244052105
0.06209703471798313 0.3415065372096012
0.14520772529689963 0.3514072226769997
0.2116962777600328 0.3712085936117966
0.17845200152846621 0.3316058517422028
0.12858558718111632 0.3316058517422028
0.06209703471798313 0.3316058517422028
0.028852758486416528 0.36130790814439817
0.012230620370633228 0.40091065001399195
0.06209703471798313 0.40091065001399195
0.1618298634126829 0.3712085936117966
0.19507413964424952 0.30190379534000744
0.11196344906533302 0.2722017389378121
0.07871917283376642 0.23259899706821824
0.07871917283376642 0.23259899706821824
0.2615626921073827 0.17319488426382754
0.5441390400756988 0.14349282786163217
0.8765818023913647 -0.005017454149344655
1.45835663644378 -0.4307469292474782
1.9902650561488457 -1.0643907991609793
2.3725742328118615 -1.6287298708026912
2.4390627852749946 -1.8168428946832618
2.3060856803487284 -1.688133983607082
2.2728414041171616 -1.5000209597265113
2.4556849233907783 -1.3911134195851282
2.6219063045486113 -1.4802195887917144
2.8047498238222275 -1.5792264434656988
3.0873261717905436 -1.5792264434656988
3.336658243527293 -1.5198223306613081
3.519501762800909 -1.4604182178569174
3.602612453379826 -1.410914790519925
3.585990315264042 -1.3515106777155343
3.569368177148259 -1.2327024521067529
3.552746039032476 -1.1831990247697608
3.386524657874643 -1.143596282900167
2.954349066864277 -1.0841921700957762
2.2894635422329452 -1.0445894282261823
1.6578222938331797 -0.9554832590195963
1.1425360122438974 -0.8465757188782133
0.6438718687703986 -0.7475688642042287
-0.02101365586093337 -0.579257211258455
-0.7523877329553985 -0.470349671117072
-1.2510518764288974 -0.39114418737788437
-1.450517533818297 -0.2723359617691029
-1.2676740145446808 -0.15352773616032148
-1.0848304952710646 -0.05452088148633693
-0.9352312522290148 0.07418802958984298
-0.9186091141132315 0.21279762613342135
-0.9019869759974481 0.31180448080740586
-0.7523877329553985 0.3712085936117966
-0.5362999374502156 0.4405133918835858
-0.40332283252394924 0.4999175046879765
-0.3202121419450327 0.5593216174923672
-0.30359000382924944 0.5692223029597657
-0.35345641817659934 0.5395202465575704
-0.40332283252394924 0.5494209320249688
-0.4199449706397325 0.5890236738945626
-0.43656710875551585 0.6385271012315549
-0.4199449706397325 0.6781298431011487
-0.40332283252394924 0.6583284721663518
-0.40332283252394924 0.6484277866989533
-0.4199449706397325 0.6583284721663518
-0.48643352310286575 0.7177325849707425
-0.503055661218649 0.7474346413729379
-0.5529220755659989 0.7573353268403363
-0.45318924687129913 0.7573353268403363
-0.38670069440816596 0.7771366977751333
-0.43656710875551585 0.8662428669817194
-0.45318924687129913 0.9751504071231023
-0.503055661218649 0.9157462943187116
-0.43656710875551585 0.7771366977751333
-0.38670069440816596 0.6484277866989533
-0.43656710875551585 0.6286264157641565
-0.45318924687129913 0.6979312140359456
-0.45318924687129913 0.7771366977751333
-0.43656710875551585 0.7474346413729379
-0.4199449706397325 0.7672360123077347
-0.4199449706397325 0.7375339559055394
-0.503055661218649 0.707831899503344
-0.5196777993344324 0.727633270438141
-0.503055661218649 0.7573353268403363
-0.503055661218649 0.8266401251121255
-0.503055661218649 0.8167394396447271
-0.5695442136817822 0.8068387541773286
-0.5695442136817822 0.7771366977751333
-0.5362999374502156 0.8068387541773286
-0.48643352310286575 0.8167394396447271
-0.45318924687129913 0.8266401251121255
-0.4698113849870824 0.8464414960469224
-0.5362999374502156 0.8266401251121255
-0.5861663517975655 0.8464414960469224
-0.5529220755659989 0.8464414960469224
-0.4698113849870824 0.9058456088513132
-0.43656710875551585 0.9256469797861101
-0.5695442136817822 0.9751504071231023
-0.6858991804922653 1.0444552053948915
-0.6858991804922653 1.034554519927493
-0.5695442136817822 0.9751504071231023
-0.38670069440816596 0.8167394396447271
-0.30359000382924944 0.707831899503344
-0.30359000382924944 0.7177325849707425
-0.38670069440816596 0.7177325849707425
-0.40332283252394924 0.7870373832425317
-0.4698113849870824 0.8563421815143208
-0.4698113849870824 0.8761435524491178
-0.4199449706397325 0.9058456088513132
-0.3700785562923826 0.8959449233839147
-0.38670069440816596 0.8860442379165162
-0.38670069440816596 0.8761435524491178
-0.4199449706397325 0.9256469797861101
-0.38670069440816596 1.034554519927493
-0.4698113849870824 1.1533627455362745
-0.4698113849870824 1.143462060068876
-0.40332283252394924 0.9355476652535085
-0.27034572759768283 0.7375339559055394
-0.17061289890298306 0.707831899503344
-0.17061289890298306 0.7672360123077347
-0.15399076078719975 0.8959449233839147
-0.18723503701876634 0.9454483507209069
-0.18723503701876634 0.8959449233839147
-0.18723503701876634 0.8662428669817194
-0.15399076078719975 0.8860442379165162
-0.05425793209249997 0.8761435524491178
0.07871917283376642 0.8563421815143208
0.09534131094954972 0.8068387541773286
0.028852758486416528 0.8266401251121255
-0.22047931325033296 0.9454483507209069
-0.45318924687129913 1.1731641164710713
-0.48643352310286575 1.4602839950256266
-0.3700785562923826 1.5691915351670096
-0.12074648455563317 1.18306480193847
0.14520772529689963 0.5890236738945626
0.3612955208020825 0.20289694066602287
0.4111619351494324 0.17319488426382754
0.42778407326521567 0.3316058517422028
0.3446733826862992 0.45041407735098427
0.2615626921073827 0.5593216174923672
0.14520772529689963 0.6583284721663518
0.045474896602199825 0.7375339559055394
-0.02101365586093337 0.8266401251121255
0.028852758486416528 0.7870373832425317
0.17845200152846621 0.7177325849707425
0.2948069683389493 0.5989243593619611
0.4111619351494324 0.45041407735098427
0.3612955208020825 0.32170516627480433
0.2615626921073827 0.3712085936117966
0.12858558718111632 0.5890236738945626
0.012230620370633228 0.9652497216557039
-0.10412434643984986 1.2523696002102591
-0.07088007020828327 1.3117737130146498
0.11196344906533302 1.1038593181992822
0.3280512445705159 0.6979312140359456
0.4942726257283489 0.30190379534000744
0.5275169019599155 -0.03471951055154002
0.4610283494967823 -0.07432225242113384
0.3446733826862992 0.04448597318764762
0.3446733826862992 0.12369145692683525
0.3114291064547326 0.18309556973122598
0.3114291064547326 0.2524003680030152
0.3779176589178658 0.30190379534000744
0.278184830223166 0.3514072226769997
0.19507413964424952 0.40091065001399195
0.1618298634126829 0.4108113354813904
0.12858558718111632 0.47021544828578116
0.1618298634126829 0.5494209320249688
0.2283184158758161 0.5494209320249688
0.19507413964424952 0.5296195610901718
0.07871917283376642 0.6979312140359456
0.028852758486416528 0.7771366977751333
0.07871917283376642 0.6385271012315549
0.12858558718111632 0.4405133918835858
0.19507413964424952 0.36130790814439817
0.2116962777600328 0.31180448080740586
0.2116962777600328 0.2524003680030152
0.1618298634126829 0.17319488426382754
0.12858558718111632 0.20289694066602287
0.1618298634126829 0.2524003680030152
0.06209703471798313 0.2623010534704136
-0.03763579397671667 0.2524003680030152
-0.07088007020828327 0.2722017389378121
-0.02101365586093337 0.17319488426382754
-0.004391517745150069 0.11379077145943679
-0.05425793209249997 0.15339351332903062
-0.12074648455563317 0.2424996825356167
-0.08750220832406656 0.2821024244052105
0.11196344906533302 0.16329419879642906
0.3114291064547326 -0.01491813961674311
0.1618298634126829 -0.08422293788853229
-0.004391517745150069 0.06428734412244452
-0.17061289890298306 0.2623010534704136
-0.22047931325033296 0.4603147628183827
-0.22047931325033296 0.4108113354813904
-0.08750220832406656 0.19299625519862443
-0.03763579397671667 0.0048832313180537995
-0.08750220832406656 0.0048832313180537995
-0.20385717513454965 0.11379077145943679
-0.27034572759768283 0.2821024244052105
-0.3700785562923826 0.32170516627480433
-0.17061289890298306 0.2226983116008198
-0.08750220832406656 0.0048832313180537995
-0.05425793209249997 -0.11392499429072765
-0.15399076078719975 -0.10402430882332919
-0.22047931325033296 -0.01491813961674311
-0.25372358948189955 0.0048832313180537995
-0.22047931325033296 -0.005017454149344655
-0.22047931325033296 -0.024818825084141564
-0.22047931325033296 0.034585287720249165
-0.22047931325033296 0.034585287720249165
-0.25372358948189955 0.05438665865504607
-0.28696786571346616 0.02468460225285071
-0.33683428006081606 0.02468460225285071
-0.35345641817659934 0.02468460225285071
-0.23710145136611624 0.04448597318764762
-0.17061289890298306 0.04448597318764762
-0.22047931325033296 0.05438665865504607
-0.27034572759768283 0.034585287720249165
-0.33683428006081606 -0.024818825084141564
-0.3202121419450327 -0.07432225242113384
-0.20385717513454965 -0.18322979256251684
-0.25372358948189955 -0.3713428164430875
-0.3202121419450327 -0.361442130975689
-0.4199449706397325 0.034585287720249165
-0.45318924687129913 0.39100996454659354
-0.27034572759768283 0.30190379534000744
-0.10412434643984986 0.02468460225285071
-0.15399076078719975 -0.024818825084141564
-0.15399076078719975 0.014783916785452253
-0.10412434643984986 -0.16342842162771992
0.028852758486416528 -0.49015104205186893
0.07871917283376642 -0.5495551548562596
0.06209703471798313 -0.39114418737788437
0.028852758486416528 -0.22283253443211065
-0.07088007020828327 -0.16342842162771992
-0.08750220832406656 -0.18322979256251684
-0.07088007020828327 -0.2129318489647122
-0.07088007020828327 -0.17332910709511837
-0.07088007020828327 -0.16342842162771992
-0.05425793209249997 -0.143627050692923
-0.05425793209249997 -0.12382567975812611
-0.05425793209249997 -0.143627050692923
-0.03763579397671667 -0.16342842162771992
-0.07088007020828327 -0.143627050692923
-0.05425793209249997 -0.12382567975812611
-0.02101365586093337 -0.10402430882332919
-0.02101365586093337 -0.11392499429072765
-0.05425793209249997 -0.12382567975812611
-0.004391517745150069 -0.10402430882332919
-0.03763579397671667 -0.10402430882332919
0.028852758486416528 -0.11392499429072765
0.012230620370633228 -0.15352773616032148
0.028852758486416528 -0.11392499429072765
-0.004391517745150069 -0.143627050692923
-0.02101365586093337 -0.20303116349731373
-0.004391517745150069 -0.24263390536690757
0.028852758486416528 -0.22283253443211065
0.012230620370633228 -0.17332910709511837
-0.004391517745150069 -0.11392499429072765
-0.03763579397671667 -0.08422293788853229
-0.03763579397671667 -0.07432225242113384
-0.004391517745150069 -0.08422293788853229
0.028852758486416528 -0.12382567975812611
0.012230620370633228 -0.03471951055154002
-0.03763579397671667 0.04448597318764762
0.06209703471798313 -0.05452088148633693
0.11196344906533302 -0.29213733270389985
0.07871917283376642 -0.3515414455082906
0.07871917283376642 -0.3020380181712983
0.045474896602199825 -0.2129318489647122
0.012230620370633228 -0.18322979256251684
0.012230620370633228 -0.13372636522552456
-0.03763579397671667 -0.08422293788853229
-0.07088007020828327 -0.03471951055154002
-0.08750220832406656 -0.07432225242113384
0.028852758486416528 -0.16342842162771992
0.14520772529689963 -0.24263390536690757
0.17845200152846621 -0.2723359617691029
0.12858558718111632 -0.2327332198995091
0.06209703471798313 -0.20303116349731373
0.028852758486416528 -0.16342842162771992
0.028852758486416528 -0.143627050692923
0.028852758486416528 -0.11392499429072765
0.06209703471798313 -0.12382567975812611
0.06209703471798313 -0.13372636522552456
0.06209703471798313 -0.13372636522552456
0.1618298634126829 -0.10402430882332919
0.12858558718111632 -0.10402430882332919
0.07871917283376642 -0.09412362335593075
-0.004391517745150069 -0.143627050692923
-0.02101365586093337 -0.15352773616032148
-0.03763579397671667 -0.11392499429072765
0.012230620370633228 -0.11392499429072765
0.07871917283376642 -0.08422293788853229
0.07871917283376642 -0.05452088148633693
0.11196344906533302 -0.024818825084141564
0.045474896602199825 0.08408871505724143
-0.05425793209249997 0.2524003680030152
-0.07088007020828327 0.30190379534000744
0.028852758486416528 0.10389008599203835
0.14520772529689963 -0.1931304780299153
0.14520772529689963 -0.3218393891060952
0.07871917283376642 -0.3020380181712983
0.09534131094954972 -0.1931304780299153
0.1618298634126829 -0.1931304780299153
0.278184830223166 -0.2723359617691029
0.2283184158758161 -0.252534590834306
0.14520772529689963 -0.17332910709511837
-0.004391517745150069 -0.17332910709511837
-0.03763579397671667 -0.12382567975812611
0.028852758486416528 -0.12382567975812611
0.12858558718111632 -0.10402430882332919
0.12858558718111632 -0.10402430882332919
0.11196344906533302 -0.07432225242113384
0.09534131094954972 -0.11392499429072765
0.07871917283376642 -0.07432225242113384
0.11196344906533302 -0.05452088148633693
0.24494055399159942 -0.05452088148633693
0.2948069683389493 -0.024818825084141564
0.2948069683389493 -0.03471951055154002
0.3114291064547326 0.014783916785452253
0.3779176589178658 0.014783916785452253
0.42778407326521567 0.034585287720249165
0.42778407326521567 0.05438665865504607
0.42778407326521567 0.014783916785452253
0.5108947638441322 0.014783916785452253
0.5441390400756988 -0.024818825084141564
0.4942726257283489 0.014783916785452253
0.5275169019599155 0.08408871505724143
0.6771161450019652 0.10389008599203835
0.7602268355808817 0.11379077145943679
0.7602268355808817 0.11379077145943679
0.8599596642755815 0.08408871505724143
0.9763146310860645 -0.005017454149344655
1.0261810454334144 -0.11392499429072765
1.0760474597807643 -0.15352773616032148
1.0095589073176312 -0.10402430882332919
0.9264482167387147 -0.06442156695373538
0.8100932499282316 -0.05452088148633693
0.7269825593493151 -0.04462019601893847
0.6604940068861819 -0.01491813961674311
0.6438718687703986 -0.005017454149344655
0.5275169019599155 -0.005017454149344655
0.3945397970336491 0.0048832313180537995
0.2116962777600328 -0.01491813961674311
0.045474896602199825 -0.005017454149344655
-0.02101365586093337 -0.005017454149344655
0.012230620370633228 0.0048832313180537995
0.012230620370633228 0.0048832313180537995
0.012230620370633228 -0.01491813961674311
-0.03763579397671667 -0.04462019601893847
-0.08750220832406656 -0.03471951055154002
-0.03763579397671667 0.0048832313180537995
0.07871917283376642 0.014783916785452253
0.07871917283376642 0.02468460225285071
-0.004391517745150069 0.02468460225285071
-0.12074648455563317 -0.024818825084141564
-0.20385717513454965 -0.024818825084141564
-0.17061289890298306 0.0048832313180537995
-0.07088007020828327 0.014783916785452253
0.028852758486416528 0.014783916785452253
0.06209703471798313 -0.01491813961674311
-0.03763579397671667 -0.01491813961674311
-0.10412434643984986 0.04448597318764762
-0.03763579397671667 0.04448597318764762
0.012230620370633228 0.09398940052463989
-0.02101365586093337 0.09398940052463989
-0.15399076078719975 0.02468460225285071
-0.27034572759768283 0.014783916785452253
-0.3202121419450327 0.06428734412244452
-0.17061289890298306 0.12369145692683525
0.012230620370633228 0.14349282786163217
-0.004391517745150069 0.09398940052463989
-0.08750220832406656 0.06428734412244452
-0.07088007020828327 -0.01491813961674311
-0.05425793209249997 -0.05452088148633693
-0.02101365586093337 -0.005017454149344655
-0.004391517745150069 -0.005017454149344655
-0.02101365586093337 0.034585287720249165
-0.05425793209249997 0.06428734412244452
-0.07088007020828327 0.06428734412244452
-0.05425793209249997 0.10389008599203835
-0.05425793209249997 0.10389008599203835
0.012230620370633228 0.034585287720249165
0.12858558718111632 -0.06442156695373538
0.3779176589178658 -0.17332910709511837
0.6438718687703986 -0.2822366472365014
1.0095589073176312 -0.5000517275192674
1.5248451889069135 -0.8069729770086195
2.0899978848435454 -1.1930997102371592
2.4556849233907783 -1.5099216451939097
2.4390627852749946 -1.648531241737488
2.3227078184645116 -1.6782332981396835
2.4556849233907783 -1.6089284998678943
2.6883948570117444 -1.5495243870635036
2.8546162381695774 -1.4901202742591129
3.07070403367476 -1.4406168469221206
3.236925414832593 -1.4010141050525267
3.403146795990426 -1.321808621313339
3.585990315264042 -1.25250382304155
3.851944525116575 -1.2624045085089484
3.9849216300428414 -1.2723051939763468
3.8685666632323583 -1.2624045085089484
3.4862574865693428 -1.1534969683675653
2.8712383762853606 -1.0346887427587839
2.1897307135382453 -0.9455825735521978
1.6245780176016131 -0.8663770898130102
1.1757802884754642 -0.8267743479434163
0.610627592538832 -0.7673702351390257
-0.23710145136611624 -0.6782640659324396
-1.001719804692148 -0.5297537839214628
-1.500383948165647 -0.40104487284528284
-1.4671396719340803 -0.3218393891060952
-1.1513190477341977 -0.2723359617691029
-0.9352312522290148 -0.20303116349731373
-0.9352312522290148 -0.08422293788853229
-1.0515862190394978 0.014783916785452253
-1.0682083571552812 0.19299625519862443
-0.9352312522290148 0.3415065372096012
-0.7357655948396152 0.36130790814439817
-0.5362999374502156 0.30190379534000744
-0.5362999374502156 0.2524003680030152
-0.5695442136817822 0.2722017389378121
-0.6027884899133488 0.3712085936117966
-0.5861663517975655 0.45041407735098427
-0.48643352310286575 0.47021544828578116
-0.503055661218649 0.49001681922057805
-0.5362999374502156 0.5197188756227734
-0.6027884899133488 0.4999175046879765
-0.6360327661449154 0.5494209320249688
-0.6194106280291322 0.5989243593619611
-0.6027884899133488 0.5989243593619611
-0.5529220755659989 0.5692223029597657
-0.5861663517975655 0.509818190155375
-0.5362999374502156 0.47021544828578116
-0.6194106280291322 0.47021544828578116
-0.6194106280291322 0.5494209320249688
-0.5861663517975655 0.5692223029597657
-0.5695442136817822 0.6385271012315549
-0.6027884899133488 0.6484277866989533
-0.6526549042606987 0.6484277866989533
-0.7025213186080486 0.6583284721663518
-0.6360327661449154 0.6682291576337502
-0.6360327661449154 0.7375339559055394
-0.6526549042606987 0.8266401251121255
-0.6858991804922653 0.7870373832425317
-0.7025213186080486 0.6187257302967579
-0.669277042376482 0.5692223029597657
-0.6360327661449154 0.6187257302967579
-0.6194106280291322 0.707831899503344
-0.6194106280291322 0.7672360123077347
-0.6027884899133488 0.727633270438141
-0.6194106280291322 0.6484277866989533
-0.6526549042606987 0.6286264157641565
-0.6027884899133488 0.6880305285685472
-0.6526549042606987 0.7672360123077347
-0.6526549042606987 0.7672360123077347
-0.6526549042606987 0.727633270438141
-0.6526549042606987 0.6880305285685472
-0.6360327661449154 0.6781298431011487
-0.6360327661449154 0.727633270438141
-0.6360327661449154 0.7969380687099301
-0.6027884899133488 0.8563421815143208
-0.6194106280291322 0.8068387541773286
-0.5861663517975655 0.7375339559055394
-0.5695442136817822 0.7375339559055394
-0.5196777993344324 0.7870373832425317
-0.5196777993344324 0.8266401251121255
-0.5695442136817822 0.836540810579524
-0.5196777993344324 0.8068387541773286
-0.5362999374502156 0.7870373832425317
-0.5529220755659989 0.7672360123077347
-0.4698113849870824 0.7771366977751333
-0.45318924687129913 0.8464414960469224
-0.503055661218649 0.8959449233839147
-0.5362999374502156 0.9355476652535085
-0.5196777993344324 0.9157462943187116
-0.48643352310286575 0.8167394396447271
-0.40332283252394924 0.7474346413729379
-0.38670069440816596 0.7672360123077347
-0.45318924687129913 0.836540810579524
-0.5362999374502156 0.9058456088513132
-0.48643352310286575 0.8959449233839147
-0.43656710875551585 0.836540810579524
-0.3202121419450327 0.7672360123077347
-0.27034572759768283 0.7672360123077347
-0.27034572759768283 0.8167394396447271
-0.27034572759768283 0.7771366977751333
-0.23710145136611624 0.7474346413729379
-0.28696786571346616 0.7474346413729379
-0.28696786571346616 0.8167394396447271
-0.25372358948189955 0.8167394396447271
-0.20385717513454965 0.8068387541773286
-0.17061289890298306 0.8068387541773286
-0.15399076078719975 0.7969380687099301
-0.18723503701876634 0.8167394396447271
-0.13736862267141645 0.8068387541773286
-0.07088007020828327 0.7573353268403363
-0.05425793209249997 0.7375339559055394
-0.07088007020828327 0.727633270438141
-0.03763579397671667 0.727633270438141
-0.03763579397671667 0.7870373832425317
-0.02101365586093337 0.8563421815143208
0.028852758486416528 0.9454483507209069
0.06209703471798313 0.9157462943187116
0.1618298634126829 0.7573353268403363
0.2116962777600328 0.5890236738945626
0.1618298634126829 0.5791229884271641
0.1618298634126829 0.5890236738945626
0.17845200152846621 0.6187257302967579
0.17845200152846621 0.6187257302967579
0.17845200152846621 0.6088250448293595
0.24494055399159942 0.6286264157641565
0.24494055399159942 0.6187257302967579
0.2948069683389493 0.6286264157641565
0.3280512445705159 0.6286264157641565
0.2615626921073827 0.6187257302967579
0.278184830223166 0.6286264157641565
0.2948069683389493 0.6385271012315549
0.3446733826862992 0.6583284721663518
0.4111619351494324 0.6187257302967579
0.47765048761256557 0.509818190155375
0.444406211380999 0.47021544828578116
0.3945397970336491 0.47021544828578116
0.3114291064547326 0.5494209320249688
0.2615626921073827 0.5989243593619611
0.278184830223166 0.5989243593619611
0.3280512445705159 0.5989243593619611
0.3114291064547326 0.5989243593619611
0.278184830223166 0.6088250448293595
0.2615626921073827 0.6088250448293595
0.2615626921073827 0.6187257302967579
0.3114291064547326 0.6484277866989533
0.3779176589178658 0.6583284721663518
0.3280512445705159 0.6484277866989533
0.2948069683389493 0.6385271012315549
0.278184830223166 0.6286264157641565
0.2283184158758161 0.6286264157641565
0.2615626921073827 0.6682291576337502
0.2615626921073827 0.6682291576337502
0.2615626921073827 0.6682291576337502
0.19507413964424952 0.6484277866989533
0.19507413964424952 0.6682291576337502
0.17845200152846621 0.6781298431011487
0.17845200152846621 0.707831899503344
0.2116962777600328 0.6880305285685472
0.19507413964424952 0.6682291576337502
0.2116962777600328 0.6286264157641565
0.17845200152846621 0.5692223029597657
0.14520772529689963 0.4603147628183827
0.11196344906533302 0.4405133918835858
0.12858558718111632 0.5395202465575704
0.11196344906533302 0.6187257302967579
0.045474896602199825 0.6781298431011487
0.028852758486416528 0.6781298431011487
0.012230620370633228 0.6484277866989533
0.06209703471798313 0.5593216174923672
0.045474896602199825 0.5296195610901718
0.06209703471798313 0.5197188756227734
0.07871917283376642 0.5494209320249688
0.045474896602199825 0.5791229884271641
0.028852758486416528 0.6484277866989533
0.012230620370633228 0.6880305285685472
0.012230620370633228 0.6781298431011487
-0.02101365586093337 0.6088250448293595
-0.004391517745150069 0.5593216174923672
-0.004391517745150069 0.5395202465575704
-0.004391517745150069 0.5989243593619611
-0.03763579397671667 0.6187257302967579
-0.004391517745150069 0.6187257302967579
-0.02101365586093337 0.6286264157641565
-0.07088007020828327 0.6187257302967579
-0.08750220832406656 0.5890236738945626
-0.07088007020828327 0.6286264157641565
0.012230620370633228 0.6286264157641565
-0.02101365586093337 0.6187257302967579
-0.02101365586093337 0.6385271012315549
-0.02101365586093337 0.6088250448293595
-0.03763579397671667 0.6286264157641565
-0.05425793209249997 0.6385271012315549
-0.08750220832406656 0.6682291576337502
-0.03763579397671667 0.6682291576337502
0.012230620370633228 0.6979312140359456
-0.004391517745150069 0.6979312140359456
0.012230620370633228 0.6583284721663518
0.028852758486416528 0.6385271012315549
0.14520772529689963 0.6484277866989533
0.12858558718111632 0.6979312140359456
0.11196344906533302 0.6682291576337502
0.012230620370633228 0.5989243593619611
-0.02101365586093337 0.5692223029597657
0.028852758486416528 0.5890236738945626
0.09534131094954972 0.6385271012315549
0.12858558718111632 0.6385271012315549
0.11196344906533302 0.6286264157641565
0.11196344906533302 0.6484277866989533
0.09534131094954972 0.6781298431011487
0.11196344906533302 0.707831899503344
0.17845200152846621 0.7474346413729379
0.2116962777600328 0.7870373832425317
0.1618298634126829 0.7375339559055394
0.12858558718111632 0.6682291576337502
0.12858558718111632 0.6484277866989533
0.11196344906533302 0.7177325849707425
0.12858558718111632 0.8662428669817194
0.17845200152846621 0.9454483507209069
0.1618298634126829 0.8266401251121255
0.19507413964424952 0.5989243593619611
0.2283184158758161 0.48011613375317963
0.24494055399159942 0.5296195610901718
0.2948069683389493 0.6385271012315549
0.2948069683389493 0.7375339559055394
0.2615626921073827 0.7375339559055394
0.2283184158758161 0.6880305285685472
0.19507413964424952 0.6286264157641565
0.2283184158758161 0.6286264157641565
0.24494055399159942 0.6979312140359456
0.3114291064547326 0.707831899503344
0.2948069683389493 0.707831899503344
0.3280512445705159 0.6781298431011487
0.2948069683389493 0.6781298431011487
0.24494055399159942 0.7177325849707425
0.2948069683389493 0.7375339559055394
0.3280512445705159 0.7474346413729379
0.3446733826862992 0.7474346413729379
0.278184830223166 0.727633270438141
0.278184830223166 0.707831899503344
0.278184830223166 0.7474346413729379
0.3114291064547326 0.727633270438141
0.3779176589178658 0.7375339559055394
0.3280512445705159 0.7375339559055394
0.3280512445705159 0.727633270438141
0.3114291064547326 0.7177325849707425
0.3114291064547326 0.727633270438141
0.3280512445705159 0.727633270438141
0.3779176589178658 0.727633270438141
0.3779176589178658 0.7573353268403363
0.4111619351494324 0.7474346413729379
0.3612955208020825 0.7771366977751333
0.3280512445705159 0.7771366977751333
0.3280512445705159 0.8167394396447271
0.3612955208020825 0.8167394396447271
0.3779176589178658 0.8167394396447271
0.3945397970336491 0.7969380687099301
0.3612955208020825 0.7771366977751333
0.3114291064547326 0.7870373832425317
0.3612955208020825 0.836540810579524
0.3779176589178658 0.8563421815143208
0.4111619351494324 0.7870373832425317
0.3945397970336491 0.6583284721663518
0.3779176589178658 0.5989243593619611
0.3612955208020825 0.6385271012315549
0.42778407326521567 0.6880305285685472
0.4610283494967823 0.6880305285685472
0.444406211380999 0.7177325849707425
0.42778407326521567 0.707831899503344
0.4111619351494324 0.6880305285685472
0.4111619351494324 0.727633270438141
0.42778407326521567 0.7474346413729379
0.5108947638441322 0.7474346413729379
0.4610283494967823 0.7672360123077347
0.5607611781914821 0.7474346413729379
0.610627592538832 0.7474346413729379
0.6272497306546153 0.7771366977751333
0.6604940068861819 0.7969380687099301
0.6771161450019652 0.836540810579524
0.7103604212335318 0.8266401251121255
0.7436046974650984 0.8266401251121255
0.7269825593493151 0.8167394396447271
0.7103604212335318 0.8266401251121255
0.8267153880440149 0.836540810579524
0.943070354854498 0.836540810579524
0.9264482167387147 0.7969380687099301
0.943070354854498 0.7771366977751333
0.9596924929702813 0.7672360123077347
1.0261810454334144 0.8167394396447271
1.1092917360123309 0.8464414960469224
1.1757802884754642 0.7870373832425317
1.1757802884754642 0.7474346413729379
1.225646702822814 0.7177325849707425
1.2090245647070308 0.7474346413729379
1.225646702822814 0.7969380687099301
1.2422688409385974 0.836540810579524
1.2422688409385974 0.8563421815143208
1.1757802884754642 0.8662428669817194
1.059425321664981 0.8167394396447271
0.8765818023913647 0.7573353268403363
0.8100932499282316 0.727633270438141
0.7103604212335318 0.7375339559055394
0.6438718687703986 0.7573353268403363
0.47765048761256557 0.7573353268403363
0.3280512445705159 0.7375339559055394
0.278184830223166 0.727633270438141
0.278184830223166 0.727633270438141
0.3114291064547326 0.7573353268403363
0.3779176589178658 0.7672360123077347
0.3446733826862992 0.7573353268403363
0.3446733826862992 0.7573353268403363
0.2948069683389493 0.727633270438141
0.3612955208020825 0.7870373832425317
0.3779176589178658 0.8662428669817194
0.3945397970336491 0.8761435524491178
0.3945397970336491 0.7573353268403363
0.3612955208020825 0.7177325849707425
0.3280512445705159 0.6979312140359456
0.3114291064547326 0.7672360123077347
0.3945397970336491 0.8167394396447271
0.3945397970336491 0.7870373832425317
0.3779176589178658 0.8068387541773286
0.3945397970336491 0.8266401251121255
0.3779176589178658 0.8068387541773286
0.3779176589178658 0.8068387541773286
0.42778407326521567 0.7375339559055394
0.444406211380999 0.7177325849707425
0.42778407326521567 0.7177325849707425
0.3945397970336491 0.7177325849707425
0.3779176589178658 0.7375339559055394
0.3446733826862992 0.7474346413729379
0.3945397970336491 0.7672360123077347
0.444406211380999 0.7672360123077347
0.42778407326521567 0.7870373832425317
0.4111619351494324 0.7573353268403363
0.3779176589178658 0.7870373832425317
0.3779176589178658 0.7771366977751333
0.444406211380999 0.8167394396447271
0.5108947638441322 0.8563421815143208
0.4111619351494324 0.8563421815143208
0.4111619351494324 0.8464414960469224
0.3945397970336491 0.8167394396447271
0.42778407326521567 0.7870373832425317
0.4942726257283489 0.707831899503344
0.5773833163072654 0.6484277866989533
0.6604940068861819 0.5890236738945626
0.9264482167387147 0.4405133918835858
1.2588909790543805 0.19299625519862443
1.6910665700647465 -0.15352773616032148
2.2395971278855953 -0.5000517275192674
2.5886620283170445 -0.8564764043456117
2.6551505807801776 -1.103993541030573
2.5886620283170445 -1.212901081171956
2.5221734758539114 -1.1732983393023622
2.6883948570117444 -1.0940928555631746
2.8878605144011438 -1.0346887427587839
3.07070403367476 -1.0049866863565886
3.12057044802211 -0.9554832590195963
3.3034139672957266 -0.9158805171500024
3.386524657874643 -0.8762777752804086
3.4862574865693428 -0.8267743479434163
3.685723143958742 -0.7673702351390257
3.835322387000792 -0.7376681787368303
3.768833834537659 -0.6683633804650411
3.619234591495609 -0.6089592676606503
3.27016969106416 -0.579257211258455
2.671772718895961 -0.5198530984540642
2.123242161075112 -0.4307469292474782
1.5913337413700466 -0.33174007457349364
1.059425321664981 -0.252534590834306
0.4610283494967823 -0.18322979256251684
-0.25372358948189955 -0.11392499429072765
-0.7357655948396152 0.04448597318764762
-1.0349640809237146 0.17319488426382754
-1.0515862190394978 0.30190379534000744
-0.9186091141132315 0.4108113354813904
-0.7357655948396152 0.5296195610901718
-0.6360327661449154 0.5989243593619611
-0.5695442136817822 0.7375339559055394
-0.4698113849870824 0.8563421815143208
-0.33683428006081606 0.9652497216557039
-0.22047931325033296 1.0543558908622899
-0.13736862267141645 1.0840579472644853
-0.10412434643984986 1.1137600036666806
-0.08750220832406656 1.1533627455362745
-0.02101365586093337 1.2127668583406652
-0.02101365586093337 1.2424689147428607
-0.03763579397671667 1.232568229275462
-0.07088007020828327 1.1929654874058684
-0.07088007020828327 1.18306480193847
-0.08750220832406656 1.2127668583406652
-0.05425793209249997 1.272170971145056
-0.004391517745150069 1.2919723420798528
-0.03763579397671667 1.3018730275472514
-0.08750220832406656 1.3513764548842435
-0.15399076078719975 1.3711778258190406
-0.17061289890298306 1.3711778258190406
-0.12074648455563317 1.3909791967538374
-0.05425793209249997 1.3909791967538374
-0.08750220832406656 1.381078511286439
-0.10412434643984986 1.4404826240908297
-0.13736862267141645 1.4800853659604234
-0.18723503701876634 1.5097874223626189
-0.15399076078719975 1.4998867368952205
-0.12074648455563317 1.470184680493025
-0.05425793209249997 1.4602839950256266
-0.10412434643984986 1.4206812531560327
-0.17061289890298306 1.3711778258190406
-0.18723503701876634 1.3513764548842435
-0.18723503701876634 1.4008798822212358
-0.15399076078719975 1.4305819386234313
-0.22047931325033296 1.4404826240908297
-0.18723503701876634 1.4008798822212358
-0.18723503701876634 1.4107805676886342
-0.18723503701876634 1.4305819386234313
-0.13736862267141645 1.4800853659604234
-0.13736862267141645 1.4800853659604234
-0.13736862267141645 1.5196881078300173
-0.22047931325033296 1.489986051427822
-0.22047931325033296 1.489986051427822
-0.22047931325033296 1.4998867368952205
-0.15399076078719975 1.5295887932974157
-0.13736862267141645 1.5295887932974157
-0.17061289890298306 1.5493901642322128
-0.18723503701876634 1.5295887932974157
-0.23710145136611624 1.5592908496996112
-0.20385717513454965 1.5295887932974157
-0.15399076078719975 1.5295887932974157
-0.07088007020828327 1.470184680493025
-0.10412434643984986 1.4503833095582281
-0.13736862267141645 1.4404826240908297
-0.18723503701876634 1.489986051427822
-0.17061289890298306 1.5097874223626189
-0.13736862267141645 1.5295887932974157
-0.05425793209249997 1.5394894787648141
-0.05425793209249997 1.5097874223626189
-0.05425793209249997 1.5097874223626189
-0.08750220832406656 1.5097874223626189
-0.08750220832406656 1.5394894787648141
-0.02101365586093337 1.579092220634408
-0.004391517745150069 1.5592908496996112
-0.004391517745150069 1.5592908496996112
-0.03763579397671667 1.5493901642322128
-0.03763579397671667 1.5691915351670096
-0.004391517745150069 1.5691915351670096
0.07871917283376642 1.5592908496996112
0.12858558718111632 1.5097874223626189
0.11196344906533302 1.489986051427822
0.11196344906533302 1.489986051427822
0.07871917283376642 1.489986051427822
0.045474896602199825 1.4998867368952205
0.09534131094954972 1.5295887932974157
0.12858558718111632 1.5691915351670096
0.12858558718111632 1.5988935915692049
0.14520772529689963 1.5592908496996112
0.12858558718111632 1.4404826240908297
0.2116962777600328 1.4305819386234313
0.24494055399159942 1.4503833095582281
0.3114291064547326 1.4404826240908297
0.3280512445705159 1.4404826240908297
0.3114291064547326 1.4206812531560327
0.3446733826862992 1.4305819386234313
0.3114291064547326 1.470184680493025
0.3945397970336491 1.4800853659604234
0.3945397970336491 1.489986051427822
0.42778407326521567 1.3909791967538374
0.3945397970336491 1.2919723420798528
0.3779176589178658 1.2523696002102591
0.3779176589178658 1.2622702856776575
0.444406211380999 1.2919723420798528
0.5275169019599155 1.3315750839494467
0.4942726257283489 1.3018730275472514
0.5108947638441322 1.2919723420798528
0.47765048761256557 1.2919723420798528
0.444406211380999 1.2820716566124544
0.5275169019599155 1.272170971145056
0.5940054544230486 1.232568229275462
0.5275169019599155 1.272170971145056
0.5108947638441322 1.2622702856776575
0.5441390400756988 1.2226675438080636
0.5607611781914821 1.163263431003673
0.6272497306546153 1.1137600036666806
0.6438718687703986 1.1236606891340792
0.5940054544230486 1.1335613746014777
0.5607611781914821 1.1137600036666806
0.5441390400756988 1.1038593181992822
0.5275169019599155 1.1137600036666806
0.5773833163072654 1.163263431003673
0.5940054544230486 1.1533627455362745
0.5773833163072654 1.2028661728732668
0.5441390400756988 1.232568229275462
0.5441390400756988 1.2127668583406652
0.5607611781914821 1.18306480193847
0.610627592538832 1.1236606891340792
0.6272497306546153 1.1236606891340792
0.610627592538832 1.1335613746014777
0.5773833163072654 1.1533627455362745
0.47765048761256557 1.1929654874058684
0.4942726257283489 1.2622702856776575
0.5275169019599155 1.3216743984820483
0.5275169019599155 1.3315750839494467
0.6272497306546153 1.2424689147428607
0.5441390400756988 1.1335613746014777
0.5108947638441322 1.0840579472644853
0.4610283494967823 1.1335613746014777
0.5108947638441322 1.1731641164710713
0.4942726257283489 1.18306480193847
0.5275169019599155 1.1929654874058684
0.444406211380999 1.1731641164710713
0.444406211380999 1.1533627455362745
0.4111619351494324 1.1533627455362745
0.42778407326521567 1.1533627455362745
0.4942726257283489 1.1335613746014777
0.4610283494967823 1.1533627455362745
0.3945397970336491 1.1335613746014777
0.3446733826862992 1.1533627455362745
0.3446733826862992 1.2127668583406652
0.3945397970336491 1.2226675438080636
0.42778407326521567 1.18306480193847
0.3612955208020825 1.163263431003673
0.3280512445705159 1.1236606891340792
0.278184830223166 1.1533627455362745
0.2283184158758161 1.163263431003673
0.24494055399159942 1.2127668583406652
0.2948069683389493 1.2028661728732668
0.2615626921073827 1.2424689147428607
0.2283184158758161 1.2127668583406652
0.1618298634126829 1.1929654874058684
0.14520772529689963 1.2028661728732668
0.1618298634126829 1.2127668583406652
0.11196344906533302 1.2028661728732668
0.12858558718111632 1.2127668583406652
0.17845200152846621 1.143462060068876
0.1618298634126829 1.074157261797087
0.19507413964424952 1.0543558908622899
0.19507413964424952 1.1038593181992822
0.24494055399159942 1.1236606891340792
0.17845200152846621 1.1335613746014777
0.14520772529689963 1.1137600036666806
0.07871917283376642 1.1038593181992822
0.028852758486416528 1.1335613746014777
0.06209703471798313 1.1929654874058684
0.07871917283376642 1.2127668583406652
0.06209703471798313 1.2127668583406652
0.09534131094954972 1.2127668583406652
0.045474896602199825 1.18306480193847
0.09534131094954972 1.163263431003673
0.07871917283376642 1.1533627455362745
0.09534131094954972 1.1137600036666806
0.07871917283376642 1.1236606891340792
0.045474896602199825 1.143462060068876
-0.02101365586093337 1.1236606891340792
-0.004391517745150069 1.1038593181992822
0.09534131094954972 1.074157261797087
0.1618298634126829 1.0444552053948915
0.1618298634126829 1.0147531489926962
0.11196344906533302 1.0048524635252978
0.045474896602199825 1.034554519927493
0.045474896602199825 1.074157261797087
0.06209703471798313 1.143462060068876
0.07871917283376642 1.2028661728732668
0.11196344906533302 1.1929654874058684
0.07871917283376642 1.0840579472644853
0.1618298634126829 0.9751504071231023
0.17845200152846621 0.9652497216557039
0.19507413964424952 1.0147531489926962
0.2116962777600328 1.0444552053948915
0.19507413964424952 1.0246538344600946
0.2116962777600328 0.9949517780578992
0.14520772529689963 1.0147531489926962
0.17845200152846621 1.0246538344600946
0.24494055399159942 1.0543558908622899
0.2615626921073827 1.0642565763296885
0.24494055399159942 1.0444552053948915
0.2283184158758161 1.0147531489926962
0.2116962777600328 1.0048524635252978
0.2116962777600328 1.034554519927493
0.24494055399159942 1.0543558908622899
0.2283184158758161 1.0642565763296885
0.17845200152846621 1.0939586327318838
0.1618298634126829 1.1236606891340792
0.2116962777600328 1.1335613746014777
0.24494055399159942 1.1038593181992822
0.3280512445705159 1.0642565763296885
0.3612955208020825 1.0147531489926962
0.3446733826862992 1.0048524635252978
0.278184830223166 1.0246538344600946
0.2283184158758161 1.074157261797087
0.2116962777600328 1.143462060068876
0.2948069683389493 1.1038593181992822
0.3280512445705159 1.0444552053948915
0.3779176589178658 0.9652497216557039
0.2948069683389493 0.9355476652535085
0.24494055399159942 0.9850510925905008
0.278184830223166 1.0246538344600946
0.3779176589178658 1.0444552053948915
0.3779176589178658 1.0444552053948915
0.3114291064547326 1.0543558908622899
0.24494055399159942 1.0147531489926962
0.24494055399159942 0.9949517780578992
0.278184830223166 0.9751504071231023
0.3446733826862992 1.0246538344600946
0.3779176589178658 1.034554519927493
0.3779176589178658 1.0444552053948915
0.3280512445705159 0.9850510925905008
0.2948069683389493 0.9553490361883055
0.3280512445705159 0.9949517780578992
0.3446733826862992 1.0048524635252978
0.3612955208020825 0.9949517780578992
0.3779176589178658 1.0048524635252978
0.3612955208020825 0.9850510925905008
0.278184830223166 0.9850510925905008
0.278184830223166 0.9850510925905008
0.3114291064547326 1.0048524635252978
0.3612955208020825 1.034554519927493
0.3280512445705159 1.034554519927493
0.278184830223166 1.0048524635252978
0.2615626921073827 1.0147531489926962
0.278184830223166 1.0147531489926962
0.3612955208020825 1.034554519927493
0.3945397970336491 1.0147531489926962
0.3612955208020825 0.9850510925905008
0.3612955208020825 0.9652497216557039
0.2948069683389493 0.9751504071231023
0.3114291064547326 1.0246538344600946
0.3612955208020825 1.0246538344600946
0.3945397970336491 1.034554519927493
0.3779176589178658 1.0543558908622899
0.3612955208020825 0.9949517780578992
0.3446733826862992 0.9850510925905008
0.3945397970336491 1.0147531489926962
0.42778407326521567 1.0444552053948915
0.4610283494967823 1.0840579472644853
0.5108947638441322 1.1335613746014777
0.5275169019599155 1.1533627455362745
0.5441390400756988 1.1038593181992822
0.5607611781914821 1.0543558908622899
0.5940054544230486 1.0543558908622899
0.6604940068861819 1.074157261797087
0.6937382831177484 1.1137600036666806
0.6604940068861819 1.0939586327318838
0.6937382831177484 1.0939586327318838
0.7436046974650984 1.1038593181992822
0.8100932499282316 1.1533627455362745
0.8433375261597982 1.1731641164710713
0.8100932499282316 1.1731641164710713
0.893203940507148 1.143462060068876
0.9098260786229313 1.1038593181992822
1.0095589073176312 1.0444552053948915
1.0428031835491978 1.0147531489926962
1.059425321664981 1.0642565763296885
1.0926695978965477 1.0642565763296885
1.1259138741281143 1.0642565763296885
1.1425360122438974 1.0840579472644853
1.1591581503596808 1.1038593181992822
1.1425360122438974 1.1236606891340792
1.0926695978965477 1.1038593181992822
1.0428031835491978 1.0642565763296885
0.8433375261597982 1.0543558908622899
0.6937382831177484 1.034554519927493
0.5773833163072654 1.0642565763296885
0.47765048761256557 1.0939586327318838
0.3779176589178658 1.0642565763296885
0.278184830223166 1.0543558908622899
0.1618298634126829 1.0444552053948915
0.17845200152846621 1.0642565763296885
0.17845200152846621 1.0543558908622899
0.24494055399159942 1.0444552053948915
0.24494055399159942 1.0840579472644853
0.1618298634126829 1.0840579472644853
0.09534131094954972 1.1038593181992822
0.09534131094954972 1.0840579472644853
0.12858558718111632 1.0444552053948915
0.12858558718111632 0.9949517780578992
0.19507413964424952 0.9850510925905008
0.2116962777600328 0.9850510925905008
0.17845200152846621 0.9751504071231023
0.12858558718111632 0.9850510925905008
0.09534131094954972 1.034554519927493
0.19507413964424952 1.0543558908622899
0.17845200152846621 1.0543558908622899
0.2283184158758161 1.0543558908622899
0.2283184158758161 1.0444552053948915
0.17845200152846621 1.0642565763296885
0.17845200152846621 1.0642565763296885
0.1618298634126829 1.0840579472644853
0.19507413964424952 1.0642565763296885
0.2116962777600328 1.074157261797087
0.17845200152846621 1.034554519927493
0.19507413964424952 1.034554519927493
0.19507413964424952 1.0444552053948915
0.19507413964424952 1.0543558908622899
0.2116962777600328 1.0444552053948915
0.2116962777600328 1.034554519927493
0.2283184158758161 1.034554519927493
0.1618298634126829 1.034554519927493
0.1618298634126829 1.0444552053948915
0.12858558718111632 1.0840579472644853
0.14520772529689963 1.1236606891340792
0.14520772529689963 1.1038593181992822
0.12858558718111632 0.9949517780578992
0.09534131094954972 0.8563421815143208
0.12858558718111632 0.7672360123077347
0.3114291064547326 0.6682291576337502
0.610627592538832 0.509818190155375
1.0428031835491978 0.2226983116008198
1.45835663644378 -0.16342842162771992
1.9237765036857126 -0.579257211258455
2.222974989769812 -0.8960791462152056
2.2395971278855953 -0.9752846299543931
2.2063528516540285 -0.9356818880847994
2.3725742328118615 -0.8960791462152056
2.5554177520854777 -0.9158805171500024
2.6883948570117444 -0.9356818880847994
2.8047498238222275 -0.8663770898130102
2.9377269287484937 -0.7574695496716272
3.07070403367476 -0.688164751399838
3.236925414832593 -0.6287606385954473
3.3699025197588597 -0.6386613240628457
3.386524657874643 -0.5891578967258535
3.353280381643076 -0.5198530984540642
3.2036811386010267 -0.42084624378007973
2.8878605144011438 -0.3515414455082906
2.3227078184645116 -0.2822366472365014
1.774177260643663 -0.2129318489647122
1.2921352552859473 -0.16342842162771992
0.7934711118124482 -0.06442156695373538
0.14520772529689963 0.06428734412244452
-0.503055661218649 0.19299625519862443
-1.0515862190394978 0.3415065372096012
-1.3674068432393807 0.4405133918835858
-1.500383948165647 0.5494209320249688
-1.3674068432393807 0.6682291576337502
-1.1180747715026311 0.7672360123077347
-0.9352312522290148 0.9058456088513132
-0.8188762854185317 0.9949517780578992
-0.7690098710711818 1.0543558908622899
-0.6858991804922653 1.1335613746014777
-0.6027884899133488 1.232568229275462
-0.45318924687129913 1.3315750839494467
-0.35345641817659934 1.3909791967538374
-0.28696786571346616 1.4107805676886342
-0.30359000382924944 1.4206812531560327
-0.38670069440816596 1.4206812531560327
-0.43656710875551585 1.4800853659604234
-0.4199449706397325 1.489986051427822
-0.38670069440816596 1.5295887932974157
-0.28696786571346616 1.5196881078300173
-0.30359000382924944 1.4800853659604234
-0.3700785562923826 1.5097874223626189
-0.4698113849870824 1.5097874223626189
-0.48643352310286575 1.5394894787648141
-0.4698113849870824 1.5493901642322128
-0.48643352310286575 1.5394894787648141
-0.5196777993344324 1.5691915351670096
-0.5695442136817822 1.5493901642322128
-0.48643352310286575 1.579092220634408
-0.48643352310286575 1.6087942770366035
-0.40332283252394924 1.618694962504002
-0.38670069440816596 1.579092220634408
-0.48643352310286575 1.5295887932974157
-0.5196777993344324 1.5097874223626189
-0.48643352310286575 1.5394894787648141
-0.4698113849870824 1.5592908496996112
-0.503055661218649 1.579092220634408
-0.5695442136817822 1.5889929061018064
-0.6027884899133488 1.5493901642322128
-0.6027884899133488 1.579092220634408
-0.6027884899133488 1.5889929061018064
-0.6360327661449154 1.6087942770366035
-0.6526549042606987 1.6087942770366035
-0.6526549042606987 1.579092220634408
-0.719143456723832 1.5493901642322128
-0.669277042376482 1.5592908496996112
-0.719143456723832 1.579092220634408
-0.6194106280291322 1.579092220634408
-0.5695442136817822 1.579092220634408
-0.5362999374502156 1.5691915351670096
-0.5362999374502156 1.5394894787648141
-0.6194106280291322 1.5196881078300173
-0.669277042376482 1.5493901642322128
-0.6194106280291322 1.5493901642322128
-0.5861663517975655 1.5493901642322128
-0.6027884899133488 1.579092220634408
-0.6526549042606987 1.5493901642322128
-0.719143456723832 1.5295887932974157
-0.719143456723832 1.5691915351670096
-0.669277042376482 1.5889929061018064
-0.6526549042606987 1.579092220634408
-0.6194106280291322 1.5592908496996112
-0.6194106280291322 1.5394894787648141
-0.6360327661449154 1.5394894787648141
-0.5861663517975655 1.5295887932974157
-0.5362999374502156 1.5394894787648141
-0.5695442136817822 1.5295887932974157
-0.6194106280291322 1.5295887932974157
-0.6360327661449154 1.489986051427822
-0.6027884899133488 1.470184680493025
-0.5529220755659989 1.4998867368952205
-0.5695442136817822 1.5196881078300173
-0.5695442136817822 1.4800853659604234
-0.5529220755659989 1.5097874223626189
-0.503055661218649 1.4800853659604234
-0.5196777993344324 1.4503833095582281
-0.503055661218649 1.4503833095582281
-0.48643352310286575 1.4602839950256266
-0.4698113849870824 1.4404826240908297
-0.48643352310286575 1.4305819386234313
-0.48643352310286575 1.4404826240908297
-0.4698113849870824 1.4206812531560327
-0.3700785562923826 1.4305819386234313
-0.35345641817659934 1.4404826240908297
-0.4199449706397325 1.4107805676886342
-0.48643352310286575 1.4008798822212358
-0.4698113849870824 1.3513764548842435
-0.4199449706397325 1.3513764548842435
-0.3202121419450327 1.3513764548842435
-0.28696786571346616 1.361277140351642
-0.25372358948189955 1.3513764548842435
-0.23710145136611624 1.3513764548842435
-0.27034572759768283 1.3018730275472514
-0.27034572759768283 1.2919723420798528
-0.25372358948189955 1.2919723420798528
-0.18723503701876634 1.3117737130146498
-0.12074648455563317 1.2622702856776575
-0.10412434643984986 1.2622702856776575
-0.15399076078719975 1.2424689147428607
-0.20385717513454965 1.2127668583406652
-0.13736862267141645 1.2424689147428607
-0.12074648455563317 1.2424689147428607
-0.07088007020828327 1.2622702856776575
-0.05425793209249997 1.2127668583406652
-0.02101365586093337 1.163263431003673
-0.02101365586093337 1.163263431003673
-0.004391517745150069 1.1533627455362745
-0.004391517745150069 1.1533627455362745
0.012230620370633228 1.143462060068876
0.028852758486416528 1.1236606891340792
-0.004391517745150069 1.0939586327318838
-0.02101365586093337 1.074157261797087
-0.12074648455563317 1.1038593181992822
-0.08750220832406656 1.1038593181992822
-0.07088007020828327 1.1038593181992822
-0.07088007020828327 1.1038593181992822
-0.02101365586093337 1.1137600036666806
-0.08750220832406656 1.1038593181992822
-0.03763579397671667 1.034554519927493
-0.02101365586093337 1.0048524635252978
-0.02101365586093337 0.9949517780578992
-0.03763579397671667 0.9949517780578992
-0.15399076078719975 0.9751504071231023
-0.25372358948189955 0.9850510925905008
-0.27034572759768283 1.0246538344600946
-0.20385717513454965 1.0642565763296885
-0.13736862267141645 1.0642565763296885
-0.03763579397671667 1.0246538344600946
-0.004391517745150069 0.9949517780578992
-0.10412434643984986 0.9850510925905008
-0.12074648455563317 0.9850510925905008
-0.23710145136611624 1.034554519927493
-0.23710145136611624 1.0147531489926962
-0.22047931325033296 1.034554519927493
-0.17061289890298306 0.9751504071231023
-0.17061289890298306 1.0048524635252978
-0.23710145136611624 1.0147531489926962
-0.35345641817659934 1.0048524635252978
-0.4199449706397325 1.0048524635252978
-0.4698113849870824 0.9949517780578992
-0.45318924687129913 0.9850510925905008
-0.27034572759768283 0.9949517780578992
-0.17061289890298306 0.9949517780578992
-0.15399076078719975 1.034554519927493
-0.23710145136611624 1.0246538344600946
-0.3202121419450327 1.0246538344600946
-0.4199449706397325 1.0048524635252978
-0.5196777993344324 0.9850510925905008
-0.5362999374502156 0.9949517780578992
-0.5196777993344324 1.0246538344600946
-0.503055661218649 1.0246538344600946
-0.4698113849870824 0.9949517780578992
-0.38670069440816596 0.9652497216557039
-0.4199449706397325 0.9355476652535085
-0.48643352310286575 0.9553490361883055
-0.48643352310286575 0.9850510925905008
-0.45318924687129913 0.9652497216557039
-0.5695442136817822 0.9652497216557039
-0.6858991804922653 0.9454483507209069
-0.6360327661449154 0.9454483507209069
-0.4698113849870824 0.9157462943187116
-0.40332283252394924 0.8959449233839147
-0.3700785562923826 0.8464414960469224
-0.48643352310286575 0.7573353268403363
-0.5362999374502156 0.6187257302967579
-0.5861663517975655 0.5692223029597657
-0.5362999374502156 0.6286264157641565
-0.43656710875551585 0.6682291576337502
-0.48643352310286575 0.6583284721663518
-0.5861663517975655 0.6385271012315549
-0.7025213186080486 0.5791229884271641
-0.7523877329553985 0.5890236738945626
-0.6526549042606987 0.6286264157641565
-0.6027884899133488 0.6682291576337502
-0.6027884899133488 0.6682291576337502
-0.6027884899133488 0.5197188756227734
-0.669277042376482 0.4306127064161873
-0.6360327661449154 0.4108113354813904
-0.5695442136817822 0.48011613375317963
-0.5362999374502156 0.509818190155375
-0.5529220755659989 0.47021544828578116
-0.5861663517975655 0.4306127064161873
-0.6027884899133488 0.4207120209487889
-0.6027884899133488 0.40091065001399195
-0.5695442136817822 0.3712085936117966
-0.6194106280291322 0.38110927907919506
-0.6194106280291322 0.3712085936117966
-0.6360327661449154 0.3712085936117966
-0.6526549042606987 0.2424996825356167
-0.7025213186080486 0.04448597318764762
-0.7025213186080486 -0.13372636522552456
-0.7025213186080486 -0.11392499429072765
-0.669277042376482 0.034585287720249165
-0.5529220755659989 0.1335921423942337
-0.5196777993344324 0.14349282786163217
-0.669277042376482 0.12369145692683525
-0.7025213186080486 0.14349282786163217
-0.7357655948396152 0.20289694066602287
-0.669277042376482 0.23259899706821824
-0.5362999374502156 0.20289694066602287
-0.48643352310286575 0.17319488426382754
-0.5362999374502156 0.11379077145943679
-0.6027884899133488 0.15339351332903062
-0.6027884899133488 0.21279762613342135
-0.5196777993344324 0.2524003680030152
-0.38670069440816596 0.2524003680030152
-0.28696786571346616 0.2424996825356167
-0.3202121419450327 0.23259899706821824
-0.4199449706397325 0.30190379534000744
-0.48643352310286575 0.3415065372096012
-0.6027884899133488 0.32170516627480433
-0.6194106280291322 0.29200310987260897
-0.5529220755659989 0.23259899706821824
-0.4199449706397325 0.2623010534704136
-0.43656710875551585 0.31180448080740586
-0.48643352310286575 0.3514072226769997
-0.4698113849870824 0.3514072226769997
-0.4199449706397325 0.38110927907919506
-0.45318924687129913 0.38110927907919506
-0.48643352310286575 0.36130790814439817
-0.45318924687129913 0.3514072226769997
-0.40332283252394924 0.38110927907919506
-0.3700785562923826 0.4306127064161873
-0.45318924687129913 0.4306127064161873
-0.6858991804922653 0.4306127064161873
-0.7357655948396152 0.4108113354813904
-0.6858991804922653 0.4405133918835858
-0.5529220755659989 0.4603147628183827
-0.45318924687129913 0.49001681922057805
-0.40332283252394924 0.4999175046879765
-0.38670069440816596 0.49001681922057805
-0.43656710875551585 0.49001681922057805
-0.4698113849870824 0.4999175046879765
-0.4698113849870824 0.5296195610901718
-0.3700785562923826 0.5494209320249688
-0.27034572759768283 0.5197188756227734
-0.30359000382924944 0.5296195610901718
-0.30359000382924944 0.5296195610901718
-0.28696786571346616 0.5593216174923672
-0.28696786571346616 0.5593216174923672
-0.3700785562923826 0.5890236738945626
-0.40332283252394924 0.5692223029597657
-0.43656710875551585 0.5692223029597657
-0.6194106280291322 0.5890236738945626
-0.6858991804922653 0.6088250448293595
-0.5529220755659989 0.6286264157641565
-0.35345641817659934 0.6286264157641565
-0.40332283252394924 0.6286264157641565
-0.5695442136817822 0.6286264157641565
-0.5529220755659989 0.6682291576337502
-0.3700785562923826 0.6484277866989533
-0.25372358948189955 0.6286264157641565
-0.3202121419450327 0.6088250448293595
-0.3700785562923826 0.5989243593619611
-0.22047931325033296 0.5989243593619611
-0.08750220832406656 0.6187257302967579
-0.15399076078719975 0.6385271012315549
-0.25372358948189955 0.6484277866989533
-0.35345641817659934 0.6781298431011487
-0.35345641817659934 0.6682291576337502
-0.33683428006081606 0.6385271012315549
-0.38670069440816596 0.6484277866989533
-0.3202121419450327 0.6880305285685472
-0.03763579397671667 0.727633270438141
0.2283184158758161 0.7870373832425317
0.24494055399159942 0.9256469797861101
0.06209703471798313 0.9157462943187116
-0.10412434643984986 0.6880305285685472
-0.07088007020828327 0.4405133918835858
0.06209703471798313 0.30190379534000744
0.3280512445705159 0.36130790814439817
0.47765048761256557 0.4405133918835858
0.5108947638441322 0.4603147628183827
0.4610283494967823 0.4603147628183827
0.5275169019599155 0.47021544828578116
0.5441390400756988 0.4603147628183827
0.4610283494967823 0.47021544828578116
0.19507413964424952 0.47021544828578116
-0.004391517745150069 0.4306127064161873
-0.18723503701876634 0.4108113354813904
-0.30359000382924944 0.4108113354813904
-0.27034572759768283 0.45041407735098427
-0.30359000382924944 0.4603147628183827
-0.503055661218649 0.47021544828578116
-0.7357655948396152 0.4405133918835858
-0.7357655948396152 0.4405133918835858
-0.719143456723832 0.36130790814439817
-0.7357655948396152 0.3316058517422028
-0.669277042376482 0.3415065372096012
-0.5861663517975655 0.30190379534000744
-0.7523877329553985 0.2623010534704136
-0.9186091141132315 0.2524003680030152
-1.001719804692148 0.2424996825356167
-0.8687426997658816 0.2722017389378121
-0.7523877329553985 0.2623010534704136
-0.7025213186080486 0.2524003680030152
-0.7856320091869651 0.21279762613342135
-0.9850976665763647 0.18309556973122598
-0.9352312522290148 0.17319488426382754
-0.7523877329553985 0.18309556973122598
-0.7357655948396152 0.19299625519862443
-0.8188762854185317 0.19299625519862443
-0.9352312522290148 0.17319488426382754
-0.9684755284605814 0.18309556973122598
-0.8188762854185317 0.19299625519862443
-0.6858991804922653 0.2524003680030152
-0.6526549042606987 0.2226983116008198
-0.7025213186080486 0.19299625519862443
-0.8022541473027484 0.15339351332903062
-0.8521205616500983 0.1335921423942337
-0.8687426997658816 0.15339351332903062
-0.835498423534315 0.16329419879642906
-0.7523877329553985 0.15339351332903062
-0.7856320091869651 0.12369145692683525
-0.8022541473027484 0.11379077145943679
-0.835498423534315 0.12369145692683525
-0.8687426997658816 0.15339351332903062
-0.9186091141132315 0.15339351332903062
-0.9352312522290148 0.1335921423942337
-0.9352312522290148 0.12369145692683525
-0.8521205616500983 0.1335921423942337
-0.835498423534315 0.08408871505724143
-0.9684755284605814 0.05438665865504607
-1.1180747715026311 0.05438665865504607
-1.0848304952710646 -0.024818825084141564
-0.7357655948396152 -0.13372636522552456
-0.15399076078719975 -0.31193870363869675
0.4610283494967823 -0.5495551548562596
0.9763146310860645 -0.8366750334108148
1.2921352552859473 -1.1534969683675653
1.3586238077490804 -1.3911134195851282
1.275513117170164 -1.5693257579983004
1.1259138741281143 -1.5891271289330973
1.1924024265912474 -1.5891271289330973
1.491600912675347 -1.5495243870635036
1.6910665700647465 -1.5000209597265113
1.7076887081805296 -1.4802195887917144
1.6910665700647465 -1.410914790519925
1.774177260643663 -1.4010141050525267
1.890532227454146 -1.3317093067807375
2.006887194264629 -1.2624045085089484
2.1398642991908954 -1.1831990247697608
2.3227078184645116 -1.1534969683675653
2.505551337738128 -1.143596282900167
2.389196370927645 -1.12379491196537
1.9902650561488457 -1.1336955974327685
1.3253795315175139 -1.054490113693581
0.6937382831177484 -0.9356818880847994
0.17845200152846621 -0.886178460747807
-0.30359000382924944 -0.8663770898130102
-1.0183419428079312 -0.8069729770086195
-1.7995824342497464 -0.7277674932694318
-2.2483801633758955 -0.5990585821932519
-2.3813572683021618 -0.48025035658447046
-2.447845820765295 -0.361442130975689
-2.397979406417945 -0.2822366472365014
-2.231758025260112 -0.252534590834306
