-0.1370207268841129 0.4262889289490038
-0.17063144886554887 0.45397826034431704
-0.12021536589339493 0.48166759173963025
-0.08660464391195898 0.5647355859255699
-0.069799282921241 0.5924249173208832
-0.1370207268841129 0.5093569231349435
-0.17063144886554887 0.39859959755369057
-0.25465825381913876 0.4262889289490038
-0.20424217084698482 0.5647355859255699
-0.12021536589339493 0.5924249173208832
-0.17063144886554887 0.5093569231349435
-0.18743680985626684 0.5093569231349435
-0.23785289282842076 0.4262889289490038
-0.2714636148098567 0.5370462545302568
-0.25465825381913876 0.5924249173208832
-0.18743680985626684 0.6201142487161965
-0.17063144886554887 0.5924249173208832
-0.20424217084698482 0.48166759173963025
-0.25465825381913876 0.4262889289490038
-0.25465825381913876 0.3155316033677508
-0.2210475318377028 0.3432209347630641
-0.18743680985626684 0.4262889289490038
-0.15382608787483087 0.3432209347630641
-0.18743680985626684 0.3432209347630641
-0.2210475318377028 0.26015294057712435
-0.2882689758005747 0.2878422719724376
-0.20424217084698482 0.39859959755369057
-0.25465825381913876 0.4262889289490038
-0.2210475318377028 0.3709102661583773
-0.2210475318377028 0.3432209347630641
-0.2714636148098567 0.2324636091818111
-0.2714636148098567 0.2324636091818111
-0.25465825381913876 0.3709102661583773
-0.25465825381913876 0.45397826034431704
-0.20424217084698482 0.45397826034431704
-0.20424217084698482 0.45397826034431704
-0.25465825381913876 0.2878422719724376
-0.2714636148098567 0.3155316033677508
-0.2882689758005747 0.3709102661583773
-0.2210475318377028 0.39859959755369057
-0.25465825381913876 0.3709102661583773
-0.32187969778201064 0.3155316033677508
-0.2882689758005747 0.2878422719724376
-0.33868505877272864 0.3155316033677508
-0.33868505877272864 0.3709102661583773
-0.32187969778201064 0.45397826034431704
-0.2882689758005747 0.3432209347630641
-0.25465825381913876 0.2878422719724376
-0.2882689758005747 0.26015294057712435
-0.32187969778201064 0.3155316033677508
-0.2882689758005747 0.39859959755369057
-0.23785289282842076 0.45397826034431704
-0.20424217084698482 0.4262889289490038
-0.25465825381913876 0.3155316033677508
-0.3050743367912927 0.2878422719724376
-0.3891011417448826 0.3432209347630641
-0.3554904197634466 0.3709102661583773
-0.3050743367912927 0.45397826034431704
-0.2714636148098567 0.4262889289490038
-0.32187969778201064 0.3709102661583773
-0.33868505877272864 0.3155316033677508
-0.3722957807541646 0.3709102661583773
-0.33868505877272864 0.4262889289490038
-0.2882689758005747 0.5370462545302568
-0.25465825381913876 0.48166759173963025
-0.2714636148098567 0.4262889289490038
-0.32187969778201064 0.39859959755369057
-0.32187969778201064 0.4262889289490038
-0.3554904197634466 0.5093569231349435
-0.32187969778201064 0.48166759173963025
-0.3050743367912927 0.3709102661583773
-0.32187969778201064 0.3432209347630641
-0.3722957807541646 0.3432209347630641
-0.3891011417448826 0.3432209347630641
-0.3722957807541646 0.3709102661583773
-0.32187969778201064 0.4262889289490038
-0.25465825381913876 0.3709102661583773
-0.2882689758005747 0.2878422719724376
-0.3891011417448826 0.2324636091818111
-0.33868505877272864 0.20477427778649787
-0.33868505877272864 0.3432209347630641
-0.33868505877272864 0.39859959755369057
-0.2714636148098567 0.4262889289490038
-0.2882689758005747 0.3709102661583773
-0.3891011417448826 0.3155316033677508
-0.3722957807541646 0.2324636091818111
-0.32187969778201064 0.26015294057712435
-0.32187969778201064 0.4262889289490038
-0.25465825381913876 0.4262889289490038
-0.3050743367912927 0.3709102661583773
-0.4059065027356005 0.2878422719724376
-0.3554904197634466 0.3155316033677508
-0.3554904197634466 0.3432209347630641
-0.3554904197634466 0.39859959755369057
-0.33868505877272864 0.39859959755369057
-0.3891011417448826 0.26015294057712435
-0.4227118637263185 0.2324636091818111
-0.4059065027356005 0.26015294057712435
-0.3722957807541646 0.3155316033677508
-0.32187969778201064 0.3155316033677508
-0.23785289282842076 0.3432209347630641
-0.3050743367912927 0.3155316033677508
-0.32187969778201064 0.26015294057712435
-0.3554904197634466 0.2878422719724376
-0.3722957807541646 0.3709102661583773
-0.3554904197634466 0.45397826034431704
-0.3722957807541646 0.39859959755369057
-0.3722957807541646 0.3155316033677508
-0.4059065027356005 0.2324636091818111
-0.45632258570775447 0.2324636091818111
-0.4059065027356005 0.26015294057712435
-0.3554904197634466 0.4262889289490038
-0.3722957807541646 0.3155316033677508
-0.3554904197634466 0.26015294057712435
-0.3554904197634466 0.2324636091818111
-0.4227118637263185 0.3432209347630641
-0.3891011417448826 0.3709102661583773
-0.33868505877272864 0.4262889289490038
-0.33868505877272864 0.39859959755369057
-0.3050743367912927 0.39859959755369057
-0.3722957807541646 0.2878422719724376
-0.4227118637263185 0.26015294057712435
-0.3891011417448826 0.3432209347630641
-0.3050743367912927 0.39859959755369057
-0.33868505877272864 0.3709102661583773
-0.3891011417448826 0.3432209347630641
-0.4059065027356005 0.2878422719724376
-0.4059065027356005 0.26015294057712435
-0.3722957807541646 0.3432209347630641
-0.3050743367912927 0.45397826034431704
-0.25465825381913876 0.39859959755369057
-0.32187969778201064 0.2878422719724376
-0.3891011417448826 0.26015294057712435
-0.4731279466984724 0.20477427778649787
-0.4899333076891904 0.26015294057712435
-0.45632258570775447 0.39859959755369057
-0.4059065027356005 0.3709102661583773
-0.4059065027356005 0.3155316033677508
-0.3554904197634466 0.26015294057712435
-0.33868505877272864 0.26015294057712435
-0.3891011417448826 0.26015294057712435
-0.3891011417448826 0.3155316033677508
-0.3554904197634466 0.26015294057712435
-0.4059065027356005 0.17708494639118466
-0.4059065027356005 0.14939561499587142
-0.43951722471703647 0.20477427778649787
-0.4227118637263185 0.2878422719724376
-0.32187969778201064 0.3432209347630641
-0.3722957807541646 0.2878422719724376
-0.4059065027356005 0.20477427778649787
-0.3891011417448826 0.17708494639118466
-0.4227118637263185 0.14939561499587142
-0.4227118637263185 0.20477427778649787
-0.3722957807541646 0.3432209347630641
-0.33868505877272864 0.3432209347630641
-0.32187969778201064 0.2324636091818111
-0.32187969778201064 0.2324636091818111
-0.33868505877272864 0.17708494639118466
-0.3554904197634466 0.3432209347630641
-0.33868505877272864 0.39859959755369057
-0.2882689758005747 0.3709102661583773
-0.3050743367912927 0.3709102661583773
-0.3554904197634466 0.26015294057712435
-0.33868505877272864 0.3155316033677508
-0.32187969778201064 0.3155316033677508
-0.25465825381913876 0.5370462545302568
-0.2210475318377028 0.6201142487161965
-0.17063144886554887 0.5647355859255699
-0.23785289282842076 0.5647355859255699
-0.18743680985626684 0.5370462545302568
-0.18743680985626684 0.5370462545302568
-0.12021536589339493 0.5093569231349435
-0.052993921930523026 0.39859959755369057
-0.10341000490267696 0.3432209347630641
-0.17063144886554887 0.2324636091818111
-0.15382608787483087 0.2324636091818111
-0.10341000490267696 0.2878422719724376
-0.03618856093980505 0.3155316033677508
0.04783824401378483 0.2324636091818111
0.04783824401378483 0.20477427778649787
-0.03618856093980505 0.09401695220524493
-0.019383199949087073 0.0663276208099317
-0.03618856093980505 0.20477427778649787
0.031032883023066855 0.26015294057712435
0.04783824401378483 0.17708494639118466
0.06464360500450281 0.09401695220524493
-0.019383199949087073 -0.04442970477132125
-0.08660464391195898 -0.0721190361666345
-0.069799282921241 -0.016740373376008016
-0.069799282921241 0.03863828941461846
-0.052993921930523026 0.010948958019305222
-0.03618856093980505 0.010948958019305222
-0.15382608787483087 0.010948958019305222
-0.18743680985626684 0.09401695220524493
-0.18743680985626684 0.20477427778649787
-0.23785289282842076 0.17708494639118466
-0.1370207268841129 0.26015294057712435
-0.23785289282842076 0.12170628360055817
-0.3050743367912927 0.09401695220524493
-0.2882689758005747 0.12170628360055817
-0.32187969778201064 0.20477427778649787
-0.2882689758005747 0.2878422719724376
-0.25465825381913876 0.3155316033677508
-0.3050743367912927 0.20477427778649787
-0.3554904197634466 0.14939561499587142
-0.3891011417448826 0.20477427778649787
-0.4227118637263185 0.2878422719724376
-0.33868505877272864 0.3155316033677508
-0.3050743367912927 0.2878422719724376
-0.32187969778201064 0.2324636091818111
-0.32187969778201064 0.14939561499587142
-0.43951722471703647 0.20477427778649787
-0.43951722471703647 0.2324636091818111
-0.3891011417448826 0.3155316033677508
-0.3554904197634466 0.26015294057712435
-0.2882689758005747 0.2324636091818111
-0.33868505877272864 0.20477427778649787
-0.3891011417448826 0.26015294057712435
-0.3554904197634466 0.2878422719724376
-0.32187969778201064 0.3155316033677508
-0.3050743367912927 0.2878422719724376
-0.33868505877272864 0.17708494639118466
-0.33868505877272864 0.14939561499587142
-0.3554904197634466 0.17708494639118466
-0.3722957807541646 0.26015294057712435
-0.2882689758005747 0.3155316033677508
-0.23785289282842076 0.3155316033677508
-0.20424217084698482 0.4262889289490038
-0.25465825381913876 0.5370462545302568
-0.2714636148098567 0.6478035801115097
-0.18743680985626684 0.7308715742974494
-0.12021536589339493 0.7308715742974494
-0.052993921930523026 0.3709102661583773
0.04783824401378483 -0.18287636174788743
0.09825432698593876 -0.7920416524447786
0.23269721491168258 -1.5673429315135494
0.4175561858095803 -2.4257122047682596
0.7536634056239399 -3.3671494722089097
1.0897706254382993 -4.4193440652308125
1.442683206243377 -5.554606652438656
1.7955957870484545 -6.440665257088679
2.198924450825686 -6.911383890809004
2.6358638365843534 -6.800626565227751
3.0223871393708666 -6.496043919879305
3.392105081166662 -5.9145679605777275
3.7450176619717395 -5.25002400709021
4.097930242776817 -4.336276071044873
4.366816018628305 -3.145634821046404
4.232373130702561 -1.9549935710479347
3.8794605498974835 -1.0412456350025978
3.274467554231636 -0.5151483384916463
2.5014209486586094 -0.21056569314320067
1.6947636211041466 -0.2382550245385139
0.9721330985032736 -0.2936336873291404
0.5183883517538882 -0.40439101291039337
0.11505968797665674 -0.3213230187244536
-0.10341000490267696 -0.26594435593382715
-0.23785289282842076 -0.09980836756194773
-0.2714636148098567 0.010948958019305222
-0.23785289282842076 0.09401695220524493
-0.17063144886554887 0.3432209347630641
-0.12021536589339493 0.48166759173963025
-0.15382608787483087 0.45397826034431704
-0.2714636148098567 0.39859959755369057
-0.3722957807541646 0.39859959755369057
-0.43951722471703647 0.4262889289490038
-0.3891011417448826 0.48166759173963025
-0.33868505877272864 0.6478035801115097
-0.3050743367912927 0.5370462545302568
-0.3554904197634466 0.5647355859255699
-0.4227118637263185 0.48166759173963025
-0.45632258570775447 0.5093569231349435
-0.4227118637263185 0.6478035801115097
-0.3722957807541646 0.7308715742974494
-0.32187969778201064 0.6754929115068229
-0.3891011417448826 0.5647355859255699
-0.45632258570775447 0.5647355859255699
-0.5403493906613444 0.5924249173208832
-0.5067386686799084 0.6754929115068229
-0.45632258570775447 0.7308715742974494
-0.3891011417448826 0.6478035801115097
-0.4059065027356005 0.5924249173208832
-0.43951722471703647 0.5370462545302568
-0.4731279466984724 0.5370462545302568
-0.4059065027356005 0.6478035801115097
-0.3891011417448826 0.6201142487161965
-0.3554904197634466 0.6201142487161965
-0.3891011417448826 0.48166759173963025
-0.43951722471703647 0.5093569231349435
-0.45632258570775447 0.5647355859255699
-0.45632258570775447 0.6754929115068229
-0.3891011417448826 0.7308715742974494
-0.3554904197634466 0.7585609056927627
-0.3554904197634466 0.6478035801115097
-0.4227118637263185 0.6201142487161965
-0.4059065027356005 0.5647355859255699
-0.4059065027356005 0.5924249173208832
-0.33868505877272864 0.6201142487161965
-0.2714636148098567 0.5093569231349435
-0.2714636148098567 0.45397826034431704
-0.3050743367912927 0.3709102661583773
-0.32187969778201064 0.5093569231349435
-0.32187969778201064 0.5924249173208832
-0.25465825381913876 0.6201142487161965
-0.20424217084698482 0.5370462545302568
-0.2210475318377028 0.48166759173963025
-0.25465825381913876 0.4262889289490038
-0.25465825381913876 0.45397826034431704
-0.18743680985626684 0.5093569231349435
-0.12021536589339493 0.5647355859255699
-0.069799282921241 0.5093569231349435
-0.069799282921241 0.4262889289490038
-0.12021536589339493 0.4262889289490038
-0.10341000490267696 0.3709102661583773
-0.019383199949087073 0.4262889289490038
0.014227522032348878 0.5924249173208832
0.08144896599522078 0.5093569231349435
0.11505968797665674 0.48166759173963025
0.08144896599522078 0.4262889289490038
0.031032883023066855 0.3709102661583773
0.04783824401378483 0.3709102661583773
0.16547577094881066 0.45397826034431704
0.16547577094881066 0.39859959755369057
0.23269721491168258 0.3155316033677508
0.2831132978838365 0.3432209347630641
0.2999186588745545 0.39859959755369057
0.3839454638281444 0.48166759173963025
0.45116690779101626 0.5093569231349435
0.5351937127446061 0.4262889289490038
0.5519990737353241 0.3155316033677508
0.5351937127446061 0.20477427778649787
0.5519990737353241 0.20477427778649787
0.6192205176981961 0.2324636091818111
0.7200526836425039 0.3432209347630641
0.7704687666146578 0.26015294057712435
0.7368580446332219 0.20477427778649787
0.7032473226517859 0.12170628360055817
0.7200526836425039 0.20477427778649787
0.7704687666146578 0.17708494639118466
0.8376902105775297 0.3155316033677508
0.8881062935496836 0.26015294057712435
0.8881062935496836 0.20477427778649787
0.8376902105775297 0.14939561499587142
0.8040794885960938 0.20477427778649787
0.8208848495868117 0.3432209347630641
0.9553277375125555 0.4262889289490038
0.9049116545404017 0.4262889289490038
0.7704687666146578 0.3432209347630641
0.602415156707478 0.3709102661583773
0.5015829907631701 0.3432209347630641
0.45116690779101626 0.39859959755369057
0.45116690779101626 0.45397826034431704
0.3839454638281444 0.4262889289490038
0.33352938085599043 0.3155316033677508
0.2158918539209646 0.20477427778649787
0.13186504896737472 0.26015294057712435
0.08144896599522078 0.39859959755369057
0.09825432698593876 0.4262889289490038
0.06464360500450281 0.3709102661583773
0.014227522032348878 0.3432209347630641
-0.15382608787483087 0.2324636091818111
-0.2210475318377028 0.26015294057712435
-0.15382608787483087 0.39859959755369057
-0.15382608787483087 0.5093569231349435
-0.17063144886554887 0.4262889289490038
-0.3050743367912927 0.3709102661583773
-0.45632258570775447 0.2878422719724376
-0.45632258570775447 0.3155316033677508
-0.4059065027356005 0.39859959755369057
-0.4059065027356005 0.39859959755369057
-0.33868505877272864 0.39859959755369057
-0.4227118637263185 0.3155316033677508
-0.4731279466984724 0.26015294057712435
-0.4731279466984724 0.39859959755369057
-0.45632258570775447 0.5093569231349435
-0.43951722471703647 0.5924249173208832
-0.45632258570775447 0.5093569231349435
-0.5067386686799084 0.45397826034431704
-0.5571547516520623 0.4262889289490038
-0.6243761956149342 0.3709102661583773
-0.5739601126427804 0.4262889289490038
-0.5403493906613444 0.45397826034431704
-0.4731279466984724 0.48166759173963025
-0.5067386686799084 0.48166759173963025
-0.4899333076891904 0.3709102661583773
-0.5403493906613444 0.39859959755369057
-0.5235440296706264 0.4262889289490038
-0.5571547516520623 0.5093569231349435
-0.4899333076891904 0.5093569231349435
-0.43951722471703647 0.48166759173963025
-0.4731279466984724 0.39859959755369057
-0.5235440296706264 0.45397826034431704
-0.5067386686799084 0.5370462545302568
-0.5067386686799084 0.5370462545302568
-0.4899333076891904 0.5093569231349435
-0.4731279466984724 0.4262889289490038
-0.4899333076891904 0.39859959755369057
-0.5403493906613444 0.48166759173963025
-0.5235440296706264 0.6478035801115097
-0.4899333076891904 0.6754929115068229
-0.45632258570775447 0.6478035801115097
-0.43951722471703647 0.5370462545302568
-0.4899333076891904 0.5370462545302568
-0.5739601126427804 0.5370462545302568
-0.4899333076891904 0.5647355859255699
-0.4899333076891904 0.6754929115068229
-0.45632258570775447 0.6478035801115097
-0.5067386686799084 0.5924249173208832
-0.5403493906613444 0.48166759173963025
-0.5571547516520623 0.5370462545302568
-0.5403493906613444 0.5093569231349435
-0.4899333076891904 0.5093569231349435
-0.43951722471703647 0.4262889289490038
-0.4227118637263185 0.39859959755369057
-0.5235440296706264 0.3709102661583773
-0.5907654736334983 0.45397826034431704
-0.5907654736334983 0.48166759173963025
-0.5067386686799084 0.5370462545302568
-0.5403493906613444 0.48166759173963025
-0.5235440296706264 0.45397826034431704
-0.5907654736334983 0.45397826034431704
-0.6075708346242162 0.48166759173963025
-0.6411815566056522 0.48166759173963025
-0.6075708346242162 0.5093569231349435
-0.6075708346242162 0.5093569231349435
-0.6075708346242162 0.5093569231349435
-0.6075708346242162 0.3709102661583773
-0.6915976395778062 0.39859959755369057
-0.6579869175963702 0.48166759173963025
-0.6075708346242162 0.5093569231349435
-0.6411815566056522 0.5370462545302568
-0.6579869175963702 0.5093569231349435
-0.6075708346242162 0.48166759173963025
-0.6747922785870881 0.48166759173963025
-0.7252083615592421 0.5370462545302568
-0.6747922785870881 0.5647355859255699
-0.6411815566056522 0.5370462545302568
-0.6579869175963702 0.45397826034431704
-0.7084030005685241 0.3709102661583773
-0.7084030005685241 0.39859959755369057
-0.6747922785870881 0.5370462545302568
-0.6411815566056522 0.6478035801115097
-0.5907654736334983 0.5370462545302568
-0.6915976395778062 0.4262889289490038
-0.7588190835406781 0.2878422719724376
-0.7588190835406781 0.3432209347630641
-0.74201372254996 0.4262889289490038
-0.7084030005685241 0.45397826034431704
-0.6579869175963702 0.39859959755369057
-0.7252083615592421 0.2878422719724376
-0.7588190835406781 0.2878422719724376
-0.82604052750355 0.3709102661583773
-0.792429805522114 0.48166759173963025
-0.7588190835406781 0.5647355859255699
-0.74201372254996 0.48166759173963025
-0.7588190835406781 0.4262889289490038
-0.82604052750355 0.3155316033677508
-0.82604052750355 0.3709102661583773
-0.792429805522114 0.4262889289490038
-0.74201372254996 0.5093569231349435
-0.6747922785870881 0.4262889289490038
-0.7252083615592421 0.3709102661583773
-0.792429805522114 0.3709102661583773
-0.809235166512832 0.3432209347630641
-0.775624444531396 0.45397826034431704
-0.7252083615592421 0.5093569231349435
-0.7252083615592421 0.5647355859255699
-0.7588190835406781 0.5093569231349435
-0.8764566104757039 0.39859959755369057
-0.8428458884942679 0.48166759173963025
-0.8764566104757039 0.48166759173963025
-0.792429805522114 0.5647355859255699
-0.775624444531396 0.5370462545302568
-0.809235166512832 0.45397826034431704
-0.9268726934478578 0.39859959755369057
-0.8932619714664218 0.3155316033677508
-0.8428458884942679 0.39859959755369057
-0.7588190835406781 0.48166759173963025
-0.7252083615592421 0.48166759173963025
-0.775624444531396 0.39859959755369057
-0.809235166512832 0.3709102661583773
-0.809235166512832 0.3709102661583773
-0.859651249484986 0.39859959755369057
-0.82604052750355 0.5093569231349435
-0.775624444531396 0.4262889289490038
-0.8428458884942679 0.3709102661583773
-0.8932619714664218 0.26015294057712435
-0.9436780544385758 0.2878422719724376
-0.8764566104757039 0.3432209347630641
-0.82604052750355 0.48166759173963025
-0.7588190835406781 0.4262889289490038
-0.8428458884942679 0.3709102661583773
-0.82604052750355 0.2878422719724376
-0.859651249484986 0.3155316033677508
-0.8932619714664218 0.48166759173963025
-0.82604052750355 0.5370462545302568
-0.775624444531396 0.48166759173963025
-0.82604052750355 0.48166759173963025
-0.859651249484986 0.4262889289490038
-0.859651249484986 0.45397826034431704
-0.8428458884942679 0.5093569231349435
-0.792429805522114 0.5924249173208832
-0.792429805522114 0.5370462545302568
-0.859651249484986 0.3709102661583773
-0.8764566104757039 0.3709102661583773
-0.8764566104757039 0.4262889289490038
-0.8428458884942679 0.4262889289490038
-0.809235166512832 0.5370462545302568
-0.775624444531396 0.5370462545302568
-0.792429805522114 0.45397826034431704
-0.8764566104757039 0.3432209347630641
-0.859651249484986 0.3709102661583773
-0.8764566104757039 0.3709102661583773
-0.8932619714664218 0.45397826034431704
-0.8764566104757039 0.4262889289490038
-0.8428458884942679 0.3709102661583773
-0.9100673324571398 0.3155316033677508
-0.9436780544385758 0.3432209347630641
-0.9268726934478578 0.3709102661583773
-0.9268726934478578 0.48166759173963025
-0.8764566104757039 0.45397826034431704
-0.8764566104757039 0.3432209347630641
-0.9436780544385758 0.2878422719724376
-0.9436780544385758 0.3709102661583773
-0.8932619714664218 0.4262889289490038
-0.859651249484986 0.5924249173208832
-0.82604052750355 0.5370462545302568
-0.8764566104757039 0.5093569231349435
-0.9268726934478578 0.48166759173963025
-0.9772887764200118 0.39859959755369057
-0.9772887764200118 0.4262889289490038
-0.8932619714664218 0.48166759173963025
-0.8764566104757039 0.45397826034431704
-0.8764566104757039 0.4262889289490038
-0.9436780544385758 0.3709102661583773
-0.9772887764200118 0.3432209347630641
-0.9604834154292937 0.39859959755369057
-0.9268726934478578 0.48166759173963025
-0.8764566104757039 0.39859959755369057
-0.9268726934478578 0.4262889289490038
-0.9772887764200118 0.3155316033677508
-0.9772887764200118 0.39859959755369057
-0.8764566104757039 0.45397826034431704
-0.82604052750355 0.5093569231349435
-0.809235166512832 0.48166759173963025
-0.792429805522114 0.4262889289490038
-0.859651249484986 0.4262889289490038
-0.9268726934478578 0.4262889289490038
-0.9100673324571398 0.5370462545302568
-0.8428458884942679 0.6754929115068229
-0.809235166512832 0.7031822429021362
-0.792429805522114 0.7585609056927627
-0.792429805522114 0.7862502370880758
-0.7588190835406781 0.7308715742974494
-0.6915976395778062 0.8139395684833891
-0.6915976395778062 0.8139395684833891
-0.6411815566056522 0.5924249173208832
-0.5907654736334983 0.5093569231349435
-0.6243761956149342 0.3432209347630641
-0.6243761956149342 0.3709102661583773
-0.5907654736334983 0.45397826034431704
-0.4899333076891904 0.5924249173208832
-0.4899333076891904 0.48166759173963025
-0.45632258570775447 0.5093569231349435
-0.5235440296706264 0.3155316033677508
-0.5739601126427804 0.2878422719724376
-0.5907654736334983 0.2878422719724376
-0.5739601126427804 0.3709102661583773
-0.5403493906613444 0.3155316033677508
-0.6075708346242162 0.20477427778649787
-0.6411815566056522 0.14939561499587142
-0.6411815566056522 0.14939561499587142
-0.6747922785870881 0.2324636091818111
-0.6411815566056522 0.3432209347630641
-0.6747922785870881 0.3709102661583773
-0.74201372254996 0.3709102661583773
-0.7252083615592421 0.3155316033677508
-0.775624444531396 0.3709102661583773
-0.775624444531396 0.4262889289490038
-0.7252083615592421 0.4262889289490038
-0.7588190835406781 0.39859959755369057
-0.8428458884942679 0.3155316033677508
-0.9268726934478578 0.26015294057712435
-0.9940941374107297 0.26015294057712435
-1.0108994984014477 0.4262889289490038
-0.9772887764200118 0.48166759173963025
-0.9436780544385758 0.4262889289490038
-0.9604834154292937 0.3709102661583773
-0.9940941374107297 0.26015294057712435
-0.9604834154292937 0.39859959755369057
-0.9604834154292937 0.39859959755369057
-0.9268726934478578 0.48166759173963025
-0.8932619714664218 0.45397826034431704
-0.9436780544385758 0.48166759173963025
-1.0445102203828835 0.39859959755369057
-1.0781209423643197 0.3432209347630641
-1.0949263033550376 0.4262889289490038
-1.0613155813736017 0.5093569231349435
-1.0277048593921656 0.5093569231349435
-1.0108994984014477 0.48166759173963025
-1.0949263033550376 0.3432209347630641
-1.0949263033550376 0.3709102661583773
-1.0781209423643197 0.5370462545302568
-1.0277048593921656 0.5924249173208832
-0.9940941374107297 0.5093569231349435
-1.0277048593921656 0.39859959755369057
-1.0108994984014477 0.3709102661583773
-1.0108994984014477 0.3709102661583773
-0.9604834154292937 0.5370462545302568
-0.9604834154292937 0.6478035801115097
-0.859651249484986 0.6478035801115097
-0.8764566104757039 0.7031822429021362
-0.8932619714664218 0.6754929115068229
-0.8932619714664218 0.7031822429021362
-0.792429805522114 0.5093569231349435
-0.6411815566056522 0.09401695220524493
-0.4731279466984724 -0.5705270012822727
-0.4227118637263185 -1.4565856059322964
-0.25465825381913876 -2.481090867558886
-0.002577838958369098 -3.4502174663948493
0.35033474184670843 -4.3916547338355
0.7704687666146578 -5.139266681508957
1.207408152373325 -5.9145679605777275
1.6947636211041466 -6.274529268716799
2.114897645872096 -6.163771943135547
2.5014209486586094 -5.748431972205848
2.904749612435841 -5.00082002453239
3.3248836372037904 -4.031693425696427
3.6777962180088677 -2.896430838488585
3.7282123009810215 -1.8996149082573082
3.3584943591852263 -1.2073816233744772
2.6862799195565072 -0.6535949954682124
1.9636493969556341 -0.26594435593382715
1.2410188743547612 -0.09980836756194773
0.5183883517538882 -0.1551870303525742
-0.052993921930523026 -0.21056569314320067
-0.4899333076891904 -0.04442970477132125
-0.7252083615592421 0.09401695220524493
-0.792429805522114 0.3432209347630641
-0.74201372254996 0.5924249173208832
-0.6747922785870881 0.5647355859255699
-0.7588190835406781 0.6201142487161965
-0.859651249484986 0.5370462545302568
-0.9436780544385758 0.5924249173208832
-0.9940941374107297 0.7031822429021362
-0.9604834154292937 0.8139395684833891
-0.9940941374107297 0.7585609056927627
-1.0445102203828835 0.7031822429021362
-1.1285370253364735 0.6478035801115097
-1.1789531083086275 0.7308715742974494
-1.1621477473179094 0.7585609056927627
-1.1621477473179094 0.8970075626693288
-1.0445102203828835 0.7862502370880758
-1.0781209423643197 0.7308715742974494
-1.1957584692993455 0.7031822429021362
-1.2293691912807814 0.7308715742974494
-1.1789531083086275 0.7862502370880758
-1.1621477473179094 0.8693182312740156
-1.1285370253364735 0.8693182312740156
-1.2125638302900634 0.7862502370880758
-1.1957584692993455 0.7308715742974494
-1.2629799132622173 0.8139395684833891
-1.2629799132622173 0.8693182312740156
-1.1789531083086275 0.9800755568552685
-1.1789531083086275 0.9246968940646421
-1.1789531083086275 0.8970075626693288
-1.2965906352436534 0.8139395684833891
-1.3302013572250893 0.8416288998787024
-1.2629799132622173 0.9523862254599553
-1.1957584692993455 1.0631435510412082
-1.1957584692993455 0.9523862254599553
-1.2125638302900634 0.8693182312740156
-1.1957584692993455 0.8139395684833891
-1.1957584692993455 0.7308715742974494
-1.2293691912807814 0.8416288998787024
-1.1453423863271914 0.8693182312740156
-1.0949263033550376 0.8139395684833891
-1.0949263033550376 0.7862502370880758
-1.0949263033550376 0.7308715742974494
-1.1285370253364735 0.8139395684833891
-1.0949263033550376 0.7862502370880758
-0.9940941374107297 0.8416288998787024
-1.0277048593921656 0.7862502370880758
-1.0445102203828835 0.7308715742974494
-1.0445102203828835 0.6478035801115097
-1.0445102203828835 0.6478035801115097
-0.9940941374107297 0.7031822429021362
-0.9100673324571398 0.8139395684833891
-0.859651249484986 0.8139395684833891
-0.9268726934478578 0.7862502370880758
-0.9772887764200118 0.6754929115068229
-0.9436780544385758 0.7308715742974494
-0.859651249484986 0.7585609056927627
-0.809235166512832 0.7862502370880758
-0.775624444531396 0.7308715742974494
-0.7588190835406781 0.7031822429021362
-0.74201372254996 0.6201142487161965
-0.7252083615592421 0.6201142487161965
-0.6579869175963702 0.7031822429021362
-0.5907654736334983 0.7862502370880758
-0.5067386686799084 0.7031822429021362
-0.5067386686799084 0.6201142487161965
-0.5571547516520623 0.5647355859255699
-0.5403493906613444 0.5647355859255699
-0.4899333076891904 0.7031822429021362
-0.3554904197634466 0.6754929115068229
-0.25465825381913876 0.6754929115068229
-0.2714636148098567 0.5924249173208832
-0.33868505877272864 0.5370462545302568
-0.33868505877272864 0.48166759173963025
-0.2882689758005747 0.5093569231349435
-0.20424217084698482 0.5647355859255699
-0.12021536589339493 0.5093569231349435
-0.12021536589339493 0.45397826034431704
-0.12021536589339493 0.4262889289490038
-0.12021536589339493 0.4262889289490038
-0.10341000490267696 0.5370462545302568
-0.002577838958369098 0.5370462545302568
0.031032883023066855 0.5093569231349435
0.08144896599522078 0.4262889289490038
0.06464360500450281 0.39859959755369057
0.04783824401378483 0.48166759173963025
0.08144896599522078 0.48166759173963025
0.09825432698593876 0.45397826034431704
0.09825432698593876 0.5647355859255699
0.031032883023066855 0.4262889289490038
-0.019383199949087073 0.48166759173963025
-0.052993921930523026 0.45397826034431704
-0.10341000490267696 0.45397826034431704
-0.17063144886554887 0.5924249173208832
-0.2210475318377028 0.5370462545302568
-0.3050743367912927 0.48166759173963025
-0.3722957807541646 0.39859959755369057
-0.43951722471703647 0.5093569231349435
-0.4899333076891904 0.5647355859255699
-0.5235440296706264 0.6201142487161965
-0.5403493906613444 0.5924249173208832
-0.6075708346242162 0.5647355859255699
-0.7588190835406781 0.5093569231349435
-0.859651249484986 0.6201142487161965
-0.8932619714664218 0.6201142487161965
-0.859651249484986 0.7031822429021362
-0.8932619714664218 0.7031822429021362
-0.9436780544385758 0.5924249173208832
-1.0613155813736017 0.5647355859255699
-1.1117316643457555 0.5647355859255699
-1.2125638302900634 0.6478035801115097
-1.1621477473179094 0.6754929115068229
-1.0781209423643197 0.5647355859255699
-1.0949263033550376 0.5093569231349435
-1.1453423863271914 0.45397826034431704
-1.1789531083086275 0.5093569231349435
-1.1621477473179094 0.5093569231349435
-1.1285370253364735 0.5924249173208832
-1.1117316643457555 0.5370462545302568
-1.1117316643457555 0.5093569231349435
-1.1789531083086275 0.5370462545302568
-1.1957584692993455 0.5647355859255699
-1.1621477473179094 0.5370462545302568
-1.1621477473179094 0.6754929115068229
-1.1453423863271914 0.6201142487161965
-1.1117316643457555 0.5924249173208832
-1.1957584692993455 0.5093569231349435
-1.2965906352436534 0.5093569231349435
-1.2461745522714993 0.6201142487161965
-1.1789531083086275 0.6478035801115097
-1.1285370253364735 0.6754929115068229
-1.1453423863271914 0.6754929115068229
-1.2125638302900634 0.5370462545302568
-1.2293691912807814 0.6754929115068229
-1.1957584692993455 0.7031822429021362
-1.1453423863271914 0.8416288998787024
-1.1789531083086275 0.8416288998787024
-1.1789531083086275 0.7585609056927627
-1.2965906352436534 0.7308715742974494
-1.3638120792065251 0.7862502370880758
-1.2461745522714993 0.7585609056927627
-1.1621477473179094 0.8693182312740156
-1.1285370253364735 0.8693182312740156
-1.1789531083086275 0.7862502370880758
-1.1453423863271914 0.6754929115068229
-1.2293691912807814 0.6754929115068229
-1.2125638302900634 0.6754929115068229
-1.1453423863271914 0.8139395684833891
-1.0781209423643197 0.7308715742974494
-1.0949263033550376 0.7031822429021362
-1.1453423863271914 0.6201142487161965
-1.1789531083086275 0.6754929115068229
-1.2461745522714993 0.7585609056927627
-1.1117316643457555 0.8416288998787024
-1.0949263033550376 0.7862502370880758
-1.1285370253364735 0.8139395684833891
-1.1957584692993455 0.7031822429021362
-1.2125638302900634 0.7031822429021362
-1.2293691912807814 0.7862502370880758
-1.1957584692993455 0.8139395684833891
-1.1453423863271914 0.8139395684833891
-1.1789531083086275 0.7585609056927627
-1.2293691912807814 0.6754929115068229
-1.2125638302900634 0.6754929115068229
-1.1789531083086275 0.7308715742974494
-1.1117316643457555 0.7862502370880758
-1.1117316643457555 0.6754929115068229
-1.1453423863271914 0.6754929115068229
-1.2461745522714993 0.6478035801115097
-1.2125638302900634 0.7031822429021362
-1.1621477473179094 0.7031822429021362
-1.0949263033550376 0.7862502370880758
-1.0781209423643197 0.7862502370880758
-1.1453423863271914 0.7031822429021362
-1.2293691912807814 0.6754929115068229
-1.2293691912807814 0.6754929115068229
-1.2293691912807814 0.7862502370880758
-1.1957584692993455 0.8139395684833891
-1.1621477473179094 0.8416288998787024
-1.1957584692993455 0.7585609056927627
-1.2629799132622173 0.6754929115068229
-1.2965906352436534 0.5647355859255699
-1.2629799132622173 0.6754929115068229
-1.2125638302900634 0.7031822429021362
-1.1621477473179094 0.6478035801115097
-1.2293691912807814 0.5370462545302568
-1.2461745522714993 0.5370462545302568
-1.2797852742529352 0.6478035801115097
-1.2629799132622173 0.6754929115068229
-1.2629799132622173 0.7862502370880758
-1.2461745522714993 0.7308715742974494
-1.2629799132622173 0.6478035801115097
-1.3133959962343713 0.5647355859255699
-1.380617440197243 0.5924249173208832
-1.3133959962343713 0.6754929115068229
-1.2629799132622173 0.6754929115068229
-1.2461745522714993 0.6754929115068229
-1.2797852742529352 0.6201142487161965
-1.2965906352436534 0.5647355859255699
-1.2965906352436534 0.5647355859255699
-1.2965906352436534 0.5647355859255699
-1.2125638302900634 0.6478035801115097
-1.1957584692993455 0.7031822429021362
-1.1789531083086275 0.6754929115068229
-1.2125638302900634 0.6201142487161965
-1.2797852742529352 0.6754929115068229
-1.2461745522714993 0.7031822429021362
-1.2293691912807814 0.7862502370880758
-1.1957584692993455 0.7862502370880758
-1.1957584692993455 0.7585609056927627
-1.2629799132622173 0.6754929115068229
-1.2797852742529352 0.6754929115068229
-1.2293691912807814 0.6754929115068229
-1.1789531083086275 0.7308715742974494
-1.1621477473179094 0.7031822429021362
-1.1621477473179094 0.6478035801115097
-1.2629799132622173 0.5647355859255699
-1.3470067182158072 0.5924249173208832
-1.3133959962343713 0.6201142487161965
-1.2125638302900634 0.7031822429021362
-1.1621477473179094 0.6201142487161965
-1.2293691912807814 0.5370462545302568
-1.2629799132622173 0.5370462545302568
-1.2797852742529352 0.5647355859255699
-1.2293691912807814 0.6201142487161965
-1.1621477473179094 0.6478035801115097
-1.1453423863271914 0.6478035801115097
-1.1453423863271914 0.5924249173208832
-1.2293691912807814 0.5370462545302568
-1.1957584692993455 0.5924249173208832
-1.2125638302900634 0.5647355859255699
-1.1621477473179094 0.6754929115068229
-1.1621477473179094 0.7031822429021362
-1.1453423863271914 0.6201142487161965
-1.1621477473179094 0.5647355859255699
-1.1285370253364735 0.6201142487161965
-1.1789531083086275 0.6478035801115097
-1.1117316643457555 0.7308715742974494
-1.1285370253364735 0.6754929115068229
-1.1621477473179094 0.5924249173208832
-1.2293691912807814 0.5924249173208832
-1.2629799132622173 0.5647355859255699
-1.2461745522714993 0.6478035801115097
-1.1621477473179094 0.7308715742974494
-1.1117316643457555 0.7585609056927627
-1.1453423863271914 0.7308715742974494
-1.2125638302900634 0.5647355859255699
-1.2293691912807814 0.6478035801115097
-1.2293691912807814 0.7308715742974494
-1.1789531083086275 0.7862502370880758
-1.1957584692993455 0.7585609056927627
-1.2293691912807814 0.6201142487161965
-1.2461745522714993 0.5093569231349435
-1.2965906352436534 0.5647355859255699
-1.2461745522714993 0.6478035801115097
-1.1621477473179094 0.6478035801115097
-1.1453423863271914 0.5924249173208832
-1.1621477473179094 0.5647355859255699
-1.1957584692993455 0.5647355859255699
-1.1621477473179094 0.5647355859255699
-1.1285370253364735 0.6478035801115097
-1.0949263033550376 0.7308715742974494
-1.0949263033550376 0.6478035801115097
-1.1285370253364735 0.6478035801115097
-1.1789531083086275 0.5093569231349435
-1.1957584692993455 0.5370462545302568
-1.1621477473179094 0.5647355859255699
-1.1117316643457555 0.7031822429021362
-1.0781209423643197 0.7308715742974494
-1.0949263033550376 0.6754929115068229
-1.1117316643457555 0.5647355859255699
-1.1453423863271914 0.6478035801115097
-1.1621477473179094 0.6478035801115097
-1.1453423863271914 0.6754929115068229
-1.1285370253364735 0.7031822429021362
-1.1453423863271914 0.6478035801115097
-1.1453423863271914 0.5924249173208832
-1.1621477473179094 0.6754929115068229
-1.1285370253364735 0.7308715742974494
-1.1621477473179094 0.7862502370880758
-1.1789531083086275 0.7031822429021362
-1.1957584692993455 0.5647355859255699
-1.1789531083086275 0.5647355859255699
-1.1621477473179094 0.5924249173208832
-1.1285370253364735 0.6478035801115097
-1.0949263033550376 0.7031822429021362
-1.0445102203828835 0.6478035801115097
-1.0781209423643197 0.6201142487161965
-1.1117316643457555 0.5370462545302568
-1.1285370253364735 0.5647355859255699
-1.1285370253364735 0.6754929115068229
-1.0781209423643197 0.6478035801115097
-1.0781209423643197 0.6478035801115097
-1.0277048593921656 0.5647355859255699
-1.0781209423643197 0.5370462545302568
-1.1117316643457555 0.5370462545302568
-1.0613155813736017 0.5924249173208832
-1.0108994984014477 0.6754929115068229
-0.9772887764200118 0.6754929115068229
-0.9604834154292937 0.6754929115068229
-1.0277048593921656 0.5647355859255699
-1.0613155813736017 0.5924249173208832
-1.0445102203828835 0.6201142487161965
-1.0108994984014477 0.7308715742974494
-0.9772887764200118 0.7585609056927627
-0.8932619714664218 0.8416288998787024
-0.9772887764200118 0.7862502370880758
-0.9604834154292937 0.8139395684833891
-0.9604834154292937 0.9523862254599553
-0.9100673324571398 0.9246968940646421
-0.82604052750355 0.7585609056927627
-0.792429805522114 0.7308715742974494
-0.809235166512832 0.6201142487161965
-0.792429805522114 0.5924249173208832
-0.74201372254996 0.6478035801115097
-0.6747922785870881 0.6478035801115097
-0.6411815566056522 0.5647355859255699
-0.6747922785870881 0.5093569231349435
-0.7252083615592421 0.45397826034431704
-0.6915976395778062 0.3432209347630641
-0.6579869175963702 0.4262889289490038
-0.5907654736334983 0.45397826034431704
-0.5403493906613444 0.39859959755369057
-0.5907654736334983 0.3155316033677508
-0.6243761956149342 0.26015294057712435
-0.6915976395778062 0.26015294057712435
-0.74201372254996 0.3155316033677508
-0.6915976395778062 0.3709102661583773
-0.775624444531396 0.3432209347630641
-0.74201372254996 0.26015294057712435
-0.809235166512832 0.26015294057712435
-0.8428458884942679 0.3432209347630641
-0.809235166512832 0.5647355859255699
-0.792429805522114 0.6754929115068229
-0.7588190835406781 0.7031822429021362
-0.775624444531396 0.6201142487161965
-0.8428458884942679 0.5647355859255699
-0.9436780544385758 0.5924249173208832
-1.0108994984014477 0.6201142487161965
-1.0613155813736017 0.6754929115068229
-0.9604834154292937 0.6201142487161965
-0.9268726934478578 0.5647355859255699
-0.9604834154292937 0.5370462545302568
-1.0108994984014477 0.5370462545302568
-1.0108994984014477 0.5093569231349435
-1.0445102203828835 0.5924249173208832
-1.0277048593921656 0.5370462545302568
-1.0445102203828835 0.48166759173963025
-1.0613155813736017 0.45397826034431704
-1.0613155813736017 0.45397826034431704
-1.0108994984014477 0.5924249173208832
-0.9436780544385758 0.5370462545302568
-0.9436780544385758 0.5647355859255699
-0.9772887764200118 0.48166759173963025
-0.9772887764200118 0.48166759173963025
-0.9940941374107297 0.5093569231349435
-0.9436780544385758 0.5647355859255699
-0.9268726934478578 0.5924249173208832
-0.9268726934478578 0.5647355859255699
-0.9436780544385758 0.4262889289490038
-0.9772887764200118 0.39859959755369057
-0.9772887764200118 0.3709102661583773
-0.9436780544385758 0.48166759173963025
-0.9604834154292937 0.5370462545302568
-0.9604834154292937 0.5924249173208832
-0.9268726934478578 0.6478035801115097
-0.9436780544385758 0.6754929115068229
-0.9268726934478578 0.8416288998787024
-0.859651249484986 0.9800755568552685
-0.809235166512832 1.0077648882505819
-0.792429805522114 0.8416288998787024
-0.7084030005685241 0.3432209347630641
-0.6075708346242162 -0.26594435593382715
-0.5571547516520623 -0.9581776408166581
-0.4227118637263185 -1.8165469140713684
-0.18743680985626684 -2.6472268559307657
0.13186504896737472 -3.7824894431386085
0.4847776297724522 -4.973130693137078
0.8208848495868117 -6.053014617554294
1.207408152373325 -6.772937233832438
1.6275421771412746 -6.994451884994944
2.014065479927788 -6.800626565227751
2.4005887827143013 -6.440665257088679
2.719890641537943 -5.9145679605777275
3.0728032223430204 -5.139266681508957
3.40891044215738 -3.8101787745339215
3.49293724711097 -2.591848193140139
3.2072461102687644 -1.5950322629088625
2.703085280547225 -0.7920416524447786
2.030870840918506 -0.40439101291039337
1.2578242353454792 -0.21056569314320067
0.602415156707478 -0.18287636174788743
0.04783824401378483 -0.1551870303525742
-0.33868505877272864 -0.09980836756194773
-0.6243761956149342 0.0663276208099317
-0.82604052750355 0.2324636091818111
-0.8428458884942679 0.39859959755369057
-0.7588190835406781 0.5093569231349435
-0.6747922785870881 0.5647355859255699
-0.6915976395778062 0.6754929115068229
-0.6915976395778062 0.7585609056927627
-0.74201372254996 0.7031822429021362
-0.82604052750355 0.7585609056927627
-0.82604052750355 0.8139395684833891
-0.8764566104757039 0.8139395684833891
-0.9100673324571398 0.9246968940646421
-0.9268726934478578 0.9246968940646421
-0.9940941374107297 0.8139395684833891
-1.0108994984014477 0.7862502370880758
-0.9940941374107297 0.8693182312740156
-0.9940941374107297 0.9523862254599553
-0.8764566104757039 1.0908328824365214
-0.9100673324571398 1.035454219645895
-0.9940941374107297 0.8693182312740156
-1.0445102203828835 0.8139395684833891
-1.0613155813736017 0.8139395684833891
-1.0781209423643197 0.8416288998787024
-0.9940941374107297 0.9800755568552685
-0.9604834154292937 0.9246968940646421
-0.9436780544385758 0.8693182312740156
-0.9940941374107297 0.8416288998787024
-0.9604834154292937 0.8139395684833891
-0.9604834154292937 0.9523862254599553
-0.9604834154292937 0.9523862254599553
-0.9436780544385758 0.8416288998787024
-0.9772887764200118 0.7862502370880758
-1.0613155813736017 0.7585609056927627
-0.9940941374107297 0.7308715742974494
-0.9604834154292937 0.8693182312740156
-0.9268726934478578 0.8970075626693288
-0.8932619714664218 0.9523862254599553
-0.859651249484986 0.8139395684833891
-0.9100673324571398 0.7031822429021362
-0.8932619714664218 0.7308715742974494
-0.8932619714664218 0.8693182312740156
-0.792429805522114 0.9246968940646421
-0.74201372254996 0.8693182312740156
-0.775624444531396 0.8416288998787024
-0.7588190835406781 0.7862502370880758
-0.82604052750355 0.8416288998787024
-0.859651249484986 0.8416288998787024
-0.74201372254996 0.8416288998787024
-0.7252083615592421 0.7585609056927627
-0.7252083615592421 0.7031822429021362
-0.775624444531396 0.5924249173208832
-0.7588190835406781 0.6201142487161965
-0.6915976395778062 0.7308715742974494
-0.6075708346242162 0.8139395684833891
-0.5571547516520623 0.7031822429021362
-0.5403493906613444 0.7031822429021362
-0.5571547516520623 0.6478035801115097
-0.5571547516520623 0.6201142487161965
-0.5403493906613444 0.6201142487161965
-0.4899333076891904 0.7308715742974494
-0.4899333076891904 0.6754929115068229
-0.4731279466984724 0.6201142487161965
-0.45632258570775447 0.5647355859255699
-0.4731279466984724 0.6201142487161965
-0.33868505877272864 0.6201142487161965
-0.25465825381913876 0.6754929115068229
-0.17063144886554887 0.5647355859255699
-0.18743680985626684 0.5647355859255699
-0.23785289282842076 0.48166759173963025
-0.2210475318377028 0.48166759173963025
-0.18743680985626684 0.48166759173963025
-0.10341000490267696 0.5370462545302568
0.014227522032348878 0.48166759173963025
0.014227522032348878 0.39859959755369057
0.04783824401378483 0.3432209347630641
0.031032883023066855 0.3432209347630641
0.06464360500450281 0.39859959755369057
0.19908649293024663 0.3709102661583773
0.24950257590240055 0.3709102661583773
0.2831132978838365 0.3432209347630641
0.33352938085599043 0.2878422719724376
0.31672401986527243 0.3709102661583773
0.33352938085599043 0.4262889289490038
0.46797226878173426 0.48166759173963025
0.46797226878173426 0.4262889289490038
0.3839454638281444 0.3709102661583773
0.4007508248188623 0.26015294057712435
0.4343615468002983 0.26015294057712435
0.5183883517538882 0.3432209347630641
0.5856097957167601 0.4262889289490038
0.5688044347260421 0.39859959755369057
0.5519990737353241 0.3155316033677508
0.46797226878173426 0.26015294057712435
0.45116690779101626 0.26015294057712435
0.4175561858095803 0.3709102661583773
0.4343615468002983 0.45397826034431704
0.4175561858095803 0.48166759173963025
0.33352938085599043 0.4262889289490038
0.18228113193952863 0.3432209347630641
0.09825432698593876 0.4262889289490038
0.06464360500450281 0.39859959755369057
0.014227522032348878 0.5370462545302568
-0.069799282921241 0.5093569231349435
-0.15382608787483087 0.39859959755369057
-0.2714636148098567 0.3155316033677508
-0.33868505877272864 0.39859959755369057
-0.3722957807541646 0.48166759173963025
-0.3722957807541646 0.5093569231349435
-0.3722957807541646 0.45397826034431704
-0.4227118637263185 0.3709102661583773
-0.5067386686799084 0.3432209347630641
-0.5067386686799084 0.4262889289490038
-0.5067386686799084 0.5370462545302568
-0.5403493906613444 0.5093569231349435
-0.5403493906613444 0.5093569231349435
-0.5907654736334983 0.4262889289490038
-0.7084030005685241 0.4262889289490038
-0.775624444531396 0.3432209347630641
-0.7588190835406781 0.45397826034431704
-0.7084030005685241 0.45397826034431704
-0.6915976395778062 0.45397826034431704
-0.7084030005685241 0.4262889289490038
-0.7252083615592421 0.3432209347630641
-0.7588190835406781 0.39859959755369057
-0.7252083615592421 0.5370462545302568
-0.6579869175963702 0.5093569231349435
-0.6747922785870881 0.48166759173963025
-0.6747922785870881 0.39859959755369057
-0.775624444531396 0.3432209347630641
-0.7588190835406781 0.39859959755369057
-0.809235166512832 0.4262889289490038
-0.7084030005685241 0.4262889289490038
-0.6915976395778062 0.5093569231349435
-0.6915976395778062 0.5093569231349435
-0.74201372254996 0.3709102661583773
-0.775624444531396 0.45397826034431704
-0.74201372254996 0.48166759173963025
-0.7252083615592421 0.5924249173208832
-0.6915976395778062 0.5370462545302568
-0.6747922785870881 0.5093569231349435
-0.7084030005685241 0.5093569231349435
-0.7588190835406781 0.48166759173963025
-0.7588190835406781 0.5647355859255699
-0.7084030005685241 0.6201142487161965
-0.6579869175963702 0.48166759173963025
-0.6243761956149342 0.45397826034431704
-0.6747922785870881 0.4262889289490038
-0.6915976395778062 0.5093569231349435
-0.6747922785870881 0.5093569231349435
-0.5907654736334983 0.5924249173208832
-0.5403493906613444 0.5647355859255699
-0.5571547516520623 0.5370462545302568
-0.775624444531396 0.4262889289490038
-0.74201372254996 0.3709102661583773
-0.6915976395778062 0.45397826034431704
-0.5907654736334983 0.5370462545302568
-0.5571547516520623 0.5647355859255699
-0.5235440296706264 0.5370462545302568
-0.5739601126427804 0.5647355859255699
-0.5907654736334983 0.6201142487161965
-0.6243761956149342 0.6754929115068229
-0.5403493906613444 0.7585609056927627
-0.5571547516520623 0.6478035801115097
-0.6075708346242162 0.5370462545302568
-0.6411815566056522 0.45397826034431704
-0.6411815566056522 0.4262889289490038
-0.5403493906613444 0.48166759173963025
-0.5571547516520623 0.6201142487161965
-0.5235440296706264 0.5093569231349435
-0.5235440296706264 0.45397826034431704
-0.6243761956149342 0.3432209347630641
-0.5739601126427804 0.4262889289490038
-0.5235440296706264 0.5647355859255699
-0.4899333076891904 0.5924249173208832
-0.4899333076891904 0.48166759173963025
-0.5235440296706264 0.4262889289490038
-0.6579869175963702 0.3432209347630641
-0.6243761956149342 0.4262889289490038
-0.5403493906613444 0.5370462545302568
-0.45632258570775447 0.5924249173208832
-0.45632258570775447 0.5093569231349435
-0.5403493906613444 0.4262889289490038
-0.5907654736334983 0.3709102661583773
-0.6411815566056522 0.3155316033677508
-0.6411815566056522 0.48166759173963025
-0.5571547516520623 0.5370462545302568
-0.5403493906613444 0.5370462545302568
-0.5235440296706264 0.45397826034431704
-0.5571547516520623 0.45397826034431704
-0.5739601126427804 0.4262889289490038
-0.6075708346242162 0.5093569231349435
-0.5739601126427804 0.5647355859255699
-0.6075708346242162 0.5093569231349435
-0.6075708346242162 0.45397826034431704
-0.6075708346242162 0.3709102661583773
-0.5739601126427804 0.39859959755369057
-0.5235440296706264 0.48166759173963025
-0.4731279466984724 0.5370462545302568
-0.45632258570775447 0.48166759173963025
-0.5403493906613444 0.39859959755369057
-0.5571547516520623 0.39859959755369057
-0.5907654736334983 0.39859959755369057
-0.5907654736334983 0.5093569231349435
-0.5907654736334983 0.5370462545302568
-0.5907654736334983 0.45397826034431704
-0.5739601126427804 0.4262889289490038
-0.5907654736334983 0.3432209347630641
-0.5907654736334983 0.3709102661583773
-0.5739601126427804 0.4262889289490038
-0.4731279466984724 0.48166759173963025
-0.5235440296706264 0.45397826034431704
-0.5235440296706264 0.39859959755369057
-0.5571547516520623 0.3155316033677508
-0.5739601126427804 0.3709102661583773
-0.5067386686799084 0.4262889289490038
-0.4899333076891904 0.5370462545302568
-0.45632258570775447 0.45397826034431704
-0.5403493906613444 0.39859959755369057
-0.5907654736334983 0.2878422719724376
-0.5739601126427804 0.39859959755369057
-0.5235440296706264 0.45397826034431704
-0.5067386686799084 0.5370462545302568
-0.4731279466984724 0.45397826034431704
-0.4731279466984724 0.4262889289490038
-0.5571547516520623 0.39859959755369057
-0.5907654736334983 0.39859959755369057
-0.5571547516520623 0.39859959755369057
-0.5235440296706264 0.45397826034431704
-0.45632258570775447 0.4262889289490038
-0.45632258570775447 0.3432209347630641
-0.4899333076891904 0.3155316033677508
-0.4899333076891904 0.4262889289490038
-0.5235440296706264 0.5647355859255699
-0.4731279466984724 0.6201142487161965
-0.4227118637263185 0.5924249173208832
-0.4899333076891904 0.48166759173963025
-0.5067386686799084 0.4262889289490038
-0.5907654736334983 0.39859959755369057
-0.5403493906613444 0.4262889289490038
-0.5067386686799084 0.45397826034431704
-0.5067386686799084 0.3709102661583773
-0.4899333076891904 0.2878422719724376
-0.5571547516520623 0.3432209347630641
-0.5403493906613444 0.3432209347630641
-0.5403493906613444 0.4262889289490038
-0.4899333076891904 0.4262889289490038
-0.5067386686799084 0.39859959755369057
-0.5739601126427804 0.3432209347630641
-0.5907654736334983 0.2324636091818111
-0.5907654736334983 0.2878422719724376
-0.5403493906613444 0.3155316033677508
-0.4899333076891904 0.45397826034431704
-0.4059065027356005 0.4262889289490038
-0.45632258570775447 0.3155316033677508
-0.5067386686799084 0.20477427778649787
-0.5571547516520623 0.2878422719724376
-0.5235440296706264 0.3155316033677508
-0.45632258570775447 0.4262889289490038
-0.3891011417448826 0.48166759173963025
-0.3891011417448826 0.4262889289490038
-0.45632258570775447 0.3709102661583773
-0.5067386686799084 0.2878422719724376
-0.5235440296706264 0.45397826034431704
-0.4731279466984724 0.4262889289490038
-0.45632258570775447 0.45397826034431704
-0.4731279466984724 0.3155316033677508
-0.5403493906613444 0.2878422719724376
-0.5067386686799084 0.3155316033677508
-0.4899333076891904 0.39859959755369057
-0.4059065027356005 0.4262889289490038
-0.3891011417448826 0.3709102661583773
-0.45632258570775447 0.3709102661583773
-0.5235440296706264 0.2878422719724376
-0.5571547516520623 0.3432209347630641
-0.5571547516520623 0.3709102661583773
-0.4731279466984724 0.45397826034431704
-0.4059065027356005 0.48166759173963025
-0.4731279466984724 0.2878422719724376
-0.5067386686799084 0.2878422719724376
-0.5739601126427804 0.3709102661583773
-0.5235440296706264 0.45397826034431704
-0.43951722471703647 0.5647355859255699
-0.4059065027356005 0.45397826034431704
-0.4227118637263185 0.3709102661583773
-0.4899333076891904 0.26015294057712435
-0.4899333076891904 0.26015294057712435
-0.45632258570775447 0.3432209347630641
-0.3891011417448826 0.39859959755369057
-0.33868505877272864 0.3709102661583773
-0.3891011417448826 0.2324636091818111
-0.45632258570775447 0.2878422719724376
-0.4899333076891904 0.26015294057712435
-0.4227118637263185 0.3432209347630641
-0.3722957807541646 0.3432209347630641
-0.3050743367912927 0.3709102661583773
-0.32187969778201064 0.3709102661583773
-0.3891011417448826 0.2878422719724376
-0.4227118637263185 0.3155316033677508
-0.43951722471703647 0.3432209347630641
-0.4059065027356005 0.4262889289490038
-0.3722957807541646 0.45397826034431704
-0.33868505877272864 0.3709102661583773
-0.33868505877272864 0.2878422719724376
-0.3554904197634466 0.39859959755369057
-0.3554904197634466 0.5093569231349435
-0.32187969778201064 0.7585609056927627
-0.33868505877272864 0.7585609056927627
-0.33868505877272864 0.6754929115068229
-0.33868505877272864 0.6478035801115097
-0.33868505877272864 0.6201142487161965
-0.25465825381913876 0.5924249173208832
-0.12021536589339493 0.6201142487161965
-0.10341000490267696 0.5647355859255699
-0.12021536589339493 0.39859959755369057
-0.1370207268841129 0.2878422719724376
-0.17063144886554887 0.3432209347630641
-0.1370207268841129 0.45397826034431704
-0.052993921930523026 0.5370462545302568
-0.002577838958369098 0.48166759173963025
0.031032883023066855 0.2878422719724376
0.031032883023066855 0.14939561499587142
0.014227522032348878 0.14939561499587142
0.014227522032348878 0.14939561499587142
0.06464360500450281 0.26015294057712435
0.13186504896737472 0.17708494639118466
0.031032883023066855 0.0663276208099317
0.014227522032348878 -0.016740373376008016
-0.002577838958369098 0.010948958019305222
-0.03618856093980505 0.0663276208099317
-0.03618856093980505 0.14939561499587142
-0.03618856093980505 0.17708494639118466
-0.15382608787483087 0.26015294057712435
-0.25465825381913876 0.17708494639118466
-0.25465825381913876 0.2324636091818111
-0.23785289282842076 0.3432209347630641
-0.23785289282842076 0.3432209347630641
-0.23785289282842076 0.3155316033677508
-0.2882689758005747 0.2324636091818111
-0.3891011417448826 0.12170628360055817
-0.4731279466984724 0.20477427778649787
-0.4227118637263185 0.3155316033677508
-0.3891011417448826 0.39859959755369057
-0.3891011417448826 0.39859959755369057
-0.32187969778201064 0.2878422719724376
-0.4227118637263185 0.2324636091818111
-0.43951722471703647 0.26015294057712435
-0.4731279466984724 0.2878422719724376
-0.4059065027356005 0.3155316033677508
-0.3891011417448826 0.3155316033677508
-0.4059065027356005 0.2324636091818111
-0.4227118637263185 0.20477427778649787
-0.45632258570775447 0.26015294057712435
-0.3891011417448826 0.3432209347630641
-0.33868505877272864 0.45397826034431704
-0.3050743367912927 0.39859959755369057
-0.2882689758005747 0.2878422719724376
-0.32187969778201064 0.14939561499587142
-0.3554904197634466 0.2324636091818111
-0.3891011417448826 0.26015294057712435
-0.3554904197634466 0.3155316033677508
-0.2882689758005747 0.2878422719724376
-0.25465825381913876 0.3432209347630641
-0.32187969778201064 0.2324636091818111
-0.3050743367912927 0.26015294057712435
-0.32187969778201064 0.3155316033677508
-0.33868505877272864 0.39859959755369057
-0.25465825381913876 0.39859959755369057
-0.2714636148098567 0.48166759173963025
-0.3050743367912927 0.5924249173208832
-0.33868505877272864 0.6201142487161965
-0.23785289282842076 0.6201142487161965
-0.15382608787483087 0.48166759173963025
-0.03618856093980505 0.09401695220524493
0.06464360500450281 -0.4320803443057066
0.08144896599522078 -1.179692291979164
0.19908649293024663 -1.9549935710479347
0.46797226878173426 -2.7302948501167053
0.8208848495868117 -3.616353454766729
1.2578242353454792 -4.696237379183946
1.6947636211041466 -5.637674646624595
2.1317030068628138 -6.163771943135547
2.585447753612199 -6.080703948949607
3.0559978613523024 -5.859189297787101
3.49293724711097 -5.416159995462089
3.8794605498974835 -4.834684036160511
4.350010657637587 -4.114761419882367
4.669312516461228 -3.173324152441717
4.770144682405536 -2.121129559419814
4.5684803505169205 -1.3458282803510435
4.097930242776817 -0.6535949954682124
3.3752997201759443 -0.2382550245385139
2.4846155876678915 -0.09980836756194773
1.6779582601134286 -0.12749769895726096
1.0057438204847096 -0.12749769895726096
0.5519990737353241 -0.1551870303525742
0.23269721491168258 -0.12749769895726096
-0.002577838958369098 -0.04442970477132125
-0.15382608787483087 -0.016740373376008016
-0.25465825381913876 0.09401695220524493
-0.20424217084698482 0.26015294057712435
-0.1370207268841129 0.3709102661583773
-0.069799282921241 0.5924249173208832
-0.10341000490267696 0.5370462545302568
-0.18743680985626684 0.5370462545302568
-0.2714636148098567 0.5093569231349435
-0.2714636148098567 0.5924249173208832
-0.32187969778201064 0.5924249173208832
-0.2882689758005747 0.6754929115068229
-0.32187969778201064 0.5924249173208832
-0.43951722471703647 0.6201142487161965
-0.45632258570775447 0.48166759173963025
-0.5403493906613444 0.5370462545302568
-0.5235440296706264 0.6201142487161965
-0.45632258570775447 0.6754929115068229
-0.45632258570775447 0.6478035801115097
-0.4899333076891904 0.5370462545302568
-0.5571547516520623 0.5093569231349435
-0.5571547516520623 0.5647355859255699
-0.5067386686799084 0.6478035801115097
-0.4059065027356005 0.7862502370880758
-0.43951722471703647 0.7862502370880758
-0.5403493906613444 0.6478035801115097
-0.5571547516520623 0.5924249173208832
-0.6075708346242162 0.6478035801115097
-0.5403493906613444 0.6201142487161965
-0.5403493906613444 0.6754929115068229
-0.5067386686799084 0.6201142487161965
-0.4899333076891904 0.5924249173208832
-0.5403493906613444 0.5647355859255699
-0.5571547516520623 0.5370462545302568
-0.4899333076891904 0.5647355859255699
-0.45632258570775447 0.6754929115068229
-0.4059065027356005 0.6478035801115097
-0.4227118637263185 0.5924249173208832
-0.45632258570775447 0.5093569231349435
-0.4059065027356005 0.5924249173208832
-0.4227118637263185 0.6478035801115097
-0.32187969778201064 0.6478035801115097
-0.32187969778201064 0.5647355859255699
-0.3891011417448826 0.5370462545302568
-0.4059065027356005 0.5370462545302568
-0.43951722471703647 0.5093569231349435
-0.4059065027356005 0.6478035801115097
-0.33868505877272864 0.6754929115068229
-0.2882689758005747 0.6754929115068229
-0.2882689758005747 0.5647355859255699
-0.33868505877272864 0.5647355859255699
-0.32187969778201064 0.5370462545302568
-0.23785289282842076 0.7031822429021362
-0.20424217084698482 0.7862502370880758
-0.17063144886554887 0.6754929115068229
-0.2210475318377028 0.6478035801115097
-0.3050743367912927 0.5093569231349435
-0.3050743367912927 0.4262889289490038
-0.2210475318377028 0.5093569231349435
-0.08660464391195898 0.5924249173208832
-0.052993921930523026 0.5093569231349435
-0.03618856093980505 0.45397826034431704
-0.08660464391195898 0.3709102661583773
-0.1370207268841129 0.39859959755369057
-0.10341000490267696 0.4262889289490038
-0.019383199949087073 0.5370462545302568
0.014227522032348878 0.5647355859255699
-0.002577838958369098 0.48166759173963025
0.06464360500450281 0.4262889289490038
0.06464360500450281 0.45397826034431704
0.1486704099580927 0.48166759173963025
0.2158918539209646 0.5924249173208832
0.26630793689311855 0.5093569231349435
0.2831132978838365 0.39859959755369057
0.19908649293024663 0.3709102661583773
0.23269721491168258 0.3432209347630641
0.26630793689311855 0.39859959755369057
0.3671401028374264 0.48166759173963025
0.4175561858095803 0.3709102661583773
0.4175561858095803 0.3432209347630641
0.4343615468002983 0.26015294057712435
0.46797226878173426 0.2324636091818111
0.5856097957167601 0.3432209347630641
0.636025878688914 0.39859959755369057
0.652831239679632 0.3432209347630641
0.652831239679632 0.3709102661583773
0.5688044347260421 0.26015294057712435
0.602415156707478 0.20477427778649787
0.6696366006703499 0.2324636091818111
0.7872741276053759 0.26015294057712435
0.8208848495868117 0.3155316033677508
0.8208848495868117 0.17708494639118466
0.8376902105775297 0.2324636091818111
0.8376902105775297 0.2324636091818111
0.8544955715682477 0.3432209347630641
0.8376902105775297 0.45397826034431704
0.8881062935496836 0.4262889289490038
0.8544955715682477 0.4262889289490038
0.7200526836425039 0.26015294057712435
0.5688044347260421 0.2324636091818111
0.5856097957167601 0.2878422719724376
0.5688044347260421 0.39859959755369057
0.5856097957167601 0.3709102661583773
0.5015829907631701 0.2878422719724376
0.4007508248188623 0.2878422719724376
0.26630793689311855 0.2878422719724376
0.26630793689311855 0.3709102661583773
0.2158918539209646 0.3709102661583773
0.23269721491168258 0.3709102661583773
0.13186504896737472 0.39859959755369057
0.031032883023066855 0.26015294057712435
-0.08660464391195898 0.3155316033677508
-0.17063144886554887 0.2878422719724376
-0.1370207268841129 0.3709102661583773
-0.10341000490267696 0.4262889289490038
-0.069799282921241 0.3155316033677508
-0.18743680985626684 0.2878422719724376
-0.20424217084698482 0.3155316033677508
-0.25465825381913876 0.3432209347630641
-0.2714636148098567 0.45397826034431704
-0.25465825381913876 0.39859959755369057
-0.3050743367912927 0.3432209347630641
-0.3554904197634466 0.2878422719724376
-0.45632258570775447 0.3432209347630641
-0.4227118637263185 0.3432209347630641
-0.33868505877272864 0.39859959755369057
-0.3554904197634466 0.3432209347630641
-0.3891011417448826 0.2878422719724376
-0.43951722471703647 0.26015294057712435
-0.4227118637263185 0.26015294057712435
-0.43951722471703647 0.3432209347630641
-0.4059065027356005 0.39859959755369057
-0.3050743367912927 0.3709102661583773
-0.32187969778201064 0.3432209347630641
-0.33868505877272864 0.2324636091818111
-0.43951722471703647 0.26015294057712435
-0.4059065027356005 0.3709102661583773
-0.3891011417448826 0.39859959755369057
-0.3722957807541646 0.3709102661583773
-0.32187969778201064 0.3432209347630641
-0.3722957807541646 0.26015294057712435
-0.3891011417448826 0.3709102661583773
-0.4059065027356005 0.48166759173963025
-0.3722957807541646 0.45397826034431704
-0.3722957807541646 0.39859959755369057
-0.33868505877272864 0.3709102661583773
-0.3891011417448826 0.3709102661583773
-0.4059065027356005 0.3709102661583773
-0.3722957807541646 0.48166759173963025
-0.33868505877272864 0.5093569231349435
-0.3050743367912927 0.5370462545302568
-0.3050743367912927 0.4262889289490038
-0.3554904197634466 0.3432209347630641
-0.3554904197634466 0.3432209347630641
-0.2882689758005747 0.45397826034431704
-0.25465825381913876 0.5370462545302568
-0.23785289282842076 0.45397826034431704
-0.25465825381913876 0.4262889289490038
-0.2882689758005747 0.2878422719724376
-0.3050743367912927 0.3432209347630641
-0.2714636148098567 0.39859959755369057
-0.20424217084698482 0.5093569231349435
-0.1370207268841129 0.4262889289490038
-0.20424217084698482 0.39859959755369057
-0.33868505877272864 0.3155316033677508
-0.33868505877272864 0.39859959755369057
-0.2882689758005747 0.45397826034431704
-0.2714636148098567 0.48166759173963025
-0.25465825381913876 0.48166759173963025
-0.2714636148098567 0.4262889289490038
-0.33868505877272864 0.2878422719724376
-0.3891011417448826 0.3432209347630641
-0.3050743367912927 0.39859959755369057
-0.23785289282842076 0.45397826034431704
-0.17063144886554887 0.4262889289490038
-0.20424217084698482 0.3432209347630641
-0.3050743367912927 0.2878422719724376
-0.3722957807541646 0.3432209347630641
-0.2882689758005747 0.3709102661583773
-0.3050743367912927 0.45397826034431704
-0.20424217084698482 0.45397826034431704
-0.25465825381913876 0.3432209347630641
-0.3554904197634466 0.2878422719724376
-0.32187969778201064 0.2878422719724376
-0.3891011417448826 0.4262889289490038
-0.32187969778201064 0.5093569231349435
-0.25465825381913876 0.45397826034431704
-0.2882689758005747 0.3709102661583773
-0.3554904197634466 0.26015294057712435
-0.3554904197634466 0.3709102661583773
-0.2882689758005747 0.4262889289490038
-0.2210475318377028 0.48166759173963025
-0.15382608787483087 0.3709102661583773
-0.25465825381913876 0.3155316033677508
-0.33868505877272864 0.26015294057712435
-0.4227118637263185 0.3432209347630641
-0.4059065027356005 0.3709102661583773
-0.33868505877272864 0.4262889289490038
-0.2882689758005747 0.3709102661583773
-0.3722957807541646 0.3155316033677508
-0.33868505877272864 0.2324636091818111
-0.43951722471703647 0.3155316033677508
-0.33868505877272864 0.4262889289490038
-0.3050743367912927 0.3709102661583773
-0.3050743367912927 0.3709102661583773
-0.3050743367912927 0.2878422719724376
-0.32187969778201064 0.26015294057712435
-0.3891011417448826 0.3155316033677508
-0.3891011417448826 0.3155316033677508
-0.33868505877272864 0.4262889289490038
-0.3050743367912927 0.4262889289490038
-0.33868505877272864 0.3155316033677508
-0.3722957807541646 0.2878422719724376
-0.4059065027356005 0.26015294057712435
-0.3891011417448826 0.3709102661583773
-0.33868505877272864 0.4262889289490038
-0.32187969778201064 0.3155316033677508
-0.3050743367912927 0.26015294057712435
-0.3722957807541646 0.26015294057712435
-0.4059065027356005 0.2878422719724376
-0.3891011417448826 0.3155316033677508
-0.3891011417448826 0.3709102661583773
-0.3554904197634466 0.3432209347630641
-0.4059065027356005 0.3155316033677508
-0.4059065027356005 0.20477427778649787
-0.43951722471703647 0.26015294057712435
-0.3722957807541646 0.3709102661583773
-0.3050743367912927 0.4262889289490038
-0.2714636148098567 0.48166759173963025
-0.2882689758005747 0.39859959755369057
-0.3554904197634466 0.3155316033677508
-0.3554904197634466 0.3155316033677508
-0.3891011417448826 0.3709102661583773
-0.45632258570775447 0.3709102661583773
-0.3891011417448826 0.39859959755369057
-0.4227118637263185 0.39859959755369057
-0.4227118637263185 0.26015294057712435
-0.4731279466984724 0.26015294057712435
-0.4059065027356005 0.4262889289490038
-0.3554904197634466 0.45397826034431704
-0.32187969778201064 0.45397826034431704
-0.32187969778201064 0.3155316033677508
-0.3554904197634466 0.20477427778649787
-0.33868505877272864 0.26015294057712435
-0.3050743367912927 0.2878422719724376
-0.2714636148098567 0.3432209347630641
-0.25465825381913876 0.3155316033677508
-0.32187969778201064 0.20477427778649787
-0.33868505877272864 0.17708494639118466
-0.3722957807541646 0.20477427778649787
-0.33868505877272864 0.2878422719724376
-0.2714636148098567 0.3155316033677508
-0.25465825381913876 0.26015294057712435
-0.3050743367912927 0.2878422719724376
-0.3050743367912927 0.2324636091818111
-0.33868505877272864 0.20477427778649787
-0.3050743367912927 0.2878422719724376
-0.32187969778201064 0.3432209347630641
-0.3554904197634466 0.3432209347630641
-0.3891011417448826 0.2878422719724376
-0.4059065027356005 0.26015294057712435
-0.4059065027356005 0.2878422719724376
-0.3050743367912927 0.2878422719724376
-0.2714636148098567 0.3432209347630641
-0.23785289282842076 0.26015294057712435
-0.3050743367912927 0.2878422719724376
-0.33868505877272864 0.2324636091818111
-0.3554904197634466 0.2324636091818111
-0.2882689758005747 0.3155316033677508
-0.25465825381913876 0.3709102661583773
-0.2714636148098567 0.3432209347630641
-0.23785289282842076 0.3155316033677508
-0.33868505877272864 0.17708494639118466
-0.33868505877272864 0.17708494639118466
-0.33868505877272864 0.26015294057712435
-0.2714636148098567 0.3432209347630641
-0.20424217084698482 0.3155316033677508
-0.25465825381913876 0.2878422719724376
-0.2714636148098567 0.17708494639118466
-0.3050743367912927 0.17708494639118466
-0.2882689758005747 0.3155316033677508
-0.17063144886554887 0.39859959755369057
-0.1370207268841129 0.39859959755369057
-0.2210475318377028 0.3155316033677508
-0.2714636148098567 0.2878422719724376
-0.3554904197634466 0.2878422719724376
-0.3722957807541646 0.3709102661583773
-0.3050743367912927 0.4262889289490038
-0.2882689758005747 0.3155316033677508
-0.3050743367912927 0.26015294057712435
-0.3554904197634466 0.2324636091818111
-0.33868505877272864 0.2878422719724376
-0.2882689758005747 0.3155316033677508
-0.23785289282842076 0.45397826034431704
-0.20424217084698482 0.3432209347630641
-0.23785289282842076 0.2878422719724376
-0.25465825381913876 0.20477427778649787
-0.3050743367912927 0.17708494639118466
-0.32187969778201064 0.2324636091818111
-0.25465825381913876 0.20477427778649787
-0.20424217084698482 0.20477427778649787
-0.20424217084698482 0.17708494639118466
-0.23785289282842076 0.17708494639118466
-0.23785289282842076 0.26015294057712435
-0.23785289282842076 0.3155316033677508
-0.20424217084698482 0.3432209347630641
-0.2210475318377028 0.2878422719724376
-0.23785289282842076 0.26015294057712435
-0.25465825381913876 0.20477427778649787
-0.25465825381913876 0.20477427778649787
-0.2210475318377028 0.2878422719724376
-0.2210475318377028 0.39859959755369057
-0.17063144886554887 0.3432209347630641
-0.17063144886554887 0.2324636091818111
-0.20424217084698482 0.17708494639118466
-0.20424217084698482 0.26015294057712435
-0.17063144886554887 0.4262889289490038
-0.12021536589339493 0.5370462545302568
-0.052993921930523026 0.6478035801115097
-0.052993921930523026 0.5370462545302568
-0.052993921930523026 0.5370462545302568
-0.069799282921241 0.6201142487161965
-0.052993921930523026 0.5924249173208832
-0.03618856093980505 0.6201142487161965
-0.002577838958369098 0.48166759173963025
0.04783824401378483 0.39859959755369057
0.04783824401378483 0.2878422719724376
0.08144896599522078 0.3709102661583773
0.09825432698593876 0.3155316033677508
0.13186504896737472 0.48166759173963025
0.18228113193952863 0.39859959755369057
0.1486704099580927 0.26015294057712435
0.13186504896737472 0.2324636091818111
0.18228113193952863 0.14939561499587142
0.24950257590240055 0.2324636091818111
0.2831132978838365 0.26015294057712435
0.2158918539209646 0.14939561499587142
0.16547577094881066 0.0663276208099317
0.08144896599522078 -0.0721190361666345
0.031032883023066855 -0.0721190361666345
-0.03618856093980505 0.010948958019305222
-0.002577838958369098 0.12170628360055817
0.014227522032348878 0.17708494639118466
0.031032883023066855 0.26015294057712435
-0.019383199949087073 0.2324636091818111
-0.069799282921241 0.26015294057712435
-0.052993921930523026 0.3155316033677508
-0.03618856093980505 0.39859959755369057
0.014227522032348878 0.3432209347630641
-0.03618856093980505 0.17708494639118466
-0.15382608787483087 0.14939561499587142
-0.17063144886554887 0.12170628360055817
-0.15382608787483087 0.20477427778649787
-0.20424217084698482 0.2324636091818111
-0.18743680985626684 0.26015294057712435
-0.20424217084698482 0.14939561499587142
-0.2210475318377028 0.12170628360055817
-0.2714636148098567 0.2324636091818111
-0.23785289282842076 0.2878422719724376
-0.20424217084698482 0.3432209347630641
-0.1370207268841129 0.3709102661583773
-0.23785289282842076 0.2878422719724376
-0.2714636148098567 0.14939561499587142
-0.3050743367912927 0.17708494639118466
-0.2210475318377028 0.3155316033677508
-0.20424217084698482 0.39859959755369057
-0.1370207268841129 0.26015294057712435
-0.17063144886554887 0.2324636091818111
-0.20424217084698482 0.17708494639118466
-0.2714636148098567 0.17708494639118466
-0.25465825381913876 0.26015294057712435
-0.18743680985626684 0.3709102661583773
-0.1370207268841129 0.2878422719724376
-0.18743680985626684 0.20477427778649787
-0.20424217084698482 0.17708494639118466
-0.20424217084698482 0.26015294057712435
-0.18743680985626684 0.2878422719724376
-0.18743680985626684 0.3432209347630641
-0.12021536589339493 0.48166759173963025
-0.10341000490267696 0.4262889289490038
-0.08660464391195898 0.45397826034431704
-0.08660464391195898 0.6478035801115097
-0.08660464391195898 0.7308715742974494
0.031032883023066855 0.6478035801115097
0.11505968797665674 0.2878422719724376
0.18228113193952863 -0.2936336873291404
0.18228113193952863 -0.9858669722119713
0.31672401986527243 -1.8442362454666816
0.45116690779101626 -2.702605518721392
0.8376902105775297 -3.644042786162042
1.2242135133640433 -4.779305373369885
1.6275421771412746 -5.859189297787101
2.014065479927788 -6.7175585710418115
2.4173941437050197 -7.049830547785571
2.8375281684729687 -6.96676255359963
3.2072461102687644 -6.440665257088679
3.593769413055278 -5.859189297787101
4.047514159804663 -5.083888018718331
4.434037462591177 -4.170140082672994
4.5684803505169205 -2.9518095012792114
4.383621379619023 -1.8996149082573082
3.9298766328696373 -1.0966242977932243
3.257662193240918 -0.45976967570101984
2.4005887827143013 -0.21056569314320067
1.6275421771412746 -0.18287636174788743
1.0561599034568634 -0.26594435593382715
0.5856097957167601 -0.2936336873291404
0.26630793689311855 -0.2382550245385139
0.04783824401378483 -0.18287636174788743
-0.019383199949087073 -0.09980836756194773
-0.12021536589339493 0.0663276208099317
-0.069799282921241 0.26015294057712435
0.06464360500450281 0.48166759173963025
0.06464360500450281 0.5093569231349435
0.08144896599522078 0.5093569231349435
-0.019383199949087073 0.4262889289490038
-0.15382608787483087 0.39859959755369057
-0.18743680985626684 0.48166759173963025
-0.18743680985626684 0.5647355859255699
-0.18743680985626684 0.6478035801115097
-0.1370207268841129 0.5924249173208832
-0.17063144886554887 0.48166759173963025
-0.25465825381913876 0.4262889289490038
-0.25465825381913876 0.45397826034431704
-0.23785289282842076 0.5093569231349435
-0.20424217084698482 0.6478035801115097
-0.15382608787483087 0.6478035801115097
-0.18743680985626684 0.6478035801115097
-0.2210475318377028 0.5370462545302568
-0.3554904197634466 0.6478035801115097
-0.2882689758005747 0.6478035801115097
-0.2210475318377028 0.7031822429021362
-0.1370207268841129 0.5924249173208832
-0.17063144886554887 0.5093569231349435
-0.3050743367912927 0.48166759173963025
-0.32187969778201064 0.5370462545302568
-0.2714636148098567 0.6201142487161965
-0.17063144886554887 0.6754929115068229
-0.1370207268841129 0.6478035801115097
-0.17063144886554887 0.5647355859255699
-0.18743680985626684 0.5093569231349435
-0.17063144886554887 0.5093569231349435
-0.15382608787483087 0.5370462545302568
-0.18743680985626684 0.6478035801115097
-0.10341000490267696 0.6754929115068229
-0.1370207268841129 0.5924249173208832
-0.15382608787483087 0.5093569231349435
-0.15382608787483087 0.48166759173963025
-0.12021536589339493 0.5924249173208832
-0.069799282921241 0.5924249173208832
-0.03618856093980505 0.5647355859255699
-0.002577838958369098 0.5647355859255699
-0.03618856093980505 0.48166759173963025
-0.069799282921241 0.5093569231349435
0.031032883023066855 0.5924249173208832
0.08144896599522078 0.6201142487161965
0.11505968797665674 0.5093569231349435
0.031032883023066855 0.48166759173963025
-0.019383199949087073 0.4262889289490038
-0.069799282921241 0.4262889289490038
0.031032883023066855 0.45397826034431704
0.13186504896737472 0.5924249173208832
0.16547577094881066 0.5093569231349435
0.18228113193952863 0.4262889289490038
0.13186504896737472 0.3432209347630641
0.1486704099580927 0.2878422719724376
0.2158918539209646 0.3709102661583773
0.24950257590240055 0.39859959755369057
0.2831132978838365 0.3432209347630641
0.2831132978838365 0.3155316033677508
0.26630793689311855 0.2324636091818111
0.2999186588745545 0.2324636091818111
0.33352938085599043 0.26015294057712435
0.4007508248188623 0.3709102661583773
0.4343615468002983 0.3709102661583773
0.4847776297724522 0.26015294057712435
0.46797226878173426 0.20477427778649787
0.46797226878173426 0.2324636091818111
0.5015829907631701 0.26015294057712435
0.6192205176981961 0.3432209347630641
0.686441961661068 0.2878422719724376
0.686441961661068 0.17708494639118466
0.6696366006703499 0.0663276208099317
0.6192205176981961 0.12170628360055817
0.686441961661068 0.17708494639118466
0.8208848495868117 0.2878422719724376
0.9217170155311196 0.2324636091818111
0.9385223765218376 0.12170628360055817
0.9049116545404017 0.14939561499587142
0.9217170155311196 0.09401695220524493
0.9385223765218376 0.14939561499587142
1.0393545424661454 0.12170628360055817
1.0729652644475813 0.2324636091818111
1.0561599034568634 0.12170628360055817
1.0561599034568634 0.03863828941461846
1.0729652644475813 0.010948958019305222
1.1401867084104533 0.010948958019305222
1.1906027913826072 0.0663276208099317
1.2242135133640433 0.0663276208099317
1.1906027913826072 -0.016740373376008016
1.1906027913826072 -0.09980836756194773
1.207408152373325 -0.0721190361666345
1.1569920694011713 -0.09980836756194773
1.207408152373325 0.09401695220524493
1.207408152373325 0.12170628360055817
1.207408152373325 0.12170628360055817
1.1233813474197354 0.0663276208099317
1.0225491814754275 0.09401695220524493
0.9889384594939915 0.17708494639118466
1.0057438204847096 0.2878422719724376
0.9553277375125555 0.2324636091818111
0.9049116545404017 0.14939561499587142
0.7872741276053759 0.14939561499587142
0.6696366006703499 0.20477427778649787
0.602415156707478 0.2878422719724376
0.602415156707478 0.3709102661583773
0.6192205176981961 0.3155316033677508
0.4847776297724522 0.26015294057712435
0.4007508248188623 0.2324636091818111
0.31672401986527243 0.2324636091818111
0.2999186588745545 0.39859959755369057
0.31672401986527243 0.5370462545302568
0.31672401986527243 0.5093569231349435
0.2158918539209646 0.5093569231349435
0.13186504896737472 0.45397826034431704
0.014227522032348878 0.48166759173963025
-0.002577838958369098 0.5370462545302568
0.014227522032348878 0.5370462545302568
0.04783824401378483 0.48166759173963025
0.014227522032348878 0.3432209347630641
-0.019383199949087073 0.26015294057712435
-0.03618856093980505 0.26015294057712435
-0.019383199949087073 0.3155316033677508
-0.002577838958369098 0.3155316033677508
0.014227522032348878 0.2324636091818111
-0.019383199949087073 0.20477427778649787
-0.08660464391195898 0.12170628360055817
-0.069799282921241 0.17708494639118466
-0.052993921930523026 0.26015294057712435
0.031032883023066855 0.3432209347630641
0.014227522032348878 0.3155316033677508
-0.002577838958369098 0.2324636091818111
-0.052993921930523026 0.20477427778649787
-0.10341000490267696 0.14939561499587142
-0.10341000490267696 0.26015294057712435
-0.03618856093980505 0.3155316033677508
0.031032883023066855 0.3155316033677508
0.04783824401378483 0.3432209347630641
0.031032883023066855 0.2878422719724376
-0.019383199949087073 0.3432209347630641
-0.002577838958369098 0.3709102661583773
0.014227522032348878 0.48166759173963025
0.04783824401378483 0.4262889289490038
0.031032883023066855 0.3709102661583773
-0.019383199949087073 0.2878422719724376
-0.052993921930523026 0.45397826034431704
-0.03618856093980505 0.5370462545302568
-0.002577838958369098 0.5924249173208832
0.06464360500450281 0.7031822429021362
0.04783824401378483 0.5647355859255699
-0.052993921930523026 0.48166759173963025
-0.069799282921241 0.5093569231349435
-0.052993921930523026 0.5370462545302568
0.04783824401378483 0.5370462545302568
0.031032883023066855 0.5093569231349435
0.031032883023066855 0.45397826034431704
-0.03618856093980505 0.3155316033677508
-0.002577838958369098 0.3709102661583773
0.014227522032348878 0.4262889289490038
0.06464360500450281 0.48166759173963025
0.04783824401378483 0.5093569231349435
0.08144896599522078 0.39859959755369057
0.014227522032348878 0.3709102661583773
0.031032883023066855 0.3155316033677508
0.06464360500450281 0.4262889289490038
0.08144896599522078 0.45397826034431704
0.08144896599522078 0.45397826034431704
0.04783824401378483 0.3709102661583773
0.04783824401378483 0.39859959755369057
0.06464360500450281 0.4262889289490038
0.06464360500450281 0.5093569231349435
0.13186504896737472 0.5093569231349435
0.13186504896737472 0.45397826034431704
0.11505968797665674 0.3155316033677508
-0.002577838958369098 0.2878422719724376
0.031032883023066855 0.3155316033677508
0.08144896599522078 0.3709102661583773
0.09825432698593876 0.5370462545302568
0.13186504896737472 0.5093569231349435
0.1486704099580927 0.5093569231349435
0.08144896599522078 0.3709102661583773
0.031032883023066855 0.4262889289490038
0.031032883023066855 0.48166759173963025
0.06464360500450281 0.45397826034431704
0.08144896599522078 0.48166759173963025
0.04783824401378483 0.39859959755369057
0.031032883023066855 0.2878422719724376
-0.002577838958369098 0.3432209347630641
0.09825432698593876 0.39859959755369057
0.08144896599522078 0.5093569231349435
0.11505968797665674 0.45397826034431704
0.09825432698593876 0.45397826034431704
-0.002577838958369098 0.2878422719724376
0.014227522032348878 0.3155316033677508
0.014227522032348878 0.45397826034431704
0.09825432698593876 0.5093569231349435
0.11505968797665674 0.48166759173963025
0.08144896599522078 0.3709102661583773
0.09825432698593876 0.3155316033677508
0.06464360500450281 0.3709102661583773
0.09825432698593876 0.39859959755369057
0.1486704099580927 0.45397826034431704
0.16547577094881066 0.4262889289490038
0.08144896599522078 0.39859959755369057
-0.002577838958369098 0.3432209347630641
0.014227522032348878 0.3709102661583773
-0.002577838958369098 0.48166759173963025
0.06464360500450281 0.5093569231349435
0.11505968797665674 0.5370462545302568
0.13186504896737472 0.48166759173963025
0.06464360500450281 0.3432209347630641
0.031032883023066855 0.4262889289490038
0.04783824401378483 0.5093569231349435
0.09825432698593876 0.5093569231349435
0.09825432698593876 0.48166759173963025
0.09825432698593876 0.45397826034431704
0.06464360500450281 0.3432209347630641
0.014227522032348878 0.3155316033677508
0.06464360500450281 0.3709102661583773
0.11505968797665674 0.39859959755369057
0.19908649293024663 0.39859959755369057
0.19908649293024663 0.3155316033677508
0.16547577094881066 0.2878422719724376
0.16547577094881066 0.3155316033677508
0.1486704099580927 0.3709102661583773
0.2158918539209646 0.48166759173963025
0.2158918539209646 0.39859959755369057
0.16547577094881066 0.3155316033677508
0.031032883023066855 0.2324636091818111
-0.002577838958369098 0.17708494639118466
0.04783824401378483 0.3155316033677508
0.1486704099580927 0.39859959755369057
0.18228113193952863 0.39859959755369057
0.16547577094881066 0.3432209347630641
0.13186504896737472 0.26015294057712435
0.06464360500450281 0.3432209347630641
0.06464360500450281 0.3432209347630641
0.11505968797665674 0.39859959755369057
0.1486704099580927 0.3709102661583773
0.1486704099580927 0.3155316033677508
0.1486704099580927 0.26015294057712435
0.13186504896737472 0.2324636091818111
0.16547577094881066 0.2878422719724376
0.24950257590240055 0.39859959755369057
0.2999186588745545 0.39859959755369057
0.26630793689311855 0.2878422719724376
0.19908649293024663 0.2324636091818111
0.1486704099580927 0.26015294057712435
0.1486704099580927 0.3709102661583773
0.18228113193952863 0.4262889289490038
0.26630793689311855 0.3709102661583773
0.24950257590240055 0.2878422719724376
0.1486704099580927 0.26015294057712435
0.13186504896737472 0.17708494639118466
0.23269721491168258 0.20477427778649787
0.2999186588745545 0.3709102661583773
0.3839454638281444 0.3709102661583773
0.2999186588745545 0.3432209347630641
0.2999186588745545 0.3155316033677508
0.18228113193952863 0.2878422719724376
0.23269721491168258 0.3155316033677508
0.2999186588745545 0.39859959755369057
0.33352938085599043 0.4262889289490038
0.26630793689311855 0.2878422719724376
0.23269721491168258 0.20477427778649787
0.18228113193952863 0.20477427778649787
0.2158918539209646 0.2324636091818111
0.26630793689311855 0.3155316033677508
0.33352938085599043 0.3709102661583773
0.35033474184670843 0.2324636091818111
0.33352938085599043 0.26015294057712435
0.2999186588745545 0.3155316033677508
0.31672401986527243 0.39859959755369057
0.2999186588745545 0.45397826034431704
0.3671401028374264 0.39859959755369057
0.31672401986527243 0.3155316033677508
0.23269721491168258 0.26015294057712435
0.18228113193952863 0.2878422719724376
0.2158918539209646 0.2878422719724376
0.23269721491168258 0.3155316033677508
0.26630793689311855 0.3155316033677508
0.24950257590240055 0.39859959755369057
0.23269721491168258 0.2878422719724376
0.23269721491168258 0.2878422719724376
0.26630793689311855 0.3709102661583773
0.31672401986527243 0.39859959755369057
0.33352938085599043 0.3709102661583773
0.31672401986527243 0.26015294057712435
0.2831132978838365 0.20477427778649787
0.2831132978838365 0.17708494639118466
0.2831132978838365 0.3155316033677508
0.35033474184670843 0.39859959755369057
0.4175561858095803 0.3709102661583773
0.3839454638281444 0.3155316033677508
0.3671401028374264 0.17708494639118466
0.33352938085599043 0.2324636091818111
0.35033474184670843 0.2324636091818111
0.4175561858095803 0.2878422719724376
0.4175561858095803 0.2878422719724376
0.4175561858095803 0.17708494639118466
0.3839454638281444 0.17708494639118466
0.35033474184670843 0.26015294057712435
0.31672401986527243 0.3155316033677508
0.3671401028374264 0.3432209347630641
0.3839454638281444 0.3432209347630641
0.4175561858095803 0.26015294057712435
0.4343615468002983 0.26015294057712435
0.3839454638281444 0.26015294057712435
0.4343615468002983 0.3155316033677508
0.5015829907631701 0.3709102661583773
0.5856097957167601 0.4262889289490038
0.5351937127446061 0.3432209347630641
0.5351937127446061 0.39859959755369057
0.5015829907631701 0.48166759173963025
0.5183883517538882 0.6478035801115097
0.5351937127446061 0.7031822429021362
0.652831239679632 0.6754929115068229
0.652831239679632 0.5924249173208832
0.5519990737353241 0.5093569231349435
0.6192205176981961 0.5647355859255699
0.652831239679632 0.5093569231349435
0.686441961661068 0.5647355859255699
0.7536634056239399 0.39859959755369057
0.6192205176981961 0.3709102661583773
0.636025878688914 0.26015294057712435
0.602415156707478 0.3155316033677508
0.636025878688914 0.39859959755369057
0.686441961661068 0.45397826034431704
0.7872741276053759 0.3155316033677508
0.8544955715682477 0.2324636091818111
0.7704687666146578 0.14939561499587142
0.8544955715682477 0.12170628360055817
0.7872741276053759 0.12170628360055817
0.8376902105775297 0.09401695220524493
0.8544955715682477 0.0663276208099317
0.8208848495868117 -0.016740373376008016
0.7536634056239399 -0.1551870303525742
0.7032473226517859 -0.12749769895726096
0.686441961661068 0.010948958019305222
0.7200526836425039 0.12170628360055817
0.686441961661068 0.20477427778649787
0.6696366006703499 0.17708494639118466
0.602415156707478 0.20477427778649787
0.5015829907631701 0.2324636091818111
0.5351937127446061 0.2878422719724376
0.5519990737353241 0.3432209347630641
0.5688044347260421 0.2324636091818111
0.5015829907631701 0.17708494639118466
0.4175561858095803 0.03863828941461846
0.4007508248188623 0.12170628360055817
0.3671401028374264 0.2324636091818111
0.45116690779101626 0.26015294057712435
0.46797226878173426 0.2324636091818111
0.45116690779101626 0.17708494639118466
0.4007508248188623 0.12170628360055817
0.3671401028374264 0.14939561499587142
0.3839454638281444 0.14939561499587142
0.4175561858095803 0.3155316033677508
0.45116690779101626 0.2878422719724376
0.45116690779101626 0.20477427778649787
0.4343615468002983 0.09401695220524493
0.4175561858095803 0.03863828941461846
0.4343615468002983 0.0663276208099317
0.5015829907631701 0.14939561499587142
0.5688044347260421 0.09401695220524493
0.602415156707478 0.0663276208099317
0.5351937127446061 0.03863828941461846
0.5351937127446061 -0.016740373376008016
0.5183883517538882 0.12170628360055817
0.46797226878173426 0.2324636091818111
0.4847776297724522 0.17708494639118466
0.3839454638281444 0.12170628360055817
0.31672401986527243 0.0663276208099317
0.35033474184670843 0.09401695220524493
0.3839454638281444 0.14939561499587142
0.45116690779101626 0.3155316033677508
0.46797226878173426 0.4262889289490038
0.5015829907631701 0.39859959755369057
0.5015829907631701 0.39859959755369057
0.5183883517538882 0.4262889289490038
0.5856097957167601 0.45397826034431704
0.7368580446332219 0.3432209347630641
0.9049116545404017 -0.09980836756194773
0.9553277375125555 -0.708973658258839
1.0225491814754275 -1.428896274536983
1.1569920694011713 -2.314954879187007
1.4930992892155308 -3.173324152441717
1.9300386749741982 -4.087072088487054
2.3333673387514295 -5.139266681508957
2.736696002528661 -6.0253252861589806
3.1232193053151747 -6.496043919879305
3.543353330083124 -6.634490576855872
3.980292715841791 -6.246839937321487
4.350010657637587 -5.803810634996474
4.702923238442664 -5.2223346756948965
5.1230572632106135 -4.502412059416753
5.3919430390621015 -3.6717321175573554
5.543191287978563 -2.6749161873260787
5.358332317080666 -1.761168251280742
4.90458757033128 -1.068934966397911
4.165151686739689 -0.48745900709633305
3.274467554231636 -0.21056569314320067
2.4341995046957376 -0.0721190361666345
1.7955957870484545 -0.18287636174788743
1.325045679308351 -0.2936336873291404
0.9217170155311196 -0.3767016815150801
0.6696366006703499 -0.2382550245385139
0.5519990737353241 -0.12749769895726096
0.5183883517538882 -0.0721190361666345
0.636025878688914 0.0663276208099317
0.686441961661068 0.14939561499587142
0.7704687666146578 0.3155316033677508
0.7872741276053759 0.2878422719724376
0.686441961661068 0.26015294057712435
0.5519990737353241 0.26015294057712435
0.45116690779101626 0.3155316033677508
0.4343615468002983 0.3709102661583773
0.46797226878173426 0.48166759173963025
0.4847776297724522 0.45397826034431704
0.4343615468002983 0.39859959755369057
0.3839454638281444 0.3432209347630641
0.3671401028374264 0.39859959755369057
0.4007508248188623 0.48166759173963025
0.4007508248188623 0.5647355859255699
0.4343615468002983 0.5370462545302568
0.3839454638281444 0.45397826034431704
0.35033474184670843 0.45397826034431704
0.33352938085599043 0.4262889289490038
0.35033474184670843 0.5093569231349435
0.4007508248188623 0.5647355859255699
0.45116690779101626 0.45397826034431704
0.4343615468002983 0.39859959755369057
0.35033474184670843 0.4262889289490038
0.31672401986527243 0.39859959755369057
0.3671401028374264 0.48166759173963025
0.4343615468002983 0.5647355859255699
0.4343615468002983 0.48166759173963025
0.4847776297724522 0.48166759173963025
0.4343615468002983 0.45397826034431704
0.3839454638281444 0.4262889289490038
0.45116690779101626 0.5370462545302568
0.4847776297724522 0.48166759173963025
0.5351937127446061 0.48166759173963025
0.4847776297724522 0.3709102661583773
0.4343615468002983 0.3432209347630641
0.4175561858095803 0.3432209347630641
0.46797226878173426 0.45397826034431704
0.5519990737353241 0.5370462545302568
0.602415156707478 0.4262889289490038
0.5688044347260421 0.39859959755369057
0.5015829907631701 0.3709102661583773
0.46797226878173426 0.3155316033677508
0.5015829907631701 0.3709102661583773
0.5351937127446061 0.45397826034431704
0.5519990737353241 0.4262889289490038
0.5351937127446061 0.3709102661583773
0.4847776297724522 0.3155316033677508
0.5183883517538882 0.39859959755369057
0.5519990737353241 0.48166759173963025
0.652831239679632 0.5647355859255699
0.7200526836425039 0.5093569231349435
0.7032473226517859 0.3709102661583773
0.636025878688914 0.2878422719724376
0.5856097957167601 0.2324636091818111
0.5856097957167601 0.3155316033677508
0.7032473226517859 0.3709102661583773
0.7872741276053759 0.3709102661583773
0.8040794885960938 0.2878422719724376
0.7704687666146578 0.26015294057712435
0.8040794885960938 0.2324636091818111
0.8208848495868117 0.2878422719724376
0.8881062935496836 0.2878422719724376
1.0057438204847096 0.2324636091818111
1.0225491814754275 0.14939561499587142
1.0393545424661454 0.12170628360055817
1.0561599034568634 0.12170628360055817
1.1401867084104533 0.17708494639118466
1.1906027913826072 0.26015294057712435
1.2578242353454792 0.3155316033677508
1.274629596336197 0.14939561499587142
1.2410188743547612 0.12170628360055817
1.2242135133640433 0.12170628360055817
1.2578242353454792 0.12170628360055817
1.358656401289787 0.2324636091818111
1.459488567234095 0.17708494639118466
1.459488567234095 0.14939561499587142
1.442683206243377 0.010948958019305222
1.4090724842619409 -0.016740373376008016
1.459488567234095 0.03863828941461846
1.5435153721876846 0.14939561499587142
1.6107368161505566 0.010948958019305222
1.6443475381319925 0.03863828941461846
1.6443475381319925 -0.04442970477132125
1.6107368161505566 -0.04442970477132125
1.6107368161505566 0.0663276208099317
1.7115689820948645 0.09401695220524493
1.7619850650670184 0.12170628360055817
1.7451797040763004 0.010948958019305222
1.7115689820948645 -0.016740373376008016
1.6611528991227105 0.09401695220524493
1.6947636211041466 0.14939561499587142
1.6611528991227105 0.2324636091818111
1.6275421771412746 0.17708494639118466
1.5603207331784028 0.14939561499587142
1.459488567234095 0.12170628360055817
1.4090724842619409 0.17708494639118466
1.341851040299069 0.2324636091818111
1.274629596336197 0.2878422719724376
1.2410188743547612 0.20477427778649787
1.1233813474197354 0.17708494639118466
1.0393545424661454 0.12170628360055817
1.0057438204847096 0.2324636091818111
0.9217170155311196 0.26015294057712435
0.8713009325589657 0.45397826034431704
0.8040794885960938 0.39859959755369057
0.7368580446332219 0.3155316033677508
0.652831239679632 0.14939561499587142
0.5688044347260421 0.20477427778649787
0.5519990737353241 0.26015294057712435
0.5519990737353241 0.3432209347630641
0.5856097957167601 0.3155316033677508
0.46797226878173426 0.2324636091818111
0.4343615468002983 0.17708494639118466
0.3839454638281444 0.20477427778649787
0.4343615468002983 0.2324636091818111
0.46797226878173426 0.3432209347630641
0.4847776297724522 0.2878422719724376
0.46797226878173426 0.20477427778649787
0.4007508248188623 0.14939561499587142
0.31672401986527243 0.12170628360055817
0.33352938085599043 0.20477427778649787
0.3671401028374264 0.2878422719724376
0.4343615468002983 0.20477427778649787
0.3671401028374264 0.17708494639118466
0.3671401028374264 0.0663276208099317
0.2999186588745545 0.20477427778649787
0.31672401986527243 0.20477427778649787
0.31672401986527243 0.26015294057712435
0.3839454638281444 0.2878422719724376
0.4007508248188623 0.26015294057712435
0.33352938085599043 0.2324636091818111
0.2999186588745545 0.3155316033677508
0.31672401986527243 0.3432209347630641
0.33352938085599043 0.39859959755369057
0.35033474184670843 0.3432209347630641
0.31672401986527243 0.2878422719724376
0.26630793689311855 0.2324636091818111
0.24950257590240055 0.2878422719724376
0.26630793689311855 0.3432209347630641
0.31672401986527243 0.3155316033677508
0.35033474184670843 0.3709102661583773
0.33352938085599043 0.26015294057712435
0.31672401986527243 0.26015294057712435
0.31672401986527243 0.2878422719724376
0.35033474184670843 0.3709102661583773
0.4175561858095803 0.48166759173963025
0.45116690779101626 0.45397826034431704
0.4343615468002983 0.4262889289490038
0.35033474184670843 0.3155316033677508
0.2999186588745545 0.3155316033677508
0.2831132978838365 0.3709102661583773
0.35033474184670843 0.45397826034431704
0.4007508248188623 0.3709102661583773
0.3839454638281444 0.2878422719724376
0.35033474184670843 0.2878422719724376
0.35033474184670843 0.3155316033677508
0.3839454638281444 0.3709102661583773
0.4175561858095803 0.5093569231349435
0.4007508248188623 0.45397826034431704
0.35033474184670843 0.3432209347630641
0.2999186588745545 0.3155316033677508
0.23269721491168258 0.2878422719724376
0.31672401986527243 0.3155316033677508
0.31672401986527243 0.3432209347630641
0.3671401028374264 0.3709102661583773
0.4007508248188623 0.26015294057712435
0.2831132978838365 0.26015294057712435
0.2999186588745545 0.2878422719724376
0.23269721491168258 0.26015294057712435
0.23269721491168258 0.3155316033677508
0.26630793689311855 0.20477427778649787
0.23269721491168258 0.2324636091818111
0.26630793689311855 0.09401695220524493
0.26630793689311855 0.20477427778649787
0.24950257590240055 0.17708494639118466
0.24950257590240055 0.2878422719724376
0.2999186588745545 0.20477427778649787
0.26630793689311855 0.09401695220524493
0.23269721491168258 0.0663276208099317
0.23269721491168258 0.17708494639118466
0.2158918539209646 0.2324636091818111
0.24950257590240055 0.2324636091818111
0.2999186588745545 0.26015294057712435
0.2831132978838365 0.20477427778649787
0.2158918539209646 0.17708494639118466
0.19908649293024663 0.17708494639118466
0.18228113193952863 0.17708494639118466
0.2158918539209646 0.3155316033677508
0.26630793689311855 0.20477427778649787
0.2158918539209646 0.14939561499587142
0.19908649293024663 0.14939561499587142
0.11505968797665674 0.09401695220524493
0.13186504896737472 0.12170628360055817
0.24950257590240055 0.20477427778649787
0.31672401986527243 0.12170628360055817
0.2831132978838365 0.0663276208099317
0.26630793689311855 0.010948958019305222
0.2158918539209646 -0.04442970477132125
0.24950257590240055 0.14939561499587142
0.2999186588745545 0.2324636091818111
0.3671401028374264 0.2878422719724376
0.33352938085599043 0.2324636091818111
0.16547577094881066 0.2324636091818111
0.11505968797665674 0.2324636091818111
0.06464360500450281 0.3155316033677508
0.08144896599522078 0.3155316033677508
0.16547577094881066 0.2878422719724376
0.16547577094881066 0.2324636091818111
0.1486704099580927 0.17708494639118466
0.1486704099580927 0.17708494639118466
0.18228113193952863 0.14939561499587142
0.19908649293024663 0.14939561499587142
0.19908649293024663 0.09401695220524493
0.18228113193952863 0.12170628360055817
0.09825432698593876 0.0663276208099317
0.11505968797665674 0.0663276208099317
0.16547577094881066 0.12170628360055817
0.2158918539209646 0.20477427778649787
0.26630793689311855 0.14939561499587142
0.2158918539209646 0.03863828941461846
0.16547577094881066 -0.04442970477132125
0.18228113193952863 0.010948958019305222
0.16547577094881066 0.09401695220524493
0.24950257590240055 0.17708494639118466
0.26630793689311855 0.12170628360055817
0.2158918539209646 0.03863828941461846
0.18228113193952863 -0.0721190361666345
0.18228113193952863 -0.016740373376008016
0.23269721491168258 0.03863828941461846
0.24950257590240055 0.17708494639118466
0.23269721491168258 0.14939561499587142
0.23269721491168258 0.12170628360055817
0.2158918539209646 0.010948958019305222
0.19908649293024663 0.03863828941461846
0.19908649293024663 0.03863828941461846
0.33352938085599043 0.17708494639118466
0.35033474184670843 0.0663276208099317
0.2999186588745545 0.03863828941461846
0.23269721491168258 -0.04442970477132125
0.19908649293024663 0.03863828941461846
0.2831132978838365 0.12170628360055817
0.31672401986527243 0.14939561499587142
0.35033474184670843 0.0663276208099317
0.2831132978838365 0.010948958019305222
0.16547577094881066 0.03863828941461846
0.2158918539209646 0.0663276208099317
0.23269721491168258 0.09401695220524493
0.24950257590240055 0.26015294057712435
0.19908649293024663 0.12170628360055817
0.18228113193952863 0.0663276208099317
0.16547577094881066 0.03863828941461846
0.11505968797665674 -0.016740373376008016
0.2158918539209646 0.010948958019305222
0.26630793689311855 0.14939561499587142
0.26630793689311855 0.09401695220524493
0.26630793689311855 0.0663276208099317
0.24950257590240055 -0.0721190361666345
0.2158918539209646 0.010948958019305222
0.2158918539209646 0.12170628360055817
0.2831132978838365 0.17708494639118466
0.2999186588745545 0.20477427778649787
0.2999186588745545 0.0663276208099317
0.26630793689311855 0.03863828941461846
0.19908649293024663 0.010948958019305222
0.2158918539209646 0.03863828941461846
0.24950257590240055 0.010948958019305222
0.23269721491168258 -0.016740373376008016
0.23269721491168258 0.010948958019305222
0.26630793689311855 -0.0721190361666345
0.24950257590240055 -0.12749769895726096
0.2999186588745545 -0.016740373376008016
0.31672401986527243 0.09401695220524493
0.33352938085599043 0.010948958019305222
0.35033474184670843 -0.0721190361666345
0.23269721491168258 -0.09980836756194773
0.24950257590240055 -0.0721190361666345
0.2999186588745545 -0.016740373376008016
0.31672401986527243 0.09401695220524493
0.4175561858095803 -0.016740373376008016
0.35033474184670843 -0.016740373376008016
0.33352938085599043 -0.016740373376008016
0.31672401986527243 -0.04442970477132125
0.31672401986527243 0.010948958019305222
0.31672401986527243 0.09401695220524493
0.31672401986527243 0.010948958019305222
0.35033474184670843 -0.016740373376008016
0.2831132978838365 -0.04442970477132125
0.2999186588745545 0.03863828941461846
0.33352938085599043 0.0663276208099317
0.3671401028374264 0.14939561499587142
0.4007508248188623 0.09401695220524493
0.3839454638281444 0.0663276208099317
0.3839454638281444 -0.09980836756194773
0.35033474184670843 0.03863828941461846
0.33352938085599043 0.17708494639118466
0.3671401028374264 0.3709102661583773
0.3839454638281444 0.48166759173963025
0.33352938085599043 0.4262889289490038
0.3839454638281444 0.3709102661583773
0.4175561858095803 0.3709102661583773
0.5183883517538882 0.3709102661583773
0.5519990737353241 0.3432209347630641
0.6192205176981961 0.2878422719724376
0.602415156707478 0.14939561499587142
0.6192205176981961 0.12170628360055817
0.6192205176981961 0.03863828941461846
0.6192205176981961 0.12170628360055817
0.636025878688914 0.20477427778649787
0.6696366006703499 0.14939561499587142
0.7704687666146578 -0.04442970477132125
0.7200526836425039 -0.1551870303525742
0.7032473226517859 -0.12749769895726096
0.7032473226517859 -0.18287636174788743
0.7200526836425039 -0.1551870303525742
0.7368580446332219 -0.26594435593382715
0.686441961661068 -0.26594435593382715
0.602415156707478 -0.3490123501197669
0.5519990737353241 -0.3490123501197669
0.5688044347260421 -0.2382550245385139
0.6192205176981961 -0.04442970477132125
0.6192205176981961 0.09401695220524493
0.5856097957167601 -0.016740373376008016
0.46797226878173426 -0.04442970477132125
0.4343615468002983 -0.0721190361666345
0.46797226878173426 -0.016740373376008016
0.4847776297724522 -0.016740373376008016
0.4847776297724522 -0.04442970477132125
0.4175561858095803 -0.016740373376008016
0.3671401028374264 -0.12749769895726096
0.35033474184670843 -0.09980836756194773
0.3671401028374264 -0.016740373376008016
0.4007508248188623 0.0663276208099317
0.3839454638281444 0.0663276208099317
0.31672401986527243 -0.04442970477132125
0.24950257590240055 -0.09980836756194773
0.23269721491168258 -0.0721190361666345
0.26630793689311855 -0.016740373376008016
0.3671401028374264 0.03863828941461846
0.35033474184670843 0.12170628360055817
0.33352938085599043 0.09401695220524493
0.2999186588745545 0.03863828941461846
0.24950257590240055 -0.016740373376008016
0.19908649293024663 0.03863828941461846
0.26630793689311855 0.0663276208099317
0.2999186588745545 -0.016740373376008016
0.2999186588745545 -0.04442970477132125
0.23269721491168258 -0.1551870303525742
0.23269721491168258 -0.04442970477132125
0.24950257590240055 -0.04442970477132125
0.31672401986527243 0.03863828941461846
0.3671401028374264 0.03863828941461846
0.3671401028374264 0.010948958019305222
0.35033474184670843 0.010948958019305222
0.35033474184670843 0.14939561499587142
0.4175561858095803 0.3155316033677508
0.5015829907631701 0.45397826034431704
0.5688044347260421 0.3709102661583773
0.652831239679632 0.010948958019305222
0.7200526836425039 -0.598216332677586
0.7536634056239399 -1.2627602861651037
0.9385223765218376 -1.9549935710479347
1.274629596336197 -2.8410521756979583
1.6275421771412746 -3.976314762905801
2.014065479927788 -5.139266681508957
2.3501726997421475 -6.080703948949607
2.820722807482251 -6.6621799082511854
3.3416889981945084 -6.6621799082511854
3.8458498279160476 -6.246839937321487
4.198762408721125 -5.831499966391788
4.602091072498356 -5.139266681508957
5.005419736275588 -4.114761419882367
5.156667985192049 -2.924120169883898
4.971809014294152 -1.9549935710479347
4.5684803505169205 -1.2627602861651037
3.9298766328696373 -0.8751096466307183
3.0728032223430204 -0.7366629896541522
2.2997566167699937 -0.7643523210494654
1.7115689820948645 -0.7366629896541522
1.1906027913826072 -0.6259056640728993
0.8881062935496836 -0.3767016815150801
0.686441961661068 -0.26594435593382715
0.5856097957167601 -0.18287636174788743
0.5351937127446061 -0.0721190361666345
0.5351937127446061 0.010948958019305222
0.5688044347260421 0.12170628360055817
0.5856097957167601 0.26015294057712435
0.5856097957167601 0.3155316033677508
0.4847776297724522 0.2324636091818111
0.4175561858095803 0.2324636091818111
0.35033474184670843 0.26015294057712435
0.2999186588745545 0.3155316033677508
0.2831132978838365 0.3709102661583773
0.2999186588745545 0.39859959755369057
0.23269721491168258 0.3432209347630641
0.18228113193952863 0.3155316033677508
0.16547577094881066 0.3155316033677508
0.16547577094881066 0.45397826034431704
0.26630793689311855 0.48166759173963025
0.2831132978838365 0.4262889289490038
0.2999186588745545 0.39859959755369057
0.23269721491168258 0.2878422719724376
0.23269721491168258 0.3432209347630641
0.2158918539209646 0.39859959755369057
0.23269721491168258 0.45397826034431704
0.26630793689311855 0.39859959755369057
0.18228113193952863 0.39859959755369057
0.19908649293024663 0.3709102661583773
0.18228113193952863 0.3709102661583773
0.16547577094881066 0.4262889289490038
0.2158918539209646 0.48166759173963025
0.2831132978838365 0.39859959755369057
0.24950257590240055 0.3709102661583773
0.23269721491168258 0.26015294057712435
0.18228113193952863 0.3155316033677508
0.18228113193952863 0.39859959755369057
0.2999186588745545 0.4262889289490038
0.3839454638281444 0.4262889289490038
0.35033474184670843 0.4262889289490038
0.31672401986527243 0.2878422719724376
0.2831132978838365 0.39859959755369057
0.2999186588745545 0.45397826034431704
0.4007508248188623 0.45397826034431704
0.3839454638281444 0.4262889289490038
0.4007508248188623 0.3709102661583773
0.2999186588745545 0.3155316033677508
0.2999186588745545 0.3155316033677508
0.31672401986527243 0.3709102661583773
0.4343615468002983 0.39859959755369057
0.5351937127446061 0.3432209347630641
0.4847776297724522 0.2324636091818111
0.5015829907631701 0.20477427778649787
0.4343615468002983 0.2324636091818111
0.4847776297724522 0.2878422719724376
0.5015829907631701 0.3432209347630641
0.5856097957167601 0.3155316033677508
0.5856097957167601 0.2324636091818111
0.5856097957167601 0.17708494639118466
0.5519990737353241 0.14939561499587142
0.6192205176981961 0.2324636091818111
0.686441961661068 0.26015294057712435
0.7368580446332219 0.17708494639118466
0.7032473226517859 0.20477427778649787
0.686441961661068 0.03863828941461846
0.7032473226517859 0.14939561499587142
0.7704687666146578 0.17708494639118466
0.8881062935496836 0.26015294057712435
0.9217170155311196 0.26015294057712435
0.8881062935496836 0.12170628360055817
0.9217170155311196 0.12170628360055817
0.9049116545404017 0.12170628360055817
1.0057438204847096 0.14939561499587142
1.0897706254382993 0.2324636091818111
1.1569920694011713 0.14939561499587142
1.1401867084104533 0.09401695220524493
1.1569920694011713 0.03863828941461846
1.1569920694011713 0.010948958019305222
1.207408152373325 0.010948958019305222
1.308240318317633 0.09401695220524493
1.392267123271223 0.03863828941461846
1.442683206243377 0.010948958019305222
1.442683206243377 -0.0721190361666345
1.442683206243377 -0.0721190361666345
1.4762939282248129 0.010948958019305222
1.5435153721876846 0.0663276208099317
1.5435153721876846 0.010948958019305222
1.5435153721876846 -0.12749769895726096
1.5099046502062488 -0.0721190361666345
1.5099046502062488 -0.0721190361666345
1.5603207331784028 0.010948958019305222
1.5435153721876846 0.12170628360055817
1.5771260941691208 0.09401695220524493
1.5435153721876846 0.09401695220524493
1.4258778452526588 -0.0721190361666345
1.358656401289787 -0.04442970477132125
1.308240318317633 0.03863828941461846
1.2578242353454792 0.12170628360055817
1.207408152373325 0.0663276208099317
1.1233813474197354 0.010948958019305222
1.0393545424661454 -0.0721190361666345
1.0393545424661454 -0.016740373376008016
0.9889384594939915 0.03863828941461846
0.9553277375125555 0.12170628360055817
0.8376902105775297 0.03863828941461846
0.7872741276053759 0.03863828941461846
0.6696366006703499 -0.04442970477132125
0.6192205176981961 -0.016740373376008016
0.5688044347260421 0.03863828941461846
0.5856097957167601 0.09401695220524493
0.602415156707478 0.03863828941461846
0.5351937127446061 -0.016740373376008016
0.46797226878173426 -0.016740373376008016
0.4175561858095803 -0.0721190361666345
0.4175561858095803 0.03863828941461846
0.4175561858095803 0.03863828941461846
0.3671401028374264 0.03863828941461846
0.31672401986527243 -0.016740373376008016
0.2831132978838365 -0.09980836756194773
0.2831132978838365 -0.04442970477132125
0.26630793689311855 -0.04442970477132125
0.2999186588745545 0.0663276208099317
0.2831132978838365 0.12170628360055817
0.26630793689311855 0.0663276208099317
0.23269721491168258 0.03863828941461846
0.19908649293024663 0.010948958019305222
0.23269721491168258 0.010948958019305222
0.26630793689311855 -0.016740373376008016
0.2831132978838365 -0.016740373376008016
0.24950257590240055 -0.12749769895726096
0.2158918539209646 -0.12749769895726096
0.16547577094881066 -0.04442970477132125
0.1486704099580927 0.03863828941461846
0.2999186588745545 0.0663276208099317
0.31672401986527243 0.0663276208099317
0.2831132978838365 -0.016740373376008016
0.24950257590240055 -0.09980836756194773
0.24950257590240055 -0.04442970477132125
0.24950257590240055 -0.0721190361666345
0.33352938085599043 0.0663276208099317
0.3839454638281444 -0.016740373376008016
0.35033474184670843 0.0663276208099317
0.2999186588745545 0.03863828941461846
0.24950257590240055 0.010948958019305222
0.2831132978838365 0.03863828941461846
0.24950257590240055 0.09401695220524493
0.2158918539209646 0.0663276208099317
0.23269721491168258 0.0663276208099317
0.19908649293024663 -0.016740373376008016
0.2158918539209646 0.010948958019305222
0.2158918539209646 0.12170628360055817
0.26630793689311855 0.20477427778649787
0.23269721491168258 0.17708494639118466
0.19908649293024663 0.14939561499587142
0.1486704099580927 0.03863828941461846
0.1486704099580927 0.0663276208099317
0.13186504896737472 0.03863828941461846
0.2158918539209646 0.09401695220524493
0.24950257590240055 0.12170628360055817
0.23269721491168258 0.09401695220524493
0.19908649293024663 0.03863828941461846
0.09825432698593876 0.09401695220524493
0.1486704099580927 0.17708494639118466
0.19908649293024663 0.20477427778649787
0.19908649293024663 0.17708494639118466
0.19908649293024663 0.14939561499587142
0.09825432698593876 0.09401695220524493
0.11505968797665674 0.010948958019305222
0.1486704099580927 0.12170628360055817
0.23269721491168258 0.12170628360055817
0.26630793689311855 0.14939561499587142
0.26630793689311855 0.09401695220524493
0.24950257590240055 0.03863828941461846
0.2158918539209646 0.03863828941461846
0.23269721491168258 0.12170628360055817
0.2999186588745545 0.20477427778649787
0.33352938085599043 0.14939561499587142
0.2999186588745545 0.0663276208099317
0.2158918539209646 0.010948958019305222
0.18228113193952863 0.0663276208099317
0.16547577094881066 0.12170628360055817
0.19908649293024663 0.09401695220524493
0.16547577094881066 0.09401695220524493
0.1486704099580927 0.0663276208099317
0.13186504896737472 -0.09980836756194773
0.09825432698593876 -0.12749769895726096
0.11505968797665674 -0.04442970477132125
0.18228113193952863 0.0663276208099317
0.19908649293024663 0.010948958019305222
0.16547577094881066 -0.0721190361666345
0.08144896599522078 -0.0721190361666345
0.06464360500450281 -0.09980836756194773
0.04783824401378483 0.010948958019305222
0.16547577094881066 0.12170628360055817
0.2158918539209646 0.010948958019305222
0.18228113193952863 -0.0721190361666345
0.1486704099580927 -0.18287636174788743
0.11505968797665674 -0.18287636174788743
0.16547577094881066 -0.0721190361666345
0.13186504896737472 0.0663276208099317
0.19908649293024663 0.010948958019305222
0.16547577094881066 -0.0721190361666345
0.09825432698593876 -0.04442970477132125
0.031032883023066855 0.010948958019305222
0.11505968797665674 0.010948958019305222
0.13186504896737472 0.14939561499587142
0.16547577094881066 0.09401695220524493
0.16547577094881066 -0.04442970477132125
0.13186504896737472 -0.0721190361666345
0.09825432698593876 -0.0721190361666345
0.06464360500450281 0.03863828941461846
0.13186504896737472 0.12170628360055817
0.1486704099580927 0.0663276208099317
0.13186504896737472 0.010948958019305222
0.09825432698593876 -0.016740373376008016
0.04783824401378483 -0.016740373376008016
0.06464360500450281 0.0663276208099317
0.09825432698593876 0.010948958019305222
0.1486704099580927 0.03863828941461846
0.1486704099580927 -0.09980836756194773
0.04783824401378483 -0.26594435593382715
0.06464360500450281 -0.26594435593382715
0.08144896599522078 -0.21056569314320067
0.13186504896737472 -0.0721190361666345
0.18228113193952863 -0.1551870303525742
0.18228113193952863 -0.1551870303525742
0.1486704099580927 -0.1551870303525742
0.1486704099580927 -0.1551870303525742
0.09825432698593876 -0.12749769895726096
0.06464360500450281 0.010948958019305222
0.18228113193952863 -0.0721190361666345
0.13186504896737472 -0.1551870303525742
0.1486704099580927 -0.12749769895726096
0.09825432698593876 -0.12749769895726096
0.09825432698593876 -0.0721190361666345
0.16547577094881066 0.03863828941461846
0.16547577094881066 -0.016740373376008016
0.09825432698593876 -0.1551870303525742
-0.002577838958369098 -0.21056569314320067
-0.002577838958369098 -0.12749769895726096
0.031032883023066855 -0.04442970477132125
0.08144896599522078 0.0663276208099317
0.09825432698593876 -0.016740373376008016
0.08144896599522078 -0.04442970477132125
-0.002577838958369098 -0.1551870303525742
-0.019383199949087073 -0.12749769895726096
0.04783824401378483 -0.016740373376008016
0.09825432698593876 0.0663276208099317
0.1486704099580927 0.0663276208099317
0.09825432698593876 0.010948958019305222
0.06464360500450281 -0.09980836756194773
0.04783824401378483 -0.12749769895726096
0.04783824401378483 -0.09980836756194773
0.08144896599522078 0.010948958019305222
0.09825432698593876 -0.09980836756194773
0.11505968797665674 -0.09980836756194773
0.014227522032348878 -0.1551870303525742
-0.002577838958369098 -0.21056569314320067
0.031032883023066855 -0.09980836756194773
0.04783824401378483 -0.0721190361666345
0.09825432698593876 -0.04442970477132125
0.11505968797665674 -0.1551870303525742
0.06464360500450281 -0.21056569314320067
0.08144896599522078 -0.2382550245385139
0.09825432698593876 -0.18287636174788743
0.11505968797665674 0.03863828941461846
0.1486704099580927 -0.016740373376008016
0.16547577094881066 -0.0721190361666345
0.16547577094881066 -0.18287636174788743
0.09825432698593876 -0.09980836756194773
0.014227522032348878 -0.0721190361666345
0.031032883023066855 0.03863828941461846
0.09825432698593876 0.010948958019305222
0.06464360500450281 -0.016740373376008016
0.031032883023066855 -0.09980836756194773
0.04783824401378483 -0.1551870303525742
0.08144896599522078 -0.016740373376008016
0.1486704099580927 0.010948958019305222
0.18228113193952863 0.010948958019305222
0.16547577094881066 -0.04442970477132125
0.13186504896737472 -0.09980836756194773
0.04783824401378483 -0.0721190361666345
0.04783824401378483 0.010948958019305222
0.08144896599522078 0.010948958019305222
0.09825432698593876 -0.0721190361666345
0.09825432698593876 -0.09980836756194773
0.06464360500450281 -0.18287636174788743
0.09825432698593876 -0.18287636174788743
0.09825432698593876 -0.09980836756194773
0.1486704099580927 -0.04442970477132125
0.18228113193952863 -0.016740373376008016
0.1486704099580927 -0.09980836756194773
0.16547577094881066 -0.1551870303525742
0.1486704099580927 -0.016740373376008016
0.16547577094881066 0.09401695220524493
0.18228113193952863 0.3155316033677508
0.2831132978838365 0.39859959755369057
0.2831132978838365 0.3432209347630641
0.2831132978838365 0.2324636091818111
0.26630793689311855 0.17708494639118466
0.31672401986527243 0.17708494639118466
0.3839454638281444 0.17708494639118466
0.4343615468002983 0.0663276208099317
0.5015829907631701 -0.0721190361666345
0.5351937127446061 -0.09980836756194773
0.5015829907631701 -0.016740373376008016
0.5351937127446061 0.010948958019305222
0.5688044347260421 0.0663276208099317
0.6192205176981961 -0.09980836756194773
0.5688044347260421 -0.1551870303525742
0.5351937127446061 -0.2936336873291404
0.4847776297724522 -0.3490123501197669
0.5183883517538882 -0.26594435593382715
0.5519990737353241 -0.26594435593382715
0.5519990737353241 -0.2936336873291404
0.5015829907631701 -0.2936336873291404
0.4007508248188623 -0.3490123501197669
0.31672401986527243 -0.3213230187244536
0.2999186588745545 -0.26594435593382715
0.3671401028374264 -0.09980836756194773
0.3671401028374264 -0.04442970477132125
0.33352938085599043 0.010948958019305222
0.26630793689311855 -0.04442970477132125
0.2158918539209646 -0.12749769895726096
0.16547577094881066 -0.0721190361666345
0.18228113193952863 -0.016740373376008016
0.16547577094881066 -0.09980836756194773
0.1486704099580927 -0.1551870303525742
0.08144896599522078 -0.26594435593382715
0.06464360500450281 -0.18287636174788743
0.08144896599522078 -0.12749769895726096
0.08144896599522078 -0.09980836756194773
0.18228113193952863 -0.1551870303525742
0.1486704099580927 -0.1551870303525742
0.16547577094881066 -0.2382550245385139
0.18228113193952863 -0.0721190361666345
0.11505968797665674 -0.0721190361666345
0.13186504896737472 0.010948958019305222
0.13186504896737472 -0.0721190361666345
0.08144896599522078 -0.1551870303525742
0.014227522032348878 -0.18287636174788743
0.04783824401378483 -0.18287636174788743
0.09825432698593876 -0.09980836756194773
0.19908649293024663 -0.016740373376008016
0.19908649293024663 -0.016740373376008016
0.13186504896737472 -0.12749769895726096
0.06464360500450281 -0.18287636174788743
0.06464360500450281 -0.1551870303525742
0.06464360500450281 -0.09980836756194773
0.08144896599522078 0.010948958019305222
0.16547577094881066 0.010948958019305222
0.19908649293024663 0.010948958019305222
0.09825432698593876 0.0663276208099317
0.13186504896737472 0.20477427778649787
0.16547577094881066 0.3155316033677508
0.2999186588745545 0.3432209347630641
0.3671401028374264 -0.0721190361666345
0.46797226878173426 -0.6812843268635257
0.4847776297724522 -1.428896274536983
0.636025878688914 -2.1488188908151273
0.8040794885960938 -3.173324152441717
1.1401867084104533 -4.253208076858933
1.5771260941691208 -5.443849326857403
1.9636493969556341 -6.6068012454605585
2.3333673387514295 -7.2990345303433894
2.753501363519379 -7.437481187319956
3.257662193240918 -7.13289854197151
3.627380135036714 -6.468354588483992
4.064319520795381 -5.665363978019909
4.434037462591177 -4.502412059416753
4.534869628535485 -3.3671494722089097
4.215567769711843 -2.1765082222104404
3.7450176619717395 -1.4565856059322964
3.0223871393708666 -0.9858669722119713
2.2661458947885578 -0.8751096466307183
1.5771260941691208 -0.9027989780260316
1.0393545424661454 -0.8751096466307183
0.7032473226517859 -0.7366629896541522
0.4847776297724522 -0.45976967570101984
0.4175561858095803 -0.12749769895726096
0.3839454638281444 -0.09980836756194773
0.33352938085599043 0.010948958019305222
0.31672401986527243 -0.04442970477132125
0.23269721491168258 0.010948958019305222
0.2158918539209646 0.17708494639118466
0.18228113193952863 0.2878422719724376
0.1486704099580927 0.26015294057712435
0.08144896599522078 0.3155316033677508
-0.002577838958369098 0.17708494639118466
-0.052993921930523026 0.14939561499587142
-0.002577838958369098 0.2324636091818111
-0.019383199949087073 0.3155316033677508
0.04783824401378483 0.2878422719724376
0.014227522032348878 0.17708494639118466
-0.019383199949087073 0.09401695220524493
-0.052993921930523026 0.14939561499587142
-0.052993921930523026 0.20477427778649787
-0.019383199949087073 0.17708494639118466
0.06464360500450281 0.2324636091818111
0.06464360500450281 0.14939561499587142
0.014227522032348878 0.14939561499587142
-0.052993921930523026 0.14939561499587142
-0.03618856093980505 0.20477427778649787
-0.019383199949087073 0.2878422719724376
0.031032883023066855 0.3432209347630641
0.04783824401378483 0.2878422719724376
-0.019383199949087073 0.2324636091818111
-0.019383199949087073 0.2324636091818111
0.014227522032348878 0.2878422719724376
0.09825432698593876 0.26015294057712435
0.1486704099580927 0.3155316033677508
0.09825432698593876 0.17708494639118466
0.08144896599522078 0.14939561499587142
0.031032883023066855 0.20477427778649787
0.11505968797665674 0.3155316033677508
0.09825432698593876 0.3709102661583773
0.11505968797665674 0.3432209347630641
0.09825432698593876 0.26015294057712435
0.09825432698593876 0.14939561499587142
0.08144896599522078 0.17708494639118466
0.11505968797665674 0.20477427778649787
0.16547577094881066 0.2324636091818111
