-0.3050743367912927 0.3709102661583773
-0.32187969778201064 0.4262889289490038
-0.3050743367912927 0.45397826034431704
-0.2882689758005747 0.5093569231349435
-0.25465825381913876 0.5093569231349435
-0.32187969778201064 0.45397826034431704
-0.3722957807541646 0.39859959755369057
-0.4227118637263185 0.4262889289490038
-0.4059065027356005 0.48166759173963025
-0.4227118637263185 0.45397826034431704
-0.3891011417448826 0.3709102661583773
-0.3891011417448826 0.3155316033677508
-0.4227118637263185 0.17708494639118466
-0.4899333076891904 0.17708494639118466
-0.45632258570775447 0.3155316033677508
-0.4899333076891904 0.39859959755369057
-0.45632258570775447 0.45397826034431704
-0.4227118637263185 0.45397826034431704
-0.4731279466984724 0.4262889289490038
-0.4899333076891904 0.48166759173963025
-0.4899333076891904 0.6201142487161965
-0.4227118637263185 0.6478035801115097
-0.3554904197634466 0.7031822429021362
-0.3554904197634466 0.6754929115068229
-0.4059065027356005 0.7585609056927627
-0.43951722471703647 0.7862502370880758
-0.4731279466984724 0.8416288998787024
-0.45632258570775447 0.9800755568552685
-0.4059065027356005 0.9523862254599553
-0.3891011417448826 0.9800755568552685
-0.3891011417448826 0.8693182312740156
-0.3891011417448826 0.8970075626693288
-0.3722957807541646 0.8970075626693288
-0.2882689758005747 0.8970075626693288
-0.2714636148098567 0.8970075626693288
-0.2882689758005747 0.7308715742974494
-0.33868505877272864 0.6201142487161965
-0.3891011417448826 0.6754929115068229
-0.3554904197634466 0.7031822429021362
-0.2714636148098567 0.6478035801115097
-0.2882689758005747 0.5370462545302568
-0.2714636148098567 0.3709102661583773
-0.32187969778201064 0.3709102661583773
-0.3891011417448826 0.39859959755369057
-0.3722957807541646 0.45397826034431704
-0.3722957807541646 0.4262889289490038
-0.3050743367912927 0.3709102661583773
-0.3554904197634466 0.3709102661583773
-0.4059065027356005 0.3155316033677508
-0.45632258570775447 0.39859959755369057
-0.45632258570775447 0.5093569231349435
-0.45632258570775447 0.5647355859255699
-0.45632258570775447 0.5647355859255699
-0.4227118637263185 0.4262889289490038
-0.5235440296706264 0.26015294057712435
-0.5235440296706264 0.3155316033677508
-0.5235440296706264 0.39859959755369057
-0.5067386686799084 0.48166759173963025
-0.4731279466984724 0.4262889289490038
-0.43951722471703647 0.3709102661583773
-0.5235440296706264 0.2878422719724376
-0.5907654736334983 0.39859959755369057
-0.5907654736334983 0.45397826034431704
-0.5235440296706264 0.48166759173963025
-0.5571547516520623 0.4262889289490038
-0.5403493906613444 0.3432209347630641
-0.5571547516520623 0.2878422719724376
-0.6243761956149342 0.3155316033677508
-0.6243761956149342 0.4262889289490038
-0.5907654736334983 0.45397826034431704
-0.4899333076891904 0.48166759173963025
-0.5571547516520623 0.4262889289490038
-0.5571547516520623 0.3432209347630641
-0.5571547516520623 0.2324636091818111
-0.5403493906613444 0.2878422719724376
-0.45632258570775447 0.4262889289490038
-0.3891011417448826 0.5093569231349435
-0.3891011417448826 0.48166759173963025
-0.45632258570775447 0.4262889289490038
-0.4227118637263185 0.5370462545302568
-0.4731279466984724 0.6201142487161965
-0.3554904197634466 0.7031822429021362
-0.2714636148098567 0.7031822429021362
-0.2882689758005747 0.7308715742974494
-0.33868505877272864 0.6478035801115097
-0.3722957807541646 0.6754929115068229
-0.3050743367912927 0.7308715742974494
-0.2882689758005747 0.7308715742974494
-0.23785289282842076 0.8139395684833891
-0.2210475318377028 0.7031822429021362
-0.23785289282842076 0.6201142487161965
-0.3050743367912927 0.6201142487161965
-0.33868505877272864 0.48166759173963025
-0.25465825381913876 0.5093569231349435
-0.25465825381913876 0.4262889289490038
-0.2882689758005747 0.3432209347630641
-0.3722957807541646 0.26015294057712435
-0.3891011417448826 0.26015294057712435
-0.3554904197634466 0.2878422719724376
-0.32187969778201064 0.3155316033677508
-0.2714636148098567 0.2878422719724376
-0.3050743367912927 0.3155316033677508
-0.3722957807541646 0.20477427778649787
-0.4059065027356005 0.14939561499587142
-0.43951722471703647 0.12170628360055817
-0.3891011417448826 0.2324636091818111
-0.33868505877272864 0.26015294057712435
-0.3891011417448826 0.14939561499587142
-0.43951722471703647 0.09401695220524493
-0.4899333076891904 0.010948958019305222
-0.4899333076891904 0.12170628360055817
-0.45632258570775447 0.14939561499587142
-0.4227118637263185 0.14939561499587142
-0.4899333076891904 0.14939561499587142
-0.5235440296706264 0.0663276208099317
-0.5907654736334983 0.14939561499587142
-0.5907654736334983 0.20477427778649787
-0.5403493906613444 0.3155316033677508
-0.5067386686799084 0.3432209347630641
-0.5403493906613444 0.2878422719724376
-0.6411815566056522 0.17708494639118466
-0.6579869175963702 0.20477427778649787
-0.6243761956149342 0.17708494639118466
-0.5739601126427804 0.2324636091818111
-0.5739601126427804 0.26015294057712435
-0.5907654736334983 0.3432209347630641
-0.6075708346242162 0.3432209347630641
-0.6411815566056522 0.3709102661583773
-0.6243761956149342 0.3709102661583773
-0.5571547516520623 0.45397826034431704
-0.5235440296706264 0.5093569231349435
-0.5571547516520623 0.3709102661583773
-0.5907654736334983 0.39859959755369057
-0.6075708346242162 0.3432209347630641
-0.6243761956149342 0.39859959755369057
-0.5907654736334983 0.48166759173963025
-0.5403493906613444 0.3709102661583773
-0.5235440296706264 0.39859959755369057
-0.5739601126427804 0.3709102661583773
-0.5739601126427804 0.39859959755369057
-0.5739601126427804 0.4262889289490038
-0.5571547516520623 0.5370462545302568
-0.5067386686799084 0.5924249173208832
-0.5067386686799084 0.7308715742974494
-0.5067386686799084 0.6754929115068229
-0.5235440296706264 0.7585609056927627
-0.4731279466984724 0.8416288998787024
-0.3722957807541646 0.9800755568552685
-0.2882689758005747 1.0077648882505819
-0.2882689758005747 0.9800755568552685
-0.18743680985626684 0.8970075626693288
-0.20424217084698482 0.7862502370880758
-0.17063144886554887 0.7585609056927627
-0.12021536589339493 0.7308715742974494
-0.12021536589339493 0.6478035801115097
-0.08660464391195898 0.5924249173208832
-0.10341000490267696 0.5093569231349435
-0.15382608787483087 0.5093569231349435
-0.15382608787483087 0.5093569231349435
-0.069799282921241 0.5370462545302568
-0.052993921930523026 0.4262889289490038
-0.03618856093980505 0.3709102661583773
-0.1370207268841129 0.3155316033677508
-0.12021536589339493 0.26015294057712435
-0.10341000490267696 0.3155316033677508
-0.069799282921241 0.39859959755369057
-0.069799282921241 0.39859959755369057
-0.069799282921241 0.3709102661583773
-0.10341000490267696 0.39859959755369057
-0.08660464391195898 0.4262889289490038
-0.03618856093980505 0.48166759173963025
0.09825432698593876 0.5093569231349435
0.18228113193952863 0.14939561499587142
0.26630793689311855 -0.2936336873291404
0.26630793689311855 -0.9304883094213449
0.4343615468002983 -1.5950322629088625
0.652831239679632 -2.2872655477916934
1.0897706254382993 -2.9518095012792114
1.5603207331784028 -3.865557437324548
2.030870840918506 -4.723926710579258
2.4510048656864556 -5.33309200127615
2.9719710563987127 -5.582295983833969
3.459326525129534 -5.360781332671463
3.980292715841791 -4.945441361741764
4.417232101600459 -4.3916547338355
4.8205607653776905 -3.616353454766729
4.955003653303434 -2.7302948501167053
4.870976848349844 -1.650410925699489
4.400426740609741 -0.7643523210494654
3.7282123009810215 -0.18287636174788743
2.938360334417277 0.17708494639118466
2.047676201909224 0.12170628360055817
1.274629596336197 -0.09980836756194773
0.636025878688914 -0.21056569314320067
0.24950257590240055 -0.12749769895726096
0.031032883023066855 0.09401695220524493
-0.03618856093980505 0.2324636091818111
-0.03618856093980505 0.3155316033677508
-0.069799282921241 0.45397826034431704
-0.08660464391195898 0.48166759173963025
-0.12021536589339493 0.7031822429021362
-0.15382608787483087 0.8139395684833891
-0.15382608787483087 0.8970075626693288
-0.2210475318377028 0.9246968940646421
-0.2882689758005747 0.8416288998787024
-0.3554904197634466 0.8970075626693288
-0.3891011417448826 1.0077648882505819
-0.3891011417448826 1.1185222138318347
-0.3554904197634466 1.1739008766224612
-0.3891011417448826 1.2292795394130878
-0.45632258570775447 1.3123475335990273
-0.5235440296706264 1.3400368649943406
-0.4731279466984724 1.3954155277849671
-0.4059065027356005 1.3954155277849671
-0.3722957807541646 1.3677261963896539
-0.3891011417448826 1.2292795394130878
-0.3891011417448826 1.0908328824365214
-0.4227118637263185 1.035454219645895
-0.3891011417448826 1.035454219645895
-0.33868505877272864 1.0631435510412082
-0.3722957807541646 1.0908328824365214
-0.3722957807541646 1.035454219645895
-0.43951722471703647 0.9523862254599553
-0.4731279466984724 0.9523862254599553
-0.4899333076891904 0.8970075626693288
-0.4899333076891904 0.8416288998787024
-0.4899333076891904 0.6754929115068229
-0.4899333076891904 0.6201142487161965
-0.5067386686799084 0.5647355859255699
-0.5067386686799084 0.5370462545302568
-0.43951722471703647 0.5647355859255699
-0.3554904197634466 0.6201142487161965
-0.2714636148098567 0.48166759173963025
-0.2882689758005747 0.48166759173963025
-0.32187969778201064 0.45397826034431704
-0.3554904197634466 0.48166759173963025
-0.3722957807541646 0.5647355859255699
-0.33868505877272864 0.6201142487161965
-0.2714636148098567 0.6201142487161965
-0.32187969778201064 0.5924249173208832
-0.2714636148098567 0.5647355859255699
-0.33868505877272864 0.5370462545302568
-0.3050743367912927 0.7308715742974494
-0.23785289282842076 0.8139395684833891
-0.20424217084698482 0.8139395684833891
-0.25465825381913876 0.8139395684833891
-0.2882689758005747 0.8139395684833891
-0.32187969778201064 0.8416288998787024
-0.32187969778201064 0.7308715742974494
-0.2714636148098567 0.7862502370880758
-0.20424217084698482 0.7031822429021362
-0.18743680985626684 0.6754929115068229
-0.25465825381913876 0.7031822429021362
-0.2882689758005747 0.7862502370880758
-0.25465825381913876 0.8693182312740156
-0.18743680985626684 0.9523862254599553
-0.10341000490267696 0.8970075626693288
-0.10341000490267696 0.8693182312740156
-0.1370207268841129 0.7031822429021362
-0.2210475318377028 0.8139395684833891
-0.12021536589339493 0.7862502370880758
-0.052993921930523026 0.8416288998787024
0.014227522032348878 0.8693182312740156
0.031032883023066855 0.8416288998787024
0.04783824401378483 0.8693182312740156
0.014227522032348878 0.9246968940646421
0.031032883023066855 1.0077648882505819
0.09825432698593876 1.035454219645895
0.18228113193952863 0.9800755568552685
0.1486704099580927 0.8693182312740156
0.08144896599522078 0.7308715742974494
0.014227522032348878 0.6754929115068229
0.031032883023066855 0.7585609056927627
0.031032883023066855 0.8139395684833891
0.11505968797665674 0.9246968940646421
0.09825432698593876 0.9523862254599553
-0.019383199949087073 0.9800755568552685
-0.052993921930523026 0.9800755568552685
-0.069799282921241 1.0077648882505819
-0.019383199949087073 1.0631435510412082
-0.002577838958369098 1.0077648882505819
-0.019383199949087073 0.9523862254599553
-0.03618856093980505 0.8693182312740156
-0.15382608787483087 0.9246968940646421
-0.15382608787483087 0.9523862254599553
-0.1370207268841129 0.9800755568552685
-0.052993921930523026 0.9800755568552685
-0.10341000490267696 0.8416288998787024
-0.17063144886554887 0.7585609056927627
-0.17063144886554887 0.7585609056927627
-0.15382608787483087 0.7308715742974494
-0.12021536589339493 0.7862502370880758
-0.1370207268841129 0.7031822429021362
-0.12021536589339493 0.5924249173208832
-0.2210475318377028 0.48166759173963025
-0.3050743367912927 0.45397826034431704
-0.3891011417448826 0.39859959755369057
-0.2714636148098567 0.3432209347630641
-0.23785289282842076 0.3709102661583773
-0.25465825381913876 0.3709102661583773
-0.33868505877272864 0.3432209347630641
-0.32187969778201064 0.3432209347630641
-0.32187969778201064 0.39859959755369057
-0.25465825381913876 0.45397826034431704
-0.2210475318377028 0.5093569231349435
-0.2210475318377028 0.45397826034431704
-0.25465825381913876 0.4262889289490038
-0.2882689758005747 0.5647355859255699
-0.2714636148098567 0.6754929115068229
-0.2210475318377028 0.7031822429021362
-0.20424217084698482 0.7585609056927627
-0.2210475318377028 0.6478035801115097
-0.23785289282842076 0.5093569231349435
-0.2714636148098567 0.4262889289490038
-0.25465825381913876 0.4262889289490038
-0.23785289282842076 0.45397826034431704
-0.17063144886554887 0.5093569231349435
-0.17063144886554887 0.48166759173963025
-0.23785289282842076 0.48166759173963025
-0.25465825381913876 0.45397826034431704
-0.2882689758005747 0.5093569231349435
-0.18743680985626684 0.6201142487161965
-0.17063144886554887 0.6201142487161965
-0.1370207268841129 0.6754929115068229
-0.17063144886554887 0.5924249173208832
-0.15382608787483087 0.6478035801115097
-0.20424217084698482 0.7585609056927627
-0.052993921930523026 0.8416288998787024
-0.052993921930523026 0.8416288998787024
-0.03618856093980505 0.8416288998787024
-0.12021536589339493 0.8139395684833891
-0.17063144886554887 0.8970075626693288
-0.12021536589339493 0.9523862254599553
-0.069799282921241 1.035454219645895
-0.019383199949087073 1.035454219645895
-0.019383199949087073 1.0077648882505819
-0.10341000490267696 0.9523862254599553
-0.17063144886554887 0.9523862254599553
-0.17063144886554887 0.9246968940646421
-0.10341000490267696 0.9246968940646421
-0.019383199949087073 0.9246968940646421
-0.03618856093980505 0.8970075626693288
-0.08660464391195898 0.9246968940646421
-0.069799282921241 1.0908328824365214
-0.069799282921241 1.146211545227148
-0.052993921930523026 1.146211545227148
0.031032883023066855 1.035454219645895
-0.019383199949087073 0.8970075626693288
-0.019383199949087073 0.7585609056927627
-0.12021536589339493 0.7862502370880758
-0.1370207268841129 0.8139395684833891
-0.10341000490267696 0.8970075626693288
-0.069799282921241 0.8693182312740156
-0.03618856093980505 0.7308715742974494
-0.10341000490267696 0.6201142487161965
-0.1370207268841129 0.6201142487161965
-0.15382608787483087 0.5924249173208832
-0.17063144886554887 0.5647355859255699
-0.17063144886554887 0.48166759173963025
-0.23785289282842076 0.3709102661583773
-0.3050743367912927 0.26015294057712435
-0.3891011417448826 0.26015294057712435
-0.4059065027356005 0.3155316033677508
-0.3891011417448826 0.2878422719724376
-0.3722957807541646 0.2324636091818111
-0.3554904197634466 0.17708494639118466
-0.45632258570775447 0.09401695220524493
-0.4731279466984724 0.0663276208099317
-0.4227118637263185 0.09401695220524493
-0.33868505877272864 0.12170628360055817
-0.2210475318377028 0.12170628360055817
-0.25465825381913876 0.03863828941461846
-0.3050743367912927 -0.04442970477132125
-0.33868505877272864 -0.0721190361666345
-0.33868505877272864 0.03863828941461846
-0.2882689758005747 0.14939561499587142
-0.25465825381913876 0.17708494639118466
-0.2714636148098567 0.09401695220524493
-0.3050743367912927 0.0663276208099317
-0.3554904197634466 0.09401695220524493
-0.3554904197634466 0.14939561499587142
-0.3722957807541646 0.17708494639118466
-0.3050743367912927 0.2324636091818111
-0.3050743367912927 0.14939561499587142
-0.3554904197634466 0.14939561499587142
-0.3891011417448826 0.12170628360055817
-0.3722957807541646 0.12170628360055817
-0.32187969778201064 0.14939561499587142
-0.32187969778201064 0.0663276208099317
-0.32187969778201064 0.0663276208099317
-0.33868505877272864 -0.016740373376008016
-0.32187969778201064 0.12170628360055817
-0.3050743367912927 0.2324636091818111
-0.25465825381913876 0.2878422719724376
-0.23785289282842076 0.2878422719724376
-0.25465825381913876 0.26015294057712435
-0.23785289282842076 0.14939561499587142
-0.3050743367912927 0.12170628360055817
-0.2714636148098567 0.2324636091818111
-0.2210475318377028 0.2878422719724376
-0.18743680985626684 0.3709102661583773
-0.20424217084698482 0.3432209347630641
-0.2210475318377028 0.3155316033677508
-0.2714636148098567 0.4262889289490038
-0.23785289282842076 0.45397826034431704
-0.2882689758005747 0.5924249173208832
-0.12021536589339493 0.5647355859255699
-0.1370207268841129 0.5370462545302568
-0.10341000490267696 0.48166759173963025
-0.17063144886554887 0.5370462545302568
-0.052993921930523026 0.6478035801115097
-0.019383199949087073 0.7585609056927627
0.04783824401378483 0.7585609056927627
0.06464360500450281 0.7308715742974494
-0.019383199949087073 0.7862502370880758
-0.069799282921241 0.7308715742974494
0.014227522032348878 0.7585609056927627
0.06464360500450281 0.8693182312740156
0.09825432698593876 0.7585609056927627
0.11505968797665674 0.6754929115068229
0.06464360500450281 0.5647355859255699
0.014227522032348878 0.5647355859255699
0.031032883023066855 0.6478035801115097
0.06464360500450281 0.7031822429021362
0.09825432698593876 0.7031822429021362
0.04783824401378483 0.7308715742974494
0.04783824401378483 0.7585609056927627
0.014227522032348878 0.8693182312740156
-0.052993921930523026 0.8416288998787024
0.031032883023066855 0.9523862254599553
0.18228113193952863 0.8139395684833891
0.23269721491168258 0.5093569231349435
0.24950257590240055 -0.0721190361666345
0.35033474184670843 -0.708973658258839
0.5183883517538882 -1.3458282803510435
0.8208848495868117 -2.093440228024501
1.291434957326915 -3.0071881640698375
1.6779582601134286 -3.837868105929235
2.098092284881378 -4.668548047788632
2.5182263096493274 -5.25002400709021
3.0223871393708666 -5.471538658252716
3.560158691073842 -5.305402669880836
4.0139034378232274 -5.1115773501136434
4.417232101600459 -4.779305373369885
4.770144682405536 -4.308586739649559
5.022225097266306 -3.616353454766729
5.022225097266306 -2.6472268559307657
4.854171487359126 -1.7334789198854288
4.400426740609741 -1.0135563036072845
3.7282123009810215 -0.6812843268635257
2.887944251445123 -0.40439101291039337
2.030870840918506 -0.3767016815150801
1.375461762280505 -0.40439101291039337
0.8544955715682477 -0.45976967570101984
0.4847776297724522 -0.5428376698869595
0.19908649293024663 -0.5151483384916463
-0.019383199949087073 -0.40439101291039337
-0.08660464391195898 -0.2382550245385139
-0.052993921930523026 0.010948958019305222
0.031032883023066855 0.20477427778649787
0.031032883023066855 0.20477427778649787
-0.052993921930523026 0.2324636091818111
-0.069799282921241 0.12170628360055817
-0.2210475318377028 0.20477427778649787
-0.2882689758005747 0.26015294057712435
-0.23785289282842076 0.4262889289490038
-0.3050743367912927 0.39859959755369057
-0.33868505877272864 0.3432209347630641
-0.3722957807541646 0.2878422719724376
-0.3891011417448826 0.3432209347630641
-0.4227118637263185 0.5093569231349435
-0.3722957807541646 0.6478035801115097
-0.32187969778201064 0.6201142487161965
-0.3722957807541646 0.6478035801115097
-0.3554904197634466 0.6478035801115097
-0.43951722471703647 0.7031822429021362
-0.3891011417448826 0.7585609056927627
-0.32187969778201064 0.7031822429021362
-0.3050743367912927 0.6754929115068229
-0.33868505877272864 0.6201142487161965
-0.3891011417448826 0.5924249173208832
-0.4059065027356005 0.6478035801115097
-0.33868505877272864 0.7308715742974494
-0.3554904197634466 0.8693182312740156
-0.3050743367912927 0.9246968940646421
-0.33868505877272864 0.8416288998787024
-0.32187969778201064 0.7308715742974494
-0.3722957807541646 0.7031822429021362
-0.3722957807541646 0.7862502370880758
-0.32187969778201064 0.8970075626693288
-0.3050743367912927 0.8416288998787024
-0.33868505877272864 0.7585609056927627
-0.3554904197634466 0.6478035801115097
-0.3722957807541646 0.6754929115068229
-0.33868505877272864 0.7031822429021362
-0.3050743367912927 0.7031822429021362
-0.3050743367912927 0.8139395684833891
-0.2714636148098567 0.8416288998787024
-0.2882689758005747 0.7862502370880758
-0.3891011417448826 0.8416288998787024
-0.2882689758005747 0.9800755568552685
-0.25465825381913876 1.0077648882505819
-0.20424217084698482 0.9800755568552685
-0.2210475318377028 0.8970075626693288
-0.2210475318377028 0.8139395684833891
-0.25465825381913876 0.7308715742974494
-0.23785289282842076 0.7862502370880758
-0.17063144886554887 0.8970075626693288
-0.15382608787483087 0.8970075626693288
-0.12021536589339493 0.8416288998787024
-0.15382608787483087 0.7585609056927627
-0.20424217084698482 0.7862502370880758
-0.1370207268841129 0.7862502370880758
-0.10341000490267696 0.8139395684833891
0.014227522032348878 0.8693182312740156
-0.052993921930523026 0.7862502370880758
-0.069799282921241 0.6478035801115097
-0.08660464391195898 0.5924249173208832
-0.019383199949087073 0.6754929115068229
0.014227522032348878 0.7308715742974494
0.04783824401378483 0.6754929115068229
-0.002577838958369098 0.6201142487161965
-0.002577838958369098 0.5647355859255699
-0.019383199949087073 0.48166759173963025
0.014227522032348878 0.5093569231349435
0.06464360500450281 0.5924249173208832
0.16547577094881066 0.6478035801115097
0.19908649293024663 0.6201142487161965
0.13186504896737472 0.48166759173963025
0.06464360500450281 0.48166759173963025
0.08144896599522078 0.45397826034431704
0.1486704099580927 0.5370462545302568
0.19908649293024663 0.48166759173963025
0.16547577094881066 0.5093569231349435
0.06464360500450281 0.45397826034431704
0.06464360500450281 0.48166759173963025
0.04783824401378483 0.5093569231349435
0.13186504896737472 0.5647355859255699
0.11505968797665674 0.5370462545302568
0.08144896599522078 0.4262889289490038
0.031032883023066855 0.39859959755369057
0.014227522032348878 0.3709102661583773
0.014227522032348878 0.3709102661583773
0.014227522032348878 0.5093569231349435
0.014227522032348878 0.48166759173963025
-0.052993921930523026 0.48166759173963025
-0.069799282921241 0.39859959755369057
-0.15382608787483087 0.39859959755369057
-0.2210475318377028 0.45397826034431704
-0.12021536589339493 0.5370462545302568
-0.08660464391195898 0.48166759173963025
-0.1370207268841129 0.4262889289490038
-0.2210475318377028 0.39859959755369057
-0.2714636148098567 0.39859959755369057
-0.33868505877272864 0.45397826034431704
-0.23785289282842076 0.5093569231349435
-0.18743680985626684 0.48166759173963025
-0.2882689758005747 0.48166759173963025
-0.3050743367912927 0.39859959755369057
-0.3722957807541646 0.4262889289490038
-0.3891011417448826 0.45397826034431704
-0.3050743367912927 0.5093569231349435
-0.25465825381913876 0.5647355859255699
-0.3050743367912927 0.45397826034431704
-0.3554904197634466 0.3709102661583773
-0.4227118637263185 0.3432209347630641
-0.4227118637263185 0.39859959755369057
-0.3722957807541646 0.45397826034431704
-0.3050743367912927 0.3432209347630641
-0.3891011417448826 0.3432209347630641
-0.4059065027356005 0.3155316033677508
-0.43951722471703647 0.3709102661583773
-0.4227118637263185 0.2878422719724376
-0.3554904197634466 0.2878422719724376
-0.32187969778201064 0.09401695220524493
-0.3554904197634466 -0.016740373376008016
-0.3891011417448826 -0.09980836756194773
-0.4059065027356005 -0.12749769895726096
-0.4227118637263185 -0.0721190361666345
-0.33868505877272864 0.03863828941461846
-0.3050743367912927 -0.04442970477132125
-0.32187969778201064 -0.04442970477132125
-0.3554904197634466 -0.09980836756194773
-0.3554904197634466 -0.1551870303525742
-0.3554904197634466 -0.016740373376008016
-0.3554904197634466 0.12170628360055817
-0.3050743367912927 0.0663276208099317
-0.3050743367912927 0.0663276208099317
-0.3554904197634466 -0.016740373376008016
-0.3722957807541646 0.09401695220524493
-0.4059065027356005 0.2324636091818111
-0.33868505877272864 0.2878422719724376
-0.32187969778201064 0.39859959755369057
-0.2882689758005747 0.3432209347630641
-0.3554904197634466 0.3432209347630641
-0.4059065027356005 0.39859959755369057
-0.3891011417448826 0.4262889289490038
-0.3891011417448826 0.48166759173963025
-0.32187969778201064 0.45397826034431704
-0.33868505877272864 0.4262889289490038
-0.3722957807541646 0.45397826034431704
-0.3722957807541646 0.45397826034431704
-0.33868505877272864 0.5370462545302568
-0.2714636148098567 0.6754929115068229
-0.18743680985626684 0.7585609056927627
-0.2714636148098567 0.6478035801115097
-0.2882689758005747 0.5647355859255699
-0.3554904197634466 0.5647355859255699
-0.32187969778201064 0.6201142487161965
-0.2714636148098567 0.7308715742974494
-0.2210475318377028 0.7862502370880758
-0.2210475318377028 0.7862502370880758
-0.2714636148098567 0.5924249173208832
-0.2714636148098567 0.5093569231349435
-0.25465825381913876 0.5093569231349435
-0.17063144886554887 0.5647355859255699
-0.15382608787483087 0.5924249173208832
-0.2210475318377028 0.5093569231349435
-0.32187969778201064 0.4262889289490038
-0.33868505877272864 0.39859959755369057
-0.33868505877272864 0.48166759173963025
-0.32187969778201064 0.5924249173208832
-0.2882689758005747 0.6201142487161965
-0.32187969778201064 0.6201142487161965
-0.33868505877272864 0.5370462545302568
-0.33868505877272864 0.5093569231349435
-0.3050743367912927 0.5370462545302568
-0.2210475318377028 0.6201142487161965
-0.20424217084698482 0.5647355859255699
-0.2210475318377028 0.45397826034431704
-0.3050743367912927 0.3432209347630641
-0.3050743367912927 0.3432209347630641
-0.2882689758005747 0.39859959755369057
-0.2210475318377028 0.5093569231349435
-0.2210475318377028 0.4262889289490038
-0.2714636148098567 0.39859959755369057
-0.2882689758005747 0.26015294057712435
-0.33868505877272864 0.2324636091818111
-0.33868505877272864 0.2324636091818111
-0.32187969778201064 0.3155316033677508
-0.2210475318377028 0.3155316033677508
-0.25465825381913876 0.17708494639118466
-0.3050743367912927 0.09401695220524493
-0.3554904197634466 0.0663276208099317
-0.32187969778201064 0.12170628360055817
-0.2882689758005747 0.14939561499587142
-0.2882689758005747 0.17708494639118466
-0.23785289282842076 0.0663276208099317
-0.2714636148098567 0.0663276208099317
-0.32187969778201064 0.03863828941461846
-0.32187969778201064 0.010948958019305222
-0.3050743367912927 0.09401695220524493
-0.20424217084698482 0.0663276208099317
-0.2210475318377028 0.03863828941461846
-0.2714636148098567 0.0663276208099317
-0.3050743367912927 0.12170628360055817
-0.3050743367912927 0.17708494639118466
-0.25465825381913876 0.2878422719724376
-0.20424217084698482 0.3155316033677508
-0.18743680985626684 0.17708494639118466
-0.23785289282842076 0.09401695220524493
-0.2882689758005747 0.20477427778649787
-0.3050743367912927 0.26015294057712435
-0.2714636148098567 0.3432209347630641
-0.20424217084698482 0.3155316033677508
-0.25465825381913876 0.3432209347630641
-0.2882689758005747 0.2878422719724376
-0.3554904197634466 0.3709102661583773
-0.3050743367912927 0.48166759173963025
-0.2210475318377028 0.5093569231349435
-0.15382608787483087 0.5647355859255699
-0.1370207268841129 0.45397826034431704
-0.12021536589339493 0.4262889289490038
-0.15382608787483087 0.45397826034431704
-0.1370207268841129 0.5924249173208832
-0.10341000490267696 0.6754929115068229
-0.052993921930523026 0.7308715742974494
-0.12021536589339493 0.7585609056927627
-0.08660464391195898 0.6201142487161965
-0.1370207268841129 0.5647355859255699
-0.1370207268841129 0.6201142487161965
-0.08660464391195898 0.5924249173208832
0.014227522032348878 0.5370462545302568
-0.019383199949087073 0.4262889289490038
-0.10341000490267696 0.3432209347630641
-0.08660464391195898 0.4262889289490038
-0.052993921930523026 0.45397826034431704
-0.052993921930523026 0.5647355859255699
-0.03618856093980505 0.5647355859255699
-0.069799282921241 0.45397826034431704
-0.12021536589339493 0.45397826034431704
-0.12021536589339493 0.45397826034431704
-0.12021536589339493 0.5647355859255699
-0.12021536589339493 0.5924249173208832
-0.069799282921241 0.5924249173208832
-0.12021536589339493 0.45397826034431704
-0.08660464391195898 0.3155316033677508
-0.1370207268841129 0.3155316033677508
-0.15382608787483087 0.39859959755369057
-0.12021536589339493 0.45397826034431704
-0.08660464391195898 0.4262889289490038
-0.12021536589339493 0.39859959755369057
-0.17063144886554887 0.3709102661583773
-0.17063144886554887 0.3432209347630641
-0.18743680985626684 0.2878422719724376
-0.1370207268841129 0.3432209347630641
-0.1370207268841129 0.26015294057712435
-0.18743680985626684 0.26015294057712435
-0.2714636148098567 0.09401695220524493
-0.2714636148098567 0.12170628360055817
-0.2714636148098567 0.17708494639118466
-0.18743680985626684 0.26015294057712435
-0.12021536589339493 0.20477427778649787
-0.17063144886554887 0.17708494639118466
-0.23785289282842076 0.09401695220524493
-0.20424217084698482 0.0663276208099317
-0.18743680985626684 0.12170628360055817
-0.12021536589339493 0.2324636091818111
-0.08660464391195898 0.2324636091818111
-0.10341000490267696 0.2878422719724376
-0.1370207268841129 0.2324636091818111
-0.08660464391195898 0.17708494639118466
-0.019383199949087073 0.20477427778649787
0.08144896599522078 0.12170628360055817
0.19908649293024663 -0.2382550245385139
0.26630793689311855 -0.5705270012822727
0.26630793689311855 -1.0412456350025978
0.4007508248188623 -1.5396536001182362
0.636025878688914 -2.121129559419814
1.0057438204847096 -2.7579841815120187
1.4090724842619409 -3.5332854605807893
1.7619850650670184 -4.4193440652308125
2.1317030068628138 -5.139266681508957
2.4846155876678915 -5.499227989648029
2.921554973426559 -5.554606652438656
3.3416889981945084 -5.2223346756948965
3.8290444669253296 -4.862373367555825
4.249178491693279 -4.447033396626126
4.585285711507638 -3.9486254315104876
4.8205607653776905 -3.0071881640698375
4.90458757033128 -2.0103722338385612
4.753339321414818 -1.068934966397911
4.366816018628305 -0.4320803443057066
3.6946015789995856 -0.0721190361666345
2.887944251445123 0.14939561499587142
2.114897645872096 0.09401695220524493
1.4930992892155308 0.0663276208099317
1.0561599034568634 -0.04442970477132125
0.7200526836425039 -0.18287636174788743
0.4175561858095803 -0.1551870303525742
0.16547577094881066 -0.21056569314320067
0.11505968797665674 -0.04442970477132125
0.1486704099580927 0.14939561499587142
0.18228113193952863 0.3432209347630641
0.23269721491168258 0.45397826034431704
0.13186504896737472 0.4262889289490038
0.06464360500450281 0.39859959755369057
-0.069799282921241 0.48166759173963025
-0.15382608787483087 0.5647355859255699
-0.1370207268841129 0.6754929115068229
-0.18743680985626684 0.6201142487161965
-0.2210475318377028 0.6478035801115097
-0.2882689758005747 0.5924249173208832
-0.32187969778201064 0.7031822429021362
-0.33868505877272864 0.7585609056927627
-0.3050743367912927 0.7862502370880758
-0.2714636148098567 0.7585609056927627
-0.25465825381913876 0.6201142487161965
-0.2882689758005747 0.45397826034431704
-0.3554904197634466 0.39859959755369057
-0.3722957807541646 0.39859959755369057
-0.32187969778201064 0.4262889289490038
-0.3050743367912927 0.3155316033677508
-0.3050743367912927 0.20477427778649787
-0.3554904197634466 0.17708494639118466
-0.3891011417448826 0.20477427778649787
-0.3891011417448826 0.3155316033677508
-0.33868505877272864 0.3709102661583773
-0.32187969778201064 0.48166759173963025
-0.32187969778201064 0.39859959755369057
-0.3554904197634466 0.2324636091818111
-0.3554904197634466 0.3155316033677508
-0.3722957807541646 0.39859959755369057
-0.32187969778201064 0.5370462545302568
-0.2882689758005747 0.5647355859255699
-0.2882689758005747 0.4262889289490038
-0.3050743367912927 0.2878422719724376
-0.2882689758005747 0.3432209347630641
-0.3050743367912927 0.45397826034431704
-0.25465825381913876 0.5924249173208832
-0.17063144886554887 0.6478035801115097
-0.20424217084698482 0.6478035801115097
-0.2210475318377028 0.5924249173208832
-0.2714636148098567 0.5093569231349435
-0.2210475318377028 0.6478035801115097
-0.12021536589339493 0.7308715742974494
-0.069799282921241 0.7031822429021362
-0.10341000490267696 0.7308715742974494
-0.1370207268841129 0.6201142487161965
-0.12021536589339493 0.6201142487161965
-0.12021536589339493 0.6478035801115097
-0.052993921930523026 0.6478035801115097
-0.002577838958369098 0.7031822429021362
-0.002577838958369098 0.7308715742974494
0.014227522032348878 0.5924249173208832
-0.052993921930523026 0.7031822429021362
-0.002577838958369098 0.7862502370880758
0.09825432698593876 0.9523862254599553
0.16547577094881066 0.8970075626693288
0.16547577094881066 0.8970075626693288
0.19908649293024663 0.8416288998787024
0.16547577094881066 0.8693182312740156
0.19908649293024663 0.9523862254599553
0.2831132978838365 1.0077648882505819
0.3671401028374264 1.0631435510412082
0.2831132978838365 1.0077648882505819
0.33352938085599043 0.9523862254599553
0.2831132978838365 1.0077648882505819
0.2831132978838365 1.0908328824365214
0.3839454638281444 1.2015902080177745
0.4343615468002983 1.1739008766224612
0.4007508248188623 1.035454219645895
0.45116690779101626 0.8139395684833891
0.3671401028374264 0.7031822429021362
0.35033474184670843 0.5647355859255699
0.35033474184670843 0.5647355859255699
0.45116690779101626 0.4262889289490038
0.4343615468002983 0.3155316033677508
0.3839454638281444 0.2878422719724376
0.31672401986527243 0.2324636091818111
0.24950257590240055 0.3709102661583773
0.24950257590240055 0.39859959755369057
0.26630793689311855 0.4262889289490038
0.18228113193952863 0.4262889289490038
0.11505968797665674 0.3709102661583773
0.04783824401378483 0.3432209347630641
0.06464360500450281 0.26015294057712435
0.08144896599522078 0.2878422719724376
0.11505968797665674 0.2324636091818111
0.031032883023066855 0.2324636091818111
-0.019383199949087073 0.17708494639118466
-0.069799282921241 0.17708494639118466
-0.10341000490267696 0.17708494639118466
-0.069799282921241 0.2324636091818111
-0.08660464391195898 0.2324636091818111
-0.1370207268841129 0.12170628360055817
-0.17063144886554887 0.12170628360055817
-0.23785289282842076 0.09401695220524493
-0.2714636148098567 0.20477427778649787
-0.25465825381913876 0.3155316033677508
-0.18743680985626684 0.26015294057712435
-0.23785289282842076 0.2324636091818111
-0.2714636148098567 0.2324636091818111
-0.3050743367912927 0.2324636091818111
-0.2714636148098567 0.3155316033677508
-0.23785289282842076 0.3432209347630641
-0.17063144886554887 0.3709102661583773
-0.18743680985626684 0.3432209347630641
-0.17063144886554887 0.2878422719724376
-0.23785289282842076 0.3709102661583773
-0.2210475318377028 0.48166759173963025
-0.2210475318377028 0.5924249173208832
-0.2210475318377028 0.5924249173208832
-0.25465825381913876 0.48166759173963025
-0.2210475318377028 0.4262889289490038
-0.23785289282842076 0.5093569231349435
-0.2210475318377028 0.5370462545302568
-0.20424217084698482 0.5924249173208832
-0.1370207268841129 0.6754929115068229
-0.17063144886554887 0.5924249173208832
-0.2210475318377028 0.5647355859255699
-0.2210475318377028 0.5924249173208832
-0.20424217084698482 0.6754929115068229
-0.18743680985626684 0.8139395684833891
-0.069799282921241 0.8416288998787024
-0.052993921930523026 0.8139395684833891
-0.052993921930523026 0.7585609056927627
-0.069799282921241 0.7308715742974494
-0.019383199949087073 0.7308715742974494
0.031032883023066855 0.7031822429021362
0.08144896599522078 0.6201142487161965
0.06464360500450281 0.48166759173963025
0.014227522032348878 0.2878422719724376
-0.03618856093980505 0.3432209347630641
-0.002577838958369098 0.3155316033677508
0.08144896599522078 0.39859959755369057
0.09825432698593876 0.45397826034431704
0.04783824401378483 0.39859959755369057
0.04783824401378483 0.2878422719724376
0.014227522032348878 0.20477427778649787
-0.03618856093980505 0.3155316033677508
-0.002577838958369098 0.26015294057712435
0.04783824401378483 0.20477427778649787
0.06464360500450281 0.14939561499587142
-0.052993921930523026 0.14939561499587142
-0.03618856093980505 0.14939561499587142
-0.03618856093980505 0.2324636091818111
0.014227522032348878 0.2878422719724376
0.014227522032348878 0.2878422719724376
-0.03618856093980505 0.09401695220524493
-0.069799282921241 -0.04442970477132125
-0.069799282921241 -0.09980836756194773
-0.052993921930523026 -0.09980836756194773
-0.019383199949087073 -0.09980836756194773
-0.019383199949087073 -0.12749769895726096
-0.08660464391195898 -0.1551870303525742
-0.10341000490267696 -0.1551870303525742
-0.12021536589339493 -0.2382550245385139
-0.15382608787483087 -0.09980836756194773
-0.12021536589339493 -0.04442970477132125
-0.069799282921241 -0.0721190361666345
-0.12021536589339493 -0.016740373376008016
-0.20424217084698482 -0.0721190361666345
-0.18743680985626684 -0.0721190361666345
-0.1370207268841129 -0.09980836756194773
-0.069799282921241 -0.0721190361666345
-0.052993921930523026 -0.12749769895726096
-0.03618856093980505 -0.09980836756194773
-0.08660464391195898 -0.0721190361666345
-0.12021536589339493 -0.04442970477132125
-0.10341000490267696 0.0663276208099317
0.031032883023066855 0.0663276208099317
0.08144896599522078 0.09401695220524493
0.031032883023066855 0.09401695220524493
0.031032883023066855 -0.016740373376008016
-0.019383199949087073 0.0663276208099317
0.06464360500450281 0.14939561499587142
0.19908649293024663 0.09401695220524493
0.31672401986527243 -0.21056569314320067
0.4007508248188623 -0.6259056640728993
0.4175561858095803 -1.179692291979164
0.5351937127446061 -1.6781002570948023
0.7368580446332219 -2.093440228024501
1.0897706254382993 -2.619537524535452
1.4762939282248129 -3.2563921466276566
1.8292065090298903 -4.059382757091741
2.064481562899942 -4.806994704765198
2.4341995046957376 -5.33309200127615
2.904749612435841 -5.388470664066776
3.442521164138816 -5.056198687323017
3.8794605498974835 -4.779305373369885
4.215567769711843 -4.336276071044873
4.518064267544767 -3.7824894431386085
4.702923238442664 -2.9794988326745244
4.803755404386973 -1.9273042396526214
4.686117877451946 -0.9304883094213449
4.215567769711843 -0.2936336873291404
3.509742608101688 0.010948958019305222
2.6862799195565072 0.010948958019305222
1.8964279529927623 -0.016740373376008016
1.358656401289787 -0.0721190361666345
0.9721330985032736 0.12170628360055817
0.7368580446332219 0.20477427778649787
0.45116690779101626 0.3432209347630641
0.2831132978838365 0.39859959755369057
0.19908649293024663 0.5370462545302568
0.2158918539209646 0.6754929115068229
0.24950257590240055 0.7862502370880758
0.24950257590240055 0.7862502370880758
0.11505968797665674 0.7308715742974494
0.031032883023066855 0.6478035801115097
-0.12021536589339493 0.7031822429021362
-0.12021536589339493 0.7031822429021362
-0.1370207268841129 0.7862502370880758
-0.12021536589339493 0.7031822429021362
-0.10341000490267696 0.6201142487161965
-0.18743680985626684 0.5093569231349435
-0.20424217084698482 0.48166759173963025
-0.20424217084698482 0.39859959755369057
-0.18743680985626684 0.5093569231349435
-0.15382608787483087 0.5370462545302568
-0.23785289282842076 0.4262889289490038
-0.3050743367912927 0.2878422719724376
-0.3554904197634466 0.20477427778649787
-0.33868505877272864 0.26015294057712435
-0.2882689758005747 0.17708494639118466
-0.2882689758005747 0.17708494639118466
-0.25465825381913876 0.12170628360055817
-0.33868505877272864 0.010948958019305222
-0.4059065027356005 -0.016740373376008016
-0.43951722471703647 0.010948958019305222
-0.3554904197634466 0.03863828941461846
-0.32187969778201064 0.03863828941461846
-0.33868505877272864 0.03863828941461846
-0.43951722471703647 0.010948958019305222
-0.45632258570775447 0.0663276208099317
-0.4227118637263185 0.12170628360055817
-0.3554904197634466 0.14939561499587142
-0.25465825381913876 0.12170628360055817
-0.2714636148098567 0.14939561499587142
-0.2882689758005747 0.20477427778649787
-0.3554904197634466 0.2878422719724376
-0.3554904197634466 0.39859959755369057
-0.23785289282842076 0.45397826034431704
-0.17063144886554887 0.4262889289490038
-0.17063144886554887 0.39859959755369057
-0.20424217084698482 0.3709102661583773
-0.23785289282842076 0.39859959755369057
-0.2210475318377028 0.5093569231349435
-0.10341000490267696 0.7308715742974494
-0.052993921930523026 0.7031822429021362
-0.052993921930523026 0.7308715742974494
-0.069799282921241 0.7308715742974494
-0.052993921930523026 0.7585609056927627
-0.052993921930523026 0.8693182312740156
0.04783824401378483 0.9246968940646421
0.16547577094881066 0.8693182312740156
0.18228113193952863 0.8139395684833891
0.19908649293024663 0.6478035801115097
0.1486704099580927 0.6754929115068229
0.26630793689311855 0.7031822429021362
0.26630793689311855 0.8693182312740156
0.3839454638281444 0.8139395684833891
0.4175561858095803 0.8139395684833891
0.4007508248188623 0.7585609056927627
0.3839454638281444 0.7308715742974494
0.45116690779101626 0.7862502370880758
0.5015829907631701 0.8970075626693288
0.5519990737353241 0.7862502370880758
0.5519990737353241 0.7308715742974494
0.5519990737353241 0.6754929115068229
0.5351937127446061 0.6201142487161965
0.5183883517538882 0.6201142487161965
0.5688044347260421 0.6754929115068229
0.5688044347260421 0.48166759173963025
0.5519990737353241 0.3432209347630641
0.4847776297724522 0.2324636091818111
0.4007508248188623 0.2878422719724376
0.33352938085599043 0.3432209347630641
0.33352938085599043 0.39859959755369057
0.33352938085599043 0.39859959755369057
0.2831132978838365 0.3155316033677508
0.19908649293024663 0.26015294057712435
0.031032883023066855 0.2324636091818111
0.09825432698593876 0.3432209347630641
0.08144896599522078 0.3709102661583773
0.11505968797665674 0.3709102661583773
0.06464360500450281 0.26015294057712435
0.031032883023066855 0.12170628360055817
-0.03618856093980505 0.0663276208099317
-0.03618856093980505 0.0663276208099317
-0.03618856093980505 0.12170628360055817
-0.069799282921241 0.03863828941461846
-0.069799282921241 -0.04442970477132125
-0.1370207268841129 -0.21056569314320067
-0.18743680985626684 -0.1551870303525742
-0.18743680985626684 -0.18287636174788743
-0.1370207268841129 -0.12749769895726096
-0.15382608787483087 -0.1551870303525742
-0.1370207268841129 -0.2382550245385139
-0.2210475318377028 -0.3213230187244536
-0.2210475318377028 -0.21056569314320067
-0.23785289282842076 -0.12749769895726096
-0.18743680985626684 -0.016740373376008016
-0.12021536589339493 0.03863828941461846
-0.08660464391195898 -0.016740373376008016
-0.15382608787483087 -0.12749769895726096
-0.15382608787483087 -0.26594435593382715
-0.15382608787483087 -0.2936336873291404
-0.15382608787483087 -0.1551870303525742
-0.10341000490267696 -0.18287636174788743
-0.12021536589339493 -0.1551870303525742
-0.15382608787483087 -0.2382550245385139
-0.17063144886554887 -0.09980836756194773
-0.1370207268841129 -0.09980836756194773
-0.15382608787483087 0.09401695220524493
-0.10341000490267696 0.0663276208099317
-0.1370207268841129 0.0663276208099317
-0.17063144886554887 0.010948958019305222
-0.18743680985626684 0.03863828941461846
-0.15382608787483087 0.14939561499587142
-0.08660464391195898 0.26015294057712435
-0.052993921930523026 0.2878422719724376
-0.069799282921241 0.26015294057712435
-0.052993921930523026 0.20477427778649787
-0.052993921930523026 0.26015294057712435
-0.002577838958369098 0.3432209347630641
-0.052993921930523026 0.4262889289490038
-0.019383199949087073 0.5093569231349435
-0.002577838958369098 0.48166759173963025
-0.03618856093980505 0.48166759173963025
-0.052993921930523026 0.45397826034431704
-0.052993921930523026 0.48166759173963025
0.031032883023066855 0.5647355859255699
0.06464360500450281 0.5370462545302568
0.04783824401378483 0.4262889289490038
0.031032883023066855 0.3432209347630641
0.031032883023066855 0.2324636091818111
0.031032883023066855 0.3432209347630641
0.06464360500450281 0.39859959755369057
0.09825432698593876 0.4262889289490038
0.04783824401378483 0.39859959755369057
-0.019383199949087073 0.3432209347630641
-0.069799282921241 0.2878422719724376
-0.10341000490267696 0.3432209347630641
-0.069799282921241 0.4262889289490038
-0.052993921930523026 0.3432209347630641
-0.10341000490267696 0.3709102661583773
-0.17063144886554887 0.2324636091818111
-0.18743680985626684 0.20477427778649787
-0.1370207268841129 0.2324636091818111
-0.069799282921241 0.26015294057712435
-0.10341000490267696 0.2324636091818111
-0.10341000490267696 0.14939561499587142
-0.15382608787483087 0.03863828941461846
-0.25465825381913876 0.03863828941461846
-0.18743680985626684 0.09401695220524493
-0.1370207268841129 0.26015294057712435
-0.08660464391195898 0.14939561499587142
-0.15382608787483087 0.03863828941461846
-0.17063144886554887 -0.12749769895726096
-0.23785289282842076 -0.12749769895726096
-0.2210475318377028 -0.09980836756194773
-0.17063144886554887 -0.09980836756194773
-0.1370207268841129 -0.09980836756194773
-0.17063144886554887 -0.1551870303525742
-0.18743680985626684 -0.21056569314320067
-0.18743680985626684 -0.1551870303525742
-0.15382608787483087 -0.09980836756194773
-0.08660464391195898 0.010948958019305222
-0.10341000490267696 -0.016740373376008016
-0.12021536589339493 -0.0721190361666345
-0.18743680985626684 -0.1551870303525742
-0.18743680985626684 -0.12749769895726096
-0.1370207268841129 -0.016740373376008016
-0.10341000490267696 0.09401695220524493
-0.08660464391195898 0.03863828941461846
-0.10341000490267696 -0.016740373376008016
-0.15382608787483087 -0.016740373376008016
-0.20424217084698482 0.010948958019305222
-0.15382608787483087 0.14939561499587142
-0.1370207268841129 0.2324636091818111
-0.12021536589339493 0.26015294057712435
-0.12021536589339493 0.17708494639118466
-0.1370207268841129 0.20477427778649787
-0.18743680985626684 0.17708494639118466
-0.08660464391195898 0.26015294057712435
0.014227522032348878 0.3709102661583773
0.08144896599522078 0.39859959755369057
0.031032883023066855 0.3432209347630641
-0.002577838958369098 0.2324636091818111
0.014227522032348878 0.20477427778649787
-0.019383199949087073 0.26015294057712435
0.014227522032348878 0.3432209347630641
0.04783824401378483 0.2878422719724376
0.014227522032348878 0.26015294057712435
0.014227522032348878 0.20477427778649787
-0.08660464391195898 0.26015294057712435
-0.019383199949087073 0.2878422719724376
0.014227522032348878 0.3709102661583773
0.031032883023066855 0.3709102661583773
0.031032883023066855 0.3155316033677508
0.031032883023066855 0.14939561499587142
-0.019383199949087073 0.17708494639118466
-0.002577838958369098 0.14939561499587142
0.08144896599522078 0.20477427778649787
0.11505968797665674 0.17708494639118466
0.11505968797665674 0.26015294057712435
0.08144896599522078 0.3432209347630641
0.13186504896737472 0.39859959755369057
0.19908649293024663 0.39859959755369057
0.2999186588745545 0.3432209347630641
0.4007508248188623 0.03863828941461846
0.4343615468002983 -0.6259056640728993
0.46797226878173426 -1.179692291979164
0.5183883517538882 -1.8165469140713684
0.7536634056239399 -2.34264421058232
1.1737974303918892 -3.034877495465151
1.5771260941691208 -3.8101787745339215
1.980454757946352 -4.640858716393319
2.3501726997421475 -5.471538658252716
2.803917446491533 -6.0253252861589806
3.291272915222354 -6.0253252861589806
3.8290444669253296 -5.720742640810535
4.2995945746654325 -5.305402669880836
4.702923238442664 -4.917752030346451
5.039030458257024 -4.3916547338355
5.24069479014564 -3.394838803604223
5.223889429154921 -2.370333541977633
4.938198292312716 -1.4565856059322964
4.417232101600459 -0.9304883094213449
3.644185496027432 -0.598216332677586
2.770306724510097 -0.5428376698869595
1.9636493969556341 -0.598216332677586
1.341851040299069 -0.708973658258839
0.9217170155311196 -0.6535949954682124
0.686441961661068 -0.6535949954682124
0.4175561858095803 -0.5705270012822727
0.24950257590240055 -0.48745900709633305
0.1486704099580927 -0.3213230187244536
0.2158918539209646 -0.2382550245385139
0.26630793689311855 -0.016740373376008016
0.31672401986527243 -0.016740373376008016
0.16547577094881066 0.03863828941461846
0.09825432698593876 -0.0721190361666345
-0.019383199949087073 -0.04442970477132125
-0.03618856093980505 0.010948958019305222
-0.019383199949087073 0.12170628360055817
-0.002577838958369098 0.14939561499587142
-0.069799282921241 0.14939561499587142
-0.17063144886554887 0.17708494639118466
-0.18743680985626684 0.2324636091818111
-0.17063144886554887 0.26015294057712435
-0.15382608787483087 0.3709102661583773
-0.03618856093980505 0.3709102661583773
-0.052993921930523026 0.39859959755369057
-0.10341000490267696 0.3709102661583773
-0.17063144886554887 0.3709102661583773
-0.10341000490267696 0.48166759173963025
-0.052993921930523026 0.5647355859255699
-0.052993921930523026 0.6201142487161965
-0.03618856093980505 0.5924249173208832
-0.08660464391195898 0.5093569231349435
-0.08660464391195898 0.5093569231349435
-0.08660464391195898 0.5647355859255699
-0.08660464391195898 0.5924249173208832
0.06464360500450281 0.5370462545302568
0.031032883023066855 0.5370462545302568
-0.03618856093980505 0.5093569231349435
-0.1370207268841129 0.48166759173963025
-0.10341000490267696 0.48166759173963025
-0.052993921930523026 0.5924249173208832
0.014227522032348878 0.48166759173963025
-0.052993921930523026 0.4262889289490038
-0.1370207268841129 0.39859959755369057
-0.17063144886554887 0.4262889289490038
-0.15382608787483087 0.4262889289490038
-0.052993921930523026 0.5093569231349435
0.031032883023066855 0.4262889289490038
-0.002577838958369098 0.3709102661583773
-0.002577838958369098 0.2878422719724376
-0.03618856093980505 0.2324636091818111
-0.03618856093980505 0.3709102661583773
-0.002577838958369098 0.45397826034431704
0.08144896599522078 0.4262889289490038
0.014227522032348878 0.2878422719724376
0.031032883023066855 0.20477427778649787
-0.03618856093980505 0.20477427778649787
0.031032883023066855 0.26015294057712435
-0.002577838958369098 0.26015294057712435
0.09825432698593876 0.26015294057712435
0.13186504896737472 0.2324636091818111
0.06464360500450281 0.12170628360055817
0.06464360500450281 0.14939561499587142
0.06464360500450281 0.20477427778649787
0.1486704099580927 0.2878422719724376
0.2158918539209646 0.3155316033677508
0.2158918539209646 0.14939561499587142
0.19908649293024663 0.09401695220524493
0.18228113193952863 0.17708494639118466
0.23269721491168258 0.17708494639118466
0.31672401986527243 0.3155316033677508
0.3671401028374264 0.3155316033677508
0.3839454638281444 0.2878422719724376
0.3671401028374264 0.20477427778649787
0.3839454638281444 0.20477427778649787
0.4175561858095803 0.26015294057712435
0.46797226878173426 0.3155316033677508
0.5183883517538882 0.3155316033677508
0.5183883517538882 0.2324636091818111
0.46797226878173426 0.09401695220524493
0.4847776297724522 0.12170628360055817
0.4847776297724522 0.20477427778649787
0.4847776297724522 0.3709102661583773
0.5015829907631701 0.39859959755369057
0.4847776297724522 0.2878422719724376
0.45116690779101626 0.2324636091818111
0.3839454638281444 0.2878422719724376
0.4007508248188623 0.3155316033677508
0.4007508248188623 0.3155316033677508
0.4007508248188623 0.3432209347630641
0.4343615468002983 0.3155316033677508
0.3839454638281444 0.26015294057712435
0.33352938085599043 0.4262889289490038
0.35033474184670843 0.5370462545302568
0.2999186588745545 0.6201142487161965
0.35033474184670843 0.6201142487161965
0.24950257590240055 0.45397826034431704
0.23269721491168258 0.3155316033677508
0.16547577094881066 0.17708494639118466
0.19908649293024663 0.2878422719724376
0.19908649293024663 0.39859959755369057
0.24950257590240055 0.3432209347630641
0.2158918539209646 0.2324636091818111
0.18228113193952863 0.09401695220524493
0.11505968797665674 0.12170628360055817
0.04783824401378483 0.12170628360055817
0.06464360500450281 0.14939561499587142
0.1486704099580927 0.12170628360055817
0.04783824401378483 0.09401695220524493
0.031032883023066855 -0.016740373376008016
-0.03618856093980505 -0.09980836756194773
-0.019383199949087073 0.0663276208099317
-0.019383199949087073 0.0663276208099317
-0.03618856093980505 0.0663276208099317
-0.03618856093980505 0.09401695220524493
-0.069799282921241 -0.016740373376008016
-0.069799282921241 -0.09980836756194773
-0.069799282921241 -0.0721190361666345
-0.002577838958369098 -0.016740373376008016
0.04783824401378483 -0.0721190361666345
0.031032883023066855 -0.21056569314320067
-0.052993921930523026 -0.2936336873291404
-0.069799282921241 -0.3490123501197669
-0.03618856093980505 -0.40439101291039337
-0.03618856093980505 -0.3767016815150801
-0.002577838958369098 -0.3490123501197669
-0.019383199949087073 -0.3490123501197669
-0.069799282921241 -0.5428376698869595
-0.12021536589339493 -0.40439101291039337
-0.10341000490267696 -0.3213230187244536
-0.03618856093980505 -0.26594435593382715
0.014227522032348878 -0.3213230187244536
-0.019383199949087073 -0.3767016815150801
-0.03618856093980505 -0.4320803443057066
-0.052993921930523026 -0.5151483384916463
0.031032883023066855 -0.4320803443057066
0.06464360500450281 -0.26594435593382715
0.06464360500450281 -0.26594435593382715
0.08144896599522078 -0.3213230187244536
0.06464360500450281 -0.3213230187244536
0.04783824401378483 -0.2936336873291404
0.06464360500450281 -0.1551870303525742
0.08144896599522078 0.010948958019305222
0.11505968797665674 -0.0721190361666345
0.11505968797665674 -0.04442970477132125
0.13186504896737472 -0.09980836756194773
0.08144896599522078 0.03863828941461846
0.09825432698593876 0.12170628360055817
0.16547577094881066 0.17708494639118466
0.18228113193952863 0.17708494639118466
0.19908649293024663 0.12170628360055817
0.19908649293024663 0.03863828941461846
0.18228113193952863 0.14939561499587142
0.24950257590240055 0.20477427778649787
0.31672401986527243 0.3432209347630641
0.45116690779101626 0.39859959755369057
0.4847776297724522 0.39859959755369057
0.4847776297724522 0.3155316033677508
0.4847776297724522 0.20477427778649787
0.5519990737353241 -0.09980836756194773
0.602415156707478 -0.5151483384916463
0.7872741276053759 -1.2073816233744772
1.0057438204847096 -1.8442362454666816
1.1737974303918892 -2.481090867558886
1.5603207331784028 -3.0902561582557775
1.980454757946352 -3.6994214489526684
2.3837834217235834 -4.447033396626126
2.803917446491533 -5.194645344299583
3.2408568322502003 -5.665363978019909
3.7114069399903036 -5.609985315229282
4.165151686739689 -5.056198687323017
4.5516749895262025 -4.447033396626126
4.90458757033128 -3.6717321175573554
5.1062519022198956 -2.6472268559307657
4.90458757033128 -1.5950322629088625
4.450842823581895 -0.7643523210494654
3.778628383953176 -0.2382550245385139
3.0223871393708666 -0.016740373376008016
2.215729811816404 -0.0721190361666345
1.5603207331784028 -0.2936336873291404
1.0897706254382993 -0.45976967570101984
0.7704687666146578 -0.5705270012822727
0.5015829907631701 -0.5151483384916463
0.2831132978838365 -0.2936336873291404
0.2158918539209646 -0.21056569314320067
0.26630793689311855 -0.1551870303525742
0.2158918539209646 -0.18287636174788743
0.13186504896737472 -0.26594435593382715
0.014227522032348878 -0.21056569314320067
-0.019383199949087073 -0.0721190361666345
-0.052993921930523026 0.010948958019305222
-0.10341000490267696 0.03863828941461846
-0.17063144886554887 -0.0721190361666345
-0.2714636148098567 -0.18287636174788743
-0.32187969778201064 -0.1551870303525742
-0.2882689758005747 -0.12749769895726096
-0.2210475318377028 -0.016740373376008016
-0.25465825381913876 0.03863828941461846
-0.20424217084698482 0.03863828941461846
-0.2210475318377028 -0.016740373376008016
-0.23785289282842076 0.03863828941461846
-0.25465825381913876 0.17708494639118466
-0.23785289282842076 0.2324636091818111
-0.20424217084698482 0.2878422719724376
-0.23785289282842076 0.3432209347630641
-0.2210475318377028 0.26015294057712435
-0.3050743367912927 0.3432209347630641
-0.2882689758005747 0.39859959755369057
-0.2210475318377028 0.5093569231349435
-0.15382608787483087 0.48166759173963025
-0.17063144886554887 0.48166759173963025
-0.20424217084698482 0.4262889289490038
-0.23785289282842076 0.5093569231349435
-0.25465825381913876 0.5370462545302568
-0.18743680985626684 0.6478035801115097
-0.10341000490267696 0.5370462545302568
-0.03618856093980505 0.48166759173963025
-0.08660464391195898 0.5370462545302568
-0.10341000490267696 0.5924249173208832
-0.08660464391195898 0.6754929115068229
-0.002577838958369098 0.7031822429021362
0.11505968797665674 0.7585609056927627
0.08144896599522078 0.7308715742974494
0.04783824401378483 0.7031822429021362
0.06464360500450281 0.7031822429021362
0.06464360500450281 0.7031822429021362
0.13186504896737472 0.6754929115068229
0.19908649293024663 0.6754929115068229
0.2158918539209646 0.48166759173963025
0.2158918539209646 0.3155316033677508
0.16547577094881066 0.26015294057712435
0.19908649293024663 0.26015294057712435
0.23269721491168258 0.20477427778649787
0.2999186588745545 0.12170628360055817
0.31672401986527243 -0.0721190361666345
0.26630793689311855 -0.0721190361666345
0.24950257590240055 -0.0721190361666345
0.26630793689311855 0.0663276208099317
0.33352938085599043 0.12170628360055817
0.45116690779101626 -0.016740373376008016
0.46797226878173426 -0.12749769895726096
0.4847776297724522 -0.18287636174788743
0.46797226878173426 -0.21056569314320067
0.5015829907631701 -0.2382550245385139
0.5351937127446061 -0.1551870303525742
0.5856097957167601 -0.21056569314320067
0.5688044347260421 -0.26594435593382715
0.5519990737353241 -0.3213230187244536
0.4847776297724522 -0.3767016815150801
0.45116690779101626 -0.2936336873291404
0.46797226878173426 -0.18287636174788743
0.45116690779101626 -0.21056569314320067
0.4343615468002983 -0.1551870303525742
0.3671401028374264 -0.26594435593382715
0.26630793689311855 -0.2936336873291404
0.23269721491168258 -0.1551870303525742
0.26630793689311855 -0.04442970477132125
0.26630793689311855 -0.04442970477132125
0.19908649293024663 -0.0721190361666345
0.09825432698593876 -0.0721190361666345
0.11505968797665674 -0.04442970477132125
0.13186504896737472 0.0663276208099317
0.09825432698593876 0.09401695220524493
0.1486704099580927 -0.016740373376008016
0.06464360500450281 -0.04442970477132125
-0.002577838958369098 -0.09980836756194773
-0.019383199949087073 -0.04442970477132125
-0.002577838958369098 0.14939561499587142
0.031032883023066855 0.20477427778649787
0.06464360500450281 0.2878422719724376
0.031032883023066855 0.3432209347630641
-0.03618856093980505 0.3155316033677508
-0.069799282921241 0.3155316033677508
-0.1370207268841129 0.45397826034431704
-0.069799282921241 0.5093569231349435
-0.019383199949087073 0.5370462545302568
-0.019383199949087073 0.5370462545302568
-0.052993921930523026 0.45397826034431704
-0.052993921930523026 0.4262889289490038
0.031032883023066855 0.48166759173963025
0.06464360500450281 0.5924249173208832
0.1486704099580927 0.6478035801115097
0.1486704099580927 0.6478035801115097
0.1486704099580927 0.5647355859255699
0.031032883023066855 0.5370462545302568
0.031032883023066855 0.5370462545302568
0.09825432698593876 0.6478035801115097
0.1486704099580927 0.6201142487161965
0.1486704099580927 0.5647355859255699
0.09825432698593876 0.4262889289490038
0.031032883023066855 0.4262889289490038
0.031032883023066855 0.48166759173963025
-0.002577838958369098 0.5924249173208832
-0.002577838958369098 0.5647355859255699
-0.002577838958369098 0.5093569231349435
-0.069799282921241 0.45397826034431704
-0.12021536589339493 0.39859959755369057
-0.15382608787483087 0.5093569231349435
-0.12021536589339493 0.7031822429021362
-0.052993921930523026 0.5647355859255699
-0.069799282921241 0.3155316033677508
-0.12021536589339493 -0.04442970477132125
-0.1370207268841129 -0.3213230187244536
-0.069799282921241 -0.3213230187244536
-0.03618856093980505 -0.2936336873291404
-0.002577838958369098 -0.3767016815150801
-0.019383199949087073 -0.48745900709633305
-0.069799282921241 -0.6812843268635257
-0.15382608787483087 -0.6812843268635257
-0.15382608787483087 -0.6535949954682124
-0.1370207268841129 -0.48745900709633305
-0.069799282921241 -0.4320803443057066
-0.069799282921241 -0.40439101291039337
-0.10341000490267696 -0.4320803443057066
-0.12021536589339493 -0.3490123501197669
-0.18743680985626684 -0.3213230187244536
-0.10341000490267696 -0.21056569314320067
-0.03618856093980505 -0.26594435593382715
-0.052993921930523026 -0.3767016815150801
-0.12021536589339493 -0.40439101291039337
-0.12021536589339493 -0.5428376698869595
-0.10341000490267696 -0.48745900709633305
-0.08660464391195898 -0.3213230187244536
-0.052993921930523026 -0.3213230187244536
-0.019383199949087073 -0.3213230187244536
-0.03618856093980505 -0.3490123501197669
-0.08660464391195898 -0.2382550245385139
-0.12021536589339493 -0.21056569314320067
-0.03618856093980505 -0.1551870303525742
0.014227522032348878 -0.18287636174788743
0.031032883023066855 -0.18287636174788743
-0.03618856093980505 -0.1551870303525742
-0.052993921930523026 -0.016740373376008016
-0.069799282921241 0.09401695220524493
-0.019383199949087073 0.2324636091818111
0.08144896599522078 0.20477427778649787
0.08144896599522078 0.12170628360055817
0.031032883023066855 0.12170628360055817
0.031032883023066855 0.0663276208099317
0.08144896599522078 0.12170628360055817
0.19908649293024663 0.17708494639118466
0.26630793689311855 0.26015294057712435
0.23269721491168258 0.26015294057712435
0.19908649293024663 0.20477427778649787
0.1486704099580927 0.26015294057712435
0.08144896599522078 0.26015294057712435
0.19908649293024663 0.2878422719724376
0.26630793689311855 0.20477427778649787
0.24950257590240055 0.14939561499587142
0.18228113193952863 0.12170628360055817
0.13186504896737472 0.20477427778649787
0.09825432698593876 0.2324636091818111
0.16547577094881066 0.20477427778649787
0.09825432698593876 0.09401695220524493
0.09825432698593876 -0.04442970477132125
0.09825432698593876 -0.09980836756194773
0.031032883023066855 -0.12749769895726096
0.04783824401378483 0.03863828941461846
0.06464360500450281 0.12170628360055817
0.13186504896737472 0.12170628360055817
0.11505968797665674 0.03863828941461846
0.13186504896737472 -0.04442970477132125
0.11505968797665674 0.010948958019305222
0.13186504896737472 -0.04442970477132125
0.18228113193952863 0.03863828941461846
0.18228113193952863 0.0663276208099317
0.09825432698593876 -0.0721190361666345
0.06464360500450281 -0.18287636174788743
0.031032883023066855 -0.18287636174788743
0.08144896599522078 -0.0721190361666345
0.09825432698593876 -0.09980836756194773
0.16547577094881066 -0.21056569314320067
0.13186504896737472 -0.3213230187244536
0.06464360500450281 -0.40439101291039337
0.031032883023066855 -0.3213230187244536
0.06464360500450281 -0.26594435593382715
0.06464360500450281 -0.21056569314320067
0.1486704099580927 -0.2382550245385139
0.09825432698593876 -0.2382550245385139
0.08144896599522078 -0.3490123501197669
0.09825432698593876 -0.3213230187244536
0.08144896599522078 -0.1551870303525742
0.18228113193952863 -0.04442970477132125
0.2831132978838365 0.010948958019305222
0.2999186588745545 -0.04442970477132125
0.33352938085599043 -0.40439101291039337
0.3839454638281444 -0.9304883094213449
0.5351937127446061 -1.4842749373276096
0.7368580446332219 -2.093440228024501
1.0057438204847096 -2.813362844302645
1.375461762280505 -3.754800111743295
1.7451797040763004 -4.640858716393319
2.232535172807122 -5.471538658252716
2.770306724510097 -6.080703948949607
3.40891044215738 -6.10839328034492
3.963487354851073 -5.886878629182414
4.434037462591177 -5.443849326857403
4.8205607653776905 -4.973130693137078
5.291110873117794 -4.170140082672994
5.559996648969281 -3.062566826860464
5.526385926987845 -1.982682902443248
5.1230572632106135 -1.179692291979164
4.400426740609741 -0.5151483384916463
3.509742608101688 -0.26594435593382715
2.602253114602917 -0.18287636174788743
1.8628172310113262 -0.26594435593382715
1.2578242353454792 -0.3490123501197669
0.8208848495868117 -0.45976967570101984
0.5183883517538882 -0.3213230187244536
0.33352938085599043 -0.18287636174788743
0.33352938085599043 -0.04442970477132125
0.3671401028374264 0.12170628360055817
0.4007508248188623 0.20477427778649787
0.3671401028374264 0.17708494639118466
0.19908649293024663 0.14939561499587142
0.06464360500450281 0.09401695220524493
-0.03618856093980505 0.12170628360055817
-0.019383199949087073 0.14939561499587142
-0.03618856093980505 0.3155316033677508
-0.019383199949087073 0.3709102661583773
-0.069799282921241 0.3155316033677508
-0.15382608787483087 0.2878422719724376
-0.17063144886554887 0.2878422719724376
-0.20424217084698482 0.39859959755369057
-0.18743680985626684 0.5370462545302568
-0.15382608787483087 0.5093569231349435
-0.17063144886554887 0.45397826034431704
-0.25465825381913876 0.2878422719724376
-0.2210475318377028 0.17708494639118466
-0.15382608787483087 0.14939561499587142
-0.15382608787483087 0.26015294057712435
-0.12021536589339493 0.2878422719724376
-0.20424217084698482 0.17708494639118466
-0.18743680985626684 0.0663276208099317
-0.23785289282842076 0.010948958019305222
-0.20424217084698482 0.14939561499587142
-0.23785289282842076 0.20477427778649787
-0.23785289282842076 0.12170628360055817
-0.20424217084698482 0.010948958019305222
-0.2210475318377028 -0.21056569314320067
-0.2210475318377028 -0.2382550245385139
-0.2714636148098567 -0.18287636174788743
-0.18743680985626684 -0.0721190361666345
-0.18743680985626684 -0.0721190361666345
-0.17063144886554887 -0.26594435593382715
-0.23785289282842076 -0.3213230187244536
-0.23785289282842076 -0.2382550245385139
-0.1370207268841129 -0.18287636174788743
-0.10341000490267696 -0.0721190361666345
-0.03618856093980505 -0.09980836756194773
-0.002577838958369098 -0.09980836756194773
-0.052993921930523026 -0.1551870303525742
-0.019383199949087073 -0.12749769895726096
-0.002577838958369098 0.03863828941461846
0.031032883023066855 0.0663276208099317
0.031032883023066855 0.09401695220524493
0.09825432698593876 0.14939561499587142
0.06464360500450281 0.14939561499587142
0.08144896599522078 0.2878422719724376
0.04783824401378483 0.39859959755369057
0.1486704099580927 0.5093569231349435
0.2158918539209646 0.45397826034431704
0.2831132978838365 0.3155316033677508
0.2999186588745545 0.3709102661583773
0.31672401986527243 0.39859959755369057
0.33352938085599043 0.5093569231349435
0.4343615468002983 0.48166759173963025
0.46797226878173426 0.5093569231349435
0.4847776297724522 0.45397826034431704
0.46797226878173426 0.39859959755369057
0.4007508248188623 0.4262889289490038
0.5015829907631701 0.4262889289490038
0.5519990737353241 0.45397826034431704
0.6696366006703499 0.3709102661583773
0.652831239679632 0.17708494639118466
0.6192205176981961 0.03863828941461846
0.5519990737353241 0.0663276208099317
0.5856097957167601 0.12170628360055817
0.5856097957167601 0.2324636091818111
0.602415156707478 0.12170628360055817
0.5688044347260421 -0.016740373376008016
0.4343615468002983 -0.1551870303525742
0.3839454638281444 -0.1551870303525742
0.31672401986527243 -0.04442970477132125
0.33352938085599043 0.03863828941461846
0.33352938085599043 0.010948958019305222
0.2831132978838365 -0.016740373376008016
0.16547577094881066 -0.09980836756194773
0.13186504896737472 -0.016740373376008016
0.11505968797665674 0.17708494639118466
0.1486704099580927 0.17708494639118466
0.11505968797665674 0.12170628360055817
0.06464360500450281 0.03863828941461846
0.031032883023066855 -0.09980836756194773
0.014227522032348878 -0.09980836756194773
0.031032883023066855 -0.016740373376008016
0.04783824401378483 0.010948958019305222
0.031032883023066855 -0.0721190361666345
0.031032883023066855 -0.1551870303525742
-0.052993921930523026 -0.2936336873291404
-0.10341000490267696 -0.2382550245385139
-0.10341000490267696 -0.2382550245385139
-0.019383199949087073 -0.2936336873291404
-0.002577838958369098 -0.3767016815150801
-0.019383199949087073 -0.3767016815150801
-0.10341000490267696 -0.4320803443057066
-0.1370207268841129 -0.4320803443057066
-0.12021536589339493 -0.26594435593382715
-0.019383199949087073 -0.2382550245385139
0.014227522032348878 -0.26594435593382715
-0.019383199949087073 -0.2936336873291404
-0.069799282921241 -0.3213230187244536
-0.08660464391195898 -0.3213230187244536
-0.052993921930523026 -0.3490123501197669
0.04783824401378483 -0.18287636174788743
0.08144896599522078 -0.0721190361666345
0.04783824401378483 -0.21056569314320067
0.04783824401378483 -0.2936336873291404
0.014227522032348878 -0.26594435593382715
0.06464360500450281 -0.26594435593382715
0.09825432698593876 -0.0721190361666345
0.11505968797665674 -0.0721190361666345
0.11505968797665674 0.03863828941461846
0.08144896599522078 0.03863828941461846
0.08144896599522078 0.0663276208099317
0.1486704099580927 0.17708494639118466
0.18228113193952863 0.12170628360055817
0.2831132978838365 0.17708494639118466
0.2831132978838365 0.0663276208099317
0.26630793689311855 0.010948958019305222
0.2158918539209646 0.0663276208099317
0.26630793689311855 0.17708494639118466
0.2831132978838365 0.26015294057712435
0.3839454638281444 0.26015294057712435
0.2999186588745545 0.20477427778649787
0.24950257590240055 0.12170628360055817
0.2158918539209646 0.12170628360055817
0.23269721491168258 0.14939561499587142
0.2831132978838365 0.2324636091818111
0.2831132978838365 0.26015294057712435
0.19908649293024663 0.17708494639118466
0.16547577094881066 0.0663276208099317
0.13186504896737472 0.03863828941461846
0.13186504896737472 0.09401695220524493
0.16547577094881066 0.17708494639118466
0.19908649293024663 0.20477427778649787
0.1486704099580927 0.03863828941461846
0.11505968797665674 0.03863828941461846
0.11505968797665674 0.09401695220524493
0.13186504896737472 0.26015294057712435
0.16547577094881066 0.3709102661583773
0.19908649293024663 0.3432209347630641
0.18228113193952863 0.09401695220524493
0.11505968797665674 -0.1551870303525742
0.09825432698593876 -0.2936336873291404
0.08144896599522078 -0.2936336873291404
0.13186504896737472 -0.18287636174788743
0.19908649293024663 -0.1551870303525742
0.18228113193952863 -0.26594435593382715
0.1486704099580927 -0.2936336873291404
0.1486704099580927 -0.3767016815150801
0.18228113193952863 -0.3767016815150801
0.23269721491168258 -0.3490123501197669
0.24950257590240055 -0.3213230187244536
0.23269721491168258 -0.3767016815150801
0.2158918539209646 -0.3490123501197669
0.24950257590240055 -0.2936336873291404
0.26630793689311855 -0.09980836756194773
0.33352938085599043 0.010948958019305222
0.4175561858095803 -0.18287636174788743
0.5183883517538882 -0.6812843268635257
0.5519990737353241 -1.2350709547697905
0.6696366006703499 -1.7334789198854288
0.8713009325589657 -2.1488188908151273
1.2242135133640433 -2.6749161873260787
1.6107368161505566 -3.4779067977901628
2.014065479927788 -4.363965402440186
2.4846155876678915 -5.25002400709021
2.921554973426559 -5.665363978019909
3.5265479690924058 -5.499227989648029
4.030708798813945 -5.083888018718331
4.534869628535485 -4.640858716393319
4.98861437528487 -4.22551874546362
5.341526956089948 -3.6994214489526684
5.459164483024973 -2.7579841815120187
5.307916234108512 -1.7334789198854288
4.870976848349844 -1.0135563036072845
4.215567769711843 -0.598216332677586
3.3584943591852263 -0.3767016815150801
2.4678102266771735 -0.45976967570101984
1.7955957870484545 -0.4320803443057066
1.274629596336197 -0.4320803443057066
0.8881062935496836 -0.26594435593382715
0.602415156707478 -0.1551870303525742
0.5183883517538882 -0.09980836756194773
0.4343615468002983 -0.12749769895726096
0.4175561858095803 -0.12749769895726096
0.3839454638281444 0.010948958019305222
0.4007508248188623 0.09401695220524493
0.2999186588745545 0.14939561499587142
0.18228113193952863 0.17708494639118466
0.09825432698593876 0.09401695220524493
-0.002577838958369098 0.12170628360055817
-0.03618856093980505 0.17708494639118466
-0.052993921930523026 0.26015294057712435
-0.019383199949087073 0.17708494639118466
-0.069799282921241 0.2324636091818111
-0.1370207268841129 0.2324636091818111
-0.23785289282842076 0.3155316033677508
-0.17063144886554887 0.3432209347630641
-0.15382608787483087 0.3709102661583773
-0.12021536589339493 0.3155316033677508
-0.1370207268841129 0.20477427778649787
-0.20424217084698482 0.17708494639118466
-0.3050743367912927 0.17708494639118466
-0.3050743367912927 0.14939561499587142
-0.2714636148098567 0.2324636091818111
-0.18743680985626684 0.17708494639118466
-0.23785289282842076 0.09401695220524493
-0.3050743367912927 0.09401695220524493
-0.33868505877272864 0.12170628360055817
-0.32187969778201064 0.17708494639118466
-0.2882689758005747 0.17708494639118466
-0.23785289282842076 0.17708494639118466
-0.25465825381913876 0.12170628360055817
-0.3050743367912927 0.12170628360055817
-0.33868505877272864 0.17708494639118466
-0.3050743367912927 0.26015294057712435
-0.2210475318377028 0.2878422719724376
-0.23785289282842076 0.12170628360055817
-0.23785289282842076 0.0663276208099317
-0.2210475318377028 -0.0721190361666345
-0.25465825381913876 -0.09980836756194773
-0.20424217084698482 0.03863828941461846
-0.10341000490267696 0.12170628360055817
-0.019383199949087073 0.14939561499587142
-0.03618856093980505 0.2324636091818111
-0.03618856093980505 0.20477427778649787
-0.069799282921241 0.26015294057712435
0.014227522032348878 0.3432209347630641
0.06464360500450281 0.45397826034431704
0.16547577094881066 0.5093569231349435
0.11505968797665674 0.48166759173963025
0.09825432698593876 0.5093569231349435
0.08144896599522078 0.5093569231349435
0.11505968797665674 0.6478035801115097
0.18228113193952863 0.7585609056927627
0.26630793689311855 0.7585609056927627
0.24950257590240055 0.7031822429021362
0.2831132978838365 0.6201142487161965
0.2831132978838365 0.6201142487161965
0.3671401028374264 0.7031822429021362
0.45116690779101626 0.8139395684833891
0.5183883517538882 0.8139395684833891
0.5015829907631701 0.6754929115068229
0.46797226878173426 0.5093569231349435
0.45116690779101626 0.45397826034431704
0.45116690779101626 0.45397826034431704
0.5351937127446061 0.4262889289490038
0.5688044347260421 0.3709102661583773
0.5015829907631701 0.3155316033677508
0.4175561858095803 0.17708494639118466
0.4007508248188623 0.20477427778649787
0.3839454638281444 0.3155316033677508
0.35033474184670843 0.4262889289490038
0.33352938085599043 0.4262889289490038
0.26630793689311855 0.4262889289490038
0.24950257590240055 0.3432209347630641
0.16547577094881066 0.3155316033677508
0.08144896599522078 0.3432209347630641
0.06464360500450281 0.39859959755369057
0.08144896599522078 0.3155316033677508
0.031032883023066855 0.14939561499587142
0.014227522032348878 0.03863828941461846
-0.019383199949087073 0.010948958019305222
0.031032883023066855 0.03863828941461846
0.08144896599522078 0.0663276208099317
0.11505968797665674 -0.04442970477132125
0.08144896599522078 -0.09980836756194773
0.014227522032348878 -0.21056569314320067
-0.019383199949087073 -0.2382550245385139
-0.002577838958369098 -0.26594435593382715
0.014227522032348878 -0.2936336873291404
0.04783824401378483 -0.5151483384916463
0.09825432698593876 -0.708973658258839
0.09825432698593876 -1.068934966397911
0.13186504896737472 -1.4842749373276096
0.24950257590240055 -1.9273042396526214
0.3839454638281444 -2.314954879187007
0.5351937127446061 -2.785673512907332
0.9049116545404017 -3.145634821046404
1.207408152373325 -3.5332854605807893
1.4762939282248129 -3.505596129185476
1.7451797040763004 -3.5332854605807893
1.9468440359649162 -3.5609747919761023
2.182119089834968 -3.616353454766729
2.3669780607328654 -3.8101787745339215
2.5182263096493274 -4.031693425696427
2.5350316706400453 -4.197829414068307
2.568642392621481 -4.197829414068307
2.5014209486586094 -4.170140082672994
2.4341995046957376 -4.336276071044873
2.4173941437050197 -4.668548047788632
2.4846155876678915 -5.16695601290427
2.4510048656864556 -5.471538658252716
2.5014209486586094 -5.360781332671463
2.568642392621481 -5.056198687323017
2.619058475593635 -4.751616041974572
2.6358638365843534 -4.4193440652308125
2.602253114602917 -4.253208076858933
2.5014209486586094 -3.9209361001151746
2.4341995046957376 -3.6717321175573554
2.3837834217235834 -3.4502174663948493
2.3501726997421475 -3.311770809418283
2.232535172807122 -3.145634821046404
2.064481562899942 -3.0071881640698375
1.8796225920020442 -2.8687415070932714
1.6947636211041466 -2.591848193140139
1.5267100111969667 -2.3980228733729465
1.4258778452526588 -2.1488188908151273
1.2578242353454792 -1.871925576861995
1.1737974303918892 -1.5950322629088625
1.0393545424661454 -1.2627602861651037
0.9553277375125555 -0.7643523210494654
0.8208848495868117 -0.4320803443057066
0.7200526836425039 -0.0721190361666345
0.5519990737353241 0.17708494639118466
0.2999186588745545 0.4262889289490038
0.09825432698593876 0.6478035801115097
-0.019383199949087073 0.8139395684833891
-0.10341000490267696 1.0077648882505819
-0.17063144886554887 1.035454219645895
-0.2714636148098567 1.0077648882505819
-0.3891011417448826 0.9800755568552685
-0.4899333076891904 1.0631435510412082
-0.5403493906613444 1.2569688708084008
-0.4731279466984724 1.3123475335990273
-0.4899333076891904 1.3123475335990273
-0.5067386686799084 1.2292795394130878
-0.5403493906613444 1.2292795394130878
-0.6579869175963702 1.2569688708084008
-0.6243761956149342 1.3954155277849671
-0.5907654736334983 1.4784835219709067
-0.5907654736334983 1.50617285336622
-0.6243761956149342 1.3954155277849671
-0.6747922785870881 1.2015902080177745
-0.74201372254996 1.284658202203714
-0.7588190835406781 1.3400368649943406
-0.6579869175963702 1.3400368649943406
-0.5907654736334983 1.3954155277849671
-0.6075708346242162 1.3123475335990273
-0.6243761956149342 1.3400368649943406
-0.6747922785870881 1.3677261963896539
-0.6579869175963702 1.3954155277849671
-0.5739601126427804 1.50617285336622
-0.5403493906613444 1.5615515161568465
-0.4899333076891904 1.50617285336622
-0.5235440296706264 1.50617285336622
-0.5235440296706264 1.6446195103427863
-0.4731279466984724 1.7830661673193524
-0.4227118637263185 1.8661341615052922
-0.3554904197634466 1.976891487086545
-0.3050743367912927 1.976891487086545
-0.4227118637263185 2.0045808184818585
-0.4227118637263185 1.9215128242959185
-0.4059065027356005 1.9492021556912318
-0.2714636148098567 1.9492021556912318
-0.18743680985626684 1.9492021556912318
-0.1370207268841129 1.976891487086545
-0.10341000490267696 1.976891487086545
-0.08660464391195898 2.0599594812724846
-0.069799282921241 2.087648812667798
-0.002577838958369098 2.1430274754584246
0.09825432698593876 2.1430274754584246
0.19908649293024663 2.0599594812724846
0.2158918539209646 2.0045808184818585
0.18228113193952863 2.0045808184818585
0.2158918539209646 2.0599594812724846
0.31672401986527243 2.115338144063111
0.3839454638281444 2.1430274754584246
0.4343615468002983 2.087648812667798
0.4175561858095803 2.0599594812724846
0.4175561858095803 2.087648812667798
0.4847776297724522 2.1707168068537377
0.5688044347260421 2.1430274754584246
0.6696366006703499 2.0322701498771716
0.6696366006703499 1.9215128242959185
0.7200526836425039 1.7830661673193524
0.7032473226517859 1.7553768359240391
0.7368580446332219 1.6723088417380996
0.7872741276053759 1.5892408475521598
0.8376902105775297 1.50617285336622
0.8544955715682477 1.3677261963896539
0.8376902105775297 1.2569688708084008
0.7872741276053759 1.2292795394130878
0.7536634056239399 1.2292795394130878
0.8040794885960938 1.3400368649943406
0.8713009325589657 1.146211545227148
0.7872741276053759 1.0077648882505819
0.7032473226517859 0.8139395684833891
0.7032473226517859 0.7031822429021362
0.6696366006703499 0.7031822429021362
0.6696366006703499 0.6478035801115097
0.6696366006703499 0.5647355859255699
0.5519990737353241 0.4262889289490038
0.5183883517538882 0.2878422719724376
0.4007508248188623 0.2324636091818111
0.35033474184670843 0.2324636091818111
0.3671401028374264 0.3155316033677508
0.35033474184670843 0.3155316033677508
0.2831132978838365 0.26015294057712435
0.11505968797665674 0.14939561499587142
0.08144896599522078 0.20477427778649787
0.06464360500450281 0.2878422719724376
0.11505968797665674 0.3709102661583773
0.1486704099580927 0.3709102661583773
0.09825432698593876 0.2878422719724376
0.04783824401378483 0.20477427778649787
-0.019383199949087073 0.20477427778649787
-0.019383199949087073 0.3155316033677508
0.031032883023066855 0.3155316033677508
0.06464360500450281 0.3155316033677508
0.04783824401378483 0.2324636091818111
-0.03618856093980505 0.20477427778649787
-0.03618856093980505 0.12170628360055817
-0.002577838958369098 0.0663276208099317
0.08144896599522078 0.03863828941461846
0.13186504896737472 -0.09980836756194773
0.13186504896737472 -0.48745900709633305
0.11505968797665674 -1.0135563036072845
0.16547577094881066 -1.5950322629088625
0.2831132978838365 -2.0657508966291878
0.5351937127446061 -2.370333541977633
0.8544955715682477 -2.6749161873260787
1.1737974303918892 -2.9518095012792114
1.392267123271223 -3.2010134838370305
1.5099046502062488 -3.3671494722089097
1.6611528991227105 -3.505596129185476
1.9636493969556341 -3.3671494722089097
2.232535172807122 -3.505596129185476
2.4173941437050197 -3.5609747919761023
2.4510048656864556 -3.644042786162042
2.4846155876678915 -3.644042786162042
2.5518370316307633 -3.505596129185476
2.568642392621481 -3.4225281349995362
2.5350316706400453 -3.4502174663948493
2.4678102266771735 -3.6994214489526684
2.3837834217235834 -4.031693425696427
2.24934053379784 -4.170140082672994
2.2997566167699937 -4.253208076858933
2.3837834217235834 -4.004004094301115
2.4510048656864556 -3.644042786162042
2.4173941437050197 -3.3394601408135967
2.3165619777607116 -3.2287028152323436
2.24934053379784 -3.034877495465151
2.215729811816404 -2.896430838488585
2.24934053379784 -2.702605518721392
2.2661458947885578 -2.591848193140139
2.232535172807122 -2.5641588617448257
2.1317030068628138 -2.481090867558886
1.99726011893707 -2.2872655477916934
1.8628172310113262 -2.1488188908151273
1.7787904260577363 -1.982682902443248
1.6779582601134286 -1.9549935710479347
1.4258778452526588 -1.8442362454666816
1.2578242353454792 -1.7057895884901155
1.0561599034568634 -1.5396536001182362
0.9217170155311196 -1.2350709547697905
0.8208848495868117 -0.9027989780260316
0.7032473226517859 -0.45976967570101984
0.46797226878173426 -0.21056569314320067
0.23269721491168258 0.010948958019305222
0.014227522032348878 0.3432209347630641
-0.20424217084698482 0.6201142487161965
-0.33868505877272864 0.7862502370880758
-0.45632258570775447 0.9246968940646421
-0.5907654736334983 1.0631435510412082
-0.7084030005685241 1.035454219645895
-0.82604052750355 1.2015902080177745
-0.82604052750355 1.3123475335990273
-0.792429805522114 1.4507941905755937
-0.8428458884942679 1.5338621847615332
-0.8764566104757039 1.5892408475521598
-0.9604834154292937 1.5338621847615332
-0.9940941374107297 1.6723088417380996
-0.9940941374107297 1.838444830109979
-1.0108994984014477 2.0599594812724846
-0.9772887764200118 2.115338144063111
-0.9940941374107297 2.0599594812724846
-1.0613155813736017 2.087648812667798
-1.1117316643457555 2.1707168068537377
-1.0613155813736017 2.309163463830304
-1.0445102203828835 2.44761012080687
-0.9940941374107297 2.53067811499281
-1.0108994984014477 2.53067811499281
-1.0445102203828835 2.4752994522021834
-1.0613155813736017 2.4752994522021834
-1.0613155813736017 2.5029887835974964
-0.9772887764200118 2.641435440574063
-0.8932619714664218 2.7245034347600026
-0.9100673324571398 2.7521927661553156
-0.8932619714664218 2.779882097550629
-0.9436780544385758 2.8906394231318817
-0.8428458884942679 3.0013967487131348
-0.82604052750355 3.084464742899075
-0.7588190835406781 3.139843405689701
-0.7588190835406781 3.139843405689701
-0.775624444531396 3.1675327370850144
-0.7588190835406781 3.1952220684803274
-0.7252083615592421 3.1952220684803274
-0.6579869175963702 3.1952220684803274
-0.5907654736334983 3.139843405689701
-0.5571547516520623 3.0290860801084483
-0.5403493906613444 2.9737074173178217
-0.5403493906613444 2.8906394231318817
-0.5067386686799084 2.9460180859225082
-0.4227118637263185 2.918328754527195
-0.33868505877272864 2.8629500917365687
-0.32187969778201064 2.7245034347600026
-0.3050743367912927 2.5029887835974964
-0.32187969778201064 2.44761012080687
-0.2210475318377028 2.558367446388123
-0.17063144886554887 2.5029887835974964
-0.03618856093980505 2.3645421266209303
-0.052993921930523026 2.198406138249051
0.04783824401378483 2.0599594812724846
0.031032883023066855 1.8661341615052922
0.11505968797665674 1.8661341615052922
0.2158918539209646 1.7830661673193524
0.26630793689311855 1.6723088417380996
0.2831132978838365 1.4784835219709067
0.2999186588745545 1.3677261963896539
0.23269721491168258 1.2569688708084008
0.26630793689311855 1.2569688708084008
0.26630793689311855 1.284658202203714
0.33352938085599043 1.1739008766224612
0.2999186588745545 1.0631435510412082
0.2158918539209646 0.8970075626693288
0.13186504896737472 0.7862502370880758
0.1486704099580927 0.7585609056927627
0.1486704099580927 0.7585609056927627
0.16547577094881066 0.7308715742974494
0.16547577094881066 0.5924249173208832
0.031032883023066855 0.5093569231349435
-0.069799282921241 0.48166759173963025
0.014227522032348878 0.5370462545302568
0.031032883023066855 0.5647355859255699
0.08144896599522078 0.5647355859255699
0.031032883023066855 0.5924249173208832
-0.052993921930523026 0.5924249173208832
-0.17063144886554887 0.5924249173208832
-0.12021536589339493 0.7308715742974494
-0.08660464391195898 0.6754929115068229
-0.052993921930523026 0.7308715742974494
-0.10341000490267696 0.7308715742974494
-0.18743680985626684 0.7031822429021362
-0.20424217084698482 0.7308715742974494
-0.2210475318377028 0.8139395684833891
-0.17063144886554887 0.9246968940646421
-0.15382608787483087 1.0077648882505819
-0.15382608787483087 1.0077648882505819
-0.18743680985626684 1.0077648882505819
-0.20424217084698482 0.9246968940646421
-0.18743680985626684 0.9523862254599553
-0.1370207268841129 1.0631435510412082
-0.03618856093980505 1.0908328824365214
-0.069799282921241 1.0908328824365214
-0.10341000490267696 1.035454219645895
-0.10341000490267696 0.9800755568552685
-0.10341000490267696 0.9800755568552685
-0.052993921930523026 0.9246968940646421
-0.052993921930523026 0.8970075626693288
-0.052993921930523026 0.8416288998787024
-0.08660464391195898 0.7862502370880758
-0.15382608787483087 0.7862502370880758
-0.1370207268841129 0.8139395684833891
-0.1370207268841129 0.9523862254599553
-0.1370207268841129 0.9800755568552685
-0.15382608787483087 0.9800755568552685
-0.23785289282842076 0.8970075626693288
-0.2882689758005747 0.8693182312740156
-0.23785289282842076 0.8693182312740156
-0.20424217084698482 0.8139395684833891
-0.20424217084698482 0.8139395684833891
-0.2210475318377028 0.6754929115068229
-0.2882689758005747 0.5647355859255699
-0.33868505877272864 0.5370462545302568
-0.33868505877272864 0.5370462545302568
-0.32187969778201064 0.5924249173208832
-0.2714636148098567 0.45397826034431704
-0.3050743367912927 0.45397826034431704
-0.3554904197634466 0.3432209347630641
-0.3891011417448826 0.3432209347630641
-0.3891011417448826 0.39859959755369057
-0.3722957807541646 0.45397826034431704
-0.3891011417448826 0.39859959755369057
-0.4227118637263185 0.2878422719724376
-0.43951722471703647 0.26015294057712435
-0.4899333076891904 0.3432209347630641
-0.5067386686799084 0.3155316033677508
-0.4899333076891904 0.4262889289490038
-0.43951722471703647 0.4262889289490038
-0.43951722471703647 0.39859959755369057
-0.4899333076891904 0.3709102661583773
-0.5067386686799084 0.45397826034431704
-0.5235440296706264 0.39859959755369057
-0.4899333076891904 0.39859959755369057
-0.43951722471703647 0.3432209347630641
-0.4059065027356005 0.26015294057712435
-0.43951722471703647 0.2324636091818111
-0.4731279466984724 0.3432209347630641
-0.4731279466984724 0.45397826034431704
-0.4227118637263185 0.5647355859255699
-0.3554904197634466 0.5924249173208832
-0.3722957807541646 0.5370462545302568
-0.3891011417448826 0.5093569231349435
-0.4059065027356005 0.6478035801115097
-0.4227118637263185 0.7585609056927627
-0.3722957807541646 0.8693182312740156
-0.32187969778201064 0.8970075626693288
-0.3891011417448826 0.8970075626693288
-0.4059065027356005 0.8416288998787024
-0.4059065027356005 0.8139395684833891
-0.4227118637263185 0.9246968940646421
-0.32187969778201064 0.9523862254599553
-0.3050743367912927 0.8693182312740156
-0.20424217084698482 0.8139395684833891
-0.2714636148098567 0.7585609056927627
-0.2210475318377028 0.8139395684833891
-0.15382608787483087 0.9523862254599553
-0.15382608787483087 0.9800755568552685
-0.069799282921241 1.0077648882505819
-0.10341000490267696 0.9246968940646421
-0.1370207268841129 0.8139395684833891
-0.17063144886554887 0.7862502370880758
-0.15382608787483087 0.8139395684833891
-0.08660464391195898 0.8693182312740156
-0.019383199949087073 0.7585609056927627
-0.019383199949087073 0.7031822429021362
-0.08660464391195898 0.5647355859255699
-0.08660464391195898 0.48166759173963025
-0.12021536589339493 0.5093569231349435
-0.069799282921241 0.6478035801115097
0.031032883023066855 0.6478035801115097
0.014227522032348878 0.5647355859255699
-0.019383199949087073 0.4262889289490038
-0.052993921930523026 0.39859959755369057
-0.052993921930523026 0.3709102661583773
-0.019383199949087073 0.5093569231349435
0.031032883023066855 0.45397826034431704
0.031032883023066855 0.4262889289490038
0.04783824401378483 0.39859959755369057
0.014227522032348878 0.5093569231349435
0.08144896599522078 0.6478035801115097
0.09825432698593876 0.7862502370880758
0.2158918539209646 0.5370462545302568
0.18228113193952863 0.0663276208099317
0.24950257590240055 -0.5428376698869595
0.2999186588745545 -1.0966242977932243
0.5519990737353241 -1.5950322629088625
0.8713009325589657 -2.2595762163963804
1.2578242353454792 -2.8687415070932714
1.6779582601134286 -3.644042786162042
1.9636493969556341 -4.3916547338355
2.3669780607328654 -4.945441361741764
2.871138890454405 -5.056198687323017
3.3584943591852263 -4.890062698951138
3.8122391059346117 -4.502412059416753
4.198762408721125 -4.114761419882367
4.534869628535485 -3.644042786162042
4.753339321414818 -2.7579841815120187
4.870976848349844 -1.8996149082573082
4.669312516461228 -1.1520029605838507
4.265983852683997 -0.7643523210494654
3.627380135036714 -0.6535949954682124
2.753501363519379 -0.6259056640728993
2.047676201909224 -0.5151483384916463
1.4930992892155308 -0.26594435593382715
1.1065759864290174 0.010948958019305222
0.7704687666146578 0.26015294057712435
0.4847776297724522 0.4262889289490038
0.23269721491168258 0.45397826034431704
0.16547577094881066 0.5647355859255699
0.16547577094881066 0.6478035801115097
0.04783824401378483 0.7031822429021362
0.031032883023066855 0.7031822429021362
-0.10341000490267696 0.7585609056927627
-0.2210475318377028 0.7308715742974494
-0.2714636148098567 0.8970075626693288
-0.33868505877272864 0.9800755568552685
-0.2882689758005747 1.1185222138318347
-0.3050743367912927 1.0908328824365214
-0.3554904197634466 1.0077648882505819
-0.3722957807541646 0.8970075626693288
-0.3891011417448826 0.8970075626693288
-0.3722957807541646 0.9523862254599553
-0.32187969778201064 0.9800755568552685
-0.32187969778201064 0.9523862254599553
-0.3891011417448826 0.9523862254599553
-0.4059065027356005 0.8970075626693288
-0.4227118637263185 0.9246968940646421
-0.43951722471703647 1.0077648882505819
-0.4227118637263185 1.146211545227148
-0.4059065027356005 1.2015902080177745
-0.3891011417448826 1.2292795394130878
-0.4227118637263185 1.1185222138318347
-0.4227118637263185 1.0908328824365214
-0.3891011417448826 1.035454219645895
-0.33868505877272864 1.1185222138318347
-0.3554904197634466 1.0908328824365214
-0.3722957807541646 1.0077648882505819
-0.3891011417448826 0.8416288998787024
-0.43951722471703647 0.8693182312740156
-0.43951722471703647 0.9523862254599553
-0.4731279466984724 1.035454219645895
-0.4227118637263185 0.9523862254599553
-0.4731279466984724 0.9246968940646421
-0.45632258570775447 0.9523862254599553
-0.4899333076891904 0.8693182312740156
-0.4731279466984724 0.9246968940646421
-0.43951722471703647 1.0077648882505819
-0.4059065027356005 0.9523862254599553
-0.4227118637263185 0.8139395684833891
-0.45632258570775447 0.7308715742974494
-0.45632258570775447 0.7308715742974494
-0.43951722471703647 0.8139395684833891
-0.3891011417448826 0.8416288998787024
-0.33868505877272864 0.8693182312740156
-0.3050743367912927 0.8416288998787024
-0.3891011417448826 0.6754929115068229
-0.3891011417448826 0.7031822429021362
-0.32187969778201064 0.7585609056927627
-0.2714636148098567 0.7585609056927627
-0.25465825381913876 0.6754929115068229
-0.2210475318377028 0.6478035801115097
-0.20424217084698482 0.5647355859255699
-0.20424217084698482 0.6754929115068229
-0.1370207268841129 0.7585609056927627
-0.10341000490267696 0.9246968940646421
-0.002577838958369098 0.8970075626693288
-0.03618856093980505 0.8416288998787024
0.031032883023066855 0.7585609056927627
-0.002577838958369098 0.8139395684833891
0.04783824401378483 0.8693182312740156
0.11505968797665674 0.8693182312740156
0.18228113193952863 0.8970075626693288
0.19908649293024663 0.7862502370880758
0.26630793689311855 0.7862502370880758
0.23269721491168258 0.8139395684833891
0.26630793689311855 0.8970075626693288
0.35033474184670843 1.0077648882505819
0.4007508248188623 0.9800755568552685
0.3839454638281444 0.9523862254599553
0.31672401986527243 0.7862502370880758
0.31672401986527243 0.7862502370880758
0.33352938085599043 0.8139395684833891
0.3671401028374264 0.9246968940646421
0.4007508248188623 1.0077648882505819
0.3839454638281444 1.0077648882505819
0.3671401028374264 1.0077648882505819
0.3671401028374264 0.9523862254599553
0.2999186588745545 0.9800755568552685
0.33352938085599043 1.0631435510412082
0.33352938085599043 0.9523862254599553
0.2999186588745545 0.9246968940646421
0.23269721491168258 0.7308715742974494
0.18228113193952863 0.6478035801115097
0.18228113193952863 0.7585609056927627
0.24950257590240055 0.7862502370880758
0.2158918539209646 0.6754929115068229
0.1486704099580927 0.5924249173208832
0.09825432698593876 0.45397826034431704
0.031032883023066855 0.4262889289490038
-0.002577838958369098 0.5093569231349435
0.014227522032348878 0.5370462545302568
0.014227522032348878 0.48166759173963025
-0.03618856093980505 0.3432209347630641
-0.08660464391195898 0.2878422719724376
-0.1370207268841129 0.3155316033677508
-0.18743680985626684 0.3709102661583773
-0.1370207268841129 0.4262889289490038
-0.1370207268841129 0.3709102661583773
-0.15382608787483087 0.26015294057712435
-0.20424217084698482 0.14939561499587142
-0.2210475318377028 0.20477427778649787
-0.2210475318377028 0.20477427778649787
-0.23785289282842076 0.26015294057712435
-0.17063144886554887 0.2324636091818111
-0.18743680985626684 0.0663276208099317
-0.25465825381913876 0.12170628360055817
-0.2714636148098567 0.14939561499587142
-0.2714636148098567 0.17708494639118466
-0.2210475318377028 0.3155316033677508
-0.2210475318377028 0.2878422719724376
-0.23785289282842076 0.26015294057712435
-0.2714636148098567 0.20477427778649787
-0.3050743367912927 0.20477427778649787
-0.2882689758005747 0.2878422719724376
-0.25465825381913876 0.39859959755369057
-0.20424217084698482 0.45397826034431704
-0.25465825381913876 0.39859959755369057
-0.33868505877272864 0.3432209347630641
-0.33868505877272864 0.4262889289490038
-0.2882689758005747 0.48166759173963025
-0.23785289282842076 0.6754929115068229
-0.18743680985626684 0.6754929115068229
-0.20424217084698482 0.6201142487161965
-0.2882689758005747 0.5924249173208832
-0.32187969778201064 0.5647355859255699
-0.23785289282842076 0.6478035801115097
-0.18743680985626684 0.7585609056927627
-0.15382608787483087 0.8693182312740156
-0.17063144886554887 0.8416288998787024
-0.18743680985626684 0.8693182312740156
-0.25465825381913876 0.9246968940646421
-0.18743680985626684 0.9246968940646421
-0.15382608787483087 1.0077648882505819
-0.069799282921241 0.9800755568552685
-0.10341000490267696 0.8970075626693288
-0.1370207268841129 0.7585609056927627
-0.1370207268841129 0.9246968940646421
-0.12021536589339493 1.035454219645895
-0.069799282921241 1.146211545227148
-0.019383199949087073 1.1185222138318347
-0.019383199949087073 1.0631435510412082
0.014227522032348878 1.0631435510412082
-0.002577838958369098 1.0631435510412082
0.014227522032348878 1.1185222138318347
0.13186504896737472 1.2292795394130878
0.13186504896737472 1.2015902080177745
0.11505968797665674 1.1185222138318347
0.08144896599522078 1.0631435510412082
-0.002577838958369098 1.0631435510412082
0.031032883023066855 1.146211545227148
0.08144896599522078 1.1739008766224612
0.13186504896737472 1.0631435510412082
0.1486704099580927 1.0077648882505819
0.09825432698593876 0.9246968940646421
0.031032883023066855 0.8139395684833891
0.04783824401378483 0.8139395684833891
0.031032883023066855 0.8139395684833891
0.08144896599522078 0.7585609056927627
0.031032883023066855 0.6201142487161965
0.04783824401378483 0.5370462545302568
-0.019383199949087073 0.5093569231349435
-0.002577838958369098 0.5370462545302568
0.04783824401378483 0.5647355859255699
0.04783824401378483 0.48166759173963025
0.04783824401378483 0.45397826034431704
-0.002577838958369098 0.3709102661583773
-0.1370207268841129 0.39859959755369057
-0.08660464391195898 0.45397826034431704
-0.002577838958369098 0.5647355859255699
-0.002577838958369098 0.5093569231349435
-0.019383199949087073 0.4262889289490038
-0.10341000490267696 0.3155316033677508
-0.2210475318377028 0.3155316033677508
-0.17063144886554887 0.3709102661583773
-0.15382608787483087 0.39859959755369057
-0.12021536589339493 0.39859959755369057
-0.10341000490267696 0.4262889289490038
-0.20424217084698482 0.39859959755369057
-0.3050743367912927 0.3432209347630641
-0.25465825381913876 0.3709102661583773
-0.20424217084698482 0.48166759173963025
-0.17063144886554887 0.4262889289490038
-0.18743680985626684 0.39859959755369057
-0.2210475318377028 0.39859959755369057
-0.25465825381913876 0.4262889289490038
-0.2210475318377028 0.48166759173963025
-0.18743680985626684 0.5370462545302568
-0.1370207268841129 0.5370462545302568
-0.18743680985626684 0.5093569231349435
-0.23785289282842076 0.39859959755369057
-0.23785289282842076 0.48166759173963025
-0.2210475318377028 0.5093569231349435
-0.23785289282842076 0.5370462545302568
-0.1370207268841129 0.5370462545302568
-0.1370207268841129 0.48166759173963025
-0.17063144886554887 0.4262889289490038
-0.25465825381913876 0.45397826034431704
-0.2210475318377028 0.5093569231349435
-0.2210475318377028 0.6754929115068229
-0.1370207268841129 0.6201142487161965
-0.15382608787483087 0.6201142487161965
-0.15382608787483087 0.6478035801115097
-0.20424217084698482 0.6754929115068229
-0.18743680985626684 0.8139395684833891
-0.12021536589339493 0.9523862254599553
-0.08660464391195898 0.9800755568552685
-0.10341000490267696 0.9246968940646421
-0.18743680985626684 0.9246968940646421
-0.20424217084698482 0.8970075626693288
-0.17063144886554887 1.0077648882505819
-0.12021536589339493 1.0077648882505819
-0.03618856093980505 0.9523862254599553
-0.052993921930523026 0.8693182312740156
-0.08660464391195898 0.7308715742974494
-0.052993921930523026 0.7031822429021362
-0.019383199949087073 0.8416288998787024
0.014227522032348878 0.8970075626693288
0.04783824401378483 0.8416288998787024
-0.019383199949087073 0.6754929115068229
-0.03618856093980505 0.6478035801115097
-0.052993921930523026 0.6754929115068229
-0.069799282921241 0.6754929115068229
-0.002577838958369098 0.7031822429021362
-0.002577838958369098 0.6478035801115097
0.04783824401378483 0.5093569231349435
0.014227522032348878 0.5370462545302568
-0.03618856093980505 0.45397826034431704
-0.052993921930523026 0.5093569231349435
0.014227522032348878 0.5370462545302568
0.06464360500450281 0.5093569231349435
0.06464360500450281 0.39859959755369057
-0.019383199949087073 0.39859959755369057
0.031032883023066855 0.45397826034431704
0.031032883023066855 0.5093569231349435
0.031032883023066855 0.5370462545302568
0.014227522032348878 0.3432209347630641
-0.03618856093980505 0.3155316033677508
-0.10341000490267696 0.17708494639118466
-0.08660464391195898 0.2878422719724376
-0.12021536589339493 0.3709102661583773
-0.08660464391195898 0.45397826034431704
-0.069799282921241 0.3155316033677508
-0.069799282921241 0.3432209347630641
-0.10341000490267696 0.3432209347630641
-0.15382608787483087 0.3432209347630641
-0.17063144886554887 0.39859959755369057
-0.10341000490267696 0.48166759173963025
-0.069799282921241 0.48166759173963025
-0.08660464391195898 0.3432209347630641
-0.10341000490267696 0.3709102661583773
-0.15382608787483087 0.2878422719724376
-0.17063144886554887 0.3432209347630641
-0.12021536589339493 0.4262889289490038
-0.08660464391195898 0.4262889289490038
-0.10341000490267696 0.39859959755369057
-0.12021536589339493 0.3709102661583773
-0.15382608787483087 0.39859959755369057
-0.17063144886554887 0.45397826034431704
-0.12021536589339493 0.5093569231349435
-0.069799282921241 0.48166759173963025
-0.08660464391195898 0.39859959755369057
-0.15382608787483087 0.3709102661583773
-0.18743680985626684 0.3709102661583773
-0.1370207268841129 0.4262889289490038
-0.12021536589339493 0.5924249173208832
-0.069799282921241 0.5924249173208832
-0.069799282921241 0.6478035801115097
-0.069799282921241 0.5924249173208832
-0.08660464391195898 0.6478035801115097
-0.03618856093980505 0.7585609056927627
-0.002577838958369098 0.8416288998787024
0.031032883023066855 0.8139395684833891
0.04783824401378483 0.7585609056927627
0.031032883023066855 0.6478035801115097
-0.002577838958369098 0.7585609056927627
-0.03618856093980505 0.7585609056927627
0.031032883023066855 0.8416288998787024
0.08144896599522078 0.7308715742974494
0.09825432698593876 0.7031822429021362
0.08144896599522078 0.5924249173208832
0.08144896599522078 0.5924249173208832
0.16547577094881066 0.6754929115068229
0.16547577094881066 0.7031822429021362
0.26630793689311855 0.6478035801115097
0.2831132978838365 0.5924249173208832
0.2831132978838365 0.5093569231349435
0.2158918539209646 0.45397826034431704
0.2158918539209646 0.48166759173963025
0.31672401986527243 0.5647355859255699
0.3839454638281444 0.5093569231349435
0.33352938085599043 0.4262889289490038
0.35033474184670843 0.39859959755369057
0.31672401986527243 0.48166759173963025
0.33352938085599043 0.6478035801115097
0.3839454638281444 0.7862502370880758
0.3839454638281444 0.7585609056927627
0.4175561858095803 0.6478035801115097
0.4343615468002983 0.39859959755369057
0.5015829907631701 0.010948958019305222
0.636025878688914 -0.4320803443057066
0.7536634056239399 -0.7366629896541522
0.9217170155311196 -1.3458282803510435
1.1737974303918892 -1.982682902443248
1.5099046502062488 -2.7302948501167053
1.8796225920020442 -3.4225281349995362
2.3333673387514295 -4.059382757091741
2.770306724510097 -4.5854800536026925
3.1568300272966106 -4.806994704765198
3.644185496027432 -4.917752030346451
4.047514159804663 -4.640858716393319
4.383621379619023 -4.22551874546362
4.702923238442664 -3.6994214489526684
5.089446541229178 -3.0071881640698375
5.274305512127076 -2.2595762163963804
5.274305512127076 -1.5119642687229229
5.005419736275588 -0.9027989780260316
4.534869628535485 -0.3767016815150801
3.8290444669253296 0.010948958019305222
3.089608583333739 0.14939561499587142
2.3333673387514295 0.12170628360055817
1.7283743430855825 -0.04442970477132125
1.2242135133640433 -0.1551870303525742
0.8040794885960938 -0.016740373376008016
0.4847776297724522 0.14939561499587142
0.4175561858095803 0.39859959755369057
0.4175561858095803 0.48166759173963025
0.35033474184670843 0.48166759173963025
0.33352938085599043 0.4262889289490038
0.2831132978838365 0.45397826034431704
0.19908649293024663 0.6478035801115097
0.1486704099580927 0.7862502370880758
0.13186504896737472 0.8139395684833891
0.08144896599522078 0.8139395684833891
0.06464360500450281 0.7862502370880758
0.031032883023066855 0.7862502370880758
0.031032883023066855 0.9246968940646421
-0.019383199949087073 1.0077648882505819
0.014227522032348878 1.035454219645895
-0.03618856093980505 0.9800755568552685
-0.08660464391195898 0.9523862254599553
-0.1370207268841129 0.9800755568552685
-0.10341000490267696 1.0631435510412082
-0.069799282921241 1.1739008766224612
-0.052993921930523026 1.1739008766224612
-0.069799282921241 1.146211545227148
-0.10341000490267696 1.035454219645895
-0.1370207268841129 0.9800755568552685
-0.069799282921241 0.9800755568552685
-0.002577838958369098 0.9246968940646421
0.014227522032348878 0.8416288998787024
-0.019383199949087073 0.7308715742974494
-0.10341000490267696 0.6478035801115097
-0.10341000490267696 0.6201142487161965
-0.069799282921241 0.6201142487161965
0.014227522032348878 0.7031822429021362
0.014227522032348878 0.7308715742974494
-0.019383199949087073 0.6754929115068229
-0.052993921930523026 0.6478035801115097
-0.03618856093980505 0.5924249173208832
-0.019383199949087073 0.6201142487161965
0.06464360500450281 0.6754929115068229
0.09825432698593876 0.6478035801115097
0.06464360500450281 0.5924249173208832
-0.002577838958369098 0.5924249173208832
-0.03618856093980505 0.5647355859255699
-0.019383199949087073 0.6478035801115097
-0.002577838958369098 0.8139395684833891
0.06464360500450281 0.7862502370880758
0.04783824401378483 0.7308715742974494
-0.052993921930523026 0.6478035801115097
-0.08660464391195898 0.6478035801115097
-0.052993921930523026 0.6201142487161965
-0.002577838958369098 0.7031822429021362
0.014227522032348878 0.7585609056927627
0.031032883023066855 0.7308715742974494
-0.019383199949087073 0.6754929115068229
-0.03618856093980505 0.8139395684833891
-0.052993921930523026 0.9523862254599553
0.031032883023066855 1.0631435510412082
0.06464360500450281 1.0631435510412082
0.031032883023066855 0.9800755568552685
0.04783824401378483 0.9523862254599553
0.031032883023066855 1.0077648882505819
0.09825432698593876 1.0077648882505819
0.09825432698593876 1.1185222138318347
0.13186504896737472 1.0631435510412082
0.1486704099580927 1.035454219645895
0.08144896599522078 0.9523862254599553
0.08144896599522078 1.0077648882505819
0.09825432698593876 1.0631435510412082
0.13186504896737472 1.2015902080177745
0.23269721491168258 1.2015902080177745
0.2158918539209646 1.1185222138318347
0.18228113193952863 1.0077648882505819
0.19908649293024663 1.035454219645895
0.23269721491168258 1.1739008766224612
0.24950257590240055 1.2292795394130878
0.33352938085599043 1.2015902080177745
0.31672401986527243 1.0908328824365214
0.35033474184670843 0.9800755568552685
0.35033474184670843 1.0631435510412082
0.3671401028374264 1.1739008766224612
0.46797226878173426 1.146211545227148
0.5351937127446061 1.2292795394130878
0.45116690779101626 1.0908328824365214
0.45116690779101626 1.035454219645895
0.4175561858095803 0.9800755568552685
0.4007508248188623 1.035454219645895
0.4343615468002983 1.0908328824365214
0.45116690779101626 1.0631435510412082
0.4343615468002983 0.9246968940646421
0.31672401986527243 0.8970075626693288
0.2831132978838365 0.8693182312740156
0.2999186588745545 0.8970075626693288
0.33352938085599043 0.8970075626693288
0.3671401028374264 0.8693182312740156
0.2999186588745545 0.7862502370880758
0.2999186588745545 0.6754929115068229
0.2831132978838365 0.7585609056927627
0.23269721491168258 0.7308715742974494
0.24950257590240055 0.7862502370880758
0.26630793689311855 0.7308715742974494
0.19908649293024663 0.5370462545302568
0.13186504896737472 0.3709102661583773
0.13186504896737472 0.2878422719724376
0.16547577094881066 0.3432209347630641
0.19908649293024663 0.3709102661583773
0.2158918539209646 0.3155316033677508
0.2158918539209646 0.20477427778649787
0.13186504896737472 0.09401695220524493
0.13186504896737472 0.09401695220524493
0.11505968797665674 0.0663276208099317
0.1486704099580927 0.17708494639118466
0.11505968797665674 0.20477427778649787
0.06464360500450281 0.20477427778649787
0.04783824401378483 0.12170628360055817
0.031032883023066855 0.17708494639118466
0.06464360500450281 0.2878422719724376
0.11505968797665674 0.48166759173963025
0.1486704099580927 0.5093569231349435
0.11505968797665674 0.48166759173963025
0.04783824401378483 0.4262889289490038
0.014227522032348878 0.48166759173963025
0.031032883023066855 0.5093569231349435
0.04783824401378483 0.5370462545302568
0.08144896599522078 0.5647355859255699
0.08144896599522078 0.5370462545302568
0.04783824401378483 0.4262889289490038
-0.002577838958369098 0.5370462545302568
0.014227522032348878 0.6201142487161965
0.09825432698593876 0.6754929115068229
0.08144896599522078 0.6201142487161965
0.08144896599522078 0.6201142487161965
-0.002577838958369098 0.5647355859255699
-0.002577838958369098 0.6201142487161965
0.014227522032348878 0.7031822429021362
0.08144896599522078 0.7585609056927627
0.06464360500450281 0.7308715742974494
0.06464360500450281 0.7308715742974494
0.014227522032348878 0.7031822429021362
0.014227522032348878 0.7862502370880758
0.04783824401378483 0.8139395684833891
0.09825432698593876 0.8693182312740156
0.13186504896737472 0.7862502370880758
0.13186504896737472 0.6754929115068229
0.09825432698593876 0.6754929115068229
0.04783824401378483 0.7308715742974494
0.04783824401378483 0.8970075626693288
0.13186504896737472 0.9523862254599553
0.19908649293024663 1.0077648882505819
0.19908649293024663 0.9246968940646421
0.16547577094881066 0.9523862254599553
0.1486704099580927 1.0631435510412082
0.1486704099580927 1.1185222138318347
0.18228113193952863 1.1739008766224612
0.2158918539209646 1.2015902080177745
0.23269721491168258 1.146211545227148
0.18228113193952863 1.1185222138318347
0.13186504896737472 1.0631435510412082
0.1486704099580927 1.1739008766224612
0.23269721491168258 1.146211545227148
0.31672401986527243 1.2015902080177745
0.33352938085599043 1.0077648882505819
0.2999186588745545 0.9246968940646421
0.33352938085599043 0.8693182312740156
0.3671401028374264 0.8970075626693288
0.4007508248188623 0.9800755568552685
0.4175561858095803 0.9246968940646421
0.45116690779101626 0.8139395684833891
0.4007508248188623 0.7031822429021362
0.35033474184670843 0.5924249173208832
0.4007508248188623 0.6201142487161965
0.4343615468002983 0.7031822429021362
0.5183883517538882 0.6754929115068229
0.4847776297724522 0.5924249173208832
0.45116690779101626 0.5647355859255699
0.4175561858095803 0.5924249173208832
0.4007508248188623 0.6478035801115097
0.5351937127446061 0.5370462545302568
0.5688044347260421 0.17708494639118466
0.636025878688914 -0.3213230187244536
0.686441961661068 -0.9027989780260316
0.7872741276053759 -1.3458282803510435
0.9553277375125555 -1.8442362454666816
1.274629596336197 -2.314954879187007
1.7283743430855825 -3.034877495465151
2.114897645872096 -3.8101787745339215
2.4173941437050197 -4.5854800536026925
2.770306724510097 -5.1115773501136434
3.2408568322502003 -5.25002400709021
3.7114069399903036 -5.139266681508957
4.131540964758253 -4.751616041974572
4.501258906554049 -4.308586739649559
4.854171487359126 -3.754800111743295
5.07264118023846 -2.924120169883898
5.190278707173485 -1.8165469140713684
5.022225097266306 -0.7920416524447786
4.534869628535485 0.010948958019305222
3.8290444669253296 0.45397826034431704
2.9719710563987127 0.5370462545302568
2.1485083678535317 0.4262889289490038
1.4258778452526588 0.3155316033677508
0.9889384594939915 0.14939561499587142
0.652831239679632 0.03863828941461846
0.31672401986527243 0.0663276208099317
0.13186504896737472 0.010948958019305222
0.08144896599522078 0.09401695220524493
0.13186504896737472 0.3432209347630641
0.19908649293024663 0.45397826034431704
0.24950257590240055 0.5093569231349435
0.2158918539209646 0.5370462545302568
0.09825432698593876 0.48166759173963025
0.031032883023066855 0.5370462545302568
-0.002577838958369098 0.5924249173208832
0.014227522032348878 0.6754929115068229
-0.069799282921241 0.6754929115068229
-0.052993921930523026 0.6754929115068229
-0.12021536589339493 0.5093569231349435
-0.1370207268841129 0.6478035801115097
-0.12021536589339493 0.7308715742974494
-0.10341000490267696 0.9246968940646421
-0.08660464391195898 0.9523862254599553
-0.12021536589339493 0.9800755568552685
-0.17063144886554887 0.9246968940646421
-0.18743680985626684 0.9523862254599553
-0.20424217084698482 0.9800755568552685
-0.10341000490267696 1.1185222138318347
-0.052993921930523026 1.0631435510412082
-0.12021536589339493 1.035454219645895
-0.25465825381913876 1.0631435510412082
-0.2714636148098567 1.1185222138318347
-0.25465825381913876 1.2015902080177745
-0.15382608787483087 1.2569688708084008
-0.10341000490267696 1.2292795394130878
-0.08660464391195898 1.2015902080177745
-0.10341000490267696 1.146211545227148
-0.10341000490267696 1.146211545227148
-0.019383199949087073 1.2015902080177745
0.031032883023066855 1.284658202203714
0.08144896599522078 1.2292795394130878
0.08144896599522078 1.1739008766224612
-0.002577838958369098 1.0908328824365214
0.014227522032348878 1.0908328824365214
0.08144896599522078 1.1185222138318347
0.09825432698593876 1.1739008766224612
0.13186504896737472 1.0908328824365214
0.1486704099580927 0.9523862254599553
0.13186504896737472 0.7585609056927627
0.11505968797665674 0.7585609056927627
0.16547577094881066 0.7862502370880758
0.23269721491168258 0.8139395684833891
0.2158918539209646 0.7585609056927627
0.24950257590240055 0.7308715742974494
0.24950257590240055 0.5924249173208832
0.24950257590240055 0.7031822429021362
0.2999186588745545 0.8970075626693288
0.35033474184670843 0.9523862254599553
0.4175561858095803 0.9523862254599553
0.4007508248188623 0.8416288998787024
0.3671401028374264 0.7862502370880758
0.35033474184670843 0.7862502370880758
0.4175561858095803 0.9523862254599553
0.4847776297724522 1.035454219645895
0.5183883517538882 0.9800755568552685
0.4847776297724522 0.9246968940646421
0.4847776297724522 0.8416288998787024
0.46797226878173426 0.7862502370880758
0.4847776297724522 0.8693182312740156
0.5519990737353241 0.9246968940646421
0.5519990737353241 0.9246968940646421
0.5519990737353241 0.8693182312740156
0.5519990737353241 0.7585609056927627
0.5688044347260421 0.7862502370880758
0.602415156707478 0.7585609056927627
0.6192205176981961 0.7585609056927627
0.6696366006703499 0.7031822429021362
0.636025878688914 0.7308715742974494
0.5856097957167601 0.6478035801115097
0.5688044347260421 0.5924249173208832
0.5688044347260421 0.6754929115068229
0.5688044347260421 0.6754929115068229
0.6192205176981961 0.6754929115068229
0.5688044347260421 0.5924249173208832
0.5519990737353241 0.48166759173963025
0.4847776297724522 0.5370462545302568
0.46797226878173426 0.5924249173208832
0.45116690779101626 0.7031822429021362
0.4847776297724522 0.7308715742974494
0.4847776297724522 0.7585609056927627
0.3839454638281444 0.6201142487161965
0.31672401986527243 0.6478035801115097
0.2999186588745545 0.6478035801115097
0.33352938085599043 0.7862502370880758
0.33352938085599043 0.7585609056927627
0.23269721491168258 0.7585609056927627
0.1486704099580927 0.7585609056927627
0.11505968797665674 0.7031822429021362
0.18228113193952863 0.7862502370880758
0.19908649293024663 0.8970075626693288
0.23269721491168258 0.8970075626693288
0.16547577094881066 0.8693182312740156
0.04783824401378483 0.8416288998787024
-0.002577838958369098 0.8416288998787024
0.04783824401378483 0.8416288998787024
0.09825432698593876 0.9246968940646421
0.13186504896737472 0.8416288998787024
0.1486704099580927 0.7308715742974494
0.11505968797665674 0.6478035801115097
0.08144896599522078 0.6478035801115097
0.13186504896737472 0.7031822429021362
0.16547577094881066 0.6754929115068229
0.19908649293024663 0.6201142487161965
0.16547577094881066 0.6201142487161965
0.1486704099580927 0.5093569231349435
0.13186504896737472 0.5093569231349435
0.11505968797665674 0.45397826034431704
0.16547577094881066 0.48166759173963025
0.2158918539209646 0.4262889289490038
0.18228113193952863 0.39859959755369057
0.13186504896737472 0.3155316033677508
0.09825432698593876 0.2878422719724376
0.04783824401378483 0.39859959755369057
0.06464360500450281 0.45397826034431704
0.09825432698593876 0.45397826034431704
0.09825432698593876 0.3432209347630641
0.04783824401378483 0.39859959755369057
0.014227522032348878 0.4262889289490038
-0.002577838958369098 0.5924249173208832
0.08144896599522078 0.5647355859255699
0.1486704099580927 0.5924249173208832
0.16547577094881066 0.48166759173963025
0.08144896599522078 0.4262889289490038
0.06464360500450281 0.4262889289490038
0.06464360500450281 0.5370462545302568
0.06464360500450281 0.5647355859255699
0.11505968797665674 0.48166759173963025
0.06464360500450281 0.48166759173963025
-0.019383199949087073 0.3709102661583773
-0.03618856093980505 0.3709102661583773
-0.002577838958369098 0.4262889289490038
0.031032883023066855 0.48166759173963025
0.031032883023066855 0.5093569231349435
0.014227522032348878 0.5370462545302568
-0.002577838958369098 0.5093569231349435
-0.03618856093980505 0.6201142487161965
-0.002577838958369098 0.6478035801115097
-0.069799282921241 0.7031822429021362
-0.019383199949087073 0.7031822429021362
-0.052993921930523026 0.5370462545302568
-0.019383199949087073 0.45397826034431704
-0.019383199949087073 0.4262889289490038
0.014227522032348878 0.4262889289490038
0.014227522032348878 0.5093569231349435
0.04783824401378483 0.5647355859255699
0.031032883023066855 0.45397826034431704
0.04783824401378483 0.4262889289490038
0.014227522032348878 0.45397826034431704
0.04783824401378483 0.5647355859255699
0.06464360500450281 0.6754929115068229
0.08144896599522078 0.6754929115068229
0.04783824401378483 0.6201142487161965
-0.019383199949087073 0.5093569231349435
-0.03618856093980505 0.5370462545302568
-0.019383199949087073 0.5924249173208832
-0.002577838958369098 0.7585609056927627
0.031032883023066855 0.7308715742974494
0.031032883023066855 0.6754929115068229
-0.019383199949087073 0.6201142487161965
-0.069799282921241 0.6478035801115097
-0.069799282921241 0.6478035801115097
-0.03618856093980505 0.7862502370880758
-0.019383199949087073 0.7585609056927627
0.031032883023066855 0.6754929115068229
0.031032883023066855 0.7031822429021362
-0.019383199949087073 0.7308715742974494
0.04783824401378483 0.7308715742974494
0.11505968797665674 0.7585609056927627
0.19908649293024663 0.6478035801115097
0.18228113193952863 0.5093569231349435
0.11505968797665674 0.3709102661583773
0.11505968797665674 0.3155316033677508
0.1486704099580927 0.4262889289490038
0.18228113193952863 0.5093569231349435
0.19908649293024663 0.45397826034431704
0.18228113193952863 0.45397826034431704
0.13186504896737472 0.3709102661583773
0.06464360500450281 0.3432209347630641
0.11505968797665674 0.4262889289490038
0.04783824401378483 0.48166759173963025
0.09825432698593876 0.48166759173963025
0.08144896599522078 0.39859959755369057
0.09825432698593876 0.39859959755369057
0.031032883023066855 0.4262889289490038
0.031032883023066855 0.48166759173963025
0.08144896599522078 0.5647355859255699
0.13186504896737472 0.45397826034431704
0.16547577094881066 0.45397826034431704
0.09825432698593876 0.3432209347630641
0.09825432698593876 0.3432209347630641
0.08144896599522078 0.3432209347630641
0.08144896599522078 0.5093569231349435
0.09825432698593876 0.45397826034431704
0.08144896599522078 0.45397826034431704
0.04783824401378483 0.39859959755369057
-0.002577838958369098 0.4262889289490038
0.014227522032348878 0.5093569231349435
0.014227522032348878 0.5647355859255699
0.04783824401378483 0.5370462545302568
0.014227522032348878 0.3432209347630641
-0.002577838958369098 0.3432209347630641
-0.03618856093980505 0.3432209347630641
-0.002577838958369098 0.3709102661583773
-0.03618856093980505 0.48166759173963025
-0.002577838958369098 0.4262889289490038
0.014227522032348878 0.39859959755369057
-0.002577838958369098 0.3432209347630641
-0.03618856093980505 0.3709102661583773
-0.019383199949087073 0.39859959755369057
-0.03618856093980505 0.5093569231349435
-0.019383199949087073 0.45397826034431704
0.014227522032348878 0.3432209347630641
-0.03618856093980505 0.26015294057712435
-0.069799282921241 0.3709102661583773
-0.03618856093980505 0.45397826034431704
0.031032883023066855 0.5647355859255699
0.06464360500450281 0.5647355859255699
0.06464360500450281 0.5924249173208832
0.04783824401378483 0.48166759173963025
-0.002577838958369098 0.5093569231349435
-0.002577838958369098 0.5370462545302568
0.04783824401378483 0.6754929115068229
0.08144896599522078 0.6478035801115097
0.09825432698593876 0.5924249173208832
0.06464360500450281 0.5093569231349435
0.06464360500450281 0.6201142487161965
0.08144896599522078 0.6478035801115097
0.11505968797665674 0.6754929115068229
0.16547577094881066 0.6201142487161965
0.2158918539209646 0.5370462545302568
0.18228113193952863 0.39859959755369057
0.19908649293024663 0.4262889289490038
0.19908649293024663 0.5370462545302568
0.2158918539209646 0.6754929115068229
0.2158918539209646 0.6201142487161965
0.23269721491168258 0.45397826034431704
0.13186504896737472 0.4262889289490038
0.06464360500450281 0.4262889289490038
