-0.08102266394700094 -0.2607125596169897
-0.08102266394700094 -0.28784988233949216
-0.08102266394700094 -0.34212452778449715
-0.08102266394700094 -0.3963991732295021
-0.13266163891381058 -0.3963991732295021
-0.13266163891381058 -0.45067381867450707
-0.18430061388062025 -0.4235364959520046
-0.23593958884742988 -0.3963991732295021
-0.16708762222501702 -0.3149872050619946
-0.08102266394700094 -0.15216326872697974
-0.08102266394700094 -0.09788862328197477
-0.029383688980191294 -0.016476655114467324
-0.029383688980191294 -0.07075130055947229
-0.012170697324588076 -0.12502594600447725
-0.09823565560260417 -0.15216326872697974
-0.06380967229139772 -0.17930059144948224
-0.09823565560260417 -0.2607125596169897
-0.09823565560260417 -0.2335752368944872
-0.1498746305694138 -0.2064379141719847
-0.16708762222501702 -0.17930059144948224
-0.18430061388062025 -0.17930059144948224
-0.11544864725820737 -0.2335752368944872
-0.09823565560260417 -0.04361397783696981
-0.06380967229139772 -0.15216326872697974
-0.029383688980191294 -0.12502594600447725
-0.06380967229139772 -0.2607125596169897
-0.08102266394700094 -0.2607125596169897
-0.09823565560260417 -0.28784988233949216
-0.1498746305694138 -0.3149872050619946
-0.20151360553622347 -0.3149872050619946
-0.25315258050303313 -0.3149872050619946
-0.23593958884742988 -0.3149872050619946
-0.23593958884742988 -0.2607125596169897
-0.18430061388062025 -0.17930059144948224
-0.20151360553622347 -0.2335752368944872
-0.16708762222501702 -0.15216326872697974
-0.13266163891381058 -0.2064379141719847
-0.13266163891381058 -0.12502594600447725
-0.18430061388062025 -0.15216326872697974
-0.20151360553622347 -0.3149872050619946
-0.2187265971918267 -0.3149872050619946
-0.2875785638142395 -0.4235364959520046
-0.2703655721586363 -0.4235364959520046
-0.2875785638142395 -0.4235364959520046
-0.2875785638142395 -0.3692618505069996
-0.30479155546984277 -0.3692618505069996
-0.25315258050303313 -0.3692618505069996
-0.2875785638142395 -0.4235364959520046
-0.30479155546984277 -0.3692618505069996
-0.2875785638142395 -0.34212452778449715
-0.23593958884742988 -0.47781114139700953
-0.23593958884742988 -0.45067381867450707
-0.3392175387810492 -0.504948464119512
-0.30479155546984277 -0.47781114139700953
-0.37364352209225565 -0.613497755009522
-0.3564305304366524 -0.47781114139700953
-0.3564305304366524 -0.47781114139700953
-0.3564305304366524 -0.45067381867450707
-0.32200454712544596 -0.3963991732295021
-0.3392175387810492 -0.28784988233949216
-0.30479155546984277 -0.3963991732295021
-0.2703655721586363 -0.3963991732295021
-0.2875785638142395 -0.47781114139700953
-0.30479155546984277 -0.45067381867450707
-0.3564305304366524 -0.559223109564517
-0.3564305304366524 -0.559223109564517
-0.4252824970590653 -0.613497755009522
-0.4252824970590653 -0.613497755009522
-0.4424954887146685 -0.6406350777320244
-0.4424954887146685 -0.6406350777320244
-0.4252824970590653 -0.6406350777320244
-0.39085651374785885 -0.504948464119512
-0.32200454712544596 -0.559223109564517
-0.3564305304366524 -0.613497755009522
-0.37364352209225565 -0.6406350777320244
-0.39085651374785885 -0.6949097231770294
-0.4252824970590653 -0.7491843686220344
-0.5113474553370814 -0.613497755009522
-0.5629864303038911 -0.613497755009522
-0.5113474553370814 -0.613497755009522
-0.4424954887146685 -0.5863604322870195
-0.40806950540346204 -0.5863604322870195
-0.37364352209225565 -0.5320857868420145
-0.37364352209225565 -0.504948464119512
-0.37364352209225565 -0.504948464119512
-0.3392175387810492 -0.45067381867450707
-0.3564305304366524 -0.4235364959520046
-0.39085651374785885 -0.504948464119512
-0.4252824970590653 -0.559223109564517
-0.4252824970590653 -0.6406350777320244
-0.4424954887146685 -0.6406350777320244
-0.45970848037027173 -0.6677724004545269
-0.4769214720258749 -0.6406350777320244
-0.40806950540346204 -0.6677724004545269
-0.39085651374785885 -0.613497755009522
-0.39085651374785885 -0.6406350777320244
-0.37364352209225565 -0.559223109564517
-0.3564305304366524 -0.5863604322870195
-0.3392175387810492 -0.6406350777320244
-0.4424954887146685 -0.6677724004545269
-0.4769214720258749 -0.722047045899532
-0.5285604469926846 -0.6949097231770294
-0.5285604469926846 -0.613497755009522
-0.5457734386482878 -0.6406350777320244
-0.4769214720258749 -0.6406350777320244
-0.4252824970590653 -0.5320857868420145
-0.3392175387810492 -0.504948464119512
-0.37364352209225565 -0.3963991732295021
-0.37364352209225565 -0.4235364959520046
-0.37364352209225565 -0.45067381867450707
-0.37364352209225565 -0.504948464119512
-0.3564305304366524 -0.47781114139700953
-0.4424954887146685 -0.559223109564517
-0.4424954887146685 -0.6677724004545269
-0.45970848037027173 -0.8305963367895418
-0.45970848037027173 -0.7491843686220344
-0.4769214720258749 -0.722047045899532
-0.5113474553370814 -0.722047045899532
-0.45970848037027173 -0.6677724004545269
-0.40806950540346204 -0.559223109564517
-0.39085651374785885 -0.613497755009522
-0.3564305304366524 -0.613497755009522
-0.37364352209225565 -0.559223109564517
-0.39085651374785885 -0.613497755009522
-0.39085651374785885 -0.6677724004545269
-0.45970848037027173 -0.6406350777320244
-0.45970848037027173 -0.6406350777320244
-0.4424954887146685 -0.613497755009522
-0.40806950540346204 -0.613497755009522
-0.4424954887146685 -0.504948464119512
-0.4424954887146685 -0.47781114139700953
-0.37364352209225565 -0.45067381867450707
-0.3392175387810492 -0.4235364959520046
-0.3564305304366524 -0.45067381867450707
-0.3392175387810492 -0.504948464119512
-0.37364352209225565 -0.559223109564517
-0.39085651374785885 -0.559223109564517
-0.4424954887146685 -0.5863604322870195
-0.45970848037027173 -0.5863604322870195
-0.4424954887146685 -0.7491843686220344
-0.45970848037027173 -0.722047045899532
-0.4769214720258749 -0.613497755009522
-0.4252824970590653 -0.722047045899532
-0.3392175387810492 -0.5320857868420145
-0.37364352209225565 -0.504948464119512
-0.3392175387810492 -0.559223109564517
-0.37364352209225565 -0.45067381867450707
-0.3564305304366524 -0.504948464119512
-0.4252824970590653 -0.5863604322870195
-0.4252824970590653 -0.559223109564517
-0.5113474553370814 -0.613497755009522
-0.4769214720258749 -0.5863604322870195
-0.4769214720258749 -0.613497755009522
-0.45970848037027173 -0.5320857868420145
-0.4941344636814781 -0.504948464119512
-0.3564305304366524 -0.4235364959520046
-0.32200454712544596 -0.3692618505069996
-0.32200454712544596 -0.504948464119512
-0.3564305304366524 -0.45067381867450707
-0.39085651374785885 -0.47781114139700953
-0.4424954887146685 -0.6677724004545269
-0.4424954887146685 -0.6677724004545269
-0.4424954887146685 -0.722047045899532
-0.4252824970590653 -0.6677724004545269
-0.5113474553370814 -0.722047045899532
-0.4769214720258749 -0.6677724004545269
-0.4252824970590653 -0.559223109564517
-0.3564305304366524 -0.47781114139700953
-0.32200454712544596 -0.4235364959520046
-0.3392175387810492 -0.47781114139700953
-0.3564305304366524 -0.45067381867450707
-0.3564305304366524 -0.45067381867450707
-0.3564305304366524 -0.504948464119512
-0.40806950540346204 -0.504948464119512
-0.4424954887146685 -0.613497755009522
-0.4424954887146685 -0.45067381867450707
-0.4252824970590653 -0.45067381867450707
-0.40806950540346204 -0.504948464119512
-0.3564305304366524 -0.47781114139700953
-0.30479155546984277 -0.34212452778449715
-0.2703655721586363 -0.3963991732295021
-0.30479155546984277 -0.4235364959520046
-0.3392175387810492 -0.504948464119512
-0.3392175387810492 -0.5320857868420145
-0.32200454712544596 -0.6406350777320244
-0.39085651374785885 -0.6677724004545269
-0.37364352209225565 -0.7491843686220344
-0.39085651374785885 -0.722047045899532
-0.3392175387810492 -0.722047045899532
-0.2875785638142395 -0.613497755009522
-0.23593958884742988 -0.5320857868420145
-0.13266163891381058 -0.45067381867450707
-0.06380967229139772 -0.45067381867450707
0.00504229433101514 -0.3963991732295021
0.022255285986618356 -0.3963991732295021
0.03946827764222157 -0.4235364959520046
0.022255285986618356 -0.47781114139700953
-0.012170697324588076 -0.5863604322870195
-0.08102266394700094 -0.504948464119512
-0.06380967229139772 -0.559223109564517
-0.012170697324588076 -0.4235364959520046
0.05668126929782479 -0.3963991732295021
0.17717221088704732 -0.2335752368944872
0.19438520254265051 -0.09788862328197477
0.2804501608206666 -0.09788862328197477
0.24602417750946018 -0.2064379141719847
0.24602417750946018 -0.2607125596169897
0.17717221088704732 -0.3692618505069996
0.073894260953428 -0.47781114139700953
0.00504229433101514 -0.559223109564517
-0.04659668063579451 -0.613497755009522
-0.11544864725820737 -0.559223109564517
-0.1498746305694138 -0.4235364959520046
-0.08102266394700094 -0.28784988233949216
-0.06380967229139772 -0.2064379141719847
-0.012170697324588076 -0.09788862328197477
-0.012170697324588076 0.010660667608035159
-0.04659668063579451 -0.07075130055947229
-0.1498746305694138 -0.12502594600447725
-0.2187265971918267 -0.28784988233949216
-0.30479155546984277 -0.34212452778449715
-0.4424954887146685 -0.4235364959520046
-0.5629864303038911 -0.5320857868420145
-0.6146254052707006 -0.504948464119512
-0.6490513885819071 -0.504948464119512
-0.6490513885819071 -0.504948464119512
-0.6490513885819071 -0.5863604322870195
-0.6490513885819071 -0.4235364959520046
-0.6146254052707006 -0.3692618505069996
-0.6146254052707006 -0.47781114139700953
-0.6146254052707006 -0.504948464119512
-0.6490513885819071 -0.613497755009522
-0.7006903635487167 -0.6949097231770294
-0.7351163468599232 -0.7763216913445369
-0.7695423301711296 -0.8848709822345469
-0.7695423301711296 -0.8305963367895418
-0.803968313482336 -0.7491843686220344
-0.7523293385155264 -0.7763216913445369
-0.7351163468599232 -0.613497755009522
-0.7179033552043199 -0.613497755009522
-0.6834773718931135 -0.504948464119512
-0.6834773718931135 -0.5863604322870195
-0.7351163468599232 -0.5320857868420145
-0.7351163468599232 -0.5863604322870195
-0.803968313482336 -0.6406350777320244
-0.7867553218267328 -0.6949097231770294
-0.8211813051379393 -0.7491843686220344
-0.7867553218267328 -0.6949097231770294
-0.7523293385155264 -0.5863604322870195
-0.7351163468599232 -0.5863604322870195
-0.6318383969263038 -0.559223109564517
-0.6318383969263038 -0.47781114139700953
-0.6146254052707006 -0.5320857868420145
-0.5974124136150974 -0.559223109564517
-0.5629864303038911 -0.559223109564517
-0.5801994219594943 -0.5863604322870195
-0.6146254052707006 -0.722047045899532
-0.6318383969263038 -0.7763216913445369
-0.6662643802375103 -0.8034590140670393
-0.6146254052707006 -0.7763216913445369
-0.5801994219594943 -0.6406350777320244
-0.5457734386482878 -0.613497755009522
-0.5113474553370814 -0.504948464119512
-0.4424954887146685 -0.3692618505069996
-0.37364352209225565 -0.3149872050619946
-0.2703655721586363 -0.2335752368944872
-0.1498746305694138 -0.04361397783696981
0.05668126929782479 0.17348460394305007
0.469793069032302 0.5534071220580848
1.0033958103560017 1.2589775128431495
1.7951934265137497 2.073097194518224
2.6386300176383073 2.914354198915801
3.5853445586964843 3.6199245897008656
4.463207133132248 4.0541217532609055
5.478773640812838 4.379769625930935
6.356636215248602 4.488318916820945
6.7181090400162695 4.271220335040925
6.408275190215412 3.8912978169258903
5.444347657501631 3.2671393943083333
3.895178408497342 2.2630584535757414
1.9673233430697818 0.9876042856181245
-0.012170697324588076 -0.613497755009522
-1.6818308879181 -2.2688744410821733
-2.835101328843516 -3.815701836264815
-3.3859170618228185 -4.792645454274904
-3.2310001369223897 -5.091156004222432
-2.7490363705654994 -4.711233486107397
-2.1121556793081804 -3.7885645135423127
-1.5613399463288775 -2.8930328636997307
-1.2859320798392262 -2.1060505047471585
-1.1482281465944004 -1.6447160184646163
-1.0965891716275908 -1.346205468517089
-1.0793761799719874 -1.2376561776270791
-1.0621631883163842 -1.2376561776270791
-0.958885238382765 -1.1562442094595717
-0.8383942967935425 -1.0748322412920641
-0.7179033552043199 -0.9391456276795518
-0.6146254052707006 -0.8848709822345469
-0.5457734386482878 -0.7763216913445369
-0.5457734386482878 -0.559223109564517
-0.5457734386482878 -0.5320857868420145
-0.5457734386482878 -0.613497755009522
-0.5974124136150974 -0.6949097231770294
-0.5974124136150974 -0.722047045899532
-0.6490513885819071 -0.7491843686220344
-0.6662643802375103 -0.7763216913445369
-0.6490513885819071 -0.8034590140670393
-0.6318383969263038 -0.7491843686220344
-0.6146254052707006 -0.6406350777320244
-0.5801994219594943 -0.5320857868420145
-0.5629864303038911 -0.4235364959520046
-0.5801994219594943 -0.3692618505069996
-0.5285604469926846 -0.3692618505069996
-0.5974124136150974 -0.45067381867450707
-0.5285604469926846 -0.4235364959520046
-0.4941344636814781 -0.45067381867450707
-0.5629864303038911 -0.47781114139700953
-0.6318383969263038 -0.504948464119512
-0.6490513885819071 -0.5320857868420145
-0.6490513885819071 -0.5320857868420145
-0.6146254052707006 -0.504948464119512
-0.5801994219594943 -0.34212452778449715
-0.5801994219594943 -0.34212452778449715
-0.5801994219594943 -0.3149872050619946
-0.5801994219594943 -0.34212452778449715
-0.6146254052707006 -0.3149872050619946
-0.5801994219594943 -0.3963991732295021
-0.5801994219594943 -0.504948464119512
-0.6834773718931135 -0.47781114139700953
-0.7006903635487167 -0.559223109564517
-0.6662643802375103 -0.5320857868420145
-0.6490513885819071 -0.5320857868420145
-0.6662643802375103 -0.504948464119512
-0.6490513885819071 -0.3692618505069996
-0.5457734386482878 -0.3963991732295021
-0.5457734386482878 -0.2607125596169897
-0.5285604469926846 -0.2607125596169897
-0.5457734386482878 -0.2607125596169897
-0.5285604469926846 -0.2607125596169897
-0.5113474553370814 -0.3149872050619946
-0.5629864303038911 -0.2607125596169897
-0.5801994219594943 -0.34212452778449715
-0.5974124136150974 -0.34212452778449715
-0.5801994219594943 -0.4235364959520046
-0.6146254052707006 -0.28784988233949216
-0.5974124136150974 -0.2064379141719847
-0.5457734386482878 -0.17930059144948224
-0.4941344636814781 -0.09788862328197477
-0.4424954887146685 -0.04361397783696981
-0.45970848037027173 -0.12502594600447725
-0.40806950540346204 -0.2064379141719847
-0.4424954887146685 -0.3149872050619946
-0.40806950540346204 -0.34212452778449715
-0.4424954887146685 -0.28784988233949216
-0.45970848037027173 -0.28784988233949216
-0.4424954887146685 -0.2335752368944872
-0.4252824970590653 -0.12502594600447725
-0.40806950540346204 -0.12502594600447725
-0.37364352209225565 -0.04361397783696981
-0.30479155546984277 0.09207263577554262
-0.2703655721586363 0.09207263577554262
-0.2875785638142395 0.09207263577554262
-0.2703655721586363 0.1192099584980451
-0.23593958884742988 0.09207263577554262
-0.16708762222501702 0.03779799033053764
-0.1498746305694138 0.03779799033053764
-0.16708762222501702 0.20062192666555254
-0.13266163891381058 0.33630854027806495
-0.08102266394700094 0.33630854027806495
-0.04659668063579451 0.49913247661307986
0.05668126929782479 0.49913247661307986
0.073894260953428 0.6076817675030898
0.19438520254265051 0.6348190902255922
0.21159819419825374 0.6890937356705973
0.29766315247626984 0.6619564129480948
0.29766315247626984 0.6619564129480948
0.3320891357874763 0.5534071220580848
0.3320891357874763 0.5805444447805873
0.3320891357874763 0.6348190902255922
0.4009411024098891 0.7162310583930998
0.5042190523435084 0.7976430265606071
0.5558580273103181 0.9604669628956221
0.5558580273103181 1.069016253785632
0.6763489688995405 1.177565544675642
0.710774952210747 1.2318401901206468
0.7624139271775566 1.2047028673981444
0.9001178604223824 1.177565544675642
0.865691877111176 1.177565544675642
0.9001178604223824 1.1504282219531394
0.865691877111176 1.0961535765081345
0.9345438437335889 1.177565544675642
0.9345438437335889 1.177565544675642
0.9689698270447953 1.2589775128431495
1.0722477769784147 1.3132521582881544
1.1238867519452242 1.3946641264556618
1.192738718567637 1.3946641264556618
1.1755257269120338 1.3946641264556618
1.1238867519452242 1.286114835565652
1.1238867519452242 1.177565544675642
1.037821793667208 1.2047028673981444
0.9861828187003985 1.014741608340627
0.7968399104887631 0.9876042856181245
0.8140529021443663 0.7976430265606071
0.710774952210747 0.8519176720056122
0.624709993932731 0.8790549947281147
0.5902840106215245 0.8519176720056122
0.5042190523435084 0.8247803492831096
0.41815409406549237 0.8519176720056122
0.3665151190986827 0.8247803492831096
0.3493021274430795 0.7162310583930998
0.24602417750946018 0.6076817675030898
0.1599592192314441 0.4719951538905774
0.05668126929782479 0.36344586300056747
-0.06380967229139772 0.22775924938805503
-0.18430061388062025 0.17348460394305007
-0.2187265971918267 0.14634728122054758
-0.25315258050303313 0.010660667608035159
-0.2187265971918267 -0.04361397783696981
-0.23593958884742988 0.010660667608035159
-0.23593958884742988 0.010660667608035159
-0.16708762222501702 0.03779799033053764
-0.25315258050303313 -0.12502594600447725
-0.23593958884742988 -0.2064379141719847
-0.2875785638142395 -0.17930059144948224
-0.30479155546984277 -0.28784988233949216
-0.40806950540346204 -0.3149872050619946
-0.4424954887146685 -0.3149872050619946
-0.45970848037027173 -0.2335752368944872
-0.45970848037027173 -0.17930059144948224
-0.4941344636814781 -0.2064379141719847
-0.5113474553370814 -0.12502594600447725
-0.4941344636814781 -0.07075130055947229
-0.37364352209225565 -0.09788862328197477
-0.4424954887146685 -0.17930059144948224
-0.4424954887146685 -0.2064379141719847
-0.40806950540346204 -0.3149872050619946
-0.4424954887146685 -0.2335752368944872
-0.4769214720258749 -0.3963991732295021
-0.4941344636814781 -0.3963991732295021
-0.5285604469926846 -0.3692618505069996
-0.5457734386482878 -0.34212452778449715
-0.4769214720258749 -0.28784988233949216
-0.4769214720258749 -0.3149872050619946
-0.4252824970590653 -0.34212452778449715
-0.40806950540346204 -0.34212452778449715
-0.40806950540346204 -0.3963991732295021
-0.37364352209225565 -0.34212452778449715
-0.39085651374785885 -0.34212452778449715
-0.4424954887146685 -0.3963991732295021
-0.5285604469926846 -0.34212452778449715
-0.5113474553370814 -0.4235364959520046
-0.5113474553370814 -0.3963991732295021
-0.5457734386482878 -0.4235364959520046
-0.4769214720258749 -0.28784988233949216
-0.4769214720258749 -0.2064379141719847
-0.45970848037027173 -0.17930059144948224
-0.4252824970590653 -0.09788862328197477
-0.39085651374785885 -0.2064379141719847
-0.3392175387810492 -0.15216326872697974
-0.30479155546984277 -0.07075130055947229
-0.30479155546984277 -0.04361397783696981
-0.3392175387810492 -0.15216326872697974
-0.3564305304366524 -0.2064379141719847
-0.4252824970590653 -0.28784988233949216
-0.4769214720258749 -0.2064379141719847
-0.5113474553370814 -0.3149872050619946
-0.45970848037027173 -0.28784988233949216
-0.39085651374785885 -0.2335752368944872
-0.3564305304366524 -0.12502594600447725
-0.2875785638142395 -0.2064379141719847
-0.2875785638142395 -0.2335752368944872
-0.3564305304366524 -0.2335752368944872
-0.3564305304366524 -0.2064379141719847
-0.39085651374785885 -0.2607125596169897
-0.37364352209225565 -0.2607125596169897
-0.37364352209225565 -0.17930059144948224
-0.3564305304366524 -0.15216326872697974
-0.2703655721586363 -0.016476655114467324
-0.25315258050303313 -0.04361397783696981
-0.25315258050303313 0.09207263577554262
-0.2703655721586363 0.06493531305304012
-0.23593958884742988 0.010660667608035159
-0.2703655721586363 -0.09788862328197477
-0.2703655721586363 -0.09788862328197477
-0.3392175387810492 -0.09788862328197477
-0.37364352209225565 -0.15216326872697974
-0.39085651374785885 -0.12502594600447725
-0.39085651374785885 -0.17930059144948224
-0.4252824970590653 -0.09788862328197477
-0.40806950540346204 -0.09788862328197477
-0.39085651374785885 -0.12502594600447725
-0.3564305304366524 -0.12502594600447725
-0.37364352209225565 -0.09788862328197477
-0.3564305304366524 -0.17930059144948224
-0.30479155546984277 -0.15216326872697974
-0.39085651374785885 -0.2607125596169897
-0.45970848037027173 -0.28784988233949216
-0.5457734386482878 -0.2607125596169897
-0.5113474553370814 -0.34212452778449715
-0.5113474553370814 -0.3692618505069996
-0.5285604469926846 -0.3149872050619946
-0.5629864303038911 -0.2335752368944872
-0.5457734386482878 -0.07075130055947229
-0.45970848037027173 -0.12502594600447725
-0.4424954887146685 -0.07075130055947229
-0.4769214720258749 -0.15216326872697974
-0.45970848037027173 -0.04361397783696981
-0.4769214720258749 -0.3149872050619946
-0.45970848037027173 -0.45067381867450707
-0.5113474553370814 -0.45067381867450707
-0.5285604469926846 -0.45067381867450707
-0.5629864303038911 -0.34212452778449715
-0.5285604469926846 -0.28784988233949216
-0.5629864303038911 -0.2607125596169897
-0.6146254052707006 -0.28784988233949216
-0.5801994219594943 -0.17930059144948224
-0.5113474553370814 -0.17930059144948224
-0.4769214720258749 -0.15216326872697974
-0.4769214720258749 -0.3149872050619946
-0.4424954887146685 -0.34212452778449715
-0.5285604469926846 -0.45067381867450707
-0.5113474553370814 -0.47781114139700953
-0.4941344636814781 -0.4235364959520046
-0.5629864303038911 -0.4235364959520046
-0.5801994219594943 -0.34212452778449715
-0.5629864303038911 -0.28784988233949216
-0.5285604469926846 -0.2335752368944872
-0.5457734386482878 -0.2335752368944872
-0.5113474553370814 -0.12502594600447725
-0.5457734386482878 -0.17930059144948224
-0.5457734386482878 -0.2064379141719847
-0.5629864303038911 -0.2335752368944872
-0.6146254052707006 -0.3149872050619946
-0.5974124136150974 -0.2607125596169897
-0.6662643802375103 -0.3692618505069996
-0.5974124136150974 -0.3963991732295021
-0.6318383969263038 -0.34212452778449715
-0.5974124136150974 -0.2335752368944872
-0.5285604469926846 -0.2335752368944872
-0.5457734386482878 -0.28784988233949216
-0.5285604469926846 -0.2064379141719847
-0.5457734386482878 -0.2607125596169897
-0.5285604469926846 -0.3149872050619946
-0.5629864303038911 -0.3149872050619946
-0.5801994219594943 -0.45067381867450707
-0.5974124136150974 -0.45067381867450707
-0.6146254052707006 -0.45067381867450707
-0.6318383969263038 -0.3149872050619946
-0.6146254052707006 -0.3149872050619946
-0.5974124136150974 -0.2335752368944872
-0.6318383969263038 -0.17930059144948224
-0.6146254052707006 -0.09788862328197477
-0.5629864303038911 -0.09788862328197477
-0.5801994219594943 -0.07075130055947229
-0.5629864303038911 -0.15216326872697974
-0.5285604469926846 -0.2335752368944872
-0.5457734386482878 -0.2607125596169897
-0.5629864303038911 -0.3692618505069996
-0.5801994219594943 -0.34212452778449715
-0.5801994219594943 -0.34212452778449715
-0.5801994219594943 -0.3149872050619946
-0.5801994219594943 -0.2064379141719847
-0.4941344636814781 -0.15216326872697974
-0.4941344636814781 -0.07075130055947229
-0.4941344636814781 -0.12502594600447725
-0.5113474553370814 -0.2064379141719847
-0.5113474553370814 -0.2607125596169897
-0.5285604469926846 -0.34212452778449715
-0.5285604469926846 -0.45067381867450707
-0.5457734386482878 -0.45067381867450707
-0.5285604469926846 -0.45067381867450707
-0.5457734386482878 -0.4235364959520046
-0.5457734386482878 -0.2335752368944872
-0.5285604469926846 -0.2064379141719847
-0.5457734386482878 -0.2064379141719847
-0.5801994219594943 -0.07075130055947229
-0.45970848037027173 -0.04361397783696981
-0.4769214720258749 -0.07075130055947229
-0.4769214720258749 -0.07075130055947229
-0.5457734386482878 -0.12502594600447725
-0.5457734386482878 -0.2064379141719847
-0.6146254052707006 -0.28784988233949216
-0.6834773718931135 -0.2335752368944872
-0.6490513885819071 -0.3149872050619946
-0.5629864303038911 -0.3692618505069996
-0.5629864303038911 -0.17930059144948224
-0.5285604469926846 -0.2064379141719847
-0.5285604469926846 -0.2064379141719847
-0.4941344636814781 -0.2335752368944872
-0.4769214720258749 -0.28784988233949216
-0.4252824970590653 -0.2607125596169897
-0.4252824970590653 -0.2607125596169897
-0.45970848037027173 -0.28784988233949216
-0.4769214720258749 -0.3149872050619946
-0.4252824970590653 -0.34212452778449715
-0.3564305304366524 -0.3149872050619946
-0.2875785638142395 -0.2064379141719847
-0.18430061388062025 -0.2335752368944872
-0.13266163891381058 -0.07075130055947229
-0.13266163891381058 0.010660667608035159
-0.029383688980191294 0.03779799033053764
-0.029383688980191294 -0.016476655114467324
0.00504229433101514 0.06493531305304012
0.022255285986618356 0.010660667608035159
0.10832024426463444 -0.07075130055947229
0.09110725260903123 -0.09788862328197477
0.10832024426463444 -0.09788862328197477
0.12553323592023766 -0.12502594600447725
0.03946827764222157 -0.15216326872697974
0.022255285986618356 -0.09788862328197477
-0.012170697324588076 -0.09788862328197477
-0.11544864725820737 -0.2064379141719847
-0.09823565560260417 -0.04361397783696981
-0.08102266394700094 -0.04361397783696981
-0.06380967229139772 0.06493531305304012
-0.04659668063579451 0.06493531305304012
-0.11544864725820737 0.09207263577554262
-0.1498746305694138 0.09207263577554262
-0.23593958884742988 0.010660667608035159
-0.4252824970590653 -0.04361397783696981
-0.5113474553370814 0.03779799033053764
-0.6490513885819071 -0.07075130055947229
-0.6490513885819071 -0.09788862328197477
-0.7006903635487167 -0.2335752368944872
-0.6662643802375103 -0.09788862328197477
-0.6834773718931135 -0.15216326872697974
-0.6662643802375103 -0.15216326872697974
-0.6490513885819071 -0.2335752368944872
-0.7006903635487167 -0.28784988233949216
-0.7695423301711296 -0.34212452778449715
-0.803968313482336 -0.4235364959520046
-0.8211813051379393 -0.3963991732295021
-0.8900332717603522 -0.47781114139700953
-0.8556072884491457 -0.45067381867450707
-0.803968313482336 -0.3692618505069996
-0.7867553218267328 -0.4235364959520046
-0.7006903635487167 -0.28784988233949216
-0.7006903635487167 -0.3692618505069996
-0.7351163468599232 -0.34212452778449715
-0.803968313482336 -0.34212452778449715
-0.8383942967935425 -0.3692618505069996
-0.9072462634159554 -0.4235364959520046
-0.8383942967935425 -0.3963991732295021
-0.8728202801047489 -0.3692618505069996
-0.8383942967935425 -0.3149872050619946
-0.8211813051379393 -0.2335752368944872
-0.7523293385155264 -0.2335752368944872
-0.7179033552043199 -0.2335752368944872
-0.7179033552043199 -0.15216326872697974
-0.7179033552043199 -0.2335752368944872
-0.7179033552043199 -0.2064379141719847
-0.6834773718931135 -0.2064379141719847
-0.7867553218267328 -0.28784988233949216
-0.7351163468599232 -0.28784988233949216
-0.7867553218267328 -0.4235364959520046
-0.7867553218267328 -0.3963991732295021
-0.8383942967935425 -0.28784988233949216
-0.7695423301711296 -0.3963991732295021
-0.7351163468599232 -0.28784988233949216
-0.6662643802375103 -0.3149872050619946
-0.7006903635487167 -0.2335752368944872
-0.5974124136150974 -0.28784988233949216
-0.5457734386482878 -0.2607125596169897
-0.5629864303038911 -0.28784988233949216
-0.5457734386482878 -0.28784988233949216
-0.5457734386482878 -0.3149872050619946
-0.5629864303038911 -0.2335752368944872
-0.5457734386482878 -0.2335752368944872
-0.5629864303038911 -0.12502594600447725
-0.5457734386482878 0.09207263577554262
-0.4252824970590653 0.3091712175555625
-0.20151360553622347 0.5805444447805873
0.24602417750946018 1.0418789310631296
0.865691877111176 1.6117627082356818
1.8124064181693529 2.425882389910756
2.7246949759163233 3.3485513624758405
3.6714095169745002 4.21694568959592
4.652550041343884 4.813966789490975
5.685329540680077 5.166751984883507
6.61483109008265 5.329575921218522
7.217285798028763 5.302438598496019
7.20007280637316 5.031065371270994
6.580405106771444 4.461181594098442
5.237791757634393 3.538512621533358
3.3787886588292455 2.3444704217432486
1.2271647018788436 0.6619564129480948
-0.9416722467271618 -1.2105188549045767
-2.611332437320674 -3.082994122757248
-3.6268989450012636 -4.52127222704988
-3.902306811490915 -5.416803876892462
-3.6268989450012636 -5.389666554169959
-3.1449351786443733 -4.928332067887417
-2.542480470698261 -4.141349708934845
-2.0433037126857676 -3.2186807363697603
-1.664617896262497 -2.4859730228621935
-1.4236360130840517 -1.7804026320771287
-1.2342931048724164 -1.2376561776270791
-1.0965891716275908 -0.9934202731245567
-0.9244592550715586 -0.7763216913445369
-0.8383942967935425 -0.7491843686220344
-0.7179033552043199 -0.613497755009522
-0.7179033552043199 -0.6406350777320244
-0.6834773718931135 -0.559223109564517
-0.7179033552043199 -0.45067381867450707
-0.7695423301711296 -0.5320857868420145
-0.7695423301711296 -0.45067381867450707
-0.7523293385155264 -0.4235364959520046
-0.7523293385155264 -0.28784988233949216
-0.6662643802375103 -0.2064379141719847
-0.6834773718931135 -0.28784988233949216
-0.5801994219594943 -0.28784988233949216
-0.5801994219594943 -0.2335752368944872
-0.5974124136150974 -0.17930059144948224
-0.6146254052707006 -0.2064379141719847
-0.6490513885819071 -0.28784988233949216
-0.6662643802375103 -0.2335752368944872
-0.6490513885819071 -0.2064379141719847
-0.7006903635487167 -0.12502594600447725
-0.6490513885819071 -0.07075130055947229
-0.5801994219594943 0.010660667608035159
-0.6146254052707006 0.03779799033053764
-0.5801994219594943 0.03779799033053764
-0.6146254052707006 0.010660667608035159
-0.5974124136150974 -0.016476655114467324
-0.6146254052707006 -0.09788862328197477
-0.6146254052707006 -0.12502594600447725
-0.6318383969263038 -0.2335752368944872
-0.6318383969263038 -0.17930059144948224
-0.6318383969263038 -0.2064379141719847
-0.6146254052707006 -0.15216326872697974
-0.6318383969263038 -0.17930059144948224
-0.5629864303038911 -0.09788862328197477
-0.5974124136150974 0.010660667608035159
-0.5629864303038911 -0.07075130055947229
-0.5457734386482878 0.03779799033053764
-0.4941344636814781 0.03779799033053764
-0.5285604469926846 0.03779799033053764
-0.6146254052707006 0.03779799033053764
-0.5974124136150974 -0.016476655114467324
-0.6834773718931135 0.010660667608035159
-0.6662643802375103 -0.07075130055947229
-0.6490513885819071 0.03779799033053764
-0.5974124136150974 -0.04361397783696981
-0.5629864303038911 0.09207263577554262
-0.5113474553370814 0.14634728122054758
-0.5285604469926846 0.09207263577554262
-0.5457734386482878 0.1192099584980451
-0.4941344636814781 0.06493531305304012
-0.5629864303038911 -0.016476655114467324
-0.5974124136150974 -0.016476655114467324
-0.5974124136150974 -0.09788862328197477
-0.5801994219594943 -0.17930059144948224
-0.5285604469926846 -0.09788862328197477
-0.5457734386482878 -0.016476655114467324
-0.4424954887146685 0.03779799033053764
-0.4424954887146685 0.1192099584980451
-0.39085651374785885 0.22775924938805503
-0.3564305304366524 0.33630854027806495
-0.30479155546984277 0.28203389483306
-0.2875785638142395 0.2548965721105575
-0.25315258050303313 0.3091712175555625
-0.30479155546984277 0.22775924938805503
-0.2875785638142395 0.20062192666555254
-0.30479155546984277 0.22775924938805503
-0.2703655721586363 0.33630854027806495
-0.23593958884742988 0.4177205084455724
-0.16708762222501702 0.49913247661307986
-0.13266163891381058 0.49913247661307986
-0.08102266394700094 0.6348190902255922
0.00504229433101514 0.6076817675030898
0.022255285986618356 0.6619564129480948
0.073894260953428 0.5534071220580848
0.05668126929782479 0.6076817675030898
0.09110725260903123 0.5262697993355824
0.10832024426463444 0.4719951538905774
0.1599592192314441 0.5534071220580848
0.1599592192314441 0.6076817675030898
0.19438520254265051 0.7162310583930998
0.22881118585385696 0.7705057038381047
0.31487614413187304 0.8790549947281147
0.3665151190986827 1.014741608340627
0.41815409406549237 1.014741608340627
0.45258007737669875 1.0418789310631296
0.5214320439991117 1.069016253785632
0.5214320439991117 1.069016253785632
0.5214320439991117 1.014741608340627
0.5214320439991117 0.9061923174506171
0.5042190523435084 0.9876042856181245
0.6074970022771278 1.069016253785632
0.624709993932731 1.123290899230637
0.6419229855883342 1.2047028673981444
0.7452009355219534 1.2047028673981444
0.8312658937999695 1.3946641264556618
0.8484788854555727 1.3132521582881544
0.865691877111176 1.286114835565652
0.9001178604223824 1.2318401901206468
0.8829048687667792 1.177565544675642
0.8484788854555727 1.0961535765081345
0.8140529021443663 0.9876042856181245
0.7968399104887631 0.9604669628956221
0.7796269188331599 0.9604669628956221
0.7452009355219534 0.9604669628956221
0.7624139271775566 0.9876042856181245
0.7796269188331599 1.069016253785632
0.7624139271775566 1.069016253785632
0.710774952210747 1.069016253785632
0.6419229855883342 0.9876042856181245
0.5902840106215245 0.8790549947281147
0.5042190523435084 0.8247803492831096
0.3837281107542859 0.6890937356705973
0.3320891357874763 0.5262697993355824
0.24602417750946018 0.5805444447805873
0.19438520254265051 0.5805444447805873
0.10832024426463444 0.4448578311680749
0.12553323592023766 0.4448578311680749
0.10832024426463444 0.39058318572306994
0.09110725260903123 0.4177205084455724
0.05668126929782479 0.39058318572306994
-0.04659668063579451 0.28203389483306
-0.04659668063579451 0.17348460394305007
-0.08102266394700094 0.20062192666555254
-0.09823565560260417 0.03779799033053764
-0.20151360553622347 -0.07075130055947229
-0.25315258050303313 -0.016476655114467324
-0.23593958884742988 -0.07075130055947229
-0.2875785638142395 -0.04361397783696981
-0.25315258050303313 -0.07075130055947229
-0.25315258050303313 0.14634728122054758
-0.18430061388062025 0.09207263577554262
-0.18430061388062025 0.17348460394305007
-0.18430061388062025 0.14634728122054758
-0.2187265971918267 0.06493531305304012
-0.25315258050303313 0.03779799033053764
-0.30479155546984277 -0.09788862328197477
-0.3564305304366524 -0.09788862328197477
-0.3392175387810492 -0.12502594600447725
-0.37364352209225565 -0.17930059144948224
-0.37364352209225565 -0.09788862328197477
-0.30479155546984277 0.09207263577554262
-0.2875785638142395 0.06493531305304012
-0.2875785638142395 0.14634728122054758
-0.23593958884742988 -0.07075130055947229
-0.3392175387810492 -0.04361397783696981
-0.30479155546984277 -0.016476655114467324
-0.30479155546984277 -0.2064379141719847
-0.3392175387810492 -0.2607125596169897
-0.32200454712544596 -0.28784988233949216
-0.3392175387810492 -0.3692618505069996
-0.3392175387810492 -0.3149872050619946
-0.32200454712544596 -0.2335752368944872
-0.32200454712544596 -0.2064379141719847
-0.23593958884742988 -0.07075130055947229
-0.25315258050303313 -0.04361397783696981
-0.20151360553622347 0.03779799033053764
-0.18430061388062025 0.03779799033053764
-0.18430061388062025 0.010660667608035159
-0.18430061388062025 -0.04361397783696981
-0.23593958884742988 -0.016476655114467324
-0.2187265971918267 -0.09788862328197477
-0.2703655721586363 -0.12502594600447725
-0.2187265971918267 -0.04361397783696981
-0.18430061388062025 0.010660667608035159
-0.1498746305694138 0.06493531305304012
-0.13266163891381058 0.14634728122054758
-0.11544864725820737 0.22775924938805503
-0.09823565560260417 0.17348460394305007
-0.11544864725820737 0.14634728122054758
-0.18430061388062025 0.14634728122054758
-0.1498746305694138 0.03779799033053764
-0.2187265971918267 -0.016476655114467324
-0.20151360553622347 -0.15216326872697974
-0.18430061388062025 -0.07075130055947229
-0.18430061388062025 -0.12502594600447725
-0.2187265971918267 -0.07075130055947229
-0.16708762222501702 0.09207263577554262
-0.13266163891381058 0.010660667608035159
-0.13266163891381058 0.2548965721105575
-0.06380967229139772 0.28203389483306
-0.04659668063579451 0.2548965721105575
-0.04659668063579451 0.20062192666555254
-0.11544864725820737 0.17348460394305007
-0.09823565560260417 0.20062192666555254
-0.1498746305694138 0.06493531305304012
-0.16708762222501702 0.20062192666555254
-0.20151360553622347 0.010660667608035159
-0.18430061388062025 0.1192099584980451
-0.13266163891381058 0.22775924938805503
-0.13266163891381058 0.20062192666555254
-0.08102266394700094 0.3091712175555625
-0.11544864725820737 0.17348460394305007
-0.09823565560260417 0.14634728122054758
-0.09823565560260417 0.09207263577554262
-0.1498746305694138 0.06493531305304012
-0.20151360553622347 -0.04361397783696981
-0.2703655721586363 -0.15216326872697974
-0.2875785638142395 -0.07075130055947229
-0.2703655721586363 -0.04361397783696981
-0.2703655721586363 -0.016476655114467324
-0.2703655721586363 0.06493531305304012
-0.25315258050303313 0.17348460394305007
-0.23593958884742988 0.17348460394305007
-0.18430061388062025 0.17348460394305007
-0.16708762222501702 0.20062192666555254
-0.23593958884742988 0.14634728122054758
-0.2703655721586363 0.06493531305304012
-0.2875785638142395 0.1192099584980451
-0.2875785638142395 -0.016476655114467324
-0.3392175387810492 -0.04361397783696981
-0.37364352209225565 -0.12502594600447725
-0.37364352209225565 0.09207263577554262
-0.32200454712544596 0.06493531305304012
-0.30479155546984277 0.09207263577554262
-0.32200454712544596 0.20062192666555254
-0.2875785638142395 0.06493531305304012
-0.30479155546984277 0.09207263577554262
-0.32200454712544596 -0.04361397783696981
-0.37364352209225565 -0.09788862328197477
-0.40806950540346204 -0.2335752368944872
-0.40806950540346204 -0.28784988233949216
-0.4941344636814781 -0.2335752368944872
-0.4769214720258749 -0.2607125596169897
-0.4252824970590653 -0.09788862328197477
-0.40806950540346204 -0.07075130055947229
-0.3392175387810492 0.03779799033053764
-0.4252824970590653 0.010660667608035159
-0.30479155546984277 0.06493531305304012
-0.3564305304366524 0.03779799033053764
-0.3564305304366524 0.010660667608035159
-0.39085651374785885 -0.04361397783696981
-0.39085651374785885 -0.04361397783696981
-0.39085651374785885 -0.15216326872697974
-0.4252824970590653 -0.15216326872697974
-0.40806950540346204 -0.15216326872697974
-0.4252824970590653 -0.15216326872697974
-0.40806950540346204 -0.04361397783696981
-0.4252824970590653 -0.016476655114467324
-0.39085651374785885 0.010660667608035159
-0.3392175387810492 -0.07075130055947229
-0.37364352209225565 -0.04361397783696981
-0.32200454712544596 -0.12502594600447725
-0.39085651374785885 -0.15216326872697974
-0.4941344636814781 -0.2064379141719847
-0.4424954887146685 -0.3692618505069996
-0.4252824970590653 -0.3149872050619946
-0.4424954887146685 -0.2607125596169897
-0.4424954887146685 -0.17930059144948224
-0.40806950540346204 -0.17930059144948224
-0.40806950540346204 -0.09788862328197477
-0.39085651374785885 0.010660667608035159
-0.3392175387810492 0.010660667608035159
-0.3392175387810492 -0.016476655114467324
-0.3564305304366524 -0.07075130055947229
-0.39085651374785885 -0.09788862328197477
-0.4769214720258749 -0.17930059144948224
-0.4941344636814781 -0.2064379141719847
-0.5113474553370814 -0.15216326872697974
-0.5285604469926846 -0.2335752368944872
-0.4941344636814781 -0.07075130055947229
-0.45970848037027173 -0.04361397783696981
-0.40806950540346204 -0.07075130055947229
-0.4252824970590653 0.06493531305304012
-0.39085651374785885 -0.016476655114467324
-0.39085651374785885 -0.04361397783696981
-0.40806950540346204 -0.2064379141719847
-0.4252824970590653 -0.2607125596169897
-0.4252824970590653 -0.2064379141719847
-0.4941344636814781 -0.3149872050619946
-0.4941344636814781 -0.2607125596169897
-0.5457734386482878 -0.28784988233949216
-0.4941344636814781 -0.28784988233949216
-0.4424954887146685 -0.12502594600447725
-0.4769214720258749 -0.15216326872697974
-0.4424954887146685 0.010660667608035159
-0.40806950540346204 -0.07075130055947229
-0.40806950540346204 -0.04361397783696981
-0.39085651374785885 -0.04361397783696981
-0.40806950540346204 -0.12502594600447725
-0.4252824970590653 -0.12502594600447725
-0.4769214720258749 -0.2607125596169897
-0.5113474553370814 -0.2335752368944872
-0.5113474553370814 -0.28784988233949216
-0.5113474553370814 -0.17930059144948224
-0.4769214720258749 -0.12502594600447725
-0.40806950540346204 -0.07075130055947229
-0.40806950540346204 0.010660667608035159
-0.3392175387810492 -0.09788862328197477
-0.39085651374785885 -0.12502594600447725
-0.40806950540346204 -0.2064379141719847
-0.4424954887146685 -0.2335752368944872
-0.4941344636814781 -0.2607125596169897
-0.4941344636814781 -0.2335752368944872
-0.5113474553370814 -0.2607125596169897
-0.5629864303038911 -0.2607125596169897
-0.4941344636814781 -0.2064379141719847
-0.4769214720258749 -0.09788862328197477
-0.4941344636814781 -0.04361397783696981
-0.45970848037027173 -0.016476655114467324
-0.39085651374785885 -0.016476655114467324
-0.4769214720258749 -0.04361397783696981
-0.45970848037027173 -0.09788862328197477
-0.40806950540346204 -0.04361397783696981
-0.45970848037027173 -0.2064379141719847
-0.5629864303038911 -0.2607125596169897
-0.4941344636814781 -0.2064379141719847
-0.4941344636814781 -0.2335752368944872
-0.4769214720258749 -0.2064379141719847
-0.45970848037027173 -0.12502594600447725
-0.39085651374785885 -0.09788862328197477
-0.3564305304366524 -0.04361397783696981
-0.32200454712544596 -0.15216326872697974
-0.3564305304366524 -0.15216326872697974
-0.3564305304366524 -0.17930059144948224
-0.40806950540346204 -0.3149872050619946
-0.4424954887146685 -0.28784988233949216
-0.4769214720258749 -0.28784988233949216
-0.45970848037027173 -0.2607125596169897
-0.5113474553370814 -0.2335752368944872
-0.4769214720258749 -0.07075130055947229
-0.4424954887146685 -0.016476655114467324
-0.4252824970590653 -0.07075130055947229
-0.37364352209225565 -0.016476655114467324
-0.3392175387810492 -0.07075130055947229
-0.3564305304366524 -0.07075130055947229
-0.3392175387810492 0.010660667608035159
-0.3392175387810492 -0.016476655114467324
-0.37364352209225565 -0.12502594600447725
-0.32200454712544596 -0.2335752368944872
-0.3564305304366524 -0.2064379141719847
-0.3564305304366524 -0.15216326872697974
-0.3564305304366524 -0.09788862328197477
-0.32200454712544596 -0.09788862328197477
-0.2187265971918267 -0.12502594600447725
-0.1498746305694138 -0.07075130055947229
-0.08102266394700094 -0.04361397783696981
0.00504229433101514 -0.07075130055947229
0.03946827764222157 -0.12502594600447725
0.022255285986618356 -0.2064379141719847
0.03946827764222157 -0.2335752368944872
0.00504229433101514 -0.17930059144948224
0.03946827764222157 -0.09788862328197477
-0.029383688980191294 0.03779799033053764
0.022255285986618356 0.09207263577554262
0.12553323592023766 0.20062192666555254
0.21159819419825374 0.22775924938805503
0.2632371691650634 0.33630854027806495
0.24602417750946018 0.39058318572306994
0.17717221088704732 0.3091712175555625
0.14274622757584088 0.20062192666555254
0.10832024426463444 0.06493531305304012
0.022255285986618356 0.010660667608035159
-0.029383688980191294 0.010660667608035159
-0.06380967229139772 0.03779799033053764
-0.029383688980191294 0.20062192666555254
-0.04659668063579451 0.22775924938805503
-0.029383688980191294 0.22775924938805503
0.00504229433101514 0.3091712175555625
0.03946827764222157 0.33630854027806495
0.022255285986618356 0.33630854027806495
0.022255285986618356 0.2548965721105575
-0.06380967229139772 0.1192099584980451
-0.13266163891381058 0.06493531305304012
-0.23593958884742988 0.010660667608035159
-0.32200454712544596 -0.12502594600447725
-0.4252824970590653 -0.04361397783696981
-0.5113474553370814 -0.09788862328197477
-0.5285604469926846 0.03779799033053764
-0.5285604469926846 0.010660667608035159
-0.4941344636814781 -0.04361397783696981
-0.4941344636814781 0.010660667608035159
-0.5285604469926846 0.03779799033053764
-0.5629864303038911 -0.016476655114467324
-0.5629864303038911 -0.07075130055947229
-0.5629864303038911 -0.12502594600447725
-0.6490513885819071 -0.15216326872697974
-0.6490513885819071 -0.17930059144948224
-0.7351163468599232 -0.09788862328197477
-0.7351163468599232 -0.15216326872697974
-0.7179033552043199 -0.09788862328197477
-0.6662643802375103 -0.15216326872697974
-0.7179033552043199 -0.04361397783696981
-0.5974124136150974 -0.2064379141719847
-0.5801994219594943 -0.15216326872697974
-0.5801994219594943 -0.2064379141719847
-0.5801994219594943 -0.17930059144948224
-0.5974124136150974 -0.2335752368944872
-0.6146254052707006 -0.2335752368944872
-0.7351163468599232 -0.2335752368944872
-0.6662643802375103 -0.17930059144948224
-0.7006903635487167 -0.15216326872697974
-0.6490513885819071 -0.09788862328197477
-0.6318383969263038 0.010660667608035159
-0.5974124136150974 0.06493531305304012
-0.4941344636814781 0.03779799033053764
-0.5113474553370814 -0.016476655114467324
-0.4769214720258749 0.03779799033053764
-0.4941344636814781 -0.016476655114467324
-0.4769214720258749 -0.09788862328197477
-0.5113474553370814 -0.12502594600447725
-0.5285604469926846 -0.09788862328197477
-0.5285604469926846 -0.2335752368944872
-0.5113474553370814 -0.09788862328197477
-0.4769214720258749 -0.15216326872697974
-0.39085651374785885 -0.016476655114467324
-0.3392175387810492 0.06493531305304012
-0.30479155546984277 0.010660667608035159
-0.16708762222501702 0.17348460394305007
-0.04659668063579451 0.3091712175555625
0.10832024426463444 0.6348190902255922
0.4870060606879052 0.8790549947281147
0.9345438437335889 1.4489387719006668
1.7607674432025433 2.2359211308532387
2.6558430092939105 3.104315457973318
3.5853445586964843 3.918435139648393
4.566485083065867 4.596868207710955
5.564838599090854 4.841104112213477
6.511553140149031 4.97679072582599
7.251711781339969 5.058202693993497
7.406628706240398 4.922516080380984
6.873025964916699 4.65114285315596
5.633690565713267 3.972709785093398
3.72304849194131 2.8872168761932984
1.571424534990908 1.5574880627906766
-0.5629864303038911 -0.2335752368944872
-2.2842855958642128 -2.0517758593021536
-3.248213128577993 -3.4900539635947854
-3.3687040701672153 -4.41272293615987
-2.8867403038103254 -4.466997581604875
-2.094942687652577 -3.815701836264815
-1.3719970381172422 -2.675934281919711
-0.8556072884491457 -1.7804026320771287
-0.6318383969263038 -1.0476949185695617
-0.6146254052707006 -0.7491843686220344
-0.6662643802375103 -0.5320857868420145
-0.7179033552043199 -0.559223109564517
-0.6834773718931135 -0.613497755009522
-0.6146254052707006 -0.45067381867450707
-0.5113474553370814 -0.4235364959520046
-0.4424954887146685 -0.2335752368944872
-0.4769214720258749 -0.12502594600447725
-0.4424954887146685 -0.04361397783696981
-0.45970848037027173 -0.016476655114467324
-0.40806950540346204 0.1192099584980451
-0.39085651374785885 0.03779799033053764
-0.40806950540346204 -0.016476655114467324
-0.39085651374785885 0.03779799033053764
-0.40806950540346204 -0.12502594600447725
-0.45970848037027173 -0.12502594600447725
-0.4769214720258749 -0.07075130055947229
-0.4769214720258749 -0.04361397783696981
-0.45970848037027173 -0.07075130055947229
-0.4424954887146685 -0.016476655114467324
-0.45970848037027173 0.010660667608035159
-0.40806950540346204 0.20062192666555254
-0.40806950540346204 0.09207263577554262
-0.39085651374785885 0.09207263577554262
-0.40806950540346204 0.14634728122054758
-0.4424954887146685 0.06493531305304012
-0.5113474553370814 0.1192099584980451
-0.5285604469926846 0.06493531305304012
-0.5801994219594943 -0.016476655114467324
-0.5801994219594943 0.09207263577554262
-0.5974124136150974 0.1192099584980451
-0.5285604469926846 0.1192099584980451
-0.5457734386482878 0.20062192666555254
-0.4424954887146685 0.3091712175555625
-0.4252824970590653 0.3091712175555625
-0.37364352209225565 0.2548965721105575
-0.39085651374785885 0.22775924938805503
-0.3564305304366524 0.17348460394305007
-0.4252824970590653 0.010660667608035159
-0.4424954887146685 0.010660667608035159
-0.4424954887146685 0.03779799033053764
-0.4424954887146685 0.010660667608035159
-0.4424954887146685 0.06493531305304012
-0.4252824970590653 0.1192099584980451
-0.37364352209225565 0.2548965721105575
-0.37364352209225565 0.33630854027806495
-0.2703655721586363 0.33630854027806495
-0.2875785638142395 0.4177205084455724
-0.3564305304366524 0.36344586300056747
-0.3564305304366524 0.28203389483306
-0.3392175387810492 0.28203389483306
-0.3564305304366524 0.28203389483306
-0.3564305304366524 0.28203389483306
-0.2875785638142395 0.3091712175555625
-0.3392175387810492 0.3091712175555625
-0.30479155546984277 0.4177205084455724
-0.25315258050303313 0.4719951538905774
-0.25315258050303313 0.4719951538905774
-0.18430061388062025 0.5805444447805873
-0.09823565560260417 0.49913247661307986
-0.09823565560260417 0.5534071220580848
-0.16708762222501702 0.4719951538905774
-0.11544864725820737 0.33630854027806495
-0.1498746305694138 0.39058318572306994
-0.18430061388062025 0.3091712175555625
-0.13266163891381058 0.33630854027806495
-0.09823565560260417 0.4448578311680749
-0.04659668063579451 0.5805444447805873
0.03946827764222157 0.6348190902255922
0.05668126929782479 0.7433683811156022
0.17717221088704732 0.9333296401731196
0.19438520254265051 0.8790549947281147
0.19438520254265051 0.8519176720056122
0.2632371691650634 0.9061923174506171
0.21159819419825374 0.8519176720056122
0.24602417750946018 0.9061923174506171
0.31487614413187304 0.9604669628956221
0.31487614413187304 0.9333296401731196
0.4009411024098891 1.014741608340627
0.45258007737669875 1.0961535765081345
0.5558580273103181 1.177565544675642
0.624709993932731 1.2589775128431495
0.7279879438663502 1.286114835565652
0.7624139271775566 1.3675268037331594
0.8312658937999695 1.340389481010657
0.8312658937999695 1.3675268037331594
0.8484788854555727 1.2589775128431495
0.9001178604223824 1.2318401901206468
0.9345438437335889 1.286114835565652
0.9689698270447953 1.2589775128431495
1.0033958103560017 1.3946641264556618
1.0894607686340179 1.5303507400681742
1.192738718567637 1.6660373536806867
1.2960166685012564 1.7745866445706966
1.3132296601568596 1.8831359354607065
1.3304426518124628 1.7203119991256917
1.4337206017460822 1.7745866445706966
1.416507610090479 1.801723967293199
1.416507610090479 1.7203119991256917
1.3820816267792724 1.6660373536806867
1.3820816267792724 1.6931746764031892
1.3820816267792724 1.7203119991256917
1.3992946184348758 1.6660373536806867
1.3992946184348758 1.6931746764031892
1.3992946184348758 1.6931746764031892
1.3304426518124628 1.6931746764031892
1.2788036768456532 1.6660373536806867
1.2443776935344468 1.584625385513179
1.192738718567637 1.4218014491781643
1.106673760289621 1.2589775128431495
0.9861828187003985 1.2047028673981444
0.8829048687667792 1.069016253785632
0.8140529021443663 0.9061923174506171
0.710774952210747 0.8519176720056122
0.5902840106215245 0.8790549947281147
0.5386450356547149 0.8247803492831096
0.43536708572109556 0.7705057038381047
0.41815409406549237 0.7976430265606071
0.3837281107542859 0.7162310583930998
0.3320891357874763 0.7162310583930998
0.2632371691650634 0.5534071220580848
0.21159819419825374 0.4719951538905774
0.12553323592023766 0.4177205084455724
0.03946827764222157 0.36344586300056747
0.00504229433101514 0.17348460394305007
-0.11544864725820737 0.22775924938805503
-0.13266163891381058 0.20062192666555254
-0.09823565560260417 0.14634728122054758
-0.04659668063579451 0.20062192666555254
-0.012170697324588076 0.28203389483306
-0.06380967229139772 0.22775924938805503
-0.04659668063579451 0.14634728122054758
-0.04659668063579451 0.03779799033053764
-0.08102266394700094 -0.15216326872697974
-0.13266163891381058 -0.07075130055947229
-0.1498746305694138 -0.15216326872697974
-0.18430061388062025 -0.15216326872697974
-0.20151360553622347 -0.17930059144948224
-0.18430061388062025 -0.07075130055947229
-0.1498746305694138 -0.04361397783696981
-0.16708762222501702 0.03779799033053764
-0.11544864725820737 0.14634728122054758
-0.06380967229139772 0.09207263577554262
-0.08102266394700094 0.17348460394305007
-0.09823565560260417 0.14634728122054758
-0.09823565560260417 -0.016476655114467324
-0.20151360553622347 -0.09788862328197477
-0.2187265971918267 -0.12502594600447725
-0.2875785638142395 -0.2335752368944872
-0.23593958884742988 -0.09788862328197477
-0.2703655721586363 -0.016476655114467324
-0.23593958884742988 -0.07075130055947229
-0.20151360553622347 -0.07075130055947229
-0.18430061388062025 0.14634728122054758
-0.1498746305694138 0.06493531305304012
-0.11544864725820737 0.010660667608035159
-0.09823565560260417 -0.09788862328197477
-0.11544864725820737 -0.12502594600447725
-0.1498746305694138 -0.12502594600447725
-0.16708762222501702 -0.2064379141719847
-0.2187265971918267 -0.2335752368944872
-0.20151360553622347 -0.12502594600447725
-0.20151360553622347 -0.15216326872697974
-0.20151360553622347 -0.09788862328197477
-0.09823565560260417 0.06493531305304012
-0.06380967229139772 0.17348460394305007
-0.08102266394700094 0.22775924938805503
-0.09823565560260417 0.14634728122054758
-0.08102266394700094 0.06493531305304012
-0.11544864725820737 0.010660667608035159
-0.1498746305694138 -0.016476655114467324
-0.20151360553622347 -0.016476655114467324
-0.18430061388062025 0.03779799033053764
-0.2187265971918267 -0.07075130055947229
-0.23593958884742988 0.010660667608035159
-0.16708762222501702 0.010660667608035159
-0.11544864725820737 0.09207263577554262
-0.08102266394700094 0.14634728122054758
-0.04659668063579451 0.14634728122054758
-0.029383688980191294 0.06493531305304012
-0.012170697324588076 0.03779799033053764
-0.04659668063579451 0.010660667608035159
-0.08102266394700094 -0.17930059144948224
-0.09823565560260417 -0.17930059144948224
-0.1498746305694138 -0.2335752368944872
-0.20151360553622347 -0.15216326872697974
-0.20151360553622347 0.010660667608035159
-0.1498746305694138 0.06493531305304012
-0.13266163891381058 0.09207263577554262
-0.13266163891381058 0.14634728122054758
-0.06380967229139772 0.17348460394305007
-0.09823565560260417 0.010660667608035159
-0.09823565560260417 0.03779799033053764
-0.1498746305694138 0.010660667608035159
-0.16708762222501702 -0.04361397783696981
-0.18430061388062025 -0.04361397783696981
-0.25315258050303313 -0.09788862328197477
-0.2875785638142395 -0.15216326872697974
-0.2703655721586363 -0.12502594600447725
-0.2875785638142395 -0.016476655114467324
-0.23593958884742988 -0.04361397783696981
-0.23593958884742988 -0.016476655114467324
-0.20151360553622347 -0.016476655114467324
-0.18430061388062025 -0.04361397783696981
-0.25315258050303313 -0.09788862328197477
-0.23593958884742988 -0.2064379141719847
-0.2875785638142395 -0.28784988233949216
-0.23593958884742988 -0.3149872050619946
-0.32200454712544596 -0.3692618505069996
-0.32200454712544596 -0.2335752368944872
-0.3392175387810492 -0.2064379141719847
-0.3392175387810492 -0.12502594600447725
-0.2875785638142395 -0.04361397783696981
-0.2703655721586363 0.010660667608035159
-0.2703655721586363 -0.016476655114467324
-0.2187265971918267 -0.04361397783696981
-0.23593958884742988 -0.04361397783696981
-0.25315258050303313 -0.17930059144948224
-0.2875785638142395 -0.2335752368944872
-0.32200454712544596 -0.2607125596169897
-0.39085651374785885 -0.3149872050619946
-0.4252824970590653 -0.2607125596169897
-0.4252824970590653 -0.2607125596169897
-0.39085651374785885 -0.2607125596169897
-0.30479155546984277 -0.2064379141719847
-0.2875785638142395 -0.12502594600447725
-0.2187265971918267 -0.17930059144948224
-0.2875785638142395 -0.2064379141719847
-0.3392175387810492 -0.2335752368944872
-0.32200454712544596 -0.3963991732295021
-0.39085651374785885 -0.28784988233949216
-0.37364352209225565 -0.45067381867450707
-0.40806950540346204 -0.4235364959520046
-0.39085651374785885 -0.3692618505069996
-0.40806950540346204 -0.3692618505069996
-0.39085651374785885 -0.3149872050619946
-0.37364352209225565 -0.2607125596169897
-0.3564305304366524 -0.17930059144948224
-0.30479155546984277 -0.15216326872697974
-0.30479155546984277 -0.17930059144948224
-0.3564305304366524 -0.2335752368944872
-0.3564305304366524 -0.2335752368944872
-0.39085651374785885 -0.2607125596169897
-0.45970848037027173 -0.28784988233949216
-0.4252824970590653 -0.3149872050619946
-0.5113474553370814 -0.3692618505069996
-0.45970848037027173 -0.28784988233949216
-0.45970848037027173 -0.3149872050619946
-0.4424954887146685 -0.17930059144948224
-0.40806950540346204 -0.2335752368944872
-0.3392175387810492 -0.15216326872697974
-0.3392175387810492 -0.34212452778449715
-0.32200454712544596 -0.3692618505069996
-0.37364352209225565 -0.45067381867450707
-0.32200454712544596 -0.3963991732295021
-0.4769214720258749 -0.5320857868420145
-0.40806950540346204 -0.5320857868420145
-0.40806950540346204 -0.504948464119512
-0.4252824970590653 -0.45067381867450707
-0.45970848037027173 -0.3963991732295021
-0.4252824970590653 -0.28784988233949216
-0.3392175387810492 -0.2335752368944872
-0.3392175387810492 -0.2335752368944872
-0.32200454712544596 -0.2335752368944872
-0.32200454712544596 -0.2064379141719847
-0.3392175387810492 -0.3149872050619946
-0.39085651374785885 -0.3692618505069996
-0.37364352209225565 -0.28784988233949216
-0.40806950540346204 -0.4235364959520046
-0.37364352209225565 -0.34212452778449715
-0.4252824970590653 -0.3692618505069996
-0.39085651374785885 -0.2335752368944872
-0.3564305304366524 -0.3149872050619946
-0.3392175387810492 -0.2607125596169897
-0.3392175387810492 -0.2335752368944872
-0.32200454712544596 -0.34212452778449715
-0.39085651374785885 -0.34212452778449715
-0.32200454712544596 -0.3692618505069996
-0.37364352209225565 -0.45067381867450707
-0.37364352209225565 -0.5320857868420145
-0.40806950540346204 -0.5863604322870195
-0.4252824970590653 -0.5320857868420145
-0.4769214720258749 -0.47781114139700953
-0.45970848037027173 -0.47781114139700953
-0.4252824970590653 -0.28784988233949216
-0.40806950540346204 -0.34212452778449715
-0.3564305304366524 -0.2064379141719847
-0.3564305304366524 -0.3149872050619946
-0.37364352209225565 -0.3149872050619946
-0.3564305304366524 -0.3963991732295021
-0.4252824970590653 -0.28784988233949216
-0.4252824970590653 -0.45067381867450707
-0.45970848037027173 -0.4235364959520046
-0.4424954887146685 -0.4235364959520046
-0.45970848037027173 -0.34212452778449715
-0.39085651374785885 -0.34212452778449715
-0.3564305304366524 -0.2335752368944872
-0.3564305304366524 -0.34212452778449715
-0.30479155546984277 -0.2335752368944872
-0.2875785638142395 -0.4235364959520046
-0.32200454712544596 -0.3963991732295021
-0.3392175387810492 -0.45067381867450707
-0.3392175387810492 -0.47781114139700953
-0.3392175387810492 -0.559223109564517
-0.4252824970590653 -0.6406350777320244
-0.4252824970590653 -0.613497755009522
-0.4252824970590653 -0.613497755009522
-0.4769214720258749 -0.47781114139700953
-0.39085651374785885 -0.47781114139700953
-0.37364352209225565 -0.3692618505069996
-0.3564305304366524 -0.34212452778449715
-0.2875785638142395 -0.28784988233949216
-0.2875785638142395 -0.2064379141719847
-0.30479155546984277 -0.34212452778449715
-0.30479155546984277 -0.4235364959520046
-0.3392175387810492 -0.504948464119512
-0.37364352209225565 -0.504948464119512
-0.37364352209225565 -0.559223109564517
-0.3564305304366524 -0.504948464119512
-0.32200454712544596 -0.3963991732295021
-0.3392175387810492 -0.45067381867450707
-0.2875785638142395 -0.34212452778449715
-0.2875785638142395 -0.28784988233949216
-0.2875785638142395 -0.3149872050619946
-0.2875785638142395 -0.45067381867450707
-0.2875785638142395 -0.5863604322870195
-0.32200454712544596 -0.47781114139700953
-0.37364352209225565 -0.6406350777320244
-0.39085651374785885 -0.5863604322870195
-0.4769214720258749 -0.6677724004545269
-0.4424954887146685 -0.6406350777320244
-0.39085651374785885 -0.559223109564517
-0.3392175387810492 -0.45067381867450707
-0.37364352209225565 -0.4235364959520046
-0.2875785638142395 -0.34212452778449715
-0.25315258050303313 -0.28784988233949216
-0.2875785638142395 -0.34212452778449715
-0.30479155546984277 -0.3963991732295021
-0.32200454712544596 -0.3963991732295021
-0.4252824970590653 -0.47781114139700953
-0.3392175387810492 -0.504948464119512
-0.37364352209225565 -0.504948464119512
-0.3564305304366524 -0.3963991732295021
-0.32200454712544596 -0.504948464119512
-0.30479155546984277 -0.3149872050619946
-0.30479155546984277 -0.28784988233949216
-0.2703655721586363 -0.28784988233949216
-0.23593958884742988 -0.3963991732295021
-0.23593958884742988 -0.3963991732295021
-0.23593958884742988 -0.5320857868420145
-0.32200454712544596 -0.5863604322870195
-0.3392175387810492 -0.6949097231770294
-0.30479155546984277 -0.5863604322870195
-0.2875785638142395 -0.6406350777320244
-0.3392175387810492 -0.559223109564517
-0.30479155546984277 -0.5320857868420145
-0.25315258050303313 -0.4235364959520046
-0.2187265971918267 -0.34212452778449715
-0.20151360553622347 -0.2607125596169897
-0.25315258050303313 -0.2335752368944872
-0.18430061388062025 -0.28784988233949216
-0.2187265971918267 -0.3963991732295021
-0.2875785638142395 -0.28784988233949216
-0.2875785638142395 -0.45067381867450707
-0.2875785638142395 -0.47781114139700953
-0.30479155546984277 -0.4235364959520046
-0.30479155546984277 -0.45067381867450707
-0.2875785638142395 -0.3149872050619946
-0.2187265971918267 -0.3149872050619946
-0.16708762222501702 -0.2064379141719847
-0.1498746305694138 -0.28784988233949216
-0.09823565560260417 -0.28784988233949216
-0.012170697324588076 -0.3692618505069996
0.05668126929782479 -0.3692618505069996
0.09110725260903123 -0.4235364959520046
0.12553323592023766 -0.5320857868420145
0.10832024426463444 -0.504948464119512
0.12553323592023766 -0.45067381867450707
0.12553323592023766 -0.4235364959520046
0.12553323592023766 -0.28784988233949216
0.19438520254265051 -0.2335752368944872
0.24602417750946018 -0.15216326872697974
0.3493021274430795 -0.07075130055947229
0.43536708572109556 -0.016476655114467324
0.4870060606879052 -0.016476655114467324
0.41815409406549237 0.010660667608035159
0.3665151190986827 -0.15216326872697974
0.2804501608206666 -0.17930059144948224
0.21159819419825374 -0.3149872050619946
0.1599592192314441 -0.28784988233949216
0.14274622757584088 -0.2335752368944872
0.14274622757584088 -0.2064379141719847
0.14274622757584088 -0.15216326872697974
0.1599592192314441 -0.016476655114467324
0.17717221088704732 0.03779799033053764
0.19438520254265051 -0.016476655114467324
0.17717221088704732 0.010660667608035159
0.14274622757584088 -0.016476655114467324
0.09110725260903123 -0.2064379141719847
0.03946827764222157 -0.28784988233949216
-0.012170697324588076 -0.3692618505069996
-0.16708762222501702 -0.34212452778449715
-0.25315258050303313 -0.4235364959520046
-0.2875785638142395 -0.34212452778449715
-0.30479155546984277 -0.34212452778449715
-0.3392175387810492 -0.34212452778449715
-0.32200454712544596 -0.34212452778449715
-0.30479155546984277 -0.3149872050619946
-0.32200454712544596 -0.3149872050619946
-0.39085651374785885 -0.45067381867450707
-0.4769214720258749 -0.3963991732295021
-0.5457734386482878 -0.47781114139700953
-0.5629864303038911 -0.47781114139700953
-0.5629864303038911 -0.504948464119512
-0.6146254052707006 -0.559223109564517
-0.6146254052707006 -0.34212452778449715
-0.5457734386482878 -0.47781114139700953
-0.4769214720258749 -0.3963991732295021
-0.45970848037027173 -0.34212452778449715
-0.5113474553370814 -0.34212452778449715
-0.5113474553370814 -0.45067381867450707
-0.45970848037027173 -0.5863604322870195
-0.5629864303038911 -0.6406350777320244
-0.5974124136150974 -0.6406350777320244
-0.5457734386482878 -0.6949097231770294
-0.5801994219594943 -0.6949097231770294
-0.6146254052707006 -0.722047045899532
-0.5629864303038911 -0.559223109564517
-0.4769214720258749 -0.47781114139700953
-0.4769214720258749 -0.47781114139700953
-0.39085651374785885 -0.3692618505069996
-0.37364352209225565 -0.3692618505069996
-0.40806950540346204 -0.3692618505069996
-0.39085651374785885 -0.45067381867450707
-0.39085651374785885 -0.4235364959520046
-0.45970848037027173 -0.47781114139700953
-0.4941344636814781 -0.5320857868420145
-0.4941344636814781 -0.504948464119512
-0.45970848037027173 -0.45067381867450707
-0.40806950540346204 -0.47781114139700953
-0.3392175387810492 -0.3692618505069996
-0.25315258050303313 -0.2607125596169897
-0.25315258050303313 -0.3963991732295021
-0.20151360553622347 -0.3963991732295021
-0.18430061388062025 -0.3963991732295021
-0.11544864725820737 -0.34212452778449715
-0.09823565560260417 -0.3963991732295021
0.00504229433101514 -0.2335752368944872
0.19438520254265051 -0.04361397783696981
0.5386450356547149 0.4448578311680749
1.106673760289621 1.1504282219531394
1.8640453931361625 2.0459598717957213
2.793546942538736 2.8329422307482934
3.6714095169745002 3.7284738805908755
4.652550041343884 4.21694568959592
5.582051590746457 4.488318916820945
6.511553140149031 4.54259356226595
7.045155881472731 4.43404427137594
6.924664939883508 4.21694568959592
6.081228348758951 3.701336557868373
4.618124058032677 2.968628844360806
2.6558430092939105 1.8831359354607065
0.6074970022771278 0.39058318572306994
-1.2342931048724164 -1.2105188549045767
-2.5080544873870547 -2.9473075091447356
-3.12772218698877 -4.032800418044835
-2.955592270432738 -4.548409549772382
-2.404776537453435 -4.41272293615987
-1.7506828545405129 -3.8428391589873176
-1.2170801132168132 -3.0558568000347455
-0.9072462634159554 -2.2688744410821733
-0.8211813051379393 -1.7804026320771287
-0.7867553218267328 -1.4547547594070989
-0.8211813051379393 -1.3190681457945865
-0.7523293385155264 -1.1019695640145666
-0.6490513885819071 -0.9934202731245567
-0.4941344636814781 -0.8577336595120443
-0.40806950540346204 -0.6406350777320244
-0.2703655721586363 -0.47781114139700953
-0.2875785638142395 -0.504948464119512
-0.30479155546984277 -0.504948464119512
-0.3392175387810492 -0.4235364959520046
-0.39085651374785885 -0.5863604322870195
-0.40806950540346204 -0.559223109564517
-0.4252824970590653 -0.613497755009522
-0.4252824970590653 -0.45067381867450707
-0.4252824970590653 -0.47781114139700953
-0.40806950540346204 -0.4235364959520046
-0.3564305304366524 -0.47781114139700953
-0.3392175387810492 -0.3692618505069996
-0.32200454712544596 -0.3963991732295021
-0.2875785638142395 -0.45067381867450707
-0.2703655721586363 -0.4235364959520046
-0.2703655721586363 -0.47781114139700953
-0.3392175387810492 -0.5320857868420145
-0.32200454712544596 -0.559223109564517
-0.3564305304366524 -0.47781114139700953
-0.40806950540346204 -0.45067381867450707
-0.40806950540346204 -0.45067381867450707
-0.37364352209225565 -0.3149872050619946
-0.32200454712544596 -0.2335752368944872
-0.3392175387810492 -0.2064379141719847
-0.32200454712544596 -0.2607125596169897
-0.25315258050303313 -0.28784988233949216
-0.30479155546984277 -0.28784988233949216
-0.32200454712544596 -0.3149872050619946
-0.30479155546984277 -0.3963991732295021
-0.3564305304366524 -0.3963991732295021
-0.37364352209225565 -0.3149872050619946
-0.4424954887146685 -0.3149872050619946
-0.3564305304366524 -0.3149872050619946
-0.30479155546984277 -0.3149872050619946
-0.2875785638142395 -0.2607125596169897
-0.25315258050303313 -0.2064379141719847
-0.2187265971918267 -0.2335752368944872
-0.25315258050303313 -0.2335752368944872
-0.2875785638142395 -0.3149872050619946
-0.23593958884742988 -0.28784988233949216
-0.2703655721586363 -0.3149872050619946
-0.2703655721586363 -0.3692618505069996
-0.25315258050303313 -0.34212452778449715
-0.32200454712544596 -0.3692618505069996
-0.32200454712544596 -0.2335752368944872
-0.25315258050303313 -0.2335752368944872
-0.20151360553622347 -0.12502594600447725
-0.1498746305694138 -0.04361397783696981
-0.13266163891381058 -0.04361397783696981
-0.11544864725820737 -0.09788862328197477
-0.16708762222501702 -0.09788862328197477
-0.13266163891381058 -0.12502594600447725
-0.18430061388062025 -0.17930059144948224
-0.18430061388062025 -0.2335752368944872
-0.16708762222501702 -0.17930059144948224
-0.16708762222501702 -0.15216326872697974
-0.2187265971918267 -0.09788862328197477
-0.1498746305694138 -0.04361397783696981
-0.08102266394700094 -0.04361397783696981
-0.06380967229139772 0.03779799033053764
0.03946827764222157 0.03779799033053764
0.022255285986618356 0.010660667608035159
0.05668126929782479 -0.016476655114467324
0.03946827764222157 -0.016476655114467324
-0.012170697324588076 0.03779799033053764
0.073894260953428 0.03779799033053764
0.05668126929782479 0.03779799033053764
0.073894260953428 0.09207263577554262
0.09110725260903123 0.20062192666555254
0.09110725260903123 0.22775924938805503
0.1599592192314441 0.28203389483306
0.2632371691650634 0.39058318572306994
0.41815409406549237 0.4448578311680749
0.4009411024098891 0.49913247661307986
0.5214320439991117 0.6076817675030898
0.5558580273103181 0.4719951538905774
0.5386450356547149 0.5262697993355824
0.5558580273103181 0.5534071220580848
0.5902840106215245 0.5534071220580848
0.6074970022771278 0.6348190902255922
0.6763489688995405 0.6076817675030898
0.7624139271775566 0.6890937356705973
0.8312658937999695 0.8519176720056122
0.9001178604223824 0.8790549947281147
1.0033958103560017 0.9333296401731196
1.0033958103560017 0.9061923174506171
1.0722477769784147 0.9061923174506171
1.0894607686340179 0.9333296401731196
1.1410997436008274 1.0418789310631296
1.1238867519452242 0.9604669628956221
1.2099517102232402 1.069016253785632
1.2443776935344468 1.0418789310631296
1.2271647018788436 1.1504282219531394
1.3304426518124628 1.2318401901206468
1.3820816267792724 1.2047028673981444
1.3992946184348758 1.3946641264556618
1.4681465850572886 1.340389481010657
1.4853595767128918 1.286114835565652
1.502572568368495 1.340389481010657
1.502572568368495 1.286114835565652
1.416507610090479 1.2318401901206468
1.3304426518124628 1.177565544675642
1.2443776935344468 0.9604669628956221
1.1755257269120338 1.0418789310631296
1.0894607686340179 0.9333296401731196
0.9861828187003985 0.8519176720056122
0.9689698270447953 0.8790549947281147
0.9001178604223824 0.8247803492831096
0.865691877111176 0.7705057038381047
0.8140529021443663 0.6890937356705973
0.7624139271775566 0.6076817675030898
0.6591359772439374 0.39058318572306994
0.5386450356547149 0.33630854027806495
0.4870060606879052 0.20062192666555254
0.41815409406549237 0.1192099584980451
0.31487614413187304 0.17348460394305007
0.19438520254265051 0.06493531305304012
0.24602417750946018 0.1192099584980451
0.14274622757584088 0.09207263577554262
0.03946827764222157 0.03779799033053764
0.12553323592023766 0.06493531305304012
0.073894260953428 -0.016476655114467324
0.10832024426463444 -0.07075130055947229
0.022255285986618356 -0.09788862328197477
-0.012170697324588076 -0.2607125596169897
-0.06380967229139772 -0.2607125596169897
-0.06380967229139772 -0.34212452778449715
-0.08102266394700094 -0.34212452778449715
-0.06380967229139772 -0.3692618505069996
-0.08102266394700094 -0.3963991732295021
-0.04659668063579451 -0.3692618505069996
-0.029383688980191294 -0.3963991732295021
-0.012170697324588076 -0.2607125596169897
-0.04659668063579451 -0.34212452778449715
-0.08102266394700094 -0.3963991732295021
-0.08102266394700094 -0.4235364959520046
-0.08102266394700094 -0.4235364959520046
-0.08102266394700094 -0.45067381867450707
-0.11544864725820737 -0.4235364959520046
-0.18430061388062025 -0.47781114139700953
-0.1498746305694138 -0.4235364959520046
-0.11544864725820737 -0.4235364959520046
-0.13266163891381058 -0.4235364959520046
-0.11544864725820737 -0.3963991732295021
-0.06380967229139772 -0.34212452778449715
-0.06380967229139772 -0.3692618505069996
-0.08102266394700094 -0.34212452778449715
-0.08102266394700094 -0.45067381867450707
-0.11544864725820737 -0.45067381867450707
-0.11544864725820737 -0.504948464119512
-0.13266163891381058 -0.45067381867450707
-0.2187265971918267 -0.559223109564517
-0.16708762222501702 -0.47781114139700953
-0.09823565560260417 -0.559223109564517
-0.06380967229139772 -0.45067381867450707
-0.08102266394700094 -0.4235364959520046
-0.029383688980191294 -0.34212452778449715
0.00504229433101514 -0.3149872050619946
-0.012170697324588076 -0.28784988233949216
-0.029383688980191294 -0.3692618505069996
-0.029383688980191294 -0.3963991732295021
0.00504229433101514 -0.3963991732295021
-0.04659668063579451 -0.47781114139700953
-0.11544864725820737 -0.3963991732295021
-0.09823565560260417 -0.3692618505069996
-0.08102266394700094 -0.3963991732295021
-0.11544864725820737 -0.2335752368944872
-0.06380967229139772 -0.17930059144948224
0.022255285986618356 -0.15216326872697974
0.03946827764222157 -0.15216326872697974
0.022255285986618356 -0.17930059144948224
0.03946827764222157 -0.2064379141719847
0.022255285986618356 -0.2064379141719847
-0.029383688980191294 -0.3149872050619946
-0.012170697324588076 -0.3692618505069996
-0.029383688980191294 -0.34212452778449715
-0.029383688980191294 -0.34212452778449715
-0.06380967229139772 -0.34212452778449715
0.05668126929782479 -0.3149872050619946
0.073894260953428 -0.2335752368944872
0.14274622757584088 -0.15216326872697974
0.073894260953428 -0.2335752368944872
0.05668126929782479 -0.2607125596169897
0.03946827764222157 -0.2607125596169897
-0.029383688980191294 -0.3149872050619946
-0.1498746305694138 -0.28784988233949216
-0.1498746305694138 -0.3149872050619946
-0.1498746305694138 -0.28784988233949216
-0.11544864725820737 -0.3149872050619946
-0.04659668063579451 -0.28784988233949216
-0.029383688980191294 -0.09788862328197477
-0.029383688980191294 -0.15216326872697974
-0.012170697324588076 -0.12502594600447725
0.022255285986618356 -0.15216326872697974
-0.012170697324588076 -0.15216326872697974
0.00504229433101514 -0.2607125596169897
-0.06380967229139772 -0.3692618505069996
-0.11544864725820737 -0.4235364959520046
-0.1498746305694138 -0.47781114139700953
-0.18430061388062025 -0.45067381867450707
-0.2187265971918267 -0.45067381867450707
-0.23593958884742988 -0.3963991732295021
-0.20151360553622347 -0.504948464119512
-0.1498746305694138 -0.45067381867450707
-0.09823565560260417 -0.4235364959520046
-0.08102266394700094 -0.4235364959520046
-0.09823565560260417 -0.4235364959520046
-0.08102266394700094 -0.45067381867450707
-0.1498746305694138 -0.4235364959520046
-0.13266163891381058 -0.5320857868420145
-0.20151360553622347 -0.47781114139700953
-0.25315258050303313 -0.45067381867450707
-0.25315258050303313 -0.5320857868420145
-0.25315258050303313 -0.4235364959520046
-0.20151360553622347 -0.4235364959520046
-0.16708762222501702 -0.3149872050619946
-0.18430061388062025 -0.3963991732295021
-0.1498746305694138 -0.45067381867450707
-0.18430061388062025 -0.47781114139700953
-0.1498746305694138 -0.47781114139700953
-0.18430061388062025 -0.5320857868420145
-0.2187265971918267 -0.5863604322870195
-0.23593958884742988 -0.6406350777320244
-0.23593958884742988 -0.613497755009522
-0.23593958884742988 -0.5320857868420145
-0.25315258050303313 -0.559223109564517
-0.2187265971918267 -0.5863604322870195
-0.16708762222501702 -0.5863604322870195
-0.11544864725820737 -0.47781114139700953
-0.16708762222501702 -0.504948464119512
-0.16708762222501702 -0.5863604322870195
-0.20151360553622347 -0.5320857868420145
-0.25315258050303313 -0.559223109564517
-0.25315258050303313 -0.613497755009522
-0.3392175387810492 -0.47781114139700953
-0.30479155546984277 -0.5863604322870195
-0.39085651374785885 -0.613497755009522
-0.25315258050303313 -0.559223109564517
-0.32200454712544596 -0.47781114139700953
-0.2875785638142395 -0.47781114139700953
-0.25315258050303313 -0.3692618505069996
-0.23593958884742988 -0.34212452778449715
-0.2187265971918267 -0.3963991732295021
-0.2187265971918267 -0.4235364959520046
-0.2187265971918267 -0.47781114139700953
-0.23593958884742988 -0.5863604322870195
-0.30479155546984277 -0.6677724004545269
-0.30479155546984277 -0.6677724004545269
-0.30479155546984277 -0.6949097231770294
-0.32200454712544596 -0.6677724004545269
-0.3392175387810492 -0.722047045899532
-0.2875785638142395 -0.6677724004545269
-0.25315258050303313 -0.559223109564517
-0.20151360553622347 -0.504948464119512
-0.18430061388062025 -0.5320857868420145
-0.2187265971918267 -0.45067381867450707
-0.2187265971918267 -0.559223109564517
-0.30479155546984277 -0.5320857868420145
-0.23593958884742988 -0.613497755009522
-0.2875785638142395 -0.613497755009522
-0.2703655721586363 -0.559223109564517
-0.2875785638142395 -0.5320857868420145
-0.23593958884742988 -0.613497755009522
-0.25315258050303313 -0.4235364959520046
-0.20151360553622347 -0.504948464119512
-0.20151360553622347 -0.559223109564517
-0.16708762222501702 -0.47781114139700953
-0.20151360553622347 -0.559223109564517
-0.18430061388062025 -0.559223109564517
-0.18430061388062025 -0.613497755009522
-0.20151360553622347 -0.6677724004545269
-0.2875785638142395 -0.6677724004545269
-0.32200454712544596 -0.6677724004545269
-0.30479155546984277 -0.5320857868420145
-0.2875785638142395 -0.613497755009522
-0.25315258050303313 -0.559223109564517
-0.20151360553622347 -0.5863604322870195
-0.20151360553622347 -0.504948464119512
-0.23593958884742988 -0.613497755009522
-0.25315258050303313 -0.5320857868420145
-0.25315258050303313 -0.5863604322870195
-0.2703655721586363 -0.559223109564517
-0.2875785638142395 -0.722047045899532
-0.2703655721586363 -0.5863604322870195
-0.30479155546984277 -0.613497755009522
-0.2875785638142395 -0.613497755009522
-0.2703655721586363 -0.47781114139700953
-0.20151360553622347 -0.3692618505069996
-0.1498746305694138 -0.3149872050619946
-0.1498746305694138 -0.3692618505069996
-0.16708762222501702 -0.4235364959520046
-0.2187265971918267 -0.47781114139700953
-0.2703655721586363 -0.6406350777320244
-0.2875785638142395 -0.6949097231770294
-0.25315258050303313 -0.722047045899532
-0.2875785638142395 -0.6677724004545269
-0.2875785638142395 -0.6406350777320244
-0.20151360553622347 -0.5863604322870195
-0.20151360553622347 -0.6677724004545269
-0.18430061388062025 -0.613497755009522
-0.16708762222501702 -0.559223109564517
-0.13266163891381058 -0.559223109564517
-0.11544864725820737 -0.5863604322870195
-0.11544864725820737 -0.5320857868420145
-0.1498746305694138 -0.47781114139700953
-0.1498746305694138 -0.4235364959520046
-0.20151360553622347 -0.47781114139700953
-0.2875785638142395 -0.559223109564517
-0.20151360553622347 -0.5320857868420145
-0.25315258050303313 -0.47781114139700953
-0.09823565560260417 -0.45067381867450707
0.022255285986618356 -0.45067381867450707
0.09110725260903123 -0.3149872050619946
0.14274622757584088 -0.3149872050619946
0.2632371691650634 -0.3149872050619946
0.24602417750946018 -0.3963991732295021
0.19438520254265051 -0.47781114139700953
0.14274622757584088 -0.47781114139700953
0.12553323592023766 -0.559223109564517
0.14274622757584088 -0.559223109564517
0.10832024426463444 -0.559223109564517
0.21159819419825374 -0.504948464119512
0.3665151190986827 -0.4235364959520046
0.45258007737669875 -0.34212452778449715
0.5558580273103181 -0.2064379141719847
0.5730710189659213 -0.2064379141719847
0.5558580273103181 -0.2064379141719847
0.469793069032302 -0.2064379141719847
0.4009411024098891 -0.28784988233949216
0.24602417750946018 -0.3692618505069996
0.22881118585385696 -0.34212452778449715
0.21159819419825374 -0.3692618505069996
0.24602417750946018 -0.2064379141719847
0.2632371691650634 -0.17930059144948224
0.2804501608206666 -0.04361397783696981
0.2804501608206666 -0.016476655114467324
0.24602417750946018 -0.09788862328197477
0.21159819419825374 -0.07075130055947229
0.03946827764222157 -0.17930059144948224
-0.08102266394700094 -0.3963991732295021
-0.13266163891381058 -0.3963991732295021
-0.25315258050303313 -0.613497755009522
-0.30479155546984277 -0.5863604322870195
-0.3392175387810492 -0.7491843686220344
-0.30479155546984277 -0.6949097231770294
-0.32200454712544596 -0.6677724004545269
-0.32200454712544596 -0.6406350777320244
-0.3564305304366524 -0.504948464119512
-0.3564305304366524 -0.5320857868420145
-0.32200454712544596 -0.5863604322870195
-0.30479155546984277 -0.5320857868420145
-0.3392175387810492 -0.47781114139700953
-0.3392175387810492 -0.47781114139700953
-0.37364352209225565 -0.5863604322870195
-0.39085651374785885 -0.5320857868420145
-0.39085651374785885 -0.47781114139700953
-0.45970848037027173 -0.559223109564517
-0.5113474553370814 -0.5863604322870195
-0.4252824970590653 -0.5320857868420145
-0.39085651374785885 -0.504948464119512
-0.37364352209225565 -0.45067381867450707
-0.39085651374785885 -0.47781114139700953
-0.3564305304366524 -0.504948464119512
-0.3392175387810492 -0.559223109564517
-0.39085651374785885 -0.6677724004545269
-0.40806950540346204 -0.6949097231770294
-0.37364352209225565 -0.6677724004545269
-0.4941344636814781 -0.7763216913445369
-0.45970848037027173 -0.7491843686220344
-0.4424954887146685 -0.6677724004545269
-0.40806950540346204 -0.5863604322870195
-0.39085651374785885 -0.559223109564517
-0.3392175387810492 -0.47781114139700953
-0.32200454712544596 -0.47781114139700953
-0.2875785638142395 -0.45067381867450707
-0.23593958884742988 -0.45067381867450707
-0.2703655721586363 -0.559223109564517
-0.2875785638142395 -0.5320857868420145
-0.2703655721586363 -0.613497755009522
-0.2875785638142395 -0.6406350777320244
-0.32200454712544596 -0.5320857868420145
-0.2875785638142395 -0.613497755009522
-0.20151360553622347 -0.3692618505069996
-0.1498746305694138 -0.3963991732295021
-0.11544864725820737 -0.34212452778449715
-0.09823565560260417 -0.2335752368944872
-0.11544864725820737 -0.2335752368944872
-0.09823565560260417 -0.17930059144948224
0.10832024426463444 0.06493531305304012
0.469793069032302 0.22775924938805503
1.037821793667208 0.6890937356705973
1.7951934265137497 1.5032134173456717
2.7591209592275296 2.507294358078264
3.740261483596913 3.5113752988108557
4.876318932866726 4.406906948653438
5.977950398825332 5.031065371270994
7.010729898161524 5.356713243941025
7.509906656174017 5.492399857553536
7.406628706240398 5.085340016716
6.4943401484934276 4.406906948653438
4.910744916177932 3.2400020715858306
2.8796119008167524 1.7745866445706966
0.6763489688995405 -0.09788862328197477
-1.3031450714948294 -1.8075399547996311
-2.714610387254293 -3.5714659317622925
-3.3170650952004057 -4.819782776997407
-3.3170650952004057 -5.308254586002452
-2.8867403038103254 -5.118293326944935
-2.301498587519816 -4.466997581604875
-1.7506828545405129 -3.6528778999298
-1.3719970381172422 -2.811620895532223
-1.113802163283194 -2.241737118359671
-0.9244592550715586 -1.8346772775221338
-0.8211813051379393 -1.5361667275746065
-0.6662643802375103 -1.291930823072084
-0.5629864303038911 -1.1833815321820742
-0.40806950540346204 -1.1019695640145666
-0.3564305304366524 -1.0748322412920641
-0.2703655721586363 -0.8305963367895418
-0.2875785638142395 -0.6406350777320244
-0.25315258050303313 -0.559223109564517
-0.2875785638142395 -0.504948464119512
-0.30479155546984277 -0.3692618505069996
-0.30479155546984277 -0.47781114139700953
-0.3564305304366524 -0.4235364959520046
-0.30479155546984277 -0.4235364959520046
-0.2875785638142395 -0.504948464119512
-0.2703655721586363 -0.45067381867450707
-0.2875785638142395 -0.45067381867450707
-0.37364352209225565 -0.3963991732295021
-0.30479155546984277 -0.3963991732295021
-0.2187265971918267 -0.34212452778449715
-0.16708762222501702 -0.2607125596169897
-0.13266163891381058 -0.3149872050619946
-0.23593958884742988 -0.3149872050619946
-0.23593958884742988 -0.34212452778449715
-0.23593958884742988 -0.34212452778449715
-0.25315258050303313 -0.45067381867450707
-0.2703655721586363 -0.504948464119512
-0.2875785638142395 -0.504948464119512
-0.25315258050303313 -0.45067381867450707
-0.30479155546984277 -0.3149872050619946
-0.23593958884742988 -0.3149872050619946
-0.2187265971918267 -0.15216326872697974
-0.18430061388062025 -0.07075130055947229
-0.1498746305694138 -0.2064379141719847
-0.18430061388062025 -0.2335752368944872
-0.16708762222501702 -0.12502594600447725
-0.2187265971918267 -0.2607125596169897
-0.2703655721586363 -0.2064379141719847
-0.2875785638142395 -0.2607125596169897
-0.2703655721586363 -0.3149872050619946
-0.2703655721586363 -0.2064379141719847
-0.2875785638142395 -0.2335752368944872
-0.23593958884742988 -0.2335752368944872
-0.18430061388062025 -0.09788862328197477
-0.1498746305694138 -0.17930059144948224
-0.06380967229139772 -0.2335752368944872
-0.08102266394700094 -0.2335752368944872
-0.11544864725820737 -0.3692618505069996
-0.13266163891381058 -0.34212452778449715
-0.13266163891381058 -0.28784988233949216
-0.20151360553622347 -0.28784988233949216
-0.20151360553622347 -0.28784988233949216
-0.25315258050303313 -0.2064379141719847
-0.20151360553622347 -0.17930059144948224
-0.11544864725820737 -0.09788862328197477
-0.08102266394700094 0.010660667608035159
-0.09823565560260417 -0.016476655114467324
-0.012170697324588076 0.09207263577554262
0.073894260953428 0.03779799033053764
0.09110725260903123 0.010660667608035159
0.05668126929782479 -0.04361397783696981
0.022255285986618356 0.010660667608035159
0.00504229433101514 -0.07075130055947229
0.03946827764222157 -0.04361397783696981
0.00504229433101514 -0.04361397783696981
0.05668126929782479 -0.016476655114467324
0.10832024426463444 0.14634728122054758
0.17717221088704732 0.17348460394305007
0.22881118585385696 0.22775924938805503
0.29766315247626984 0.2548965721105575
0.29766315247626984 0.22775924938805503
0.29766315247626984 0.33630854027806495
0.3320891357874763 0.39058318572306994
0.3493021274430795 0.28203389483306
0.31487614413187304 0.36344586300056747
0.3493021274430795 0.4177205084455724
0.4009411024098891 0.4719951538905774
0.4009411024098891 0.5805444447805873
0.5214320439991117 0.6619564129480948
0.5730710189659213 0.7162310583930998
0.6935619605551439 0.7976430265606071
0.710774952210747 0.8247803492831096
0.7796269188331599 0.8519176720056122
0.7968399104887631 0.8519176720056122
0.8140529021443663 0.6619564129480948
0.8312658937999695 0.6890937356705973
0.865691877111176 0.6890937356705973
0.9173308520779856 0.7976430265606071
0.9001178604223824 0.6890937356705973
0.9517568353891921 0.7976430265606071
0.9861828187003985 0.8247803492831096
1.037821793667208 0.9061923174506171
1.1410997436008274 0.9333296401731196
1.1755257269120338 0.9061923174506171
1.192738718567637 0.9604669628956221
1.192738718567637 1.014741608340627
1.1410997436008274 0.8790549947281147
1.192738718567637 0.9061923174506171
1.1410997436008274 1.0418789310631296
1.0894607686340179 0.9333296401731196
1.0722477769784147 0.9604669628956221
1.0206088020116049 0.9333296401731196
1.0722477769784147 0.9061923174506171
1.0722477769784147 1.069016253785632
0.9861828187003985 0.9876042856181245
0.9861828187003985 0.8519176720056122
0.9517568353891921 0.8519176720056122
0.865691877111176 0.7162310583930998
0.8140529021443663 0.6076817675030898
0.6935619605551439 0.49913247661307986
0.5730710189659213 0.3091712175555625
0.5386450356547149 0.2548965721105575
0.43536708572109556 0.1192099584980451
0.3665151190986827 0.1192099584980451
0.31487614413187304 0.03779799033053764
0.29766315247626984 0.06493531305304012
0.24602417750946018 0.010660667608035159
0.24602417750946018 -0.016476655114467324
0.24602417750946018 0.010660667608035159
0.19438520254265051 -0.07075130055947229
0.1599592192314441 -0.09788862328197477
0.09110725260903123 -0.2064379141719847
0.073894260953428 -0.2335752368944872
0.022255285986618356 -0.2607125596169897
0.022255285986618356 -0.3149872050619946
0.022255285986618356 -0.3692618505069996
0.022255285986618356 -0.2064379141719847
0.05668126929782479 -0.2064379141719847
0.073894260953428 -0.2335752368944872
0.073894260953428 -0.2335752368944872
0.073894260953428 -0.15216326872697974
0.022255285986618356 -0.2064379141719847
0.05668126929782479 -0.3149872050619946
0.022255285986618356 -0.3692618505069996
-0.029383688980191294 -0.47781114139700953
-0.029383688980191294 -0.47781114139700953
-0.06380967229139772 -0.559223109564517
-0.08102266394700094 -0.47781114139700953
0.00504229433101514 -0.34212452778449715
0.05668126929782479 -0.34212452778449715
0.03946827764222157 -0.3149872050619946
0.073894260953428 -0.28784988233949216
0.05668126929782479 -0.2607125596169897
0.05668126929782479 -0.2335752368944872
0.03946827764222157 -0.3692618505069996
-0.029383688980191294 -0.3692618505069996
-0.06380967229139772 -0.45067381867450707
-0.04659668063579451 -0.4235364959520046
-0.029383688980191294 -0.3692618505069996
-0.04659668063579451 -0.34212452778449715
-0.012170697324588076 -0.2335752368944872
0.05668126929782479 -0.3149872050619946
0.10832024426463444 -0.15216326872697974
0.14274622757584088 -0.2064379141719847
0.073894260953428 -0.17930059144948224
0.073894260953428 -0.2607125596169897
0.073894260953428 -0.28784988233949216
0.073894260953428 -0.4235364959520046
0.073894260953428 -0.4235364959520046
0.03946827764222157 -0.3963991732295021
0.03946827764222157 -0.559223109564517
0.09110725260903123 -0.3692618505069996
0.10832024426463444 -0.2607125596169897
0.1599592192314441 -0.2064379141719847
0.21159819419825374 -0.09788862328197477
0.2632371691650634 -0.04361397783696981
0.22881118585385696 -0.016476655114467324
0.19438520254265051 -0.09788862328197477
0.1599592192314441 -0.09788862328197477
0.14274622757584088 -0.17930059144948224
0.1599592192314441 -0.2064379141719847
0.12553323592023766 -0.12502594600447725
0.1599592192314441 -0.15216326872697974
0.12553323592023766 -0.17930059144948224
0.17717221088704732 0.010660667608035159
0.22881118585385696 -0.016476655114467324
0.24602417750946018 0.010660667608035159
0.2804501608206666 -0.016476655114467324
0.2632371691650634 -0.04361397783696981
0.29766315247626984 -0.09788862328197477
0.24602417750946018 -0.09788862328197477
0.22881118585385696 -0.12502594600447725
0.1599592192314441 -0.2335752368944872
0.1599592192314441 -0.2607125596169897
0.1599592192314441 -0.2607125596169897
0.1599592192314441 -0.2064379141719847
0.1599592192314441 -0.12502594600447725
0.1599592192314441 -0.09788862328197477
0.19438520254265051 -0.016476655114467324
0.22881118585385696 0.06493531305304012
0.21159819419825374 -0.07075130055947229
0.19438520254265051 -0.04361397783696981
0.12553323592023766 -0.12502594600447725
0.14274622757584088 -0.2335752368944872
0.03946827764222157 -0.3149872050619946
0.03946827764222157 -0.3149872050619946
0.073894260953428 -0.2064379141719847
0.03946827764222157 -0.17930059144948224
0.05668126929782479 -0.15216326872697974
0.09110725260903123 -0.12502594600447725
0.09110725260903123 -0.12502594600447725
0.10832024426463444 -0.17930059144948224
0.14274622757584088 -0.17930059144948224
0.12553323592023766 -0.3149872050619946
0.09110725260903123 -0.3963991732295021
0.03946827764222157 -0.45067381867450707
0.03946827764222157 -0.47781114139700953
0.022255285986618356 -0.559223109564517
0.05668126929782479 -0.47781114139700953
0.022255285986618356 -0.45067381867450707
0.073894260953428 -0.34212452778449715
0.073894260953428 -0.2335752368944872
0.10832024426463444 -0.2064379141719847
0.09110725260903123 -0.15216326872697974
0.073894260953428 -0.2335752368944872
0.03946827764222157 -0.34212452778449715
0.073894260953428 -0.3692618505069996
0.073894260953428 -0.4235364959520046
0.00504229433101514 -0.504948464119512
-0.012170697324588076 -0.504948464119512
-0.04659668063579451 -0.47781114139700953
-0.04659668063579451 -0.504948464119512
0.00504229433101514 -0.47781114139700953
0.00504229433101514 -0.3963991732295021
0.03946827764222157 -0.3963991732295021
0.073894260953428 -0.45067381867450707
0.073894260953428 -0.4235364959520046
0.09110725260903123 -0.5320857868420145
0.05668126929782479 -0.504948464119512
-0.029383688980191294 -0.613497755009522
-0.029383688980191294 -0.6677724004545269
-0.04659668063579451 -0.613497755009522
-0.04659668063579451 -0.613497755009522
-0.04659668063579451 -0.47781114139700953
-0.012170697324588076 -0.504948464119512
0.00504229433101514 -0.45067381867450707
0.00504229433101514 -0.4235364959520046
0.022255285986618356 -0.34212452778449715
-0.04659668063579451 -0.4235364959520046
-0.012170697324588076 -0.47781114139700953
-0.029383688980191294 -0.5863604322870195
-0.012170697324588076 -0.5320857868420145
-0.06380967229139772 -0.6406350777320244
-0.08102266394700094 -0.5320857868420145
-0.08102266394700094 -0.5863604322870195
-0.08102266394700094 -0.5320857868420145
0.00504229433101514 -0.5320857868420145
-0.012170697324588076 -0.3963991732295021
0.03946827764222157 -0.3963991732295021
0.05668126929782479 -0.3963991732295021
0.03946827764222157 -0.504948464119512
0.073894260953428 -0.6677724004545269
0.022255285986618356 -0.722047045899532
0.03946827764222157 -0.722047045899532
-0.06380967229139772 -0.7763216913445369
-0.06380967229139772 -0.6677724004545269
-0.06380967229139772 -0.6949097231770294
-0.04659668063579451 -0.613497755009522
-0.029383688980191294 -0.5863604322870195
0.022255285986618356 -0.45067381867450707
0.022255285986618356 -0.4235364959520046
0.05668126929782479 -0.3963991732295021
0.05668126929782479 -0.47781114139700953
0.073894260953428 -0.504948464119512
0.03946827764222157 -0.5320857868420145
-0.012170697324588076 -0.6406350777320244
-0.012170697324588076 -0.6406350777320244
-0.029383688980191294 -0.6406350777320244
-0.04659668063579451 -0.6677724004545269
-0.06380967229139772 -0.5863604322870195
-0.029383688980191294 -0.5320857868420145
-0.012170697324588076 -0.45067381867450707
0.05668126929782479 -0.3692618505069996
0.05668126929782479 -0.45067381867450707
0.03946827764222157 -0.504948464119512
0.05668126929782479 -0.6406350777320244
-0.012170697324588076 -0.6677724004545269
-0.012170697324588076 -0.7763216913445369
-0.04659668063579451 -0.7763216913445369
-0.09823565560260417 -0.722047045899532
-0.06380967229139772 -0.722047045899532
-0.06380967229139772 -0.6406350777320244
-0.08102266394700094 -0.559223109564517
-0.029383688980191294 -0.47781114139700953
-0.06380967229139772 -0.45067381867450707
0.03946827764222157 -0.4235364959520046
0.00504229433101514 -0.47781114139700953
0.00504229433101514 -0.5320857868420145
-0.012170697324588076 -0.559223109564517
-0.08102266394700094 -0.504948464119512
-0.09823565560260417 -0.6949097231770294
-0.06380967229139772 -0.6677724004545269
-0.09823565560260417 -0.6677724004545269
-0.06380967229139772 -0.6949097231770294
-0.029383688980191294 -0.5863604322870195
0.022255285986618356 -0.559223109564517
0.00504229433101514 -0.45067381867450707
0.12553323592023766 -0.5320857868420145
0.09110725260903123 -0.5863604322870195
0.12553323592023766 -0.6677724004545269
0.09110725260903123 -0.6949097231770294
0.05668126929782479 -0.7491843686220344
0.073894260953428 -0.7491843686220344
0.05668126929782479 -0.8577336595120443
0.12553323592023766 -0.7763216913445369
0.1599592192314441 -0.6949097231770294
0.2804501608206666 -0.5863604322870195
0.3320891357874763 -0.47781114139700953
0.41815409406549237 -0.45067381867450707
0.45258007737669875 -0.3692618505069996
0.469793069032302 -0.3692618505069996
0.4870060606879052 -0.4235364959520046
0.4870060606879052 -0.47781114139700953
0.4870060606879052 -0.559223109564517
0.5214320439991117 -0.47781114139700953
0.5730710189659213 -0.559223109564517
0.5730710189659213 -0.45067381867450707
0.624709993932731 -0.34212452778449715
0.624709993932731 -0.2607125596169897
0.6419229855883342 -0.28784988233949216
0.6763489688995405 -0.17930059144948224
0.5902840106215245 -0.3149872050619946
0.5558580273103181 -0.4235364959520046
0.5214320439991117 -0.45067381867450707
0.43536708572109556 -0.504948464119512
0.4009411024098891 -0.559223109564517
0.3493021274430795 -0.5320857868420145
0.3665151190986827 -0.47781114139700953
0.31487614413187304 -0.3692618505069996
0.3320891357874763 -0.2607125596169897
0.3320891357874763 -0.2335752368944872
0.3837281107542859 -0.15216326872697974
0.3837281107542859 -0.07075130055947229
0.31487614413187304 -0.17930059144948224
0.21159819419825374 -0.17930059144948224
0.19438520254265051 -0.2607125596169897
0.03946827764222157 -0.34212452778449715
-0.04659668063579451 -0.504948464119512
-0.08102266394700094 -0.5320857868420145
-0.13266163891381058 -0.559223109564517
-0.16708762222501702 -0.6949097231770294
-0.13266163891381058 -0.722047045899532
-0.18430061388062025 -0.559223109564517
-0.16708762222501702 -0.504948464119512
-0.1498746305694138 -0.45067381867450707
-0.13266163891381058 -0.5320857868420145
-0.18430061388062025 -0.559223109564517
-0.18430061388062025 -0.6677724004545269
-0.2187265971918267 -0.6949097231770294
-0.2703655721586363 -0.7763216913445369
-0.30479155546984277 -0.8305963367895418
-0.25315258050303313 -0.8577336595120443
-0.23593958884742988 -0.7491843686220344
-0.23593958884742988 -0.6949097231770294
-0.20151360553622347 -0.6406350777320244
-0.2187265971918267 -0.6406350777320244
-0.13266163891381058 -0.504948464119512
-0.11544864725820737 -0.5320857868420145
-0.13266163891381058 -0.5320857868420145
-0.13266163891381058 -0.504948464119512
-0.20151360553622347 -0.5863604322870195
-0.2187265971918267 -0.5863604322870195
-0.2187265971918267 -0.6406350777320244
-0.23593958884742988 -0.613497755009522
-0.25315258050303313 -0.6406350777320244
-0.2187265971918267 -0.5863604322870195
-0.20151360553622347 -0.559223109564517
-0.16708762222501702 -0.613497755009522
-0.16708762222501702 -0.45067381867450707
-0.08102266394700094 -0.47781114139700953
-0.13266163891381058 -0.559223109564517
-0.06380967229139772 -0.6406350777320244
-0.1498746305694138 -0.559223109564517
-0.20151360553622347 -0.722047045899532
-0.18430061388062025 -0.7491843686220344
-0.20151360553622347 -0.7763216913445369
-0.20151360553622347 -0.7491843686220344
-0.11544864725820737 -0.6677724004545269
-0.04659668063579451 -0.613497755009522
0.05668126929782479 -0.47781114139700953
0.10832024426463444 -0.34212452778449715
0.1599592192314441 -0.3149872050619946
0.1599592192314441 -0.3149872050619946
0.24602417750946018 -0.3149872050619946
0.2804501608206666 -0.2335752368944872
0.3665151190986827 -0.09788862328197477
0.469793069032302 0.03779799033053764
0.8140529021443663 0.3091712175555625
1.347655643468066 0.8519176720056122
2.1050272763146074 1.6117627082356818
3.000102842405975 2.588706326245771
3.946817383464152 3.4028260079208454
4.876318932866726 4.0541217532609055
5.891885440547315 4.406906948653438
6.873025964916699 4.461181594098442
7.57875862279643 4.298357657763428
7.7164625560412565 4.189808366873418
7.165646823061953 3.8098858487583827
5.891885440547315 3.2128647488633284
4.015669350086565 2.2359211308532387
1.8124064181693529 0.7705057038381047
-0.39085651374785885 -0.9662829504020543
-2.008877729374561 -2.811620895532223
-2.9039532954659286 -4.168487031657348
-2.921166287121532 -4.955469390609919
-2.318711579175419 -4.874057422442412
-1.5957659296400841 -4.1956243543798495
-0.9072462634159554 -3.272955381814765
-0.45970848037027173 -2.3774237319721836
-0.2875785638142395 -1.6447160184646163
-0.2703655721586363 -1.3190681457945865
-0.30479155546984277 -1.1833815321820742
-0.2703655721586363 -1.2105188549045767
-0.2703655721586363 -1.1019695640145666
-0.1498746305694138 -0.9391456276795518
-0.08102266394700094 -0.8577336595120443
-0.012170697324588076 -0.722047045899532
0.05668126929782479 -0.7763216913445369
0.03946827764222157 -0.722047045899532
0.00504229433101514 -0.722047045899532
-0.029383688980191294 -0.7763216913445369
-0.012170697324588076 -0.7491843686220344
-0.029383688980191294 -0.8034590140670393
-0.06380967229139772 -0.8034590140670393
-0.04659668063579451 -0.8034590140670393
-0.06380967229139772 -0.6677724004545269
-0.012170697324588076 -0.559223109564517
0.022255285986618356 -0.4235364959520046
0.00504229433101514 -0.34212452778449715
0.073894260953428 -0.34212452778449715
0.05668126929782479 -0.3692618505069996
0.022255285986618356 -0.4235364959520046
0.00504229433101514 -0.45067381867450707
-0.012170697324588076 -0.47781114139700953
0.022255285986618356 -0.5320857868420145
-0.04659668063579451 -0.559223109564517
-0.06380967229139772 -0.504948464119512
-0.06380967229139772 -0.559223109564517
-0.06380967229139772 -0.45067381867450707
-0.012170697324588076 -0.3692618505069996
0.03946827764222157 -0.3963991732295021
0.10832024426463444 -0.4235364959520046
0.09110725260903123 -0.45067381867450707
0.09110725260903123 -0.45067381867450707
0.05668126929782479 -0.559223109564517
-0.029383688980191294 -0.559223109564517
-0.029383688980191294 -0.5863604322870195
-0.029383688980191294 -0.613497755009522
-0.04659668063579451 -0.504948464119512
-0.012170697324588076 -0.3963991732295021
-0.029383688980191294 -0.34212452778449715
-0.012170697324588076 -0.3149872050619946
0.00504229433101514 -0.28784988233949216
0.09110725260903123 -0.2335752368944872
0.09110725260903123 -0.28784988233949216
0.09110725260903123 -0.28784988233949216
0.10832024426463444 -0.3963991732295021
0.073894260953428 -0.3963991732295021
0.05668126929782479 -0.3692618505069996
0.00504229433101514 -0.3149872050619946
0.022255285986618356 -0.4235364959520046
0.03946827764222157 -0.3963991732295021
0.09110725260903123 -0.34212452778449715
0.14274622757584088 -0.2064379141719847
0.1599592192314441 -0.15216326872697974
0.22881118585385696 -0.2335752368944872
0.22881118585385696 -0.2607125596169897
0.22881118585385696 -0.2607125596169897
0.24602417750946018 -0.28784988233949216
0.22881118585385696 -0.2607125596169897
0.24602417750946018 -0.34212452778449715
0.21159819419825374 -0.28784988233949216
0.22881118585385696 -0.17930059144948224
0.2632371691650634 -0.07075130055947229
0.2804501608206666 0.03779799033053764
0.3493021274430795 0.1192099584980451
0.41815409406549237 0.20062192666555254
0.469793069032302 0.17348460394305007
0.5214320439991117 0.14634728122054758
0.5214320439991117 0.22775924938805503
0.5214320439991117 0.1192099584980451
0.5386450356547149 0.17348460394305007
0.5386450356547149 0.17348460394305007
0.5558580273103181 0.17348460394305007
0.5730710189659213 0.14634728122054758
0.6419229855883342 0.28203389483306
0.7279879438663502 0.3091712175555625
0.7624139271775566 0.39058318572306994
0.8484788854555727 0.49913247661307986
0.9517568353891921 0.49913247661307986
0.9861828187003985 0.49913247661307986
0.9861828187003985 0.4448578311680749
1.0550347853228113 0.49913247661307986
1.0722477769784147 0.49913247661307986
1.106673760289621 0.5805444447805873
1.1410997436008274 0.5534071220580848
1.2099517102232402 0.6076817675030898
1.26159068519005 0.9604669628956221
1.3304426518124628 0.9333296401731196
1.416507610090479 1.014741608340627
1.502572568368495 1.0418789310631296
1.6058505183021143 1.1504282219531394
1.6230635099577175 1.1504282219531394
1.657489493268924 1.069016253785632
1.6747024849245271 1.123290899230637
1.7091284682357335 1.0961535765081345
1.74355445154694 1.0961535765081345
1.726341459891337 1.1504282219531394
1.7607674432025433 1.0418789310631296
1.7951934265137497 1.069016253785632
1.8124064181693529 1.014741608340627
1.829619409824956 1.0418789310631296
1.8124064181693529 1.0961535765081345
1.829619409824956 1.123290899230637
1.7779804348581465 1.0961535765081345
1.74355445154694 0.9604669628956221
1.6402765016133207 0.9876042856181245
1.5542115433353048 0.9333296401731196
1.416507610090479 0.7976430265606071
1.3132296601568596 0.7433683811156022
1.2788036768456532 0.6890937356705973
1.1755257269120338 0.5805444447805873
1.1583127352564306 0.5262697993355824
1.1238867519452242 0.6076817675030898
1.0550347853228113 0.49913247661307986
1.0206088020116049 0.39058318572306994
0.9345438437335889 0.28203389483306
0.865691877111176 0.17348460394305007
0.7624139271775566 0.06493531305304012
0.6591359772439374 -0.12502594600447725
0.5730710189659213 -0.2064379141719847
0.469793069032302 -0.2335752368944872
0.41815409406549237 -0.28784988233949216
0.41815409406549237 -0.3963991732295021
0.3665151190986827 -0.3963991732295021
0.3837281107542859 -0.3692618505069996
0.4009411024098891 -0.3692618505069996
0.41815409406549237 -0.3963991732295021
0.3837281107542859 -0.4235364959520046
0.3320891357874763 -0.4235364959520046
0.3320891357874763 -0.4235364959520046
0.2632371691650634 -0.504948464119512
0.2804501608206666 -0.5320857868420145
0.19438520254265051 -0.5320857868420145
0.19438520254265051 -0.559223109564517
0.19438520254265051 -0.47781114139700953
0.22881118585385696 -0.559223109564517
0.22881118585385696 -0.45067381867450707
0.31487614413187304 -0.3963991732295021
0.2804501608206666 -0.3692618505069996
0.2804501608206666 -0.3963991732295021
0.2804501608206666 -0.3963991732295021
0.24602417750946018 -0.47781114139700953
0.19438520254265051 -0.5320857868420145
0.14274622757584088 -0.6949097231770294
0.12553323592023766 -0.7763216913445369
0.10832024426463444 -0.6406350777320244
0.17717221088704732 -0.6949097231770294
0.22881118585385696 -0.5863604322870195
0.21159819419825374 -0.559223109564517
0.22881118585385696 -0.5320857868420145
0.29766315247626984 -0.5320857868420145
0.2632371691650634 -0.4235364959520046
0.2804501608206666 -0.45067381867450707
0.2804501608206666 -0.4235364959520046
0.2804501608206666 -0.47781114139700953
0.1599592192314441 -0.504948464119512
0.21159819419825374 -0.5320857868420145
0.21159819419825374 -0.45067381867450707
0.21159819419825374 -0.504948464119512
0.24602417750946018 -0.34212452778449715
0.2632371691650634 -0.34212452778449715
0.24602417750946018 -0.3149872050619946
0.31487614413187304 -0.2607125596169897
0.29766315247626984 -0.34212452778449715
0.2804501608206666 -0.4235364959520046
0.2632371691650634 -0.45067381867450707
0.2632371691650634 -0.47781114139700953
0.17717221088704732 -0.559223109564517
0.17717221088704732 -0.613497755009522
0.19438520254265051 -0.6406350777320244
0.22881118585385696 -0.613497755009522
0.17717221088704732 -0.47781114139700953
0.24602417750946018 -0.4235364959520046
0.2804501608206666 -0.4235364959520046
0.2804501608206666 -0.2607125596169897
0.29766315247626984 -0.3692618505069996
0.2804501608206666 -0.28784988233949216
0.2804501608206666 -0.34212452778449715
0.22881118585385696 -0.45067381867450707
0.1599592192314441 -0.3692618505069996
0.1599592192314441 -0.45067381867450707
0.17717221088704732 -0.4235364959520046
0.19438520254265051 -0.4235364959520046
0.22881118585385696 -0.4235364959520046
0.2632371691650634 -0.3149872050619946
0.22881118585385696 -0.28784988233949216
0.2632371691650634 -0.28784988233949216
0.29766315247626984 -0.3149872050619946
0.2804501608206666 -0.2607125596169897
0.2632371691650634 -0.45067381867450707
0.21159819419825374 -0.559223109564517
0.17717221088704732 -0.613497755009522
0.17717221088704732 -0.6949097231770294
0.21159819419825374 -0.6677724004545269
0.14274622757584088 -0.6406350777320244
0.1599592192314441 -0.5863604322870195
0.19438520254265051 -0.559223109564517
0.21159819419825374 -0.3963991732295021
0.21159819419825374 -0.3963991732295021
0.21159819419825374 -0.47781114139700953
0.17717221088704732 -0.45067381867450707
0.14274622757584088 -0.47781114139700953
0.09110725260903123 -0.559223109564517
0.09110725260903123 -0.6406350777320244
0.073894260953428 -0.613497755009522
0.03946827764222157 -0.6677724004545269
0.03946827764222157 -0.559223109564517
0.03946827764222157 -0.5320857868420145
0.073894260953428 -0.5863604322870195
0.09110725260903123 -0.559223109564517
0.10832024426463444 -0.504948464119512
0.14274622757584088 -0.504948464119512
0.09110725260903123 -0.5863604322870195
0.073894260953428 -0.6406350777320244
0.022255285986618356 -0.7491843686220344
0.05668126929782479 -0.8305963367895418
0.00504229433101514 -0.8577336595120443
-0.029383688980191294 -0.8305963367895418
0.00504229433101514 -0.8305963367895418
-0.04659668063579451 -0.722047045899532
-0.012170697324588076 -0.722047045899532
-0.029383688980191294 -0.559223109564517
0.073894260953428 -0.559223109564517
0.05668126929782479 -0.6406350777320244
0.022255285986618356 -0.504948464119512
0.00504229433101514 -0.6949097231770294
-0.04659668063579451 -0.6406350777320244
0.00504229433101514 -0.6949097231770294
-0.06380967229139772 -0.7763216913445369
-0.04659668063579451 -0.7763216913445369
-0.029383688980191294 -0.7763216913445369
-0.012170697324588076 -0.6949097231770294
0.022255285986618356 -0.6949097231770294
0.03946827764222157 -0.6677724004545269
0.073894260953428 -0.6406350777320244
0.05668126929782479 -0.6406350777320244
0.073894260953428 -0.722047045899532
0.03946827764222157 -0.8305963367895418
-0.029383688980191294 -0.8577336595120443
-0.029383688980191294 -0.9934202731245567
-0.06380967229139772 -0.9391456276795518
-0.08102266394700094 -0.9120083049570493
-0.11544864725820737 -0.8848709822345469
-0.08102266394700094 -0.8034590140670393
-0.04659668063579451 -0.7491843686220344
-0.029383688980191294 -0.6406350777320244
-0.04659668063579451 -0.5863604322870195
-0.029383688980191294 -0.6406350777320244
-0.04659668063579451 -0.613497755009522
-0.029383688980191294 -0.7491843686220344
-0.04659668063579451 -0.8577336595120443
-0.09823565560260417 -0.7763216913445369
-0.13266163891381058 -0.8577336595120443
-0.11544864725820737 -0.8848709822345469
-0.09823565560260417 -0.8034590140670393
-0.08102266394700094 -0.8034590140670393
-0.04659668063579451 -0.8034590140670393
-0.029383688980191294 -0.722047045899532
0.022255285986618356 -0.722047045899532
-0.012170697324588076 -0.7491843686220344
-0.04659668063579451 -0.722047045899532
-0.04659668063579451 -0.8848709822345469
-0.029383688980191294 -0.8577336595120443
-0.09823565560260417 -0.9391456276795518
-0.13266163891381058 -0.9662829504020543
-0.08102266394700094 -0.9662829504020543
-0.11544864725820737 -0.9662829504020543
-0.1498746305694138 -0.8305963367895418
-0.08102266394700094 -0.7763216913445369
-0.06380967229139772 -0.6949097231770294
0.00504229433101514 -0.722047045899532
-0.029383688980191294 -0.6677724004545269
0.022255285986618356 -0.722047045899532
0.00504229433101514 -0.7763216913445369
-0.04659668063579451 -0.8305963367895418
-0.08102266394700094 -0.8848709822345469
-0.08102266394700094 -0.9662829504020543
-0.13266163891381058 -0.9391456276795518
-0.11544864725820737 -0.8034590140670393
-0.09823565560260417 -0.8034590140670393
-0.04659668063579451 -0.8034590140670393
-0.029383688980191294 -0.6949097231770294
0.022255285986618356 -0.6677724004545269
0.00504229433101514 -0.7763216913445369
0.00504229433101514 -0.8305963367895418
-0.029383688980191294 -0.8577336595120443
-0.04659668063579451 -0.8848709822345469
-0.11544864725820737 -0.9662829504020543
-0.11544864725820737 -1.0205575958470592
-0.13266163891381058 -1.0205575958470592
-0.1498746305694138 -0.9391456276795518
-0.13266163891381058 -0.8577336595120443
-0.13266163891381058 -0.8034590140670393
-0.13266163891381058 -0.7763216913445369
-0.04659668063579451 -0.6677724004545269
-0.04659668063579451 -0.6677724004545269
-0.012170697324588076 -0.6677724004545269
-0.04659668063579451 -0.6677724004545269
-0.04659668063579451 -0.7763216913445369
-0.09823565560260417 -0.8577336595120443
-0.1498746305694138 -0.8577336595120443
-0.16708762222501702 -0.8305963367895418
-0.13266163891381058 -0.8034590140670393
-0.13266163891381058 -0.8034590140670393
-0.11544864725820737 -0.722047045899532
-0.04659668063579451 -0.722047045899532
0.00504229433101514 -0.6677724004545269
0.00504229433101514 -0.722047045899532
0.00504229433101514 -0.8848709822345469
-0.012170697324588076 -0.7491843686220344
-0.029383688980191294 -0.8305963367895418
-0.029383688980191294 -0.9662829504020543
-0.06380967229139772 -1.0205575958470592
-0.09823565560260417 -0.9662829504020543
-0.08102266394700094 -0.8848709822345469
-0.06380967229139772 -0.8305963367895418
-0.012170697324588076 -0.8034590140670393
-0.012170697324588076 -0.722047045899532
0.03946827764222157 -0.5863604322870195
0.03946827764222157 -0.722047045899532
0.03946827764222157 -0.6949097231770294
0.03946827764222157 -0.6949097231770294
0.00504229433101514 -0.7491843686220344
-0.029383688980191294 -0.8034590140670393
-0.08102266394700094 -0.8577336595120443
-0.09823565560260417 -0.8305963367895418
-0.08102266394700094 -0.7763216913445369
-0.06380967229139772 -0.7491843686220344
-0.012170697324588076 -0.722047045899532
0.00504229433101514 -0.722047045899532
0.03946827764222157 -0.613497755009522
0.00504229433101514 -0.8034590140670393
0.022255285986618356 -0.6949097231770294
0.00504229433101514 -0.8848709822345469
-0.04659668063579451 -0.8577336595120443
-0.029383688980191294 -0.8305963367895418
-0.04659668063579451 -0.9120083049570493
-0.04659668063579451 -0.7763216913445369
0.022255285986618356 -0.7491843686220344
0.03946827764222157 -0.613497755009522
0.09110725260903123 -0.5320857868420145
0.17717221088704732 -0.5863604322870195
0.21159819419825374 -0.5320857868420145
0.2632371691650634 -0.6677724004545269
0.3665151190986827 -0.5320857868420145
0.3665151190986827 -0.559223109564517
0.469793069032302 -0.6677724004545269
0.41815409406549237 -0.6677724004545269
0.45258007737669875 -0.6406350777320244
0.43536708572109556 -0.6406350777320244
0.41815409406549237 -0.613497755009522
0.45258007737669875 -0.47781114139700953
0.5902840106215245 -0.45067381867450707
0.6763489688995405 -0.4235364959520046
0.7279879438663502 -0.3692618505069996
0.7796269188331599 -0.4235364959520046
0.6935619605551439 -0.3692618505069996
0.624709993932731 -0.504948464119512
0.5558580273103181 -0.6406350777320244
0.4009411024098891 -0.6677724004545269
0.43536708572109556 -0.6949097231770294
0.43536708572109556 -0.5320857868420145
0.4009411024098891 -0.47781114139700953
0.4009411024098891 -0.28784988233949216
0.43536708572109556 -0.2607125596169897
0.469793069032302 -0.12502594600447725
0.469793069032302 -0.04361397783696981
0.469793069032302 -0.09788862328197477
0.3837281107542859 -0.15216326872697974
0.29766315247626984 -0.3692618505069996
0.1599592192314441 -0.4235364959520046
0.073894260953428 -0.5863604322870195
-0.09823565560260417 -0.6677724004545269
-0.13266163891381058 -0.613497755009522
-0.1498746305694138 -0.6406350777320244
-0.16708762222501702 -0.7491843686220344
-0.1498746305694138 -0.7491843686220344
-0.13266163891381058 -0.6677724004545269
-0.13266163891381058 -0.6677724004545269
-0.13266163891381058 -0.722047045899532
-0.1498746305694138 -0.722047045899532
-0.23593958884742988 -0.8034590140670393
-0.23593958884742988 -0.722047045899532
-0.2875785638142395 -0.722047045899532
-0.23593958884742988 -0.7763216913445369
-0.25315258050303313 -0.7491843686220344
-0.2703655721586363 -0.6406350777320244
-0.2187265971918267 -0.722047045899532
-0.18430061388062025 -0.559223109564517
-0.1498746305694138 -0.45067381867450707
-0.1498746305694138 -0.47781114139700953
-0.11544864725820737 -0.5863604322870195
-0.11544864725820737 -0.5320857868420145
-0.11544864725820737 -0.613497755009522
-0.16708762222501702 -0.6406350777320244
-0.16708762222501702 -0.6949097231770294
-0.18430061388062025 -0.6406350777320244
-0.2187265971918267 -0.6677724004545269
-0.2187265971918267 -0.6949097231770294
-0.23593958884742988 -0.6677724004545269
-0.16708762222501702 -0.613497755009522
-0.13266163891381058 -0.6677724004545269
-0.09823565560260417 -0.5863604322870195
-0.09823565560260417 -0.6406350777320244
-0.11544864725820737 -0.5863604322870195
-0.11544864725820737 -0.6406350777320244
-0.11544864725820737 -0.6406350777320244
-0.13266163891381058 -0.6677724004545269
-0.08102266394700094 -0.6406350777320244
-0.11544864725820737 -0.613497755009522
-0.08102266394700094 -0.559223109564517
-0.04659668063579451 -0.3963991732295021
0.00504229433101514 -0.3692618505069996
0.073894260953428 -0.2607125596169897
0.14274622757584088 -0.17930059144948224
0.22881118585385696 -0.15216326872697974
0.3320891357874763 -0.04361397783696981
0.45258007737669875 0.010660667608035159
0.6591359772439374 0.3091712175555625
1.106673760289621 0.6619564129480948
1.8640453931361625 1.3132521582881544
2.6730560009495137 2.127371839963229
3.6714095169745002 2.9957661670833082
4.635337049688281 3.701336557868373
5.685329540680077 4.135533721428413
6.632044081738254 4.32549498048593
7.303350756306779 4.406906948653438
7.217285798028763 4.21694568959592
6.528766131804634 3.8098858487583827
4.996809874455948 3.077178135250816
3.0689548090283876 1.9916852263507165
0.9345438437335889 0.5534071220580848
-0.9760982300383683 -1.2105188549045767
-2.2842855958642128 -2.8387582182547257
-2.835101328843516 -4.222761677102352
-2.6801844039430867 -4.711233486107397
-2.1121556793081804 -4.52127222704988
-1.3892100297728454 -3.734289868097308
-0.8211813051379393 -2.811620895532223
-0.5113474553370814 -2.0246385365796513
-0.37364352209225565 -1.4818920821296016
-0.32200454712544596 -1.2376561776270791
-0.32200454712544596 -1.1019695640145666
-0.37364352209225565 -1.1019695640145666
-0.30479155546984277 -1.0748322412920641
-0.23593958884742988 -1.1019695640145666
-0.1498746305694138 -1.0205575958470592
-0.13266163891381058 -0.9391456276795518
-0.11544864725820737 -0.8577336595120443
-0.08102266394700094 -0.6677724004545269
-0.06380967229139772 -0.5863604322870195
-0.029383688980191294 -0.6949097231770294
-0.04659668063579451 -0.613497755009522
-0.08102266394700094 -0.5320857868420145
-0.11544864725820737 -0.613497755009522
-0.13266163891381058 -0.6677724004545269
-0.13266163891381058 -0.5863604322870195
-0.16708762222501702 -0.5320857868420145
-0.13266163891381058 -0.559223109564517
-0.09823565560260417 -0.5320857868420145
-0.08102266394700094 -0.4235364959520046
-0.08102266394700094 -0.3963991732295021
-0.06380967229139772 -0.2335752368944872
-0.04659668063579451 -0.3963991732295021
-0.029383688980191294 -0.34212452778449715
-0.04659668063579451 -0.4235364959520046
-0.08102266394700094 -0.47781114139700953
-0.09823565560260417 -0.45067381867450707
-0.13266163891381058 -0.5320857868420145
-0.13266163891381058 -0.45067381867450707
-0.23593958884742988 -0.5863604322870195
-0.1498746305694138 -0.45067381867450707
-0.08102266394700094 -0.4235364959520046
-0.06380967229139772 -0.34212452778449715
-0.029383688980191294 -0.2607125596169897
-0.012170697324588076 -0.3149872050619946
-0.012170697324588076 -0.2064379141719847
-0.04659668063579451 -0.28784988233949216
-0.08102266394700094 -0.34212452778449715
-0.08102266394700094 -0.3149872050619946
-0.09823565560260417 -0.34212452778449715
-0.09823565560260417 -0.3963991732295021
-0.08102266394700094 -0.3692618505069996
-0.08102266394700094 -0.3149872050619946
-0.08102266394700094 -0.2607125596169897
-0.04659668063579451 -0.2064379141719847
-0.012170697324588076 -0.17930059144948224
-0.029383688980191294 -0.17930059144948224
0.03946827764222157 -0.2064379141719847
-0.029383688980191294 -0.2335752368944872
-0.012170697324588076 -0.2607125596169897
0.022255285986618356 -0.3963991732295021
-0.029383688980191294 -0.3692618505069996
-0.029383688980191294 -0.3692618505069996
-0.04659668063579451 -0.34212452778449715
-0.04659668063579451 -0.28784988233949216
-0.012170697324588076 -0.28784988233949216
0.03946827764222157 -0.09788862328197477
0.14274622757584088 -0.04361397783696981
0.12553323592023766 -0.15216326872697974
0.12553323592023766 0.010660667608035159
0.12553323592023766 -0.016476655114467324
0.10832024426463444 -0.09788862328197477
0.09110725260903123 -0.09788862328197477
0.14274622757584088 -0.09788862328197477
0.14274622757584088 -0.016476655114467324
0.17717221088704732 0.09207263577554262
0.2632371691650634 0.14634728122054758
0.31487614413187304 0.17348460394305007
0.3493021274430795 0.20062192666555254
0.3665151190986827 0.22775924938805503
0.3837281107542859 0.28203389483306
0.41815409406549237 0.22775924938805503
0.4870060606879052 0.2548965721105575
0.5558580273103181 0.3091712175555625
0.5386450356547149 0.17348460394305007
0.5558580273103181 0.14634728122054758
0.5730710189659213 0.22775924938805503
0.5730710189659213 0.2548965721105575
0.6591359772439374 0.36344586300056747
0.7624139271775566 0.5534071220580848
0.865691877111176 0.6619564129480948
0.9689698270447953 0.8519176720056122
1.0722477769784147 0.8247803492831096
1.037821793667208 0.8247803492831096
1.0722477769784147 0.8247803492831096
1.106673760289621 0.8519176720056122
1.1410997436008274 0.7976430265606071
1.1583127352564306 0.8247803492831096
1.1755257269120338 0.7705057038381047
1.2099517102232402 0.9876042856181245
1.2788036768456532 1.0418789310631296
1.3648686351236692 1.0961535765081345
1.4337206017460822 1.123290899230637
1.5197855600240981 1.2047028673981444
1.5542115433353048 1.2047028673981444
1.571424534990908 1.2047028673981444
1.571424534990908 1.123290899230637
1.571424534990908 1.123290899230637
1.6230635099577175 1.1504282219531394
1.6402765016133207 1.0961535765081345
1.5542115433353048 1.1504282219531394
1.5369985516797013 1.177565544675642
1.5542115433353048 1.286114835565652
1.5542115433353048 1.2589775128431495
1.6058505183021143 1.286114835565652
1.571424534990908 1.2318401901206468
1.502572568368495 1.2047028673981444
1.3820816267792724 1.123290899230637
1.3820816267792724 1.0418789310631296
1.2788036768456532 0.9604669628956221
1.1755257269120338 0.8519176720056122
1.0722477769784147 0.7705057038381047
1.0033958103560017 0.6890937356705973
0.9173308520779856 0.5805444447805873
