	0:00.000	56  	N	0	0	0
	0:00.000	249 	N	0	0	0
	0:00.000	471 	N	0	0	0
	0:00.000	865 	N	0	0	0
	0:00.000	1080	N	0	0	0
	0:00.000	1297	N	0	0	0
	0:00.000	1585	N	0	0	0
	0:00.000	1817	N	0	0	0
	0:00.000	2027	N	0	0	0
	0:00.000	2248	N	0	0	0
	0:00.000	2507	N	0	0	0
	0:00.000	2748	N	0	0	0
	0:00.000	2985	N	0	0	0
	0:00.000	3245	N	0	0	0
	0:00.000	3463	N	0	0	0
	0:00.000	3673	N	0	0	0
	0:00.000	4150	N	0	0	0
	0:00.000	4380	N	0	0	0
	0:00.000	4594	N	0	0	0
	0:00.000	4824	N	0	0	0
	0:00.000	5123	N	0	0	0
	0:00.000	5361	N	0	0	0
	0:00.000	5630	N	0	0	0
	0:00.000	5827	N	0	0	0
	0:00.000	6091	N	0	0	0
	0:00.000	6362	N	0	0	0
	0:00.000	6739	N	0	0	0
	0:00.000	6946	N	0	0	0
	0:00.000	7185	N	0	0	0
	0:00.000	7413	N	0	0	0
	0:00.000	7616	N	0	0	0
	0:00.000	7841	N	0	0	0
	0:00.000	8398	N	0	0	0
	0:00.000	8667	N	0	0	0
	0:00.000	8875	N	0	0	0
	0:00.000	9102	N	0	0	0
	0:00.000	9415	N	0	0	0
	0:00.000	9676	N	0	0	0
	0:00.000	9898	N	0	0	0
	0:00.000	10246	N	0	0	0
	0:00.000	10497	N	0	0	0
	0:00.000	10748	N	0	0	0
	0:00.000	10951	N	0	0	0
	0:00.000	11426	N	0	0	0
	0:00.000	11669	N	0	0	0
	0:00.000	11922	N	0	0	0
	0:00.000	12166	N	0	0	0
	0:00.000	12374	N	0	0	0
	0:00.000	12788	N	0	0	0
	0:00.000	13015	N	0	0	0
	0:00.000	13200	N	0	0	0
	0:00.000	13451	N	0	0	0
	0:00.000	13722	N	0	0	0
	0:00.000	13976	N	0	0	0
	0:00.000	14196	N	0	0	0
	0:00.000	14449	N	0	0	0
	0:00.000	14666	N	0	0	0
	0:00.000	14952	N	0	0	0
	0:00.000	15184	N	0	0	0
	0:00.000	15412	N	0	0	0
	0:00.000	15640	N	0	0	0
	0:00.000	15873	N	0	0	0
	0:00.000	16124	N	0	0	0
	0:00.000	16350	N	0	0	0
	0:00.000	16605	N	0	0	0
	0:00.000	16844	N	0	0	0
	0:00.000	16995	N	0	0	0
	0:00.000	17258	N	0	0	0
	0:00.000	17520	N	0	0	0
	0:00.000	17785	N	0	0	0
	0:00.000	18052	N	0	0	0
	0:00.000	18257	N	0	0	0
	0:00.000	18512	N	0	0	0
	0:00.000	18746	N	0	0	0
	0:00.000	18976	N	0	0	0
	0:00.000	19354	N	0	0	0
	0:00.000	19554	N	0	0	0
	0:00.000	19766	N	0	0	0
	0:00.000	20032	N	0	0	0
	0:00.000	20273	N	0	0	0
	0:00.000	20510	N	0	0	0
	0:00.000	20691	N	0	0	0
	0:00.000	21046	N	0	0	0
	0:00.000	21245	N	0	0	0
	0:00.000	21443	N	0	0	0
	0:00.000	21637	N	0	0	0
	0:00.000	21838	N	0	0	0
	0:00.000	22082	N	0	0	0
	0:00.000	22355	N	0	0	0
	0:00.000	22617	N	0	0	0
	0:00.000	22875	N	0	0	0
	0:00.000	23183	N	0	0	0
	0:00.000	23437	N	0	0	0
	0:00.000	23690	N	0	0	0
	0:00.000	23937	N	0	0	0
	0:00.000	24153	N	0	0	0
	0:00.000	24160	N	0	0	0
	0:00.000	24166	N	0	0	0
	0:00.000	24171	N	0	0	0
	0:00.000	24177	N	0	0	0
	0:00.000	24192	N	0	0	0
	0:00.000	24280	N	0	0	0
	0:00.000	24286	N	0	0	0
	0:00.000	24288	N	0	0	0
	0:00.000	24292	N	0	0	0
	0:00.000	24296	N	0	0	0
	0:00.000	24298	N	0	0	0
	0:00.000	24303	N	0	0	0
	0:00.000	24309	N	0	0	0
	0:00.000	24316	N	0	0	0
	0:00.000	24321	N	0	0	0
	0:00.000	24327	N	0	0	0
	0:00.000	24333	N	0	0	0
	0:00.000	24340	N	0	0	0
	0:00.000	24343	N	0	0	0
	0:00.000	24345	N	0	0	0
	0:00.000	24351	N	0	0	0
	0:00.000	24358	N	0	0	0
	0:00.000	24388	N	0	0	0
	0:00.000	24430	N	0	0	0
	0:00.000	24699	N	0	0	0
	0:00.000	24966	N	0	0	0
	0:00.000	25192	N	0	0	0
	0:00.000	25389	N	0	0	0
	0:00.000	25845	N	0	0	0
	0:00.000	26102	N	0	0	0
	0:00.000	26308	N	0	0	0
	0:00.000	26514	N	0	0	0
	0:00.000	26778	N	0	0	0
	0:00.000	27109	N	0	0	0
	0:00.000	27364	N	0	0	0
	0:00.000	27579	N	0	0	0
	0:00.000	27825	N	0	0	0
	0:00.000	28097	N	0	0	0
	0:00.000	28331	N	0	0	0
	0:00.000	28618	N	0	0	0
	0:00.000	28885	N	0	0	0
	0:00.000	29134	N	0	0	0
	0:00.000	29412	N	0	0	0
	0:00.000	29660	N	0	0	0
	0:00.000	29908	N	0	0	0
	0:00.000	30203	N	0	0	0
	0:00.000	30447	N	0	0	0
	0:00.000	30682	N	0	0	0
	0:00.000	30954	N	0	0	0
	0:00.000	31149	N	0	0	0
	0:00.000	31423	N	0	0	0
	0:00.000	31635	N	0	0	0
	0:00.000	31915	N	0	0	0
	0:00.000	32150	N	0	0	0
	0:00.000	32339	N	0	0	0
	0:00.000	32551	N	0	0	0
	0:00.000	32804	N	0	0	0
	0:00.000	33082	N	0	0	0
	0:00.000	33336	N	0	0	0
	0:00.000	33604	N	0	0	0
	0:00.000	33869	N	0	0	0
	0:00.000	34129	N	0	0	0
	0:00.000	34378	N	0	0	0
	0:00.000	34605	N	0	0	0
	0:00.000	34799	N	0	0	0
	0:00.000	35069	N	0	0	0
	0:00.000	35693	N	0	0	0
	0:00.000	35913	N	0	0	0
	0:00.000	36165	N	0	0	0
	0:00.000	36418	N	0	0	0
	0:00.000	36642	N	0	0	0
	0:00.000	36887	N	0	0	0
	0:00.000	37119	N	0	0	0
	0:00.000	37328	N	0	0	0
	0:00.000	37609	N	0	0	0
	0:00.000	37874	N	0	0	0
	0:00.000	38132	N	0	0	0
	0:00.000	38368	N	0	0	0
	0:00.000	38601	N	0	0	0
	0:00.000	38850	N	0	0	0
	0:00.000	39065	N	0	0	0
	0:00.000	39340	N	0	0	0
	0:00.000	39555	N	0	0	0
	0:00.000	39834	N	0	0	0
	0:00.000	40110	N	0	0	0
	0:00.000	40326	N	0	0	0
	0:00.000	40536	N	0	0	0
	0:00.000	40776	N	0	0	0
	0:00.000	41045	N	0	0	0
	0:00.000	41299	N	0	0	0
	0:00.000	41564	N	0	0	0
	0:00.000	41814	N	0	0	0
	0:00.000	42047	N	0	0	0
	0:00.000	42287	N	0	0	0
	0:00.000	42487	N	0	0	0
	0:00.000	42679	N	0	0	0
	0:00.000	42917	N	0	0	0
	0:00.000	43114	N	0	0	0
	0:00.000	43344	N	0	0	0
	0:00.000	43548	N	0	0	0
	0:00.000	43799	N	0	0	0
	0:00.000	44131	N	0	0	0
	0:00.000	44370	N	0	0	0
	0:00.000	45050	N	0	0	0
	0:00.000	45272	N	0	0	0
	0:00.000	45276	N	0	0	0
	0:00.000	45281	N	0	0	0
	0:00.000	45512	N	0	0	0
	0:00.000	45980	N	0	0	0
	0:00.000	46234	N	0	0	0
	0:00.000	46665	N	0	0	0
	0:00.000	47110	N	0	0	0
	0:00.000	47355	N	0	0	0
	0:00.000	47826	N	0	0	0
	0:00.000	48098	N	0	0	0
	0:00.000	48835	N	0	0	0
	0:00.000	49087	N	0	0	0
	0:00.000	49314	N	0	0	0
	0:00.000	49516	N	0	0	0
	0:00.000	49671	N	0	0	0
	0:00.000	49675	N	0	0	0
	0:00.000	49995	N	0	0	0
	0:00.000	50287	N	0	0	0
	0:00.000	50557	N	0	0	0
	0:00.000	50810	N	0	0	0
	0:00.000	51056	N	0	0	0
	0:00.000	51322	N	0	0	0
	0:00.000	51519	N	0	0	0
	0:00.000	51812	N	0	0	0
	0:00.000	52083	N	0	0	0
	0:00.000	52367	N	0	0	0
	0:00.000	52611	N	0	0	0
	0:00.000	52918	N	0	0	0
	0:00.000	53167	N	0	0	0
	0:00.000	53419	N	0	0	0
	0:00.000	53664	N	0	0	0
	0:00.000	53963	N	0	0	0
	0:00.000	54243	N	0	0	0
	0:00.000	54551	N	0	0	0
	0:00.000	54780	N	0	0	0
	0:00.000	54997	N	0	0	0
	0:00.000	55232	N	0	0	0
	0:00.000	55542	N	0	0	0
	0:00.000	55794	N	0	0	0
	0:00.000	56058	N	0	0	0
	0:00.000	56308	N	0	0	0
	0:00.000	56597	N	0	0	0
	0:00.000	56870	N	0	0	0
	0:00.000	57126	N	0	0	0
	0:00.000	57370	N	0	0	0
	0:00.000	57598	N	0	0	0
	0:00.000	57851	N	0	0	0
	0:00.000	58091	N	0	0	0
	0:00.000	58360	N	0	0	0
	0:00.000	58571	N	0	0	0
	0:00.000	58837	N	0	0	0
	0:00.000	59065	N	0	0	0
	0:00.000	59399	N	0	0	0
	0:00.000	59608	N	0	0	0
	0:00.000	59878	N	0	0	0
	0:00.000	60117	N	0	0	0
	0:00.000	60359	N	0	0	0
	0:00.000	60564	N	0	0	0
	0:00.000	60762	N	0	0	0
	0:00.000	61016	N	0	0	0
	0:00.000	61271	N	0	0	0
	0:00.000	61526	N	0	0	0
	0:00.000	61790	N	0	0	0
	0:00.000	62018	N	0	0	0
	0:00.000	62250	N	0	0	0
	0:00.000	62473	N	0	0	0
	0:00.000	62709	N	0	0	0
	0:00.000	62978	N	0	0	0
	0:00.000	63208	N	0	0	0
	0:00.000	63477	N	0	0	0
	0:00.000	63715	N	0	0	0
	0:00.000	63945	N	0	0	0
	0:00.000	64217	N	0	0	0
	0:00.000	64467	N	0	0	0
	0:00.000	64767	N	0	0	0
	0:00.000	64771	N	0	0	0
	0:00.000	64990	N	0	0	0
	0:00.000	65237	N	0	0	0
	0:00.000	65518	N	0	0	0
	0:00.000	65807	N	0	0	0
	0:00.000	66039	N	0	0	0
	0:00.000	66302	N	0	0	0
	0:00.000	66623	N	0	0	0
	0:00.000	66821	N	0	0	0
	0:00.000	67079	N	0	0	0
	0:00.000	67330	N	0	0	0
	0:00.000	67571	N	0	0	0
	0:00.000	67836	N	0	0	0
	0:00.000	68116	N	0	0	0
	0:00.000	68120	N	0	0	0
	0:00.000	68361	N	0	0	0
	0:00.000	68565	N	0	0	0
	0:00.000	68813	N	0	0	0
	0:00.000	68819	N	0	0	0
	0:00.000	69078	N	0	0	0
	0:00.000	69303	N	0	0	0
	0:00.000	69523	N	0	0	0
	0:00.000	69750	N	0	0	0
	0:00.000	70014	N	0	0	0
	0:00.000	70289	N	0	0	0
	0:00.000	70534	N	0	0	0
	0:00.000	70791	N	0	0	0
	0:00.000	71025	N	0	0	0
	0:00.000	71281	N	0	0	0
	0:00.000	71505	N	0	0	0
	0:00.000	71727	N	0	0	0
	0:00.000	71934	N	0	0	0
	0:00.000	72125	N	0	0	0
	0:00.000	72131	N	0	0	0
	0:00.000	72136	N	0	0	0
	0:00.000	72141	N	0	0	0
	0:00.000	72566	N	0	0	0
	0:00.000	72792	N	0	0	0
	0:00.000	73015	N	0	0	0
	0:00.000	73223	N	0	0	0
	0:00.000	73462	N	0	0	0
	0:00.000	73710	N	0	0	0
	0:00.000	73991	N	0	0	0
	0:00.000	74249	N	0	0	0
	0:00.000	74468	N	0	0	0
	0:00.000	74828	N	0	0	0
	0:00.000	75069	N	0	0	0
	0:00.000	75274	N	0	0	0
	0:00.000	75477	N	0	0	0
	0:00.000	75954	N	0	0	0
	0:00.000	76222	N	0	0	0
	0:00.000	76446	N	0	0	0
	0:00.000	76685	N	0	0	0
	0:00.000	76897	N	0	0	0
	0:00.000	77150	N	0	0	0
	0:00.000	77349	N	0	0	0
	0:00.000	77539	N	0	0	0
	0:00.000	77796	N	0	0	0
	0:00.000	78034	N	0	0	0
	0:00.000	78275	N	0	0	0
	0:00.000	78520	N	0	0	0
	0:00.000	78765	N	0	0	0
	0:00.000	78987	N	0	0	0
	0:00.000	79165	N	0	0	0
	0:00.000	79475	N	0	0	0
	0:00.000	79717	N	0	0	0
	0:00.000	79956	N	0	0	0
	0:00.000	80211	N	0	0	0
	0:00.000	80460	N	0	0	0
	0:00.000	80652	N	0	0	0
	0:00.000	80658	N	0	0	0
	0:00.000	80663	N	0	0	0
	0:00.000	80668	N	0	0	0
	0:00.000	80901	N	0	0	0
	0:00.000	81184	N	0	0	0
	0:00.000	81385	N	0	0	0
	0:00.000	81643	N	0	0	0
	0:00.000	81874	N	0	0	0
	0:00.000	82097	N	0	0	0
	0:00.000	82391	N	0	0	0
	0:00.000	82662	N	0	0	0
	0:00.000	82918	N	0	0	0
	0:00.000	83131	N	0	0	0
	0:00.000	83393	N	0	0	0
	0:00.000	83665	N	0	0	0
	0:00.000	83901	N	0	0	0
	0:00.000	83915	N	0	0	0
	0:00.000	83998	N	0	0	0
	0:00.000	84097	N	0	0	0
	0:00.000	84101	N	0	0	0
	0:00.000	84110	N	0	0	0
	0:00.000	84119	N	0	0	0
	0:00.000	84319	N	0	0	0
	0:00.000	84522	N	0	0	0
	0:00.000	84786	N	0	0	0
	0:00.000	85059	N	0	0	0
	0:00.000	85321	N	0	0	0
	0:00.000	85575	N	0	0	0
	0:00.000	85813	N	0	0	0
	0:00.000	86076	N	0	0	0
	0:00.000	86311	N	0	0	0
	0:00.000	86409	N	0	0	0
	0:00.000	86536	N	0	0	0
	0:00.000	86801	N	0	0	0
	0:00.000	86813	N	0	0	0
	0:00.000	86828	N	0	0	0
	0:00.000	86839	N	0	0	0
	0:00.000	87126	N	0	0	0
	0:00.000	87400	N	0	0	0
	0:00.000	87676	N	0	0	0
	0:00.000	87886	N	0	0	0
	0:00.000	88148	N	0	0	0
	0:00.000	88392	N	0	0	0
	0:00.000	88633	N	0	0	0
	0:00.000	88855	N	0	0	0
	0:00.000	89071	N	0	0	0
	0:00.000	89312	N	0	0	0
	0:00.000	89597	N	0	0	0
	0:00.000	89896	N	0	0	0
	0:00.000	90161	N	0	0	0
	0:00.000	90366	N	0	0	0
	0:00.000	90588	N	0	0	0
	0:00.000	90855	N	0	0	0
	0:00.000	91118	N	0	0	0
	0:00.000	91359	N	0	0	0
	0:00.000	91584	N	0	0	0
	0:00.000	91836	N	0	0	0
	0:00.000	92136	N	0	0	0
	0:00.000	92401	N	0	0	0
	0:00.000	92812	N	0	0	0
	0:00.000	93010	N	0	0	0
	0:00.000	93257	N	0	0	0
	0:00.000	93458	N	0	0	0
	0:00.000	93463	N	0	0	0
	0:00.000	93467	N	0	0	0
	0:00.000	93469	N	0	0	0
	0:00.000	93473	N	0	0	0
	0:00.000	93665	N	0	0	0
	0:00.000	93920	N	0	0	0
	0:00.000	94183	N	0	0	0
	0:00.000	94477	N	0	0	0
	0:00.000	94706	N	0	0	0
	0:00.000	95046	N	0	0	0
	0:00.000	95279	N	0	0	0
	0:00.000	95574	N	0	0	0
	0:00.000	95838	N	0	0	0
	0:00.000	96095	N	0	0	0
	0:00.000	96395	N	0	0	0
	0:00.000	96620	N	0	0	0
	0:00.000	97091	N	0	0	0
	0:00.000	97337	N	0	0	0
	0:00.000	97576	N	0	0	0
	0:00.000	97831	N	0	0	0
	0:00.000	98077	N	0	0	0
	0:00.000	98384	N	0	0	0
	0:00.000	98562	N	0	0	0
	0:00.000	98788	N	0	0	0
	0:00.000	99068	N	0	0	0
	0:00.000	99316	N	0	0	0
	0:00.000	99570	N	0	0	0
	0:00.000	99829	N	0	0	0
	0:00.000	100034	N	0	0	0
	0:00.000	100267	N	0	0	0
	0:00.000	100554	N	0	0	0
	0:00.000	100974	N	0	0	0
	0:00.000	101237	N	0	0	0
	0:00.000	101456	N	0	0	0
	0:00.000	101656	N	0	0	0
	0:00.000	101906	N	0	0	0
	0:00.000	102139	N	0	0	0
	0:00.000	102381	N	0	0	0
	0:00.000	102644	N	0	0	0
	0:00.000	102917	N	0	0	0
	0:00.000	103165	N	0	0	0
	0:00.000	103440	N	0	0	0
	0:00.000	103651	N	0	0	0
	0:00.000	103885	N	0	0	0
	0:00.000	104137	N	0	0	0
	0:00.000	104424	N	0	0	0
	0:00.000	104723	N	0	0	0
	0:00.000	104955	N	0	0	0
	0:00.000	105186	N	0	0	0
	0:00.000	105423	N	0	0	0
	0:00.000	105703	N	0	0	0
	0:00.000	105948	N	0	0	0
	0:00.000	106155	N	0	0	0
	0:00.000	106381	N	0	0	0
	0:00.000	106820	N	0	0	0
	0:00.000	107087	N	0	0	0
	0:00.000	107312	N	0	0	0
	0:00.000	107521	N	0	0	0
	0:00.000	107732	N	0	0	0
	0:00.000	107978	N	0	0	0
	0:00.000	108191	N	0	0	0
	0:00.000	108652	N	0	0	0
	0:00.000	108835	N	0	0	0
	0:00.000	109058	N	0	0	0
	0:00.000	109301	N	0	0	0
	0:00.000	109543	N	0	0	0
	0:00.000	109763	N	0	0	0
	0:00.000	110002	N	0	0	0
	0:00.000	110253	N	0	0	0
	0:00.000	110507	N	0	0	0
	0:00.000	110765	N	0	0	0
	0:00.000	110992	N	0	0	0
	0:00.000	111259	N	0	0	0
	0:00.000	111531	N	0	0	0
	0:00.000	111763	N	0	0	0
	0:00.000	111997	N	0	0	0
	0:00.000	112266	N	0	0	0
	0:00.000	112495	N	0	0	0
	0:00.000	112702	N	0	0	0
	0:00.000	112951	N	0	0	0
	0:00.000	113163	N	0	0	0
	0:00.000	113371	N	0	0	0
	0:00.000	113610	N	0	0	0
	0:00.000	113921	N	0	0	0
	0:00.000	114180	N	0	0	0
	0:00.000	114391	N	0	0	0
	0:00.000	114588	N	0	0	0
	0:00.000	114767	N	0	0	0
	0:00.000	115060	N	0	0	0
	0:00.000	115327	N	0	0	0
	0:00.000	115559	N	0	0	0
	0:00.000	115793	N	0	0	0
	0:00.000	116223	N	0	0	0
	0:00.000	116464	N	0	0	0
	0:00.000	116698	N	0	0	0
	0:00.000	116907	N	0	0	0
	0:00.000	117161	N	0	0	0
	0:00.000	117508	N	0	0	0
	0:00.000	117759	N	0	0	0
	0:00.000	117989	N	0	0	0
	0:00.000	118306	N	0	0	0
	0:00.000	118541	N	0	0	0
	0:00.000	118786	N	0	0	0
	0:00.000	119015	N	0	0	0
	0:00.000	119264	N	0	0	0
	0:00.000	119497	N	0	0	0
	0:00.000	119672	N	0	0	0
	0:00.000	119976	N	0	0	0
	0:00.000	120183	N	0	0	0
	0:00.000	120410	N	0	0	0
	0:00.000	120749	N	0	0	0
	0:00.000	121054	N	0	0	0
	0:00.000	121306	N	0	0	0
	0:00.000	121557	N	0	0	0
	0:00.000	121833	N	0	0	0
	0:00.000	122080	N	0	0	0
	0:00.000	122361	N	0	0	0
	0:00.000	122592	N	0	0	0
	0:00.000	122835	N	0	0	0
	0:00.000	123069	N	0	0	0
	0:00.000	123289	N	0	0	0
	0:00.000	123511	N	0	0	0
	0:00.000	123818	N	0	0	0
	0:00.000	124050	N	0	0	0
	0:00.000	124292	N	0	0	0
	0:00.000	124526	N	0	0	0
	0:00.000	124822	N	0	0	0
	0:00.000	125093	N	0	0	0
	0:00.000	125308	N	0	0	0
	0:00.000	125571	N	0	0	0
	0:00.000	125824	N	0	0	0
	0:00.000	126119	N	0	0	0
	0:00.000	126397	N	0	0	0
	0:00.000	126637	N	0	0	0
	0:00.000	126886	N	0	0	0
	0:00.000	127161	N	0	0	0
	0:00.000	127409	N	0	0	0
	0:00.000	127642	N	0	0	0
	0:00.000	127873	N	0	0	0
	0:00.000	128132	N	0	0	0
	0:00.000	128419	N	0	0	0
	0:00.000	128619	N	0	0	0
	0:00.000	128868	N	0	0	0
	0:00.000	129306	N	0	0	0
	0:00.000	129520	N	0	0	0
	0:00.000	129754	N	0	0	0
	0:00.000	130014	N	0	0	0
	0:00.000	130273	N	0	0	0
	0:00.000	130549	N	0	0	0
	0:00.000	130818	N	0	0	0
	0:00.000	131145	N	0	0	0
	0:00.000	131501	N	0	0	0
	0:00.000	131753	N	0	0	0
	0:00.000	132011	N	0	0	0
	0:00.000	132271	N	0	0	0
	0:00.000	132534	N	0	0	0
	0:00.000	132804	N	0	0	0
	0:00.000	133044	N	0	0	0
	0:00.000	133336	N	0	0	0
	0:00.000	133631	N	0	0	0
	0:00.000	133888	N	0	0	0
	0:00.000	134088	N	0	0	0
	0:00.000	134379	N	0	0	0
	0:00.000	134641	N	0	0	0
	0:00.000	134894	N	0	0	0
	0:00.000	135168	N	0	0	0
	0:00.000	135399	N	0	0	0
	0:00.000	135643	N	0	0	0
	0:00.000	135851	N	0	0	0
	0:00.000	136091	N	0	0	0
	0:00.000	136333	N	0	0	0
	0:00.000	136662	N	0	0	0
	0:00.000	136903	N	0	0	0
	0:00.000	137186	N	0	0	0
	0:00.000	137435	N	0	0	0
	0:00.000	137679	N	0	0	0
	0:00.000	137924	N	0	0	0
	0:00.000	138151	N	0	0	0
	0:00.000	138410	N	0	0	0
	0:00.000	138663	N	0	0	0
	0:00.000	138929	N	0	0	0
	0:00.000	139283	N	0	0	0
	0:00.000	139526	N	0	0	0
	0:00.000	139776	N	0	0	0
	0:00.000	140029	N	0	0	0
	0:00.000	140248	N	0	0	0
	0:00.000	140544	N	0	0	0
	0:00.000	140828	N	0	0	0
	0:00.000	141103	N	0	0	0
	0:00.000	141357	N	0	0	0
	0:00.000	141648	N	0	0	0
	0:00.000	141918	N	0	0	0
	0:00.000	142193	N	0	0	0
	0:00.000	142384	N	0	0	0
	0:00.000	142612	N	0	0	0
	0:00.000	142864	N	0	0	0
	0:00.000	143102	N	0	0	0
	0:00.000	143389	N	0	0	0
	0:00.000	143665	N	0	0	0
	0:00.000	143936	N	0	0	0
	0:00.000	144199	N	0	0	0
	0:00.000	144446	N	0	0	0
	0:00.000	144669	N	0	0	0
	0:00.000	144917	N	0	0	0
	0:00.000	145128	N	0	0	0
	0:00.000	145413	N	0	0	0
	0:00.000	145704	N	0	0	0
	0:00.000	145937	N	0	0	0
	0:00.000	146193	N	0	0	0
	0:00.000	146403	N	0	0	0
	0:00.000	146621	N	0	0	0
	0:00.000	146834	N	0	0	0
	0:00.000	147036	N	0	0	0
	0:00.000	147244	N	0	0	0
	0:00.000	147571	N	0	0	0
	0:00.000	147831	N	0	0	0
	0:00.000	148100	N	0	0	0
	0:00.000	148334	N	0	0	0
	0:00.000	148546	N	0	0	0
	0:00.000	148780	N	0	0	0
	0:00.000	149014	N	0	0	0
	0:00.000	149234	N	0	0	0
	0:00.000	149558	N	0	0	0
	0:00.000	149826	N	0	0	0
	0:00.000	150048	N	0	0	0
	0:00.000	150314	N	0	0	0
	0:00.000	150571	N	0	0	0
	0:00.000	150819	N	0	0	0
	0:00.000	151030	N	0	0	0
	0:00.000	151245	N	0	0	0
	0:00.000	151455	N	0	0	0
	0:00.000	151689	N	0	0	0
	0:00.000	151695	N	0	0	0
	0:00.000	152008	N	0	0	0
	0:00.000	152013	N	0	0	0
	0:00.000	152602	N	0	0	0
	0:00.000	153059	N	0	0	0
	0:00.000	153292	N	0	0	0
	0:00.000	153496	N	0	0	0
	0:00.000	153754	N	0	0	0
	0:00.000	154043	N	0	0	0
	0:00.000	154310	N	0	0	0
	0:00.000	154551	N	0	0	0
	0:00.000	154774	N	0	0	0
	0:00.000	155023	N	0	0	0
	0:00.000	155394	N	0	0	0
	0:00.000	155637	N	0	0	0
	0:00.000	155903	N	0	0	0
	0:00.000	156157	N	0	0	0
	0:00.000	156443	N	0	0	0
	0:00.000	156698	N	0	0	0
	0:00.000	156935	N	0	0	0
	0:00.000	157175	N	0	0	0
	0:00.000	157396	N	0	0	0
	0:00.000	157607	N	0	0	0
	0:00.000	157820	N	0	0	0
	0:00.000	158035	N	0	0	0
	0:00.000	158307	N	0	0	0
	0:00.000	158548	N	0	0	0
	0:00.000	158947	N	0	0	0
	0:00.000	159208	N	0	0	0
	0:00.000	159476	N	0	0	0
	0:00.000	159733	N	0	0	0
	0:00.000	159934	N	0	0	0
	0:00.000	160176	N	0	0	0
	0:00.000	160438	N	0	0	0
	0:00.000	160720	N	0	0	0
	0:00.000	160979	N	0	0	0
	0:00.000	161211	N	0	0	0
	0:00.000	161476	N	0	0	0
	0:00.000	161700	N	0	0	0
	0:00.000	161932	N	0	0	0
	0:00.000	162164	N	0	0	0
	0:00.000	162437	N	0	0	0
	0:00.000	162698	N	0	0	0
	0:00.000	163126	N	0	0	0
	0:00.000	163359	N	0	0	0
	0:00.000	163593	N	0	0	0
	0:00.000	163848	N	0	0	0
	0:00.000	164220	N	0	0	0
	0:00.000	164445	N	0	0	0
	0:00.000	164740	N	0	0	0
	0:00.000	165014	N	0	0	0
	0:00.000	165281	N	0	0	0
	0:00.000	165493	N	0	0	0
	0:00.000	165694	N	0	0	0
	0:00.000	165928	N	0	0	0
	0:00.000	166188	N	0	0	0
	0:00.000	166468	N	0	0	0
	0:00.000	166685	N	0	0	0
	0:00.000	166882	N	0	0	0
	0:00.000	167126	N	0	0	0
	0:00.000	167376	N	0	0	0
	0:00.000	167623	N	0	0	0
	0:00.000	167893	N	0	0	0
	0:00.000	168195	N	0	0	0
	0:00.000	168444	N	0	0	0
	0:00.000	168684	N	0	0	0
	0:00.000	168951	N	0	0	0
	0:00.000	169218	N	0	0	0
	0:00.000	169448	N	0	0	0
	0:00.000	169713	N	0	0	0
	0:00.000	170052	N	0	0	0
	0:00.000	170470	N	0	0	0
	0:00.000	170855	N	0	0	0
	0:00.000	171116	N	0	0	0
	0:00.000	171379	N	0	0	0
	0:00.000	171591	N	0	0	0
	0:00.000	171827	N	0	0	0
	0:00.000	172097	N	0	0	0
	0:00.000	172358	N	0	0	0
	0:00.000	172570	N	0	0	0
	0:00.000	172815	N	0	0	0
	0:00.000	173040	N	0	0	0
	0:00.000	173289	N	0	0	0
	0:00.000	173593	N	0	0	0
	0:00.000	173843	N	0	0	0
	0:00.000	174186	N	0	0	0
	0:00.000	174589	N	0	0	0
	0:00.000	174840	N	0	0	0
	0:00.000	175107	N	0	0	0
	0:00.000	175369	N	0	0	0
	0:00.000	175603	N	0	0	0
	0:00.000	175905	N	0	0	0
	0:00.000	176167	N	0	0	0
	0:00.000	176403	N	0	0	0
	0:00.000	176602	N	0	0	0
	0:00.000	176962	N	0	0	0
	0:00.000	177144	N	0	0	0
	0:00.000	177399	N	0	0	0
	0:00.000	177702	N	0	0	0
	0:00.000	177982	N	0	0	0
	0:00.000	178231	N	0	0	0
	0:00.000	178491	N	0	0	0
	0:00.000	178745	N	0	0	0
	0:00.000	178934	N	0	0	0
	0:00.000	179272	N	0	0	0
	0:00.000	179499	N	0	0	0
	0:00.000	179935	N	0	0	0
	0:00.000	180188	N	0	0	0
	0:00.000	180451	N	0	0	0
	0:00.000	180679	N	0	0	0
	0:00.000	180964	N	0	0	0
	0:00.000	181212	N	0	0	0
	0:00.000	181440	N	0	0	0
	0:00.000	181642	N	0	0	0
	0:00.000	181864	N	0	0	0
	0:00.000	182158	N	0	0	0
	0:00.000	182452	N	0	0	0
	0:00.000	182747	N	0	0	0
	0:00.000	182982	N	0	0	0
	0:00.000	183194	N	0	0	0
	0:00.000	183432	N	0	0	0
	0:00.000	183682	N	0	0	0
	0:00.000	183946	N	0	0	0
	0:00.000	184222	N	0	0	0
	0:00.000	184450	N	0	0	0
	0:00.000	184718	N	0	0	0
	0:00.000	184965	N	0	0	0
	0:00.000	185189	N	0	0	0
	0:00.000	185193	N	0	0	0
	0:00.000	185195	N	0	0	0
	0:00.000	185459	N	0	0	0
	0:00.000	185886	N	0	0	0
	0:00.000	186184	N	0	0	0
	0:00.000	186468	N	0	0	0
	0:00.000	186726	N	0	0	0
	0:00.000	186972	N	0	0	0
	0:00.000	187198	N	0	0	0
	0:00.000	187404	N	0	0	0
	0:00.000	187643	N	0	0	0
	0:00.000	187889	N	0	0	0
	0:00.000	188126	N	0	0	0
	0:00.000	188383	N	0	0	0
	0:00.000	188674	N	0	0	0
	0:00.000	188911	N	0	0	0
	0:00.000	189194	N	0	0	0
	0:00.000	189454	N	0	0	0
	0:00.000	189676	N	0	0	0
	0:00.000	189967	N	0	0	0
	0:00.000	190209	N	0	0	0
	0:00.000	190429	N	0	0	0
	0:00.000	190677	N	0	0	0
	0:00.000	190939	N	0	0	0
	0:00.000	191205	N	0	0	0
	0:00.000	191489	N	0	0	0
	0:00.000	191762	N	0	0	0
	0:00.000	192035	N	0	0	0
	0:00.000	192275	N	0	0	0
	0:00.000	192501	N	0	0	0
	0:00.000	192779	N	0	0	0
	0:00.000	193064	N	0	0	0
	0:00.000	193299	N	0	0	0
	0:00.000	193545	N	0	0	0
	0:00.000	193763	N	0	0	0
	0:00.000	193976	N	0	0	0
	0:00.000	194425	N	0	0	0
	0:00.000	194929	N	0	0	0
	0:00.000	195170	N	0	0	0
	0:00.000	195397	N	0	0	0
	0:00.000	195656	N	0	0	0
	0:00.000	195919	N	0	0	0
	0:00.000	196136	N	0	0	0
	0:00.000	196333	N	0	0	0
	0:00.000	196587	N	0	0	0
	0:00.000	196844	N	0	0	0
	0:00.000	197102	N	0	0	0
	0:00.000	197373	N	0	0	0
	0:00.000	197602	N	0	0	0
	0:00.000	198075	N	0	0	0
	0:00.000	198290	N	0	0	0
	0:00.000	198435	N	0	0	0
	0:00.000	198734	N	0	0	0
	0:00.000	198956	N	0	0	0
	0:00.000	199205	N	0	0	0
	0:00.000	199443	N	0	0	0
	0:00.000	199708	N	0	0	0
	0:00.000	199939	N	0	0	0
	0:00.000	200201	N	0	0	0
	0:00.000	200445	N	0	0	0
	0:00.000	200691	N	0	0	0
	0:00.000	200918	N	0	0	0
	0:00.000	201287	N	0	0	0
	0:00.000	201524	N	0	0	0
	0:00.000	201794	N	0	0	0
	0:00.000	202036	N	0	0	0
	0:00.000	202481	N	0	0	0
	0:00.000	202698	N	0	0	0
	0:00.000	202924	N	0	0	0
	0:00.000	203173	N	0	0	0
	0:00.000	203396	N	0	0	0
	0:00.000	203666	N	0	0	0
	0:00.000	203945	N	0	0	0
	0:00.000	204185	N	0	0	0
	0:00.000	204396	N	0	0	0
	0:00.000	204622	N	0	0	0
	0:00.000	204872	N	0	0	0
	0:00.000	205137	N	0	0	0
	0:00.000	205356	N	0	0	0
	0:00.000	205577	N	0	0	0
	0:00.000	205801	N	0	0	0
	0:00.000	206066	N	0	0	0
	0:00.000	206317	N	0	0	0
	0:00.000	206571	N	0	0	0
	0:00.000	206786	N	0	0	0
	0:00.000	207029	N	0	0	0
	0:00.000	207233	N	0	0	0
	0:00.000	207472	N	0	0	0
	0:00.000	207787	N	0	0	0
	0:00.000	208060	N	0	0	0
	0:00.000	208324	N	0	0	0
	0:00.000	208597	N	0	0	0
	0:00.000	208874	N	0	0	0
	0:00.000	209117	N	0	0	0
	0:00.000	209338	N	0	0	0
	0:00.000	209586	N	0	0	0
	0:00.000	209843	N	0	0	0
	0:00.000	210169	N	0	0	0
	0:00.000	210419	N	0	0	0
	0:00.000	210676	N	0	0	0
	0:00.000	210946	N	0	0	0
	0:00.000	211203	N	0	0	0
	0:00.000	211438	N	0	0	0
	0:00.000	211781	N	0	0	0
	0:00.000	212028	N	0	0	0
	0:00.000	212251	N	0	0	0
	0:00.000	212501	N	0	0	0
	0:00.000	212795	N	0	0	0
	0:00.000	213152	N	0	0	0
	0:00.000	213464	N	0	0	0
	0:00.000	213740	N	0	0	0
	0:00.000	213999	N	0	0	0
	0:00.000	214220	N	0	0	0
	0:00.000	214479	N	0	0	0
	0:00.000	214792	N	0	0	0
	0:00.000	215057	N	0	0	0
	0:00.000	215287	N	0	0	0
	0:00.000	215485	N	0	0	0
	0:00.000	215716	N	0	0	0
	0:00.000	216021	N	0	0	0
	0:00.000	216415	N	0	0	0
	0:00.000	216656	N	0	0	0
	0:00.000	217078	N	0	0	0
	0:00.000	217293	N	0	0	0
	0:00.000	217547	N	0	0	0
	0:00.000	217845	N	0	0	0
	0:00.000	218045	N	0	0	0
	0:00.000	218271	N	0	0	0
	0:00.000	218274	N	0	0	0
	0:00.000	218665	N	0	0	0
	0:00.000	218920	N	0	0	0
	0:00.000	219161	N	0	0	0
	0:00.000	219414	N	0	0	0
	0:00.000	219870	N	0	0	0
	0:00.000	220085	N	0	0	0
	0:00.000	220277	N	0	0	0
	0:00.000	220443	N	0	0	0
	0:00.000	220676	N	0	0	0
	0:00.000	220959	N	0	0	0
	0:00.000	221236	N	0	0	0
	0:00.000	221516	N	0	0	0
	0:00.000	221785	N	0	0	0
	0:00.000	221993	N	0	0	0
	0:00.000	222250	N	0	0	0
	0:00.000	222450	N	0	0	0
	0:00.000	222664	N	0	0	0
	0:00.000	223258	N	0	0	0
	0:00.000	223511	N	0	0	0
	0:00.000	223758	N	0	0	0
	0:00.000	224022	N	0	0	0
	0:00.000	224262	N	0	0	0
	0:00.000	224479	N	0	0	0
	0:00.000	224733	N	0	0	0
	0:00.000	224997	N	0	0	0
	0:00.000	225216	N	0	0	0
	0:00.000	225476	N	0	0	0
	0:00.000	225731	N	0	0	0
	0:00.000	226040	N	0	0	0
	0:00.000	226318	N	0	0	0
	0:00.000	226562	N	0	0	0
	0:00.000	226814	N	0	0	0
	0:00.000	227076	N	0	0	0
	0:00.000	227369	N	0	0	0
	0:00.000	227605	N	0	0	0
	0:00.000	227941	N	0	0	0
	0:00.000	228153	N	0	0	0
	0:00.000	228407	N	0	0	0
	0:00.000	228669	N	0	0	0
	0:00.000	228898	N	0	0	0
	0:00.000	229095	N	0	0	0
	0:00.000	229331	N	0	0	0
	0:00.000	229587	N	0	0	0
	0:00.000	229857	N	0	0	0
	0:00.000	230100	N	0	0	0
	0:00.000	230309	N	0	0	0
	0:00.000	230527	N	0	0	0
	0:00.000	230723	N	0	0	0
	0:00.000	230975	N	0	0	0
	0:00.000	231192	N	0	0	0
	0:00.000	231383	N	0	0	0
	0:00.000	231782	N	0	0	0
	0:00.000	232015	N	0	0	0
	0:00.000	232241	N	0	0	0
	0:00.000	232490	N	0	0	0
	0:00.000	232685	N	0	0	0
	0:00.000	232879	N	0	0	0
	0:00.000	233102	N	0	0	0
	0:00.000	233350	N	0	0	0
	0:00.000	233610	N	0	0	0
	0:00.000	233875	N	0	0	0
	0:00.000	234114	N	0	0	0
	0:00.000	234375	N	0	0	0
	0:00.000	234620	N	0	0	0
	0:00.000	234864	N	0	0	0
	0:00.000	235058	N	0	0	0
	0:00.000	235266	N	0	0	0
	0:00.000	235500	N	0	0	0
	0:00.000	235858	N	0	0	0
	0:00.000	236408	N	0	0	0
	0:00.000	236701	N	0	0	0
	0:00.000	236998	N	0	0	0
	0:00.000	237228	N	0	0	0
	0:00.000	237464	N	0	0	0
	0:00.000	237711	N	0	0	0
	0:00.000	237964	N	0	0	0
	0:00.000	238279	N	0	0	0
	0:00.000	238557	N	0	0	0
	0:00.000	238808	N	0	0	0
	0:00.000	239044	N	0	0	0
	0:00.000	239279	N	0	0	0
	0:00.000	239515	N	0	0	0
	0:00.000	239744	N	0	0	0
	0:00.000	239933	N	0	0	0
	0:00.000	240171	N	0	0	0
	0:00.000	240409	N	0	0	0
	0:00.000	240643	N	0	0	0
	0:00.000	240932	N	0	0	0
	0:00.000	241202	N	0	0	0
	0:00.000	241434	N	0	0	0
	0:00.000	241665	N	0	0	0
	0:00.000	241915	N	0	0	0
	0:00.000	242117	N	0	0	0
	0:00.000	242568	N	0	0	0
	0:00.000	242844	N	0	0	0
	0:00.000	243148	N	0	0	0
	0:00.000	243409	N	0	0	0
	0:00.000	243633	N	0	0	0
	0:00.000	243834	N	0	0	0
	0:00.000	244121	N	0	0	0
	0:00.000	244380	N	0	0	0
	0:00.000	244596	N	0	0	0
	0:00.000	244895	N	0	0	0
	0:00.000	245132	N	0	0	0
	0:00.000	245337	N	0	0	0
	0:00.000	245591	N	0	0	0
	0:00.000	245816	N	0	0	0
	0:00.000	246282	N	0	0	0
	0:00.000	246511	N	0	0	0
	0:00.000	246781	N	0	0	0
	0:00.000	247111	N	0	0	0
	0:00.000	247345	N	0	0	0
	0:00.000	247667	N	0	0	0
	0:00.000	247926	N	0	0	0
	0:00.000	248209	N	0	0	0
	0:00.000	248442	N	0	0	0
	0:00.000	248639	N	0	0	0
	0:00.000	248884	N	0	0	0
	0:00.000	249213	N	0	0	0
	0:00.000	249478	N	0	0	0
	0:00.000	249695	N	0	0	0
	0:00.000	249983	N	0	0	0
	0:00.000	250218	N	0	0	0
	0:00.000	250456	N	0	0	0
	0:00.000	250708	N	0	0	0
	0:00.000	250953	N	0	0	0
	0:00.000	251204	N	0	0	0
	0:00.000	251498	N	0	0	0
	0:00.000	251744	N	0	0	0
	0:00.000	252000	N	0	0	0
	0:00.000	252235	N	0	0	0
	0:00.000	252479	N	0	0	0
	0:00.000	252717	N	0	0	0
	0:00.000	252967	N	0	0	0
	0:00.000	253209	N	0	0	0
	0:00.000	253455	N	0	0	0
	0:00.000	253699	N	0	0	0
	0:00.000	253923	N	0	0	0
	0:00.000	254184	N	0	0	0
	0:00.000	254429	N	0	0	0
	0:00.000	254647	N	0	0	0
	0:00.000	254910	N	0	0	0
	0:00.000	255142	N	0	0	0
	0:00.000	255456	N	0	0	0
	0:00.000	255734	N	0	0	0
	0:00.000	255969	N	0	0	0
	0:00.000	256178	N	0	0	0
	0:00.000	256453	N	0	0	0
	0:00.000	256720	N	0	0	0
	0:00.000	256941	N	0	0	0
	0:00.000	257171	N	0	0	0
	0:00.000	257426	N	0	0	0
	0:00.000	257660	N	0	0	0
	0:00.000	257906	N	0	0	0
	0:00.000	258174	N	0	0	0
	0:00.000	258405	N	0	0	0
	0:00.000	258647	N	0	0	0
	0:00.000	258874	N	0	0	0
	0:00.000	259118	N	0	0	0
	0:00.000	259374	N	0	0	0
	0:00.000	259605	N	0	0	0
	0:00.000	259816	N	0	0	0
	0:00.000	260063	N	0	0	0
	0:00.000	260328	N	0	0	0
	0:00.000	260574	N	0	0	0
	0:00.000	260800	N	0	0	0
	0:00.000	261024	N	0	0	0
	0:00.000	261278	N	0	0	0
	0:00.000	261529	N	0	0	0
	0:00.000	261721	N	0	0	0
	0:00.000	261945	N	0	0	0
	0:00.000	262157	N	0	0	0
	0:00.000	262536	N	0	0	0
	0:00.000	262934	N	0	0	0
	0:00.000	263198	N	0	0	0
	0:00.000	263413	N	0	0	0
	0:00.000	263668	N	0	0	0
	0:00.000	263941	N	0	0	0
	0:00.000	264223	N	0	0	0
	0:00.000	264502	N	0	0	0
	0:00.000	264750	N	0	0	0
	0:00.000	265013	N	0	0	0
	0:00.000	265215	N	0	0	0
	0:00.000	265447	N	0	0	0
	0:00.000	265666	N	0	0	0
	0:00.000	265910	N	0	0	0
	0:00.000	266252	N	0	0	0
	0:00.000	266507	N	0	0	0
	0:00.000	266727	N	0	0	0
	0:00.000	266980	N	0	0	0
	0:00.000	267223	N	0	0	0
	0:00.000	267537	N	0	0	0
	0:00.000	267794	N	0	0	0
	0:00.000	268118	N	0	0	0
	0:00.000	268392	N	0	0	0
	0:00.000	268608	N	0	0	0
	0:00.000	268892	N	0	0	0
	0:00.000	269129	N	0	0	0
	0:00.000	269405	N	0	0	0
	0:00.000	269625	N	0	0	0
	0:00.000	269875	N	0	0	0
	0:00.000	270121	N	0	0	0
	0:00.000	270362	N	0	0	0
	0:00.000	270571	N	0	0	0
	0:00.000	270818	N	0	0	0
	0:00.000	271136	N	0	0	0
	0:00.000	271385	N	0	0	0
	0:00.000	271619	N	0	0	0
	0:00.000	271845	N	0	0	0
	0:00.000	272085	N	0	0	0
	0:00.000	272320	N	0	0	0
	0:00.000	272554	N	0	0	0
	0:00.000	272800	N	0	0	0
	0:00.000	273032	N	0	0	0
	0:00.000	273326	N	0	0	0
	0:00.000	273561	N	0	0	0
	0:00.000	273937	N	0	0	0
	0:00.000	274198	N	0	0	0
	0:00.000	274459	N	0	0	0
	0:00.000	274753	N	0	0	0
	0:00.000	275026	N	0	0	0
	0:00.000	275263	N	0	0	0
	0:00.000	275563	N	0	0	0
	0:00.000	275818	N	0	0	0
	0:00.000	276039	N	0	0	0
	0:00.000	276256	N	0	0	0
	0:00.000	276540	N	0	0	0
	0:00.000	276796	N	0	0	0
	0:00.000	277059	N	0	0	0
	0:00.000	277310	N	0	0	0
	0:00.000	277519	N	0	0	0
	0:00.000	277720	N	0	0	0
	0:00.000	277728	N	0	0	0
	0:00.000	277731	N	0	0	0
	0:00.000	277849	N	0	0	0
	0:00.000	277983	N	0	0	0
	0:00.000	278198	N	0	0	0
	0:00.000	278421	N	0	0	0
	0:00.000	278676	N	0	0	0
	0:00.000	278923	N	0	0	0
	0:00.000	279166	N	0	0	0
	0:00.000	279392	N	0	0	0
	0:00.000	279586	N	0	0	0
	0:00.000	279822	N	0	0	0
	0:00.000	280335	N	0	0	0
	0:00.000	280571	N	0	0	0
	0:00.000	280577	N	0	0	0
	0:00.000	280747	N	0	0	0
	0:00.000	280996	N	0	0	0
	0:00.000	281254	N	0	0	0
	0:00.000	281499	N	0	0	0
	0:00.000	281758	N	0	0	0
	0:00.000	281988	N	0	0	0
	0:00.000	282221	N	0	0	0
	0:00.000	282494	N	0	0	0
	0:00.000	282703	N	0	0	0
	0:00.000	282964	N	0	0	0
	0:00.000	283177	N	0	0	0
	0:00.000	283397	N	0	0	0
	0:00.000	283679	N	0	0	0
	0:00.000	283945	N	0	0	0
	0:00.000	284236	N	0	0	0
	0:00.000	284532	N	0	0	0
	0:00.000	284813	N	0	0	0
	0:00.000	285067	N	0	0	0
	0:00.000	285287	N	0	0	0
	0:00.000	285517	N	0	0	0
	0:00.000	285844	N	0	0	0
	0:00.000	285846	N	0	0	0
	0:00.000	285850	N	0	0	0
	0:00.000	286038	N	0	0	0
	0:00.000	286285	N	0	0	0
	0:00.000	286557	N	0	0	0
	0:00.000	286821	N	0	0	0
	0:00.000	287057	N	0	0	0
	0:00.000	287446	N	0	0	0
	0:00.000	287449	N	0	0	0
	0:00.000	287621	N	0	0	0
	0:00.000	287853	N	0	0	0
	0:00.000	288091	N	0	0	0
	0:00.000	288303	N	0	0	0
	0:00.000	288752	N	0	0	0
	0:00.000	289379	N	0	0	0
	0:00.000	289606	N	0	0	0
	0:00.000	289840	N	0	0	0
	0:00.000	290123	N	0	0	0
	0:00.000	290389	N	0	0	0
	0:00.000	290638	N	0	0	0
	0:00.000	290842	N	0	0	0
	0:00.000	291137	N	0	0	0
	0:00.000	291442	N	0	0	0
	0:00.000	291675	N	0	0	0
	0:00.000	291914	N	0	0	0
	0:00.000	292194	N	0	0	0
	0:00.000	292443	N	0	0	0
	0:00.000	292779	N	0	0	0
	0:00.000	293037	N	0	0	0
	0:00.000	293284	N	0	0	0
	0:00.000	293519	N	0	0	0
	0:00.000	293778	N	0	0	0
	0:00.000	293993	N	0	0	0
	0:00.000	294260	N	0	0	0
	0:00.000	294497	N	0	0	0
	0:00.000	294752	N	0	0	0
	0:00.000	295046	N	0	0	0
	0:00.000	295310	N	0	0	0
	0:00.000	295569	N	0	0	0
	0:00.000	295796	N	0	0	0
	0:00.000	296031	N	0	0	0
	0:00.000	296282	N	0	0	0
	0:00.000	296563	N	0	0	0
	0:00.000	296826	N	0	0	0
	0:00.000	297105	N	0	0	0
	0:00.000	297334	N	0	0	0
	0:00.000	297564	N	0	0	0
	0:00.000	297761	N	0	0	0
	0:00.000	298132	N	0	0	0
	0:00.000	298328	N	0	0	0
	0:00.000	298594	N	0	0	0
	0:00.000	298809	N	0	0	0
	0:00.000	299422	N	0	0	0
	0:00.000	299688	N	0	0	0
	0:00.000	299957	N	0	0	0
	0:00.000	300221	N	0	0	0
	0:00.000	300461	N	0	0	0
	0:00.000	300715	N	0	0	0
	0:00.000	300971	N	0	0	0
	0:00.000	301174	N	0	0	0
	0:00.000	301428	N	0	0	0
	0:00.000	301684	N	0	0	0
	0:00.000	301946	N	0	0	0
	0:00.000	302197	N	0	0	0
	0:00.000	302465	N	0	0	0
	0:00.000	302695	N	0	0	0
	0:00.000	302908	N	0	0	0
	0:00.000	303150	N	0	0	0
	0:00.000	303399	N	0	0	0
	0:00.000	303629	N	0	0	0
	0:00.000	303959	N	0	0	0
	0:00.000	304180	N	0	0	0
	0:00.000	304414	N	0	0	0
	0:00.000	304656	N	0	0	0
	0:00.000	304932	N	0	0	0
	0:00.000	305188	N	0	0	0
	0:00.000	305411	N	0	0	0
	0:00.000	305684	N	0	0	0
	0:00.000	305911	N	0	0	0
	0:00.000	306109	N	0	0	0
	0:00.000	306115	N	0	0	0
	0:00.000	306389	N	0	0	0
	0:00.000	306542	N	0	0	0
	0:00.000	306774	N	0	0	0
	0:00.000	307019	N	0	0	0
	0:00.000	307275	N	0	0	0
	0:00.000	307539	N	0	0	0
	0:00.000	307813	N	0	0	0
	0:00.000	308068	N	0	0	0
	0:00.000	308319	N	0	0	0
	0:00.000	308531	N	0	0	0
	0:00.000	308864	N	0	0	0
	0:00.000	309086	N	0	0	0
	0:00.000	309333	N	0	0	0
	0:00.000	309588	N	0	0	0
	0:00.000	309827	N	0	0	0
	0:00.000	310081	N	0	0	0
	0:00.000	310351	N	0	0	0
	0:00.000	310606	N	0	0	0
	0:00.000	310870	N	0	0	0
	0:00.000	311297	N	0	0	0
	0:00.000	311628	N	0	0	0
	0:00.000	311882	N	0	0	0
	0:00.000	312113	N	0	0	0
	0:00.000	312365	N	0	0	0
	0:00.000	312603	N	0	0	0
	0:00.000	312833	N	0	0	0
	0:00.000	313078	N	0	0	0
	0:00.000	313208	N	0	0	0
	0:00.000	313212	N	0	0	0
	0:00.000	313217	N	0	0	0
	0:00.000	313222	N	0	0	0
	0:00.000	313235	N	0	0	0
	0:00.000	313241	N	0	0	0
	0:00.000	313248	N	0	0	0
	0:00.000	313254	N	0	0	0
	0:00.000	313260	N	0	0	0
	0:00.000	313265	N	0	0	0
	0:00.000	313301	N	0	0	0
	0:00.000	313309	N	0	0	0
	0:00.000	313314	N	0	0	0
	0:00.000	313331	N	0	0	0
	0:00.000	313555	N	0	0	0
	0:00.000	313828	N	0	0	0
	0:00.000	314095	N	0	0	0
	0:00.000	314382	N	0	0	0
	0:00.000	314618	N	0	0	0
	0:00.000	314842	N	0	0	0
	0:00.000	315100	N	0	0	0
	0:00.000	315325	N	0	0	0
	0:00.000	315559	N	0	0	0
	0:00.000	315842	N	0	0	0
	0:00.000	316089	N	0	0	0
	0:00.000	316092	N	0	0	0
	0:00.000	316096	N	0	0	0
	0:00.000	316266	N	0	0	0
	0:00.000	316664	N	0	0	0
	0:00.000	316910	N	0	0	0
	0:00.000	317172	N	0	0	0
	0:00.000	317473	N	0	0	0
	0:00.000	317705	N	0	0	0
	0:00.000	317953	N	0	0	0
	0:00.000	318162	N	0	0	0
	0:00.000	318404	N	0	0	0
	0:00.000	318619	N	0	0	0
	0:00.000	318883	N	0	0	0
	0:00.000	319140	N	0	0	0
	0:00.000	319389	N	0	0	0
	0:00.000	319636	N	0	0	0
	0:00.000	319880	N	0	0	0
	0:00.000	320138	N	0	0	0
	0:00.000	320384	N	0	0	0
	0:00.000	320658	N	0	0	0
	0:00.000	320947	N	0	0	0
	0:00.000	321126	N	0	0	0
	0:00.000	321364	N	0	0	0
	0:00.000	321651	N	0	0	0
	0:00.000	321876	N	0	0	0
	0:00.000	322108	N	0	0	0
	0:00.000	322419	N	0	0	0
	0:00.000	322692	N	0	0	0
	0:00.000	322899	N	0	0	0
	0:00.000	323160	N	0	0	0
	0:00.000	323480	N	0	0	0
	0:00.000	323715	N	0	0	0
	0:00.000	323961	N	0	0	0
	0:00.000	324193	N	0	0	0
	0:00.000	324441	N	0	0	0
	0:00.000	324657	N	0	0	0
	0:00.000	324899	N	0	0	0
	0:00.000	325100	N	0	0	0
	0:00.000	325411	N	0	0	0
	0:00.000	325650	N	0	0	0
	0:00.000	325848	N	0	0	0
	0:00.000	326100	N	0	0	0
	0:00.000	326302	N	0	0	0
	0:00.000	326528	N	0	0	0
	0:00.000	326748	N	0	0	0
	0:00.000	326750	N	0	0	0
	0:00.000	326752	N	0	0	0
	0:00.000	327013	N	0	0	0
	0:00.000	327276	N	0	0	0
	0:00.000	327503	N	0	0	0
	0:00.000	327757	N	0	0	0
	0:00.000	327994	N	0	0	0
	0:00.000	328227	N	0	0	0
	0:00.000	328491	N	0	0	0
	0:00.000	328817	N	0	0	0
	0:00.000	329084	N	0	0	0
	0:00.000	329322	N	0	0	0
	0:00.000	329563	N	0	0	0
	0:00.000	329779	N	0	0	0
	0:00.000	329999	N	0	0	0
	0:00.000	330218	N	0	0	0
	0:00.000	330417	N	0	0	0
	0:00.000	330662	N	0	0	0
	0:00.000	330875	N	0	0	0
	0:00.000	331103	N	0	0	0
	0:00.000	331383	N	0	0	0
	0:00.000	331671	N	0	0	0
	0:00.000	331901	N	0	0	0
	0:00.000	332155	N	0	0	0
	0:00.000	332397	N	0	0	0
	0:00.000	332610	N	0	0	0
	0:00.000	332887	N	0	0	0
	0:00.000	333109	N	0	0	0
	0:00.000	333405	N	0	0	0
	0:00.000	333854	N	0	0	0
	0:00.000	334073	N	0	0	0
	0:00.000	334304	N	0	0	0
	0:00.000	334567	N	0	0	0
	0:00.000	334817	N	0	0	0
	0:00.000	335188	N	0	0	0
	0:00.000	335424	N	0	0	0
	0:00.000	335672	N	0	0	0
	0:00.000	335965	N	0	0	0
	0:00.000	336214	N	0	0	0
	0:00.000	336458	N	0	0	0
	0:00.000	336743	N	0	0	0
	0:00.000	336946	N	0	0	0
	0:00.000	337131	N	0	0	0
	0:00.000	337347	N	0	0	0
	0:00.000	337605	N	0	0	0
	0:00.000	337899	N	0	0	0
	0:00.000	338153	N	0	0	0
	0:00.000	338435	N	0	0	0
	0:00.000	338654	N	0	0	0
	0:00.000	338877	N	0	0	0
	0:00.000	339119	N	0	0	0
	0:00.000	339357	N	0	0	0
	0:00.000	339858	N	0	0	0
	0:00.000	340134	N	0	0	0
	0:00.000	340354	N	0	0	0
	0:00.000	340547	N	0	0	0
	0:00.000	340552	N	0	0	0
	0:00.000	340557	N	0	0	0
	0:00.000	340777	N	0	0	0
	0:00.000	341003	N	0	0	0
	0:00.000	341222	N	0	0	0
	0:00.000	341449	N	0	0	0
	0:00.000	341635	N	0	0	0
	0:00.000	341897	N	0	0	0
	0:00.000	342164	N	0	0	0
	0:00.000	342412	N	0	0	0
	0:00.000	342606	N	0	0	0
	0:00.000	342849	N	0	0	0
	0:00.000	343093	N	0	0	0
	0:00.000	343422	N	0	0	0
	0:00.000	343641	N	0	0	0
	0:00.000	343879	N	0	0	0
	0:00.000	344102	N	0	0	0
	0:00.000	344342	N	0	0	0
	0:00.000	344572	N	0	0	0
	0:00.000	344824	N	0	0	0
	0:00.000	345086	N	0	0	0
	0:00.000	345348	N	0	0	0
	0:00.000	345584	N	0	0	0
	0:00.000	345775	N	0	0	0
	0:00.000	345985	N	0	0	0
	0:00.000	346120	N	0	0	0
	0:00.000	346127	N	0	0	0
	0:00.000	346149	N	0	0	0
	0:00.000	346157	N	0	0	0
	0:00.000	346189	N	0	0	0
	0:00.000	346243	N	0	0	0
	0:00.000	346414	N	0	0	0
	0:00.000	346425	N	0	0	0
	0:00.000	346429	N	0	0	0
	0:00.000	346435	N	0	0	0
	0:00.000	346442	N	0	0	0
	0:00.000	346445	N	0	0	0
	0:00.000	346452	N	0	0	0
	0:00.000	346457	N	0	0	0
	0:00.000	346465	N	0	0	0
	0:00.000	346472	N	0	0	0
	0:00.000	346479	N	0	0	0
	0:00.000	346491	N	0	0	0
	0:00.000	346500	N	0	0	0
	0:00.000	346515	N	0	0	0
	0:00.000	346520	N	0	0	0
	0:00.000	346529	N	0	0	0
	0:00.000	346657	N	0	0	0
	0:00.000	346711	N	0	0	0
	0:00.000	346715	N	0	0	0
	0:00.000	346724	N	0	0	0
	0:00.000	346735	N	0	0	0
	0:00.000	346746	N	0	0	0
	0:00.000	346754	N	0	0	0
	0:00.000	346760	N	0	0	0
	0:00.000	346771	N	0	0	0
	0:00.000	346910	N	0	0	0
	0:00.000	347163	N	0	0	0
	0:00.000	347392	N	0	0	0
	0:00.000	347613	N	0	0	0
	0:00.000	347806	N	0	0	0
	0:00.000	348543	N	0	0	0
	0:00.000	348547	N	0	0	0
	0:00.000	348777	N	0	0	0
	0:00.000	349053	N	0	0	0
	0:00.000	349268	N	0	0	0
	0:00.000	349393	N	0	0	0
	0:00.000	349454	N	0	0	0
	0:00.000	349460	N	0	0	0
	0:00.000	349467	N	0	0	0
	0:00.000	349474	N	0	0	0
	0:00.000	349480	N	0	0	0
	0:00.000	349485	N	0	0	0
	0:00.000	349743	N	0	0	0
	0:00.000	349959	N	0	0	0
	0:00.000	349965	N	0	0	0
	0:00.000	349971	N	0	0	0
	0:00.000	349976	N	0	0	0
	0:00.000	350206	N	0	0	0
	0:00.000	350644	N	0	0	0
	0:00.000	350915	N	0	0	0
	0:00.000	351159	N	0	0	0
	0:00.000	351370	N	0	0	0
	0:00.000	351637	N	0	0	0
	0:00.000	351908	N	0	0	0
	0:00.000	352114	N	0	0	0
	0:00.000	352366	N	0	0	0
	0:00.000	352597	N	0	0	0
	0:00.000	352904	N	0	0	0
	0:00.000	353141	N	0	0	0
	0:00.000	353396	N	0	0	0
	0:00.000	353650	N	0	0	0
	0:00.000	353884	N	0	0	0
	0:00.000	354048	N	0	0	0
	0:00.000	354054	N	0	0	0
	0:00.000	354060	N	0	0	0
	0:00.000	354064	N	0	0	0
	0:00.000	354075	N	0	0	0
	0:00.000	354084	N	0	0	0
	0:00.000	354090	N	0	0	0
	0:00.000	354098	N	0	0	0
	0:00.000	354103	N	0	0	0
	0:00.000	354111	N	0	0	0
	0:00.000	354121	N	0	0	0
	0:00.000	354133	N	0	0	0
	0:00.000	354138	N	0	0	0
	0:00.000	354152	N	0	0	0
	0:00.000	354156	N	0	0	0
	0:00.000	354162	N	0	0	0
	0:00.000	354168	N	0	0	0
	0:00.000	354174	N	0	0	0
	0:00.000	354179	N	0	0	0
	0:00.000	354185	N	0	0	0
	0:00.000	354192	N	0	0	0
	0:00.000	354197	N	0	0	0
	0:00.000	354204	N	0	0	0
	0:00.000	354210	N	0	0	0
	0:00.000	354215	N	0	0	0
	0:00.000	354223	N	0	0	0
	0:00.000	354225	N	0	0	0
	0:00.000	354234	N	0	0	0
	0:00.000	354239	N	0	0	0
	0:00.000	354251	N	0	0	0
	0:00.000	354263	N	0	0	0
	0:00.000	354267	N	0	0	0
	0:00.000	354275	N	0	0	0
	0:00.000	354279	N	0	0	0
	0:00.000	354285	N	0	0	0
	0:00.000	354297	N	0	0	0
	0:00.000	354302	N	0	0	0
	0:00.000	354310	N	0	0	0
	0:00.000	354317	N	0	0	0
	0:00.000	354323	N	0	0	0
	0:00.000	354329	N	0	0	0
	0:00.000	354340	N	0	0	0
	0:00.000	354347	N	0	0	0
	0:00.000	354353	N	0	0	0
	0:00.000	354359	N	0	0	0
	0:00.000	354369	N	0	0	0
	0:00.000	354383	N	0	0	0
	0:00.000	354389	N	0	0	0
	0:00.000	354393	N	0	0	0
	0:00.000	354419	N	0	0	0
	0:00.000	354431	N	0	0	0
	0:00.000	354438	N	0	0	0
	0:00.000	354443	N	0	0	0
	0:00.000	354449	N	0	0	0
	0:00.000	354454	N	0	0	0
	0:00.000	354460	N	0	0	0
	0:00.000	354467	N	0	0	0
	0:00.000	354473	N	0	0	0
	0:00.000	354480	N	0	0	0
	0:00.000	354486	N	0	0	0
	0:00.000	354491	N	0	0	0
	0:00.000	354496	N	0	0	0
	0:00.000	354502	N	0	0	0
	0:00.000	354507	N	0	0	0
	0:00.000	354510	N	0	0	0
	0:00.000	354515	N	0	0	0
	0:00.000	354521	N	0	0	0
	0:00.000	354528	N	0	0	0
	0:00.000	354532	N	0	0	0
	0:00.000	354534	N	0	0	0
	0:00.000	354539	N	0	0	0
	0:00.000	354545	N	0	0	0
	0:00.000	354551	N	0	0	0
	0:00.000	354554	N	0	0	0
	0:00.000	354556	N	0	0	0
	0:00.000	354563	N	0	0	0
	0:00.000	354595	N	0	0	0
	0:00.000	356364	N	0	0	0
	0:00.000	356605	N	0	0	0
	0:00.000	356844	N	0	0	0
	0:00.000	357079	N	0	0	0
	0:00.000	357299	N	0	0	0
	0:00.000	357593	N	0	0	0
	0:00.000	357879	N	0	0	0
	0:00.000	358134	N	0	0	0
	0:00.000	358387	N	0	0	0
	0:00.000	358608	N	0	0	0
	0:00.000	358815	N	0	0	0
	0:00.000	359052	N	0	0	0
	0:00.000	359286	N	0	0	0
	0:00.000	359550	N	0	0	0
	0:00.000	359804	N	0	0	0
	0:00.000	360056	N	0	0	0
	0:00.000	360308	N	0	0	0
	0:00.000	360722	N	0	0	0
	0:00.000	360928	N	0	0	0
	0:00.000	361186	N	0	0	0
	0:00.000	361815	N	0	0	0
	0:00.000	362071	N	0	0	0
	0:00.000	362606	N	0	0	0
	0:00.000	362854	N	0	0	0
	0:00.000	363112	N	0	0	0
	0:00.000	363381	N	0	0	0
	0:00.000	363629	N	0	0	0
	0:00.000	363911	N	0	0	0
	0:00.000	364161	N	0	0	0
	0:00.000	364416	N	0	0	0
	0:00.000	364638	N	0	0	0
	0:00.000	364892	N	0	0	0
	0:00.000	365877	N	0	0	0
	0:00.000	366089	N	0	0	0
	0:00.000	366282	N	0	0	0
	0:00.000	366288	N	0	0	0
	0:00.000	366293	N	0	0	0
	0:00.000	366299	N	0	0	0
	0:00.000	366551	N	0	0	0
	0:00.000	366697	N	0	0	0
	0:00.000	366769	N	0	0	0
	0:00.000	366773	N	0	0	0
	0:00.000	367038	N	0	0	0
	0:00.000	367190	N	0	0	0
	0:00.000	367436	N	0	0	0
	0:00.000	367667	N	0	0	0
	0:00.000	368073	N	0	0	0
	0:00.000	368238	N	0	0	0
	0:00.000	368490	N	0	0	0
	0:00.000	368786	N	0	0	0
	0:00.000	368939	N	0	0	0
	0:00.000	369263	N	0	0	0
	0:00.000	369710	N	0	0	0
	0:00.000	370130	N	0	0	0
	0:00.000	370397	N	0	0	0
	0:00.000	370616	N	0	0	0
	0:00.000	370892	N	0	0	0
	0:00.000	371170	N	0	0	0
	0:00.000	371431	N	0	0	0
	0:00.000	371642	N	0	0	0
	0:00.000	371900	N	0	0	0
	0:00.000	372182	N	0	0	0
	0:00.000	372458	N	0	0	0
	0:00.000	372718	N	0	0	0
	0:00.000	372962	N	0	0	0
	0:00.000	373220	N	0	0	0
	0:00.000	373467	N	0	0	0
	0:00.000	373731	N	0	0	0
	0:00.000	373906	N	0	0	0
	0:00.000	374142	N	0	0	0
	0:00.000	374442	N	0	0	0
	0:00.000	374707	N	0	0	0
	0:00.000	374963	N	0	0	0
	0:00.000	375245	N	0	0	0
	0:00.000	375820	N	0	0	0
	0:00.000	376061	N	0	0	0
	0:00.000	376330	N	0	0	0
	0:00.000	376631	N	0	0	0
	0:00.000	376849	N	0	0	0
	0:00.000	377110	N	0	0	0
	0:00.000	377714	N	0	0	0
	0:00.000	377944	N	0	0	0
	0:00.000	378161	N	0	0	0
	0:00.000	378337	N	0	0	0
	0:00.000	378341	N	0	0	0
	0:00.000	378348	N	0	0	0
	0:00.000	378528	N	0	0	0
	0:00.000	378812	N	0	0	0
	0:00.000	379103	N	0	0	0
	0:00.000	379373	N	0	0	0
	0:00.000	379559	N	0	0	0
	0:00.000	380260	N	0	0	0
	0:00.000	380509	N	0	0	0
	0:00.000	380805	N	0	0	0
	0:00.000	381191	N	0	0	0
	0:00.000	381437	N	0	0	0
	0:00.000	381697	N	0	0	0
	0:00.000	381925	N	0	0	0
	0:00.000	382114	N	0	0	0
	0:00.000	382352	N	0	0	0
	0:00.000	382612	N	0	0	0
	0:00.000	382881	N	0	0	0
	0:00.000	383197	N	0	0	0
	0:00.000	383481	N	0	0	0
	0:00.000	383739	N	0	0	0
	0:00.000	384011	N	0	0	0
	0:00.000	384277	N	0	0	0
	0:00.000	384527	N	0	0	0
	0:00.000	384753	N	0	0	0
	0:00.000	384949	N	0	0	0
	0:00.000	385457	N	0	0	0
	0:00.000	385714	N	0	0	0
	0:00.000	386038	N	0	0	0
	0:00.000	386623	N	0	0	0
	0:00.000	386863	N	0	0	0
	0:00.000	387119	N	0	0	0
	0:00.000	387407	N	0	0	0
	0:00.000	387940	N	0	0	0
	0:00.000	388200	N	0	0	0
	0:00.000	388394	N	0	0	0
	0:00.000	388958	N	0	0	0
	0:00.000	390493	N	0	0	0
	0:00.000	390670	N	0	0	0
	0:00.000	390673	N	0	0	0
	0:00.000	390681	N	0	0	0
	0:00.000	390843	N	0	0	0
	0:00.000	390848	N	0	0	0
	0:00.000	390853	N	0	0	0
	0:00.000	390857	N	0	0	0
	0:00.000	390863	N	0	0	0
	0:00.000	391243	N	0	0	0
	0:00.000	392296	N	0	0	0
	0:00.000	393093	N	0	0	0
	0:00.000	393964	N	0	0	0
	0:00.000	393967	N	0	0	0
	0:00.000	393974	N	0	0	0
	0:00.000	394182	N	0	0	0
	0:00.000	394669	N	0	0	0
	0:00.000	394927	N	0	0	0
	0:00.000	395176	N	0	0	0
	0:00.000	395674	N	0	0	0
	0:00.000	395905	N	0	0	0
	0:00.000	396197	N	0	0	0
	0:00.000	396706	N	0	0	0
	0:00.000	396934	N	0	0	0
	0:00.000	397331	N	0	0	0
	0:00.000	397805	N	0	0	0
	0:00.000	397991	N	0	0	0
	0:00.000	398306	N	0	0	0
	0:00.000	398466	N	0	0	0
	0:00.000	400223	N	0	0	0
	0:00.000	400691	N	0	0	0
	0:00.000	401037	N	0	0	0
	0:00.000	401310	N	0	0	0
	0:00.000	401570	N	0	0	0
	0:00.000	401938	N	0	0	0
	0:00.000	402174	N	0	0	0
	0:00.000	402467	N	0	0	0
	0:00.000	402759	N	0	0	0
	0:00.000	403015	N	0	0	0
	0:00.000	403276	N	0	0	0
	0:00.000	403545	N	0	0	0
	0:00.000	403775	N	0	0	0
	0:00.000	404013	N	0	0	0
	0:00.000	404217	N	0	0	0
	0:00.000	404441	N	0	0	0
	0:00.000	404732	N	0	0	0
	0:00.000	405004	N	0	0	0
	0:00.000	405273	N	0	0	0
	0:00.000	405545	N	0	0	0
	0:00.000	405826	N	0	0	0
	0:00.000	406028	N	0	0	0
	0:00.000	406269	N	0	0	0
	0:00.000	406552	N	0	0	0
	0:00.000	406821	N	0	0	0
	0:00.000	407159	N	0	0	0
	0:00.000	407381	N	0	0	0
	0:00.000	407599	N	0	0	0
	0:00.000	407800	N	0	0	0
	0:00.000	408007	N	0	0	0
	0:00.000	408298	N	0	0	0
	0:00.000	408588	N	0	0	0
	0:00.000	408821	N	0	0	0
	0:00.000	409045	N	0	0	0
	0:00.000	409306	N	0	0	0
	0:00.000	409570	N	0	0	0
	0:00.000	409800	N	0	0	0
	0:00.000	410069	N	0	0	0
	0:00.000	410323	N	0	0	0
	0:00.000	410602	N	0	0	0
	0:00.000	410882	N	0	0	0
	0:00.000	411110	N	0	0	0
	0:00.000	411339	N	0	0	0
	0:00.000	411748	N	0	0	0
	0:00.000	412018	N	0	0	0
	0:00.000	412301	N	0	0	0
	0:00.000	412510	N	0	0	0
	0:00.000	412813	N	0	0	0
	0:00.000	413091	N	0	0	0
	0:00.000	413308	N	0	0	0
	0:00.000	413522	N	0	0	0
	0:00.000	413795	N	0	0	0
	0:00.000	414053	N	0	0	0
	0:00.000	414320	N	0	0	0
	0:00.000	414562	N	0	0	0
	0:00.000	414784	N	0	0	0
	0:00.000	415026	N	0	0	0
	0:00.000	415236	N	0	0	0
	0:00.000	415518	N	0	0	0
	0:00.000	415769	N	0	0	0
	0:00.000	415972	N	0	0	0
	0:00.000	416201	N	0	0	0
	0:00.000	416468	N	0	0	0
	0:00.000	416703	N	0	0	0
	0:00.000	416940	N	0	0	0
	0:00.000	417056	N	0	0	0
	0:00.000	417388	N	0	0	0
	0:00.000	417641	N	0	0	0
	0:00.000	417942	N	0	0	0
	0:00.000	418178	N	0	0	0
	0:00.000	418427	N	0	0	0
	0:00.000	418880	N	0	0	0
	0:00.000	419141	N	0	0	0
	0:00.000	419368	N	0	0	0
	0:00.000	419597	N	0	0	0
	0:00.000	419859	N	0	0	0
	0:00.000	420118	N	0	0	0
	0:00.000	420405	N	0	0	0
	0:00.000	420652	N	0	0	0
	0:00.000	420920	N	0	0	0
	0:00.000	421162	N	0	0	0
	0:00.000	421426	N	0	0	0
	0:00.000	421736	N	0	0	0
	0:00.000	421954	N	0	0	0
	0:00.000	422233	N	0	0	0
	0:00.000	422507	N	0	0	0
	0:00.000	422762	N	0	0	0
	0:00.000	423053	N	0	0	0
	0:00.000	423328	N	0	0	0
	0:00.000	423576	N	0	0	0
	0:00.000	423857	N	0	0	0
	0:00.000	424130	N	0	0	0
	0:00.000	424413	N	0	0	0
	0:00.000	424610	N	0	0	0
	0:00.000	424882	N	0	0	0
	0:00.000	425140	N	0	0	0
	0:00.000	425365	N	0	0	0
	0:00.000	425583	N	0	0	0
	0:00.000	426023	N	0	0	0
	0:00.000	426264	N	0	0	0
	0:00.000	426270	N	0	0	0
	0:00.000	426854	N	0	0	0
	0:00.000	427099	N	0	0	0
	0:00.000	427353	N	0	0	0
	0:00.000	427603	N	0	0	0
	0:00.000	427850	N	0	0	0
	0:00.000	428090	N	0	0	0
	0:00.000	428242	N	0	0	0
	0:00.000	428575	N	0	0	0
	0:00.000	428840	N	0	0	0
	0:00.000	429091	N	0	0	0
	0:00.000	429305	N	0	0	0
	0:00.000	429514	N	0	0	0
	0:00.000	429732	N	0	0	0
	0:00.000	429926	N	0	0	0
	0:00.000	430150	N	0	0	0
	0:00.000	430445	N	0	0	0
	0:00.000	430714	N	0	0	0
	0:00.000	430999	N	0	0	0
	0:00.000	431320	N	0	0	0
	0:00.000	431547	N	0	0	0
	0:00.000	431761	N	0	0	0
	0:00.000	431999	N	0	0	0
	0:00.000	432219	N	0	0	0
	0:00.000	432538	N	0	0	0
	0:00.000	432784	N	0	0	0
	0:00.000	433055	N	0	0	0
	0:00.000	433331	N	0	0	0
	0:00.000	433602	N	0	0	0
	0:00.000	433851	N	0	0	0
	0:00.000	434085	N	0	0	0
	0:00.000	434333	N	0	0	0
	0:00.000	434615	N	0	0	0
	0:00.000	434888	N	0	0	0
	0:00.000	435090	N	0	0	0
	0:00.000	435365	N	0	0	0
	0:00.000	435571	N	0	0	0
	0:00.000	435803	N	0	0	0
	0:00.000	436037	N	0	0	0
	0:00.000	436287	N	0	0	0
	0:00.000	436640	N	0	0	0
	0:00.000	436879	N	0	0	0
	0:00.000	437138	N	0	0	0
	0:00.000	437403	N	0	0	0
	0:00.000	437645	N	0	0	0
	0:00.000	437894	N	0	0	0
	0:00.000	438148	N	0	0	0
	0:00.000	438401	N	0	0	0
	0:00.000	438657	N	0	0	0
	0:00.000	438878	N	0	0	0
	0:00.000	439101	N	0	0	0
	0:00.000	439389	N	0	0	0
	0:00.000	439717	N	0	0	0
	0:00.000	439938	N	0	0	0
	0:00.000	440155	N	0	0	0
	0:00.000	440366	N	0	0	0
	0:00.000	440796	N	0	0	0
	0:00.000	441010	N	0	0	0
	0:00.000	441262	N	0	0	0
	0:00.000	441525	N	0	0	0
	0:00.000	441758	N	0	0	0
	0:00.000	442056	N	0	0	0
	0:00.000	442301	N	0	0	0
	0:00.000	442517	N	0	0	0
	0:00.000	442746	N	0	0	0
	0:00.000	442999	N	0	0	0
	0:00.000	443253	N	0	0	0
	0:00.000	443479	N	0	0	0
	0:00.000	443737	N	0	0	0
	0:00.000	443984	N	0	0	0
	0:00.000	444255	N	0	0	0
	0:00.000	444510	N	0	0	0
	0:00.000	444745	N	0	0	0
	0:00.000	444956	N	0	0	0
	0:00.000	445158	N	0	0	0
	0:00.000	445430	N	0	0	0
	0:00.000	445435	N	0	0	0
	0:00.000	445713	N	0	0	0
	0:00.000	445877	N	0	0	0
	0:00.000	446167	N	0	0	0
	0:00.000	446551	N	0	0	0
	0:00.000	446781	N	0	0	0
	0:00.000	447002	N	0	0	0
	0:00.000	447231	N	0	0	0
	0:00.000	447484	N	0	0	0
	0:00.000	447728	N	0	0	0
	0:00.000	447975	N	0	0	0
	0:00.000	448231	N	0	0	0
	0:00.000	448512	N	0	0	0
	0:00.000	448807	N	0	0	0
	0:00.000	449074	N	0	0	0
	0:00.000	449297	N	0	0	0
	0:00.000	449528	N	0	0	0
	0:00.000	449795	N	0	0	0
	0:00.000	450082	N	0	0	0
	0:00.000	450354	N	0	0	0
	0:00.000	450578	N	0	0	0
	0:00.000	450827	N	0	0	0
	0:00.000	451240	N	0	0	0
	0:00.000	451495	N	0	0	0
	0:00.000	451715	N	0	0	0
	0:00.000	451958	N	0	0	0
	0:00.000	452201	N	0	0	0
	0:00.000	452457	N	0	0	0
	0:00.000	452728	N	0	0	0
	0:00.000	452956	N	0	0	0
	0:00.000	453215	N	0	0	0
	0:00.000	453426	N	0	0	0
	0:00.000	453683	N	0	0	0
	0:00.000	453948	N	0	0	0
	0:00.000	454241	N	0	0	0
	0:00.000	454489	N	0	0	0
	0:00.000	454952	N	0	0	0
	0:00.000	455190	N	0	0	0
	0:00.000	455487	N	0	0	0
	0:00.000	456104	N	0	0	0
	0:00.000	456361	N	0	0	0
	0:00.000	456736	N	0	0	0
	0:00.000	456974	N	0	0	0
	0:00.000	457200	N	0	0	0
	0:00.000	457411	N	0	0	0
	0:00.000	457617	N	0	0	0
	0:00.000	457869	N	0	0	0
	0:00.000	458105	N	0	0	0
	0:00.000	458337	N	0	0	0
	0:00.000	458554	N	0	0	0
	0:00.000	458793	N	0	0	0
	0:00.000	459028	N	0	0	0
	0:00.000	459263	N	0	0	0
	0:00.000	459494	N	0	0	0
	0:00.000	459714	N	0	0	0
	0:00.000	459911	N	0	0	0
	0:00.000	460114	N	0	0	0
	0:00.000	460557	N	0	0	0
	0:00.000	460749	N	0	0	0
	0:00.000	461028	N	0	0	0
	0:00.000	461296	N	0	0	0
	0:00.000	461526	N	0	0	0
	0:00.000	461783	N	0	0	0
	0:00.000	462274	N	0	0	0
	0:00.000	462542	N	0	0	0
	0:00.000	462944	N	0	0	0
	0:00.000	463208	N	0	0	0
	0:00.000	463445	N	0	0	0
	0:00.000	463718	N	0	0	0
	0:00.000	463982	N	0	0	0
	0:00.000	464245	N	0	0	0
	0:00.000	464465	N	0	0	0
	0:00.000	464775	N	0	0	0
	0:00.000	465086	N	0	0	0
	0:00.000	465301	N	0	0	0
	0:00.000	465547	N	0	0	0
	0:00.000	465815	N	0	0	0
	0:00.000	466071	N	0	0	0
	0:00.000	466341	N	0	0	0
	0:00.000	466546	N	0	0	0
	0:00.000	466778	N	0	0	0
	0:00.000	467002	N	0	0	0
	0:00.000	467247	N	0	0	0
	0:00.000	467469	N	0	0	0
	0:00.000	467715	N	0	0	0
	0:00.000	468105	N	0	0	0
	0:00.000	468375	N	0	0	0
	0:00.000	468613	N	0	0	0
	0:00.000	468855	N	0	0	0
	0:00.000	469142	N	0	0	0
	0:00.000	469437	N	0	0	0
	0:00.000	469710	N	0	0	0
	0:00.000	469977	N	0	0	0
	0:00.000	470234	N	0	0	0
	0:00.000	470472	N	0	0	0
	0:00.000	470664	N	0	0	0
	0:00.000	470884	N	0	0	0
	0:00.000	471106	N	0	0	0
	0:00.000	471339	N	0	0	0
	0:00.000	471585	N	0	0	0
	0:00.000	471879	N	0	0	0
	0:00.000	472195	N	0	0	0
	0:00.000	472423	N	0	0	0
	0:00.000	472612	N	0	0	0
	0:00.000	472821	N	0	0	0
	0:00.000	473065	N	0	0	0
	0:00.000	473287	N	0	0	0
	0:00.000	473491	N	0	0	0
	0:00.000	473753	N	0	0	0
	0:00.000	474030	N	0	0	0
	0:00.000	474266	N	0	0	0
	0:00.000	474512	N	0	0	0
	0:00.000	474746	N	0	0	0
	0:00.000	474967	N	0	0	0
	0:00.000	475208	N	0	0	0
	0:00.000	475448	N	0	0	0
	0:00.000	475665	N	0	0	0
	0:00.000	475914	N	0	0	0
	0:00.000	476169	N	0	0	0
	0:00.000	476406	N	0	0	0
	0:00.000	476614	N	0	0	0
	0:00.000	476866	N	0	0	0
	0:00.000	477099	N	0	0	0
	0:00.000	477325	N	0	0	0
	0:00.000	477680	N	0	0	0
	0:00.000	477928	N	0	0	0
	0:00.000	478245	N	0	0	0
	0:00.000	478474	N	0	0	0
	0:00.000	478724	N	0	0	0
	0:00.000	478948	N	0	0	0
	0:00.000	479198	N	0	0	0
	0:00.000	479404	N	0	0	0
	0:00.000	479635	N	0	0	0
	0:00.000	479878	N	0	0	0
	0:00.000	480212	N	0	0	0
	0:00.000	480383	N	0	0	0
	0:00.000	480389	N	0	0	0
	0:00.000	480395	N	0	0	0
	0:00.000	480672	N	0	0	0
	0:00.000	481001	N	0	0	0
	0:00.000	481266	N	0	0	0
	0:00.000	481485	N	0	0	0
	0:00.000	481704	N	0	0	0
	0:00.000	481918	N	0	0	0
	0:00.000	482119	N	0	0	0
	0:00.000	482361	N	0	0	0
	0:00.000	482664	N	0	0	0
	0:00.000	482958	N	0	0	0
	0:00.000	483413	N	0	0	0
	0:00.000	483626	N	0	0	0
	0:00.000	483639	N	0	0	0
	0:00.000	483644	N	0	0	0
	0:00.000	483648	N	0	0	0
	0:00.000	483653	N	0	0	0
	0:00.000	483655	N	0	0	0
	0:00.000	483859	N	0	0	0
	0:00.000	484072	N	0	0	0
	0:00.000	484293	N	0	0	0
	0:00.000	484514	N	0	0	0
	0:00.000	484770	N	0	0	0
	0:00.000	484993	N	0	0	0
	0:00.000	485306	N	0	0	0
	0:00.000	485577	N	0	0	0
	0:00.000	485833	N	0	0	0
	0:00.000	486065	N	0	0	0
	0:00.000	486293	N	0	0	0
	0:00.000	486570	N	0	0	0
	0:00.000	486788	N	0	0	0
	0:00.000	487045	N	0	0	0
	0:00.000	487272	N	0	0	0
	0:00.000	487538	N	0	0	0
	0:00.000	487771	N	0	0	0
	0:00.000	487995	N	0	0	0
	0:00.000	488320	N	0	0	0
	0:00.000	488537	N	0	0	0
	0:00.000	488772	N	0	0	0
	0:00.000	488992	N	0	0	0
	0:00.000	489257	N	0	0	0
	0:00.000	489487	N	0	0	0
	0:00.000	489777	N	0	0	0
	0:00.000	490035	N	0	0	0
	0:00.000	490273	N	0	0	0
	0:00.000	490502	N	0	0	0
	0:00.000	490728	N	0	0	0
	0:00.000	491010	N	0	0	0
	0:00.000	491323	N	0	0	0
	0:00.000	491662	N	0	0	0
	0:00.000	491905	N	0	0	0
	0:00.000	492175	N	0	0	0
	0:00.000	492407	N	0	0	0
	0:00.000	492780	N	0	0	0
	0:00.000	492787	N	0	0	0
	0:00.000	493057	N	0	0	0
	0:00.000	493536	N	0	0	0
	0:00.000	493801	N	0	0	0
	0:00.000	494055	N	0	0	0
	0:00.000	494277	N	0	0	0
	0:00.000	494516	N	0	0	0
	0:00.000	494764	N	0	0	0
	0:00.000	494988	N	0	0	0
	0:00.000	495199	N	0	0	0
	0:00.000	495495	N	0	0	0
	0:00.000	495850	N	0	0	0
	0:00.000	496180	N	0	0	0
	0:00.000	496448	N	0	0	0
	0:00.000	496654	N	0	0	0
	0:00.000	496864	N	0	0	0
	0:00.000	496870	N	0	0	0
	0:00.000	497107	N	0	0	0
	0:00.000	497347	N	0	0	0
	0:00.000	497596	N	0	0	0
	0:00.000	497849	N	0	0	0
	0:00.000	498053	N	0	0	0
	0:00.000	498225	N	0	0	0
	0:00.000	498438	N	0	0	0
	0:00.000	498712	N	0	0	0
	0:00.000	498957	N	0	0	0
	0:00.000	499208	N	0	0	0
	0:00.000	499428	N	0	0	0
	0:00.000	499634	N	0	0	0
	0:00.000	499868	N	0	0	0
	0:00.000	500096	N	0	0	0
	0:00.000	500339	N	0	0	0
	0:00.000	500605	N	0	0	0
	0:00.000	500865	N	0	0	0
	0:00.000	501114	N	0	0	0
	0:00.000	501374	N	0	0	0
	0:00.000	501570	N	0	0	0
	0:00.000	501821	N	0	0	0
	0:00.000	502086	N	0	0	0
	0:00.000	502338	N	0	0	0
	0:00.000	502561	N	0	0	0
	0:00.000	502780	N	0	0	0
	0:00.000	503028	N	0	0	0
	0:00.000	503214	N	0	0	0
	0:00.000	503421	N	0	0	0
	0:00.000	503642	N	0	0	0
	0:00.000	503878	N	0	0	0
	0:00.000	504104	N	0	0	0
	0:00.000	504364	N	0	0	0
	0:00.000	504626	N	0	0	0
	0:00.000	504856	N	0	0	0
	0:00.000	505113	N	0	0	0
	0:00.000	505401	N	0	0	0
	0:00.000	505697	N	0	0	0
	0:00.000	505899	N	0	0	0
	0:00.000	506119	N	0	0	0
	0:00.000	506380	N	0	0	0
	0:00.000	506607	N	0	0	0
	0:00.000	506828	N	0	0	0
	0:00.000	507338	N	0	0	0
	0:00.000	507587	N	0	0	0
	0:00.000	507815	N	0	0	0
	0:00.000	508066	N	0	0	0
	0:00.000	508274	N	0	0	0
	0:00.000	508523	N	0	0	0
	0:00.000	508786	N	0	0	0
	0:00.000	509117	N	0	0	0
	0:00.000	509357	N	0	0	0
	0:00.000	509578	N	0	0	0
	0:00.000	509793	N	0	0	0
	0:00.000	510024	N	0	0	0
	0:00.000	510273	N	0	0	0
	0:00.000	510522	N	0	0	0
	0:00.000	510789	N	0	0	0
	0:00.000	511057	N	0	0	0
	0:00.000	511304	N	0	0	0
	0:00.000	511534	N	0	0	0
	0:00.000	511764	N	0	0	0
	0:00.000	511996	N	0	0	0
	0:00.000	512186	N	0	0	0
	0:00.000	512557	N	0	0	0
	0:00.000	512812	N	0	0	0
	0:00.000	513062	N	0	0	0
	0:00.000	513311	N	0	0	0
	0:00.000	513604	N	0	0	0
	0:00.000	513872	N	0	0	0
	0:00.000	514209	N	0	0	0
	0:00.000	514441	N	0	0	0
	0:00.000	514712	N	0	0	0
	0:00.000	514956	N	0	0	0
	0:00.000	515218	N	0	0	0
	0:00.000	515441	N	0	0	0
	0:00.000	515823	N	0	0	0
	0:00.000	516035	N	0	0	0
	0:00.000	516251	N	0	0	0
	0:00.000	516458	N	0	0	0
	0:00.000	516707	N	0	0	0
	0:00.000	516936	N	0	0	0
	0:00.000	517184	N	0	0	0
	0:00.000	517430	N	0	0	0
	0:00.000	517697	N	0	0	0
	0:00.000	517946	N	0	0	0
	0:00.000	518197	N	0	0	0
	0:00.000	518418	N	0	0	0
	0:00.000	518675	N	0	0	0
	0:00.000	518946	N	0	0	0
	0:00.000	519210	N	0	0	0
	0:00.000	519422	N	0	0	0
	0:00.000	519677	N	0	0	0
	0:00.000	519940	N	0	0	0
	0:00.000	520183	N	0	0	0
	0:00.000	520434	N	0	0	0
	0:00.000	520684	N	0	0	0
	0:00.000	520937	N	0	0	0
	0:00.000	521190	N	0	0	0
	0:00.000	521472	N	0	0	0
	0:00.000	521725	N	0	0	0
	0:00.000	521961	N	0	0	0
	0:00.000	522178	N	0	0	0
	0:00.000	522384	N	0	0	0
	0:00.000	522629	N	0	0	0
	0:00.000	522882	N	0	0	0
	0:00.000	523120	N	0	0	0
	0:00.000	523385	N	0	0	0
	0:00.000	523649	N	0	0	0
	0:00.000	523881	N	0	0	0
	0:00.000	524119	N	0	0	0
	0:00.000	524450	N	0	0	0
	0:00.000	524652	N	0	0	0
	0:00.000	524832	N	0	0	0
	0:00.000	524837	N	0	0	0
	0:00.000	525162	N	0	0	0
	0:00.000	525392	N	0	0	0
	0:00.000	525653	N	0	0	0
	0:00.000	525912	N	0	0	0
	0:00.000	526172	N	0	0	0
	0:00.000	526420	N	0	0	0
	0:00.000	526657	N	0	0	0
	0:00.000	526874	N	0	0	0
	0:00.000	527125	N	0	0	0
	0:00.000	527364	N	0	0	0
	0:00.000	527565	N	0	0	0
	0:00.000	527862	N	0	0	0
	0:00.000	528114	N	0	0	0
	0:00.000	528377	N	0	0	0
	0:00.000	528581	N	0	0	0
	0:00.000	528824	N	0	0	0
	0:00.000	529091	N	0	0	0
	0:00.000	529315	N	0	0	0
	0:00.000	529550	N	0	0	0
	0:00.000	529748	N	0	0	0
	0:00.000	530024	N	0	0	0
	0:00.000	530252	N	0	0	0
	0:00.000	530505	N	0	0	0
	0:00.000	530715	N	0	0	0
	0:00.000	530963	N	0	0	0
	0:00.000	531221	N	0	0	0
	0:00.000	531438	N	0	0	0
	0:00.000	531645	N	0	0	0
	0:00.000	531894	N	0	0	0
	0:00.000	532171	N	0	0	0
	0:00.000	532424	N	0	0	0
	0:00.000	532711	N	0	0	0
	0:00.000	532993	N	0	0	0
	0:00.000	533221	N	0	0	0
	0:00.000	533443	N	0	0	0
	0:00.000	533686	N	0	0	0
	0:00.000	533929	N	0	0	0
	0:00.000	534182	N	0	0	0
	0:00.000	534511	N	0	0	0
	0:00.000	534750	N	0	0	0
	0:00.000	534991	N	0	0	0
	0:00.000	535279	N	0	0	0
	0:00.000	535579	N	0	0	0
	0:00.000	535816	N	0	0	0
	0:00.000	536035	N	0	0	0
	0:00.000	536251	N	0	0	0
	0:00.000	536533	N	0	0	0
	0:00.000	536793	N	0	0	0
	0:00.000	537046	N	0	0	0
	0:00.000	537312	N	0	0	0
	0:00.000	537578	N	0	0	0
	0:00.000	537813	N	0	0	0
	0:00.000	538081	N	0	0	0
	0:00.000	538304	N	0	0	0
	0:00.000	538590	N	0	0	0
	0:00.000	538851	N	0	0	0
	0:00.000	539081	N	0	0	0
	0:00.000	539355	N	0	0	0
	0:00.000	539571	N	0	0	0
	0:00.000	539816	N	0	0	0
	0:00.000	540095	N	0	0	0
	0:00.000	540322	N	0	0	0
	0:00.000	540552	N	0	0	0
	0:00.000	540781	N	0	0	0
	0:00.000	541040	N	0	0	0
	0:00.000	541301	N	0	0	0
	0:00.000	541599	N	0	0	0
	0:00.000	541813	N	0	0	0
	0:00.000	542054	N	0	0	0
	0:00.000	542253	N	0	0	0
	0:00.000	542492	N	0	0	0
	0:00.000	542888	N	0	0	0
	0:00.000	543141	N	0	0	0
	0:00.000	543381	N	0	0	0
	0:00.000	543605	N	0	0	0
	0:00.000	543849	N	0	0	0
	0:00.000	544106	N	0	0	0
	0:00.000	544453	N	0	0	0
	0:00.000	544680	N	0	0	0
	0:00.000	544894	N	0	0	0
	0:00.000	545384	N	0	0	0
	0:00.000	545645	N	0	0	0
	0:00.000	545870	N	0	0	0
	0:00.000	546119	N	0	0	0
	0:00.000	546418	N	0	0	0
	0:00.000	546740	N	0	0	0
	0:00.000	546958	N	0	0	0
	0:00.000	547221	N	0	0	0
	0:00.000	547521	N	0	0	0
	0:00.000	547769	N	0	0	0
	0:00.000	547995	N	0	0	0
	0:00.000	548261	N	0	0	0
	0:00.000	548522	N	0	0	0
	0:00.000	548764	N	0	0	0
	0:00.000	549022	N	0	0	0
	0:00.000	549232	N	0	0	0
	0:00.000	549485	N	0	0	0
	0:00.000	549898	N	0	0	0
	0:00.000	550152	N	0	0	0
	0:00.000	550394	N	0	0	0
	0:00.000	550634	N	0	0	0
	0:00.000	551007	N	0	0	0
	0:00.000	551246	N	0	0	0
	0:00.000	551519	N	0	0	0
	0:00.000	551824	N	0	0	0
	0:00.000	552075	N	0	0	0
	0:00.000	552542	N	0	0	0
	0:00.000	552852	N	0	0	0
	0:00.000	553110	N	0	0	0
	0:00.000	553373	N	0	0	0
	0:00.000	553635	N	0	0	0
	0:00.000	553839	N	0	0	0
	0:00.000	554095	N	0	0	0
	0:00.000	554403	N	0	0	0
	0:00.000	554682	N	0	0	0
	0:00.000	554916	N	0	0	0
	0:00.000	555147	N	0	0	0
	0:00.000	555412	N	0	0	0
	0:00.000	555726	N	0	0	0
	0:00.000	555994	N	0	0	0
	0:00.000	556260	N	0	0	0
	0:00.000	556514	N	0	0	0
	0:00.000	556783	N	0	0	0
	0:00.000	557061	N	0	0	0
	0:00.000	557286	N	0	0	0
	0:00.000	557568	N	0	0	0
	0:00.000	557812	N	0	0	0
	0:00.000	558070	N	0	0	0
	0:00.000	558291	N	0	0	0
	0:00.000	558512	N	0	0	0
	0:00.000	558750	N	0	0	0
	0:00.000	559029	N	0	0	0
	0:00.000	559274	N	0	0	0
	0:00.000	559541	N	0	0	0
	0:00.000	559773	N	0	0	0
	0:00.000	559995	N	0	0	0
	0:00.000	560214	N	0	0	0
	0:00.000	560477	N	0	0	0
	0:00.000	560730	N	0	0	0
	0:00.000	560990	N	0	0	0
	0:00.000	561228	N	0	0	0
	0:00.000	561433	N	0	0	0
	0:00.000	561739	N	0	0	0
	0:00.000	561986	N	0	0	0
	0:00.000	562208	N	0	0	0
	0:00.000	562483	N	0	0	0
	0:00.000	562650	N	0	0	0
	0:00.000	562958	N	0	0	0
	0:00.000	563244	N	0	0	0
	0:00.000	563488	N	0	0	0
	0:00.000	563718	N	0	0	0
	0:00.000	563954	N	0	0	0
	0:00.000	564174	N	0	0	0
	0:00.000	564460	N	0	0	0
	0:00.000	564690	N	0	0	0
	0:00.000	564901	N	0	0	0
	0:00.000	565147	N	0	0	0
	0:00.000	565349	N	0	0	0
	0:00.000	565565	N	0	0	0
	0:00.000	565877	N	0	0	0
	0:00.000	566018	N	0	0	0
	0:00.000	566435	N	0	0	0
	0:00.000	566721	N	0	0	0
	0:00.000	566988	N	0	0	0
	0:00.000	567221	N	0	0	0
	0:00.000	567438	N	0	0	0
	0:00.000	567637	N	0	0	0
	0:00.000	567861	N	0	0	0
	0:00.000	568231	N	0	0	0
	0:00.000	568525	N	0	0	0
	0:00.000	568871	N	0	0	0
	0:00.000	569129	N	0	0	0
	0:00.000	569395	N	0	0	0
	0:00.000	569642	N	0	0	0
	0:00.000	569864	N	0	0	0
	0:00.000	570126	N	0	0	0
	0:00.000	570383	N	0	0	0
	0:00.000	570615	N	0	0	0
	0:00.000	570845	N	0	0	0
	0:00.000	571150	N	0	0	0
	0:00.000	571395	N	0	0	0
	0:00.000	571615	N	0	0	0
	0:00.000	571885	N	0	0	0
	0:00.000	572033	N	0	0	0
	0:00.000	572291	N	0	0	0
	0:00.000	572479	N	0	0	0
	0:00.000	572711	N	0	0	0
	0:00.000	572914	N	0	0	0
	0:00.000	573172	N	0	0	0
	0:00.000	573437	N	0	0	0
	0:00.000	573700	N	0	0	0
	0:00.000	574076	N	0	0	0
	0:00.000	574331	N	0	0	0
	0:00.000	574620	N	0	0	0
	0:00.000	574889	N	0	0	0
	0:00.000	575091	N	0	0	0
	0:00.000	575335	N	0	0	0
	0:00.000	575787	N	0	0	0
	0:00.000	576112	N	0	0	0
	0:00.000	576319	N	0	0	0
	0:00.000	576527	N	0	0	0
	0:00.000	576768	N	0	0	0
	0:00.000	577041	N	0	0	0
	0:00.000	577244	N	0	0	0
	0:00.000	577543	N	0	0	0
	0:00.000	577845	N	0	0	0
	0:00.000	578101	N	0	0	0
	0:00.000	578329	N	0	0	0
	0:00.000	578591	N	0	0	0
	0:00.000	578847	N	0	0	0
	0:00.000	579069	N	0	0	0
	0:00.000	579261	N	0	0	0
	0:00.000	579520	N	0	0	0
	0:00.000	579999	N	0	0	0
	0:00.000	580230	N	0	0	0
	0:00.000	580476	N	0	0	0
	0:00.000	580722	N	0	0	0
	0:00.000	580925	N	0	0	0
	0:00.000	581158	N	0	0	0
	0:00.000	581446	N	0	0	0
	0:00.000	581672	N	0	0	0
	0:00.000	581920	N	0	0	0
	0:00.000	582174	N	0	0	0
	0:00.000	582455	N	0	0	0
	0:00.000	582682	N	0	0	0
	0:00.000	582880	N	0	0	0
	0:00.000	583144	N	0	0	0
	0:00.000	583526	N	0	0	0
	0:00.000	583757	N	0	0	0
	0:00.000	584010	N	0	0	0
	0:00.000	584274	N	0	0	0
	0:00.000	584522	N	0	0	0
	0:00.000	585023	N	0	0	0
	0:00.000	585260	N	0	0	0
	0:00.000	585505	N	0	0	0
	0:00.000	585739	N	0	0	0
	0:00.000	585980	N	0	0	0
	0:00.000	586236	N	0	0	0
	0:00.000	586489	N	0	0	0
	0:00.000	586732	N	0	0	0
	0:00.000	586986	N	0	0	0
	0:00.000	587243	N	0	0	0
	0:00.000	587468	N	0	0	0
	0:00.000	587676	N	0	0	0
	0:00.000	587907	N	0	0	0
	0:00.000	588111	N	0	0	0
	0:00.000	588401	N	0	0	0
	0:00.000	588870	N	0	0	0
	0:00.000	589101	N	0	0	0
	0:00.000	589106	N	0	0	0
	0:00.000	589293	N	0	0	0
	0:00.000	589580	N	0	0	0
	0:00.000	589835	N	0	0	0
	0:00.000	590419	N	0	0	0
	0:00.000	590664	N	0	0	0
	0:00.000	590905	N	0	0	0
	0:00.000	591137	N	0	0	0
	0:00.000	591352	N	0	0	0
	0:00.000	591605	N	0	0	0
	0:00.000	591882	N	0	0	0
	0:00.000	592088	N	0	0	0
	0:00.000	592338	N	0	0	0
	0:00.000	592777	N	0	0	0
	0:00.000	593002	N	0	0	0
	0:00.000	593286	N	0	0	0
	0:00.000	593553	N	0	0	0
	0:00.000	593832	N	0	0	0
	0:00.000	594093	N	0	0	0
	0:00.000	594360	N	0	0	0
	0:00.000	594622	N	0	0	0
	0:00.000	594875	N	0	0	0
	0:00.000	595102	N	0	0	0
	0:00.000	595382	N	0	0	0
	0:00.000	595627	N	0	0	0
	0:00.000	595865	N	0	0	0
	0:00.000	596283	N	0	0	0
	0:00.000	596584	N	0	0	0
	0:00.000	596827	N	0	0	0
	0:00.000	596997	N	0	0	0
	0:00.000	597008	N	0	0	0
	0:00.000	597241	N	0	0	0
	0:00.000	597739	N	0	0	0
	0:00.000	598200	N	0	0	0
	0:00.000	598421	N	0	0	0
	0:00.000	598629	N	0	0	0
	0:00.000	599017	N	0	0	0
	0:00.000	599165	N	0	0	0
	0:00.000	599439	N	0	0	0
	0:00.000	599674	N	0	0	0
	0:00.000	599859	N	0	0	0
	0:00.000	600216	N	0	0	0
	0:00.000	600472	N	0	0	0
	0:00.000	600693	N	0	0	0
	0:00.000	600910	N	0	0	0
	0:00.000	601162	N	0	0	0
	0:00.000	601427	N	0	0	0
	0:00.000	601679	N	0	0	0
	0:00.000	601897	N	0	0	0
	0:00.000	602131	N	0	0	0
	0:00.000	602328	N	0	0	0
	0:00.000	602334	N	0	0	0
	0:00.000	602521	N	0	0	0
	0:00.000	602757	N	0	0	0
	0:00.000	602982	N	0	0	0
	0:00.000	603206	N	0	0	0
	0:00.000	603652	N	0	0	0
	0:00.000	603943	N	0	0	0
	0:00.000	604171	N	0	0	0
	0:00.000	604433	N	0	0	0
	0:00.000	604695	N	0	0	0
	0:00.000	605011	N	0	0	0
	0:00.000	605226	N	0	0	0
	0:00.000	605446	N	0	0	0
	0:00.000	605690	N	0	0	0
	0:00.000	605939	N	0	0	0
	0:00.000	606197	N	0	0	0
	0:00.000	606441	N	0	0	0
	0:00.000	606724	N	0	0	0
	0:00.000	606983	N	0	0	0
	0:00.000	607213	N	0	0	0
	0:00.000	607427	N	0	0	0
	0:00.000	607660	N	0	0	0
	0:00.000	607912	N	0	0	0
	0:00.000	608175	N	0	0	0
	0:00.000	608408	N	0	0	0
	0:00.000	608604	N	0	0	0
	0:00.000	608609	N	0	0	0
	0:00.000	608615	N	0	0	0
	0:00.000	608875	N	0	0	0
	0:00.000	609365	N	0	0	0
	0:00.000	609596	N	0	0	0
	0:00.000	609931	N	0	0	0
	0:00.000	610198	N	0	0	0
	0:00.000	610448	N	0	0	0
	0:00.000	610685	N	0	0	0
	0:00.000	610891	N	0	0	0
	0:00.000	611152	N	0	0	0
	0:00.000	611369	N	0	0	0
	0:00.000	611600	N	0	0	0
	0:00.000	611844	N	0	0	0
	0:00.000	612162	N	0	0	0
	0:00.000	612440	N	0	0	0
	0:00.000	612679	N	0	0	0
	0:00.000	612905	N	0	0	0
	0:00.000	613138	N	0	0	0
	0:00.000	613351	N	0	0	0
	0:00.000	613567	N	0	0	0
	0:00.000	613816	N	0	0	0
	0:00.000	614068	N	0	0	0
	0:00.000	614276	N	0	0	0
	0:00.000	614552	N	0	0	0
	0:00.000	614822	N	0	0	0
	0:00.000	615107	N	0	0	0
	0:00.000	615272	N	0	0	0
	0:00.000	615284	N	0	0	0
	0:00.000	615590	N	0	0	0
	0:00.000	615808	N	0	0	0
	0:00.000	616048	N	0	0	0
	0:00.000	616304	N	0	0	0
	0:00.000	616565	N	0	0	0
	0:00.000	616824	N	0	0	0
	0:00.000	617100	N	0	0	0
	0:00.000	617317	N	0	0	0
	0:00.000	617547	N	0	0	0
	0:00.000	617786	N	0	0	0
	0:00.000	618079	N	0	0	0
	0:00.000	618331	N	0	0	0
	0:00.000	618596	N	0	0	0
	0:00.000	618864	N	0	0	0
	0:00.000	619115	N	0	0	0
	0:00.000	619382	N	0	0	0
	0:00.000	619621	N	0	0	0
	0:00.000	619821	N	0	0	0
	0:00.000	620081	N	0	0	0
	0:00.000	620345	N	0	0	0
	0:00.000	620616	N	0	0	0
	0:00.000	620911	N	0	0	0
	0:00.000	621125	N	0	0	0
	0:00.000	621350	N	0	0	0
	0:00.000	621613	N	0	0	0
	0:00.000	621846	N	0	0	0
	0:00.000	622084	N	0	0	0
	0:00.000	622308	N	0	0	0
	0:00.000	622519	N	0	0	0
	0:00.000	622785	N	0	0	0
	0:00.000	623064	N	0	0	0
	0:00.000	623346	N	0	0	0
	0:00.000	623578	N	0	0	0
	0:00.000	623785	N	0	0	0
	0:00.000	624163	N	0	0	0
	0:00.000	624415	N	0	0	0
	0:00.000	624634	N	0	0	0
	0:00.000	625011	N	0	0	0
	0:00.000	625297	N	0	0	0
	0:00.000	625568	N	0	0	0
	0:00.000	625775	N	0	0	0
	0:00.000	626026	N	0	0	0
	0:00.000	626261	N	0	0	0
	0:00.000	626571	N	0	0	0
	0:00.000	626807	N	0	0	0
	0:00.000	627032	N	0	0	0
	0:00.000	627310	N	0	0	0
	0:00.000	627553	N	0	0	0
	0:00.000	627816	N	0	0	0
	0:00.000	628075	N	0	0	0
	0:00.000	628328	N	0	0	0
	0:00.000	628791	N	0	0	0
	0:00.000	629123	N	0	0	0
	0:00.000	629401	N	0	0	0
	0:00.000	629629	N	0	0	0
	0:00.000	629874	N	0	0	0
	0:00.000	630195	N	0	0	0
	0:00.000	630489	N	0	0	0
	0:00.000	630723	N	0	0	0
	0:00.000	630947	N	0	0	0
	0:00.000	631458	N	0	0	0
	0:00.000	631713	N	0	0	0
	0:00.000	631942	N	0	0	0
	0:00.000	632206	N	0	0	0
	0:00.000	632693	N	0	0	0
	0:00.000	632923	N	0	0	0
	0:00.000	632927	N	0	0	0
	0:00.000	633131	N	0	0	0
	0:00.000	633268	N	0	0	0
	0:00.000	634619	N	0	0	0
	0:00.000	634884	N	0	0	0
	0:00.000	635091	N	0	0	0
	0:00.000	635373	N	0	0	0
	0:00.000	635820	N	0	0	0
	0:00.000	636075	N	0	0	0
	0:00.000	636290	N	0	0	0
	0:00.000	636551	N	0	0	0
	0:00.000	636823	N	0	0	0
	0:00.000	637107	N	0	0	0
	0:00.000	637118	N	0	0	0
	0:00.000	637127	N	0	0	0
	0:00.000	637134	N	0	0	0
	0:00.000	637142	N	0	0	0
	0:00.000	637347	N	0	0	0
	0:00.000	637815	N	0	0	0
	0:00.000	638060	N	0	0	0
	0:00.000	638356	N	0	0	0
	0:00.000	638574	N	0	0	0
	0:00.000	638830	N	0	0	0
	0:00.000	639369	N	0	0	0
	0:00.000	639578	N	0	0	0
	0:00.000	639835	N	0	0	0
	0:00.000	640084	N	0	0	0
	0:00.000	640300	N	0	0	0
	0:00.000	640514	N	0	0	0
	0:00.000	640787	N	0	0	0
	0:00.000	641045	N	0	0	0
	0:00.000	641281	N	0	0	0
	0:00.000	641521	N	0	0	0
	0:00.000	641763	N	0	0	0
	0:00.000	642080	N	0	0	0
	0:00.000	642085	N	0	0	0
	0:00.000	642090	N	0	0	0
	0:00.000	642279	N	0	0	0
	0:00.000	642508	N	0	0	0
	0:00.000	642756	N	0	0	0
	0:00.000	643318	N	0	0	0
	0:00.000	643794	N	0	0	0
	0:00.000	644015	N	0	0	0
	0:00.000	644261	N	0	0	0
	0:00.000	644409	N	0	0	0
	0:00.000	644828	N	0	0	0
	0:00.000	645064	N	0	0	0
	0:00.000	645068	N	0	0	0
	0:00.000	645074	N	0	0	0
	0:00.000	645281	N	0	0	0
	0:00.000	645555	N	0	0	0
	0:00.000	645810	N	0	0	0
	0:00.000	646024	N	0	0	0
	0:00.000	646259	N	0	0	0
	0:00.000	646486	N	0	0	0
	0:00.000	646773	N	0	0	0
	0:00.000	646984	N	0	0	0
	0:00.000	647235	N	0	0	0
	0:00.000	647488	N	0	0	0
	0:00.000	647964	N	0	0	0
	0:00.000	648242	N	0	0	0
	0:00.000	648744	N	0	0	0
	0:00.000	648943	N	0	0	0
	0:00.000	649215	N	0	0	0
	0:00.000	649580	N	0	0	0
	0:00.000	649584	N	0	0	0
	0:00.000	649589	N	0	0	0
	0:00.000	649757	N	0	0	0
	0:00.000	649961	N	0	0	0
