	0:00.000	58  	N	0	0	0
	0:00.000	346 	N	0	0	0
	0:00.000	660 	N	0	0	0
	0:00.000	671 	N	0	0	0
	0:00.000	975 	N	0	0	0
	0:00.000	1290	N	0	0	0
	0:00.000	1607	N	0	0	0
	0:00.000	1618	N	0	0	0
	0:00.000	1906	N	0	0	0
	0:00.000	2135	N	0	0	0
	0:00.000	2231	N	0	0	0
	0:00.000	2237	N	0	0	0
	0:00.000	2479	N	0	0	0
	0:00.000	2758	N	0	0	0
	0:00.000	3073	N	0	0	0
	0:00.000	3234	N	0	0	0
	0:00.000	3336	N	0	0	0
	0:00.000	3343	N	0	0	0
	0:00.000	3348	N	0	0	0
	0:00.000	3353	N	0	0	0
	0:00.000	3355	N	0	0	0
	0:00.000	3357	N	0	0	0
	0:00.000	3364	N	0	0	0
	0:00.000	3694	N	0	0	0
	0:00.000	3971	N	0	0	0
	0:00.000	4231	N	0	0	0
	0:00.000	4494	N	0	0	0
	0:00.000	4768	N	0	0	0
	0:00.000	5042	N	0	0	0
	0:00.000	5321	N	0	0	0
	0:00.000	5638	N	0	0	0
	0:00.000	5960	N	0	0	0
	0:00.000	6229	N	0	0	0
	0:00.000	6488	N	0	0	0
	0:00.000	6750	N	0	0	0
	0:00.000	7033	N	0	0	0
	0:00.000	7326	N	0	0	0
	0:00.000	7620	N	0	0	0
	0:00.000	7909	N	0	0	0
	0:00.000	8210	N	0	0	0
	0:00.000	8486	N	0	0	0
	0:00.000	8743	N	0	0	0
	0:00.000	9012	N	0	0	0
	0:00.000	9293	N	0	0	0
	0:00.000	9590	N	0	0	0
	0:00.000	9900	N	0	0	0
	0:00.000	10197	N	0	0	0
	0:00.000	10473	N	0	0	0
	0:00.000	10752	N	0	0	0
	0:00.000	11018	N	0	0	0
	0:00.000	11289	N	0	0	0
	0:00.000	11571	N	0	0	0
	0:00.000	11865	N	0	0	0
	0:00.000	12167	N	0	0	0
	0:00.000	12464	N	0	0	0
	0:00.000	12721	N	0	0	0
	0:00.000	12751	N	0	0	0
	0:00.000	12756	N	0	0	0
	0:00.000	13004	N	0	0	0
	0:00.000	13273	N	0	0	0
	0:00.000	13555	N	0	0	0
	0:00.000	13838	N	0	0	0
	0:00.000	14130	N	0	0	0
	0:00.000	14426	N	0	0	0
	0:00.000	14714	N	0	0	0
	0:00.000	14992	N	0	0	0
	0:00.000	15262	N	0	0	0
	0:00.000	15528	N	0	0	0
	0:00.000	15822	N	0	0	0
	0:00.000	16130	N	0	0	0
	0:00.000	16433	N	0	0	0
	0:00.000	16731	N	0	0	0
	0:00.000	17008	N	0	0	0
	0:00.000	17279	N	0	0	0
	0:00.000	17540	N	0	0	0
	0:00.000	17810	N	0	0	0
	0:00.000	18085	N	0	0	0
	0:00.000	18390	N	0	0	0
	0:00.000	18694	N	0	0	0
	0:00.000	18988	N	0	0	0
	0:00.000	19270	N	0	0	0
	0:00.000	19542	N	0	0	0
	0:00.000	19826	N	0	0	0
	0:00.000	20117	N	0	0	0
	0:00.000	20409	N	0	0	0
	0:00.000	20707	N	0	0	0
	0:00.000	21013	N	0	0	0
	0:00.000	21288	N	0	0	0
	0:00.000	21548	N	0	0	0
	0:00.000	21809	N	0	0	0
	0:00.000	22078	N	0	0	0
	0:00.000	22373	N	0	0	0
	0:00.000	22678	N	0	0	0
	0:00.000	22978	N	0	0	0
	0:00.000	23259	N	0	0	0
	0:00.000	23534	N	0	0	0
	0:00.000	23792	N	0	0	0
	0:00.000	24044	N	0	0	0
	0:00.000	24313	N	0	0	0
	0:00.000	24591	N	0	0	0
	0:00.000	24897	N	0	0	0
	0:00.000	25260	N	0	0	0
	0:00.000	25544	N	0	0	0
	0:00.000	25807	N	0	0	0
	0:00.000	26080	N	0	0	0
	0:00.000	26347	N	0	0	0
	0:00.000	26617	N	0	0	0
	0:00.000	26900	N	0	0	0
	0:00.000	27192	N	0	0	0
	0:00.000	27495	N	0	0	0
	0:00.000	27778	N	0	0	0
	0:00.000	28034	N	0	0	0
	0:00.000	28190	N	0	0	0
	0:00.000	28281	N	0	0	0
	0:00.000	28289	N	0	0	0
	0:00.000	28293	N	0	0	0
	0:00.000	28302	N	0	0	0
	0:00.000	28323	N	0	0	0
	0:00.000	28574	N	0	0	0
	0:00.000	28857	N	0	0	0
	0:00.000	29075	N	0	0	0
	0:00.000	29176	N	0	0	0
	0:00.000	29435	N	0	0	0
	0:00.000	29714	N	0	0	0
	0:00.000	29865	N	0	0	0
	0:00.000	29962	N	0	0	0
	0:00.000	29966	N	0	0	0
	0:00.000	30234	N	0	0	0
	0:00.000	30478	N	0	0	0
	0:00.000	30643	N	0	0	0
	0:00.000	31002	N	0	0	0
	0:00.000	31291	N	0	0	0
	0:00.000	31483	N	0	0	0
	0:00.000	31843	N	0	0	0
	0:00.000	32093	N	0	0	0
	0:00.000	32333	N	0	0	0
	0:00.000	32567	N	0	0	0
	0:00.000	32813	N	0	0	0
	0:00.000	33068	N	0	0	0
	0:00.000	33328	N	0	0	0
	0:00.000	33622	N	0	0	0
	0:00.000	33631	N	0	0	0
	0:00.000	33641	N	0	0	0
	0:00.000	33664	N	0	0	0
	0:00.000	33669	N	0	0	0
	0:00.000	33675	N	0	0	0
	0:00.000	33682	N	0	0	0
	0:00.000	33957	N	0	0	0
	0:00.000	34218	N	0	0	0
	0:00.000	34479	N	0	0	0
	0:00.000	34741	N	0	0	0
	0:00.000	35021	N	0	0	0
	0:00.000	35304	N	0	0	0
	0:00.000	35594	N	0	0	0
	0:00.000	35877	N	0	0	0
	0:00.000	36171	N	0	0	0
	0:00.000	36451	N	0	0	0
	0:00.000	36714	N	0	0	0
	0:00.000	36974	N	0	0	0
	0:00.000	37237	N	0	0	0
	0:00.000	37522	N	0	0	0
	0:00.000	37811	N	0	0	0
	0:00.000	38094	N	0	0	0
	0:00.000	38359	N	0	0	0
	0:00.000	38627	N	0	0	0
	0:00.000	38875	N	0	0	0
	0:00.000	39125	N	0	0	0
	0:00.000	39382	N	0	0	0
	0:00.000	39651	N	0	0	0
	0:00.000	39936	N	0	0	0
	0:00.000	40246	N	0	0	0
	0:00.000	40397	N	0	0	0
	0:00.000	40493	N	0	0	0
	0:00.000	40505	N	0	0	0
	0:00.000	40510	N	0	0	0
	0:00.000	40515	N	0	0	0
	0:00.000	40814	N	0	0	0
	0:00.000	41082	N	0	0	0
	0:00.000	41363	N	0	0	0
	0:00.000	41644	N	0	0	0
	0:00.000	41927	N	0	0	0
	0:00.000	42234	N	0	0	0
	0:00.000	42244	N	0	0	0
	0:00.000	42388	N	0	0	0
	0:00.000	42498	N	0	0	0
	0:00.000	42503	N	0	0	0
	0:00.000	42508	N	0	0	0
	0:00.000	42865	N	0	0	0
	0:00.000	43139	N	0	0	0
	0:00.000	43409	N	0	0	0
	0:00.000	43709	N	0	0	0
	0:00.000	44006	N	0	0	0
	0:00.000	44312	N	0	0	0
	0:00.000	44623	N	0	0	0
	0:00.000	44778	N	0	0	0
	0:00.000	44869	N	0	0	0
	0:00.000	44881	N	0	0	0
	0:00.000	44884	N	0	0	0
	0:00.000	45214	N	0	0	0
	0:00.000	45484	N	0	0	0
	0:00.000	45760	N	0	0	0
	0:00.000	45897	N	0	0	0
	0:00.000	46002	N	0	0	0
	0:00.000	46007	N	0	0	0
	0:00.000	46371	N	0	0	0
	0:00.000	46681	N	0	0	0
	0:00.000	46986	N	0	0	0
	0:00.000	47132	N	0	0	0
	0:00.000	47234	N	0	0	0
	0:00.000	47238	N	0	0	0
	0:00.000	47242	N	0	0	0
	0:00.000	47535	N	0	0	0
	0:00.000	47807	N	0	0	0
	0:00.000	48084	N	0	0	0
	0:00.000	48365	N	0	0	0
	0:00.000	48656	N	0	0	0
	0:00.000	48973	N	0	0	0
	0:00.000	49254	N	0	0	0
	0:00.000	49507	N	0	0	0
	0:00.000	49754	N	0	0	0
	0:00.000	50016	N	0	0	0
	0:00.000	50287	N	0	0	0
	0:00.000	50582	N	0	0	0
	0:00.000	50881	N	0	0	0
	0:00.000	51176	N	0	0	0
	0:00.000	51472	N	0	0	0
	0:00.000	51614	N	0	0	0
	0:00.000	51710	N	0	0	0
	0:00.000	51715	N	0	0	0
	0:00.000	52011	N	0	0	0
	0:00.000	52273	N	0	0	0
	0:00.000	52536	N	0	0	0
	0:00.000	52825	N	0	0	0
	0:00.000	52832	N	0	0	0
	0:00.000	53114	N	0	0	0
	0:00.000	53349	N	0	0	0
	0:00.000	53359	N	0	0	0
	0:00.000	53362	N	0	0	0
	0:00.000	53396	N	0	0	0
	0:00.000	53400	N	0	0	0
	0:00.000	53402	N	0	0	0
	0:00.000	53667	N	0	0	0
	0:00.000	53925	N	0	0	0
	0:00.000	53932	N	0	0	0
	0:00.000	54185	N	0	0	0
	0:00.000	54437	N	0	0	0
	0:00.000	54444	N	0	0	0
	0:00.000	54708	N	0	0	0
	0:00.000	54720	N	0	0	0
	0:00.000	54989	N	0	0	0
	0:00.000	55003	N	0	0	0
	0:00.000	55282	N	0	0	0
	0:00.000	55581	N	0	0	0
	0:00.000	55869	N	0	0	0
	0:00.000	55999	N	0	0	0
	0:00.000	56102	N	0	0	0
	0:00.000	56107	N	0	0	0
	0:00.000	56434	N	0	0	0
	0:00.000	56454	N	0	0	0
	0:00.000	56721	N	0	0	0
	0:00.000	56738	N	0	0	0
	0:00.000	56742	N	0	0	0
	0:00.000	56744	N	0	0	0
	0:00.000	57016	N	0	0	0
	0:00.000	57021	N	0	0	0
	0:00.000	57027	N	0	0	0
	0:00.000	57033	N	0	0	0
	0:00.000	57039	N	0	0	0
	0:00.000	57044	N	0	0	0
	0:00.000	57340	N	0	0	0
	0:00.000	57343	N	0	0	0
	0:00.000	57640	N	0	0	0
	0:00.000	57655	N	0	0	0
	0:00.000	57937	N	0	0	0
	0:00.000	57947	N	0	0	0
	0:00.000	58080	N	0	0	0
	0:00.000	58174	N	0	0	0
	0:00.000	58244	N	0	0	0
	0:00.000	58698	N	0	0	0
	0:00.000	58989	N	0	0	0
	0:00.000	59006	N	0	0	0
	0:00.000	59283	N	0	0	0
	0:00.000	59300	N	0	0	0
	0:00.000	59568	N	0	0	0
	0:00.000	59856	N	0	0	0
	0:00.000	60126	N	0	0	0
	0:00.000	60391	N	0	0	0
	0:00.000	60657	N	0	0	0
	0:00.000	60830	N	0	0	0
	0:00.000	61237	N	0	0	0
	0:00.000	61544	N	0	0	0
	0:00.000	61862	N	0	0	0
	0:00.000	62097	N	0	0	0
	0:00.000	62452	N	0	0	0
	0:00.000	62720	N	0	0	0
	0:00.000	62906	N	0	0	0
	0:00.000	62986	N	0	0	0
	0:00.000	63010	N	0	0	0
	0:00.000	63296	N	0	0	0
	0:00.000	63579	N	0	0	0
	0:00.000	63891	N	0	0	0
	0:00.000	64203	N	0	0	0
	0:00.000	64487	N	0	0	0
	0:00.000	64764	N	0	0	0
	0:00.000	65037	N	0	0	0
	0:00.000	65329	N	0	0	0
	0:00.000	65637	N	0	0	0
	0:00.000	65949	N	0	0	0
	0:00.000	66277	N	0	0	0
	0:00.000	66591	N	0	0	0
	0:00.000	66877	N	0	0	0
	0:00.000	67151	N	0	0	0
	0:00.000	67434	N	0	0	0
	0:00.000	67581	N	0	0	0
	0:00.000	67685	N	0	0	0
	0:00.000	67691	N	0	0	0
	0:00.000	67695	N	0	0	0
	0:00.000	68060	N	0	0	0
	0:00.000	68365	N	0	0	0
	0:00.000	68654	N	0	0	0
	0:00.000	68937	N	0	0	0
	0:00.000	69200	N	0	0	0
	0:00.000	69339	N	0	0	0
	0:00.000	69413	N	0	0	0
	0:00.000	69419	N	0	0	0
	0:00.000	69429	N	0	0	0
	0:00.000	69436	N	0	0	0
	0:00.000	69731	N	0	0	0
	0:00.000	70009	N	0	0	0
	0:00.000	70023	N	0	0	0
	0:00.000	70295	N	0	0	0
	0:00.000	70569	N	0	0	0
	0:00.000	70583	N	0	0	0
	0:00.000	70852	N	0	0	0
	0:00.000	71103	N	0	0	0
	0:00.000	71352	N	0	0	0
	0:00.000	71514	N	0	0	0
	0:00.000	71615	N	0	0	0
	0:00.000	71620	N	0	0	0
	0:00.000	71861	N	0	0	0
	0:00.000	72119	N	0	0	0
	0:00.000	72389	N	0	0	0
	0:00.000	72403	N	0	0	0
	0:00.000	72660	N	0	0	0
	0:00.000	72671	N	0	0	0
	0:00.000	72925	N	0	0	0
	0:00.000	73097	N	0	0	0
	0:00.000	73411	N	0	0	0
	0:00.000	73645	N	0	0	0
	0:00.000	73897	N	0	0	0
	0:00.000	74146	N	0	0	0
	0:00.000	74407	N	0	0	0
	0:00.000	74416	N	0	0	0
	0:00.000	74661	N	0	0	0
	0:00.000	74924	N	0	0	0
	0:00.000	75173	N	0	0	0
	0:00.000	75422	N	0	0	0
	0:00.000	75658	N	0	0	0
	0:00.000	75898	N	0	0	0
	0:00.000	76152	N	0	0	0
	0:00.000	76156	N	0	0	0
	0:00.000	76337	N	0	0	0
	0:00.000	76757	N	0	0	0
	0:00.000	77047	N	0	0	0
	0:00.000	77341	N	0	0	0
	0:00.000	77616	N	0	0	0
	0:00.000	77886	N	0	0	0
	0:00.000	78156	N	0	0	0
	0:00.000	78461	N	0	0	0
	0:00.000	78467	N	0	0	0
	0:00.000	78472	N	0	0	0
	0:00.000	78718	N	0	0	0
	0:00.000	79026	N	0	0	0
	0:00.000	79327	N	0	0	0
	0:00.000	79501	N	0	0	0
	0:00.000	79866	N	0	0	0
	0:00.000	80121	N	0	0	0
	0:00.000	80399	N	0	0	0
	0:00.000	80679	N	0	0	0
	0:00.000	80826	N	0	0	0
	0:00.000	80928	N	0	0	0
	0:00.000	80935	N	0	0	0
	0:00.000	80939	N	0	0	0
	0:00.000	80945	N	0	0	0
	0:00.000	81259	N	0	0	0
	0:00.000	81559	N	0	0	0
	0:00.000	81833	N	0	0	0
	0:00.000	82090	N	0	0	0
	0:00.000	82347	N	0	0	0
	0:00.000	82493	N	0	0	0
	0:00.000	82590	N	0	0	0
	0:00.000	82595	N	0	0	0
	0:00.000	82906	N	0	0	0
	0:00.000	83208	N	0	0	0
	0:00.000	83502	N	0	0	0
	0:00.000	83781	N	0	0	0
	0:00.000	84059	N	0	0	0
	0:00.000	84325	N	0	0	0
	0:00.000	84595	N	0	0	0
	0:00.000	84871	N	0	0	0
	0:00.000	85168	N	0	0	0
	0:00.000	85483	N	0	0	0
	0:00.000	85807	N	0	0	0
	0:00.000	86101	N	0	0	0
	0:00.000	86239	N	0	0	0
	0:00.000	86339	N	0	0	0
	0:00.000	86344	N	0	0	0
	0:00.000	86508	N	0	0	0
	0:00.000	86512	N	0	0	0
	0:00.000	86921	N	0	0	0
	0:00.000	87216	N	0	0	0
	0:00.000	87511	N	0	0	0
	0:00.000	87804	N	0	0	0
	0:00.000	88098	N	0	0	0
	0:00.000	88376	N	0	0	0
	0:00.000	88642	N	0	0	0
	0:00.000	88904	N	0	0	0
	0:00.000	89193	N	0	0	0
	0:00.000	89484	N	0	0	0
	0:00.000	89776	N	0	0	0
	0:00.000	90061	N	0	0	0
	0:00.000	90337	N	0	0	0
	0:00.000	90597	N	0	0	0
	0:00.000	90855	N	0	0	0
	0:00.000	91106	N	0	0	0
	0:00.000	91247	N	0	0	0
	0:00.000	91339	N	0	0	0
	0:00.000	91344	N	0	0	0
	0:00.000	91349	N	0	0	0
	0:00.000	91627	N	0	0	0
	0:00.000	91913	N	0	0	0
	0:00.000	92062	N	0	0	0
	0:00.000	92168	N	0	0	0
	0:00.000	92173	N	0	0	0
	0:00.000	92179	N	0	0	0
	0:00.000	92183	N	0	0	0
	0:00.000	92452	N	0	0	0
	0:00.000	92701	N	0	0	0
	0:00.000	92832	N	0	0	0
	0:00.000	92923	N	0	0	0
	0:00.000	92928	N	0	0	0
	0:00.000	93198	N	0	0	0
	0:00.000	93462	N	0	0	0
	0:00.000	93609	N	0	0	0
	0:00.000	93692	N	0	0	0
	0:00.000	93710	N	0	0	0
	0:00.000	93716	N	0	0	0
	0:00.000	93721	N	0	0	0
	0:00.000	93725	N	0	0	0
	0:00.000	94028	N	0	0	0
	0:00.000	94335	N	0	0	0
	0:00.000	94634	N	0	0	0
	0:00.000	94896	N	0	0	0
	0:00.000	95164	N	0	0	0
	0:00.000	95434	N	0	0	0
	0:00.000	95729	N	0	0	0
	0:00.000	96040	N	0	0	0
	0:00.000	96349	N	0	0	0
	0:00.000	96505	N	0	0	0
	0:00.000	96613	N	0	0	0
	0:00.000	96615	N	0	0	0
	0:00.000	96618	N	0	0	0
	0:00.000	96624	N	0	0	0
	0:00.000	96629	N	0	0	0
	0:00.000	96973	N	0	0	0
	0:00.000	96984	N	0	0	0
	0:00.000	97255	N	0	0	0
	0:00.000	97267	N	0	0	0
	0:00.000	97539	N	0	0	0
	0:00.000	97708	N	0	0	0
	0:00.000	98167	N	0	0	0
	0:00.000	98178	N	0	0	0
	0:00.000	98489	N	0	0	0
	0:00.000	98802	N	0	0	0
	0:00.000	99092	N	0	0	0
	0:00.000	99103	N	0	0	0
	0:00.000	99236	N	0	0	0
	0:00.000	99319	N	0	0	0
	0:00.000	99332	N	0	0	0
	0:00.000	99337	N	0	0	0
	0:00.000	99343	N	0	0	0
	0:00.000	99667	N	0	0	0
	0:00.000	99950	N	0	0	0
	0:00.000	100245	N	0	0	0
	0:00.000	100545	N	0	0	0
	0:00.000	100866	N	0	0	0
	0:00.000	101163	N	0	0	0
	0:00.000	101441	N	0	0	0
	0:00.000	101725	N	0	0	0
	0:00.000	102021	N	0	0	0
	0:00.000	102320	N	0	0	0
	0:00.000	102624	N	0	0	0
	0:00.000	102636	N	0	0	0
	0:00.000	102931	N	0	0	0
	0:00.000	103242	N	0	0	0
	0:00.000	103525	N	0	0	0
	0:00.000	103782	N	0	0	0
	0:00.000	104048	N	0	0	0
	0:00.000	104341	N	0	0	0
	0:00.000	104634	N	0	0	0
	0:00.000	104939	N	0	0	0
	0:00.000	105244	N	0	0	0
	0:00.000	105529	N	0	0	0
	0:00.000	105815	N	0	0	0
	0:00.000	106097	N	0	0	0
	0:00.000	106382	N	0	0	0
	0:00.000	106557	N	0	0	0
	0:00.000	106669	N	0	0	0
	0:00.000	106748	N	0	0	0
	0:00.000	106832	N	0	0	0
	0:00.000	106845	N	0	0	0
	0:00.000	106862	N	0	0	0
	0:00.000	106866	N	0	0	0
	0:00.000	107306	N	0	0	0
	0:00.000	107609	N	0	0	0
	0:00.000	107850	N	0	0	0
	0:00.000	107864	N	0	0	0
	0:00.000	107869	N	0	0	0
	0:00.000	107875	N	0	0	0
	0:00.000	108162	N	0	0	0
	0:00.000	108446	N	0	0	0
	0:00.000	108717	N	0	0	0
	0:00.000	108995	N	0	0	0
	0:00.000	109287	N	0	0	0
	0:00.000	109584	N	0	0	0
	0:00.000	109856	N	0	0	0
	0:00.000	109867	N	0	0	0
	0:00.000	110106	N	0	0	0
	0:00.000	110367	N	0	0	0
	0:00.000	110637	N	0	0	0
	0:00.000	110647	N	0	0	0
	0:00.000	110931	N	0	0	0
	0:00.000	111241	N	0	0	0
	0:00.000	111252	N	0	0	0
	0:00.000	111544	N	0	0	0
	0:00.000	111860	N	0	0	0
	0:00.000	112157	N	0	0	0
	0:00.000	112433	N	0	0	0
	0:00.000	112574	N	0	0	0
	0:00.000	112676	N	0	0	0
	0:00.000	112682	N	0	0	0
	0:00.000	113049	N	0	0	0
	0:00.000	113583	N	0	0	0
	0:00.000	114075	N	0	0	0
	0:00.000	114360	N	0	0	0
	0:00.000	114646	N	0	0	0
	0:00.000	114953	N	0	0	0
	0:00.000	114963	N	0	0	0
	0:00.000	115275	N	0	0	0
	0:00.000	115419	N	0	0	0
	0:00.000	115516	N	0	0	0
	0:00.000	115521	N	0	0	0
	0:00.000	115527	N	0	0	0
	0:00.000	115893	N	0	0	0
	0:00.000	116196	N	0	0	0
	0:00.000	116483	N	0	0	0
	0:00.000	116621	N	0	0	0
	0:00.000	116714	N	0	0	0
	0:00.000	116720	N	0	0	0
	0:00.000	116725	N	0	0	0
	0:00.000	117027	N	0	0	0
	0:00.000	117310	N	0	0	0
	0:00.000	117614	N	0	0	0
	0:00.000	117908	N	0	0	0
	0:00.000	118193	N	0	0	0
	0:00.000	118477	N	0	0	0
	0:00.000	118753	N	0	0	0
	0:00.000	119024	N	0	0	0
	0:00.000	119303	N	0	0	0
	0:00.000	119475	N	0	0	0
	0:00.000	119898	N	0	0	0
	0:00.000	120207	N	0	0	0
	0:00.000	120508	N	0	0	0
	0:00.000	120776	N	0	0	0
	0:00.000	120786	N	0	0	0
	0:00.000	121047	N	0	0	0
	0:00.000	121324	N	0	0	0
	0:00.000	121613	N	0	0	0
	0:00.000	121910	N	0	0	0
	0:00.000	121921	N	0	0	0
	0:00.000	122206	N	0	0	0
	0:00.000	122522	N	0	0	0
	0:00.000	122823	N	0	0	0
	0:00.000	122833	N	0	0	0
	0:00.000	123098	N	0	0	0
	0:00.000	123234	N	0	0	0
	0:00.000	123314	N	0	0	0
	0:00.000	123329	N	0	0	0
	0:00.000	123332	N	0	0	0
	0:00.000	123337	N	0	0	0
	0:00.000	123494	N	0	0	0
	0:00.000	123500	N	0	0	0
	0:00.000	123506	N	0	0	0
	0:00.000	123525	N	0	0	0
	0:00.000	123615	N	0	0	0
	0:00.000	123621	N	0	0	0
	0:00.000	123625	N	0	0	0
	0:00.000	123627	N	0	0	0
	0:00.000	124071	N	0	0	0
	0:00.000	124377	N	0	0	0
	0:00.000	124673	N	0	0	0
	0:00.000	124955	N	0	0	0
	0:00.000	125222	N	0	0	0
	0:00.000	125385	N	0	0	0
	0:00.000	125389	N	0	0	0
	0:00.000	125748	N	0	0	0
	0:00.000	126025	N	0	0	0
	0:00.000	126226	N	0	0	0
	0:00.000	126228	N	0	0	0
	0:00.000	126612	N	0	0	0
	0:00.000	126899	N	0	0	0
	0:00.000	127073	N	0	0	0
	0:00.000	127425	N	0	0	0
	0:00.000	127683	N	0	0	0
	0:00.000	127947	N	0	0	0
	0:00.000	128205	N	0	0	0
	0:00.000	128481	N	0	0	0
	0:00.000	128757	N	0	0	0
	0:00.000	128945	N	0	0	0
	0:00.000	129333	N	0	0	0
	0:00.000	129585	N	0	0	0
	0:00.000	129714	N	0	0	0
	0:00.000	129812	N	0	0	0
	0:00.000	130129	N	0	0	0
	0:00.000	130416	N	0	0	0
	0:00.000	130710	N	0	0	0
	0:00.000	131000	N	0	0	0
	0:00.000	131291	N	0	0	0
	0:00.000	131575	N	0	0	0
	0:00.000	131586	N	0	0	0
	0:00.000	131855	N	0	0	0
	0:00.000	131864	N	0	0	0
	0:00.000	132135	N	0	0	0
	0:00.000	132144	N	0	0	0
	0:00.000	132420	N	0	0	0
	0:00.000	132433	N	0	0	0
	0:00.000	132752	N	0	0	0
	0:00.000	132764	N	0	0	0
	0:00.000	133086	N	0	0	0
	0:00.000	133403	N	0	0	0
	0:00.000	133412	N	0	0	0
	0:00.000	133702	N	0	0	0
	0:00.000	133712	N	0	0	0
	0:00.000	133985	N	0	0	0
	0:00.000	134125	N	0	0	0
	0:00.000	134222	N	0	0	0
	0:00.000	134234	N	0	0	0
	0:00.000	134240	N	0	0	0
	0:00.000	134606	N	0	0	0
	0:00.000	134920	N	0	0	0
	0:00.000	135267	N	0	0	0
	0:00.000	135590	N	0	0	0
	0:00.000	135870	N	0	0	0
	0:00.000	136140	N	0	0	0
	0:00.000	136405	N	0	0	0
	0:00.000	136681	N	0	0	0
	0:00.000	136962	N	0	0	0
	0:00.000	137249	N	0	0	0
	0:00.000	137535	N	0	0	0
	0:00.000	137832	N	0	0	0
	0:00.000	138095	N	0	0	0
	0:00.000	138344	N	0	0	0
	0:00.000	138606	N	0	0	0
	0:00.000	138877	N	0	0	0
	0:00.000	139179	N	0	0	0
	0:00.000	139491	N	0	0	0
	0:00.000	139798	N	0	0	0
	0:00.000	140097	N	0	0	0
	0:00.000	140391	N	0	0	0
	0:00.000	140532	N	0	0	0
	0:00.000	140625	N	0	0	0
	0:00.000	140631	N	0	0	0
	0:00.000	140972	N	0	0	0
	0:00.000	141280	N	0	0	0
	0:00.000	141607	N	0	0	0
	0:00.000	141814	N	0	0	0
	0:00.000	141922	N	0	0	0
	0:00.000	141925	N	0	0	0
	0:00.000	141932	N	0	0	0
	0:00.000	142250	N	0	0	0
	0:00.000	142548	N	0	0	0
	0:00.000	142837	N	0	0	0
	0:00.000	143134	N	0	0	0
	0:00.000	143438	N	0	0	0
	0:00.000	143751	N	0	0	0
	0:00.000	144079	N	0	0	0
	0:00.000	144399	N	0	0	0
	0:00.000	144682	N	0	0	0
	0:00.000	144819	N	0	0	0
	0:00.000	144899	N	0	0	0
	0:00.000	144921	N	0	0	0
	0:00.000	144927	N	0	0	0
	0:00.000	145286	N	0	0	0
	0:00.000	145599	N	0	0	0
	0:00.000	145916	N	0	0	0
	0:00.000	146228	N	0	0	0
	0:00.000	146528	N	0	0	0
	0:00.000	146817	N	0	0	0
	0:00.000	147089	N	0	0	0
	0:00.000	147372	N	0	0	0
	0:00.000	147569	N	0	0	0
	0:00.000	147683	N	0	0	0
	0:00.000	147688	N	0	0	0
	0:00.000	147693	N	0	0	0
	0:00.000	148013	N	0	0	0
	0:00.000	148328	N	0	0	0
	0:00.000	148625	N	0	0	0
	0:00.000	148780	N	0	0	0
	0:00.000	148871	N	0	0	0
	0:00.000	148876	N	0	0	0
	0:00.000	148881	N	0	0	0
	0:00.000	149183	N	0	0	0
	0:00.000	149469	N	0	0	0
	0:00.000	149751	N	0	0	0
	0:00.000	150041	N	0	0	0
	0:00.000	150364	N	0	0	0
	0:00.000	150677	N	0	0	0
	0:00.000	150966	N	0	0	0
	0:00.000	151251	N	0	0	0
	0:00.000	151540	N	0	0	0
	0:00.000	151847	N	0	0	0
	0:00.000	152165	N	0	0	0
	0:00.000	152467	N	0	0	0
	0:00.000	152788	N	0	0	0
	0:00.000	153086	N	0	0	0
	0:00.000	153232	N	0	0	0
	0:00.000	153324	N	0	0	0
	0:00.000	153331	N	0	0	0
	0:00.000	153335	N	0	0	0
	0:00.000	153641	N	0	0	0
	0:00.000	153928	N	0	0	0
	0:00.000	154221	N	0	0	0
	0:00.000	154529	N	0	0	0
	0:00.000	154824	N	0	0	0
	0:00.000	155099	N	0	0	0
	0:00.000	155363	N	0	0	0
	0:00.000	155617	N	0	0	0
	0:00.000	155868	N	0	0	0
	0:00.000	156034	N	0	0	0
	0:00.000	156372	N	0	0	0
	0:00.000	156631	N	0	0	0
	0:00.000	156907	N	0	0	0
	0:00.000	157188	N	0	0	0
	0:00.000	157447	N	0	0	0
	0:00.000	157695	N	0	0	0
	0:00.000	157961	N	0	0	0
	0:00.000	158244	N	0	0	0
	0:00.000	158537	N	0	0	0
	0:00.000	158843	N	0	0	0
	0:00.000	159155	N	0	0	0
	0:00.000	159465	N	0	0	0
	0:00.000	159613	N	0	0	0
	0:00.000	159709	N	0	0	0
	0:00.000	159713	N	0	0	0
	0:00.000	159718	N	0	0	0
	0:00.000	160048	N	0	0	0
	0:00.000	160343	N	0	0	0
	0:00.000	160662	N	0	0	0
	0:00.000	160843	N	0	0	0
	0:00.000	161291	N	0	0	0
	0:00.000	161592	N	0	0	0
	0:00.000	161872	N	0	0	0
	0:00.000	162138	N	0	0	0
	0:00.000	162401	N	0	0	0
	0:00.000	162671	N	0	0	0
	0:00.000	162870	N	0	0	0
	0:00.000	163303	N	0	0	0
	0:00.000	163621	N	0	0	0
	0:00.000	163925	N	0	0	0
	0:00.000	164211	N	0	0	0
	0:00.000	164496	N	0	0	0
	0:00.000	164800	N	0	0	0
	0:00.000	164955	N	0	0	0
	0:00.000	165055	N	0	0	0
	0:00.000	165066	N	0	0	0
	0:00.000	165411	N	0	0	0
	0:00.000	165739	N	0	0	0
	0:00.000	166033	N	0	0	0
	0:00.000	166294	N	0	0	0
	0:00.000	166557	N	0	0	0
	0:00.000	166719	N	0	0	0
	0:00.000	167129	N	0	0	0
	0:00.000	167441	N	0	0	0
	0:00.000	167736	N	0	0	0
	0:00.000	168034	N	0	0	0
	0:00.000	168308	N	0	0	0
	0:00.000	168575	N	0	0	0
	0:00.000	168786	N	0	0	0
	0:00.000	168792	N	0	0	0
	0:00.000	168835	N	0	0	0
	0:00.000	168837	N	0	0	0
	0:00.000	168839	N	0	0	0
	0:00.000	169123	N	0	0	0
	0:00.000	169413	N	0	0	0
	0:00.000	169712	N	0	0	0
	0:00.000	170001	N	0	0	0
	0:00.000	170268	N	0	0	0
	0:00.000	170526	N	0	0	0
	0:00.000	170777	N	0	0	0
	0:00.000	171035	N	0	0	0
	0:00.000	171293	N	0	0	0
	0:00.000	171480	N	0	0	0
	0:00.000	171847	N	0	0	0
	0:00.000	172140	N	0	0	0
	0:00.000	172425	N	0	0	0
	0:00.000	172685	N	0	0	0
	0:00.000	172819	N	0	0	0
	0:00.000	172914	N	0	0	0
	0:00.000	172920	N	0	0	0
	0:00.000	173229	N	0	0	0
	0:00.000	173507	N	0	0	0
	0:00.000	173798	N	0	0	0
	0:00.000	174098	N	0	0	0
	0:00.000	174399	N	0	0	0
	0:00.000	174690	N	0	0	0
	0:00.000	174964	N	0	0	0
	0:00.000	175229	N	0	0	0
	0:00.000	175523	N	0	0	0
	0:00.000	175841	N	0	0	0
	0:00.000	176161	N	0	0	0
	0:00.000	176470	N	0	0	0
	0:00.000	176786	N	0	0	0
	0:00.000	177078	N	0	0	0
	0:00.000	177374	N	0	0	0
	0:00.000	177677	N	0	0	0
	0:00.000	177988	N	0	0	0
	0:00.000	178154	N	0	0	0
	0:00.000	178267	N	0	0	0
	0:00.000	178269	N	0	0	0
	0:00.000	178272	N	0	0	0
	0:00.000	178655	N	0	0	0
	0:00.000	178855	N	0	0	0
	0:00.000	178956	N	0	0	0
	0:00.000	178962	N	0	0	0
	0:00.000	178967	N	0	0	0
	0:00.000	179230	N	0	0	0
	0:00.000	179499	N	0	0	0
	0:00.000	179778	N	0	0	0
	0:00.000	180058	N	0	0	0
	0:00.000	180342	N	0	0	0
	0:00.000	180639	N	0	0	0
	0:00.000	180933	N	0	0	0
	0:00.000	181208	N	0	0	0
	0:00.000	181348	N	0	0	0
	0:00.000	181440	N	0	0	0
	0:00.000	181445	N	0	0	0
	0:00.000	181451	N	0	0	0
	0:00.000	181730	N	0	0	0
	0:00.000	182004	N	0	0	0
	0:00.000	182290	N	0	0	0
	0:00.000	182571	N	0	0	0
	0:00.000	182844	N	0	0	0
	0:00.000	183123	N	0	0	0
	0:00.000	183386	N	0	0	0
	0:00.000	183634	N	0	0	0
	0:00.000	183873	N	0	0	0
	0:00.000	184045	N	0	0	0
	0:00.000	184389	N	0	0	0
	0:00.000	184668	N	0	0	0
	0:00.000	184942	N	0	0	0
	0:00.000	185209	N	0	0	0
	0:00.000	185464	N	0	0	0
	0:00.000	185720	N	0	0	0
	0:00.000	185966	N	0	0	0
	0:00.000	186228	N	0	0	0
	0:00.000	186505	N	0	0	0
	0:00.000	186796	N	0	0	0
	0:00.000	187106	N	0	0	0
	0:00.000	187421	N	0	0	0
	0:00.000	187699	N	0	0	0
	0:00.000	187965	N	0	0	0
	0:00.000	188246	N	0	0	0
	0:00.000	188521	N	0	0	0
	0:00.000	188803	N	0	0	0
	0:00.000	189088	N	0	0	0
	0:00.000	189372	N	0	0	0
	0:00.000	189650	N	0	0	0
	0:00.000	189918	N	0	0	0
	0:00.000	190163	N	0	0	0
	0:00.000	190321	N	0	0	0
	0:00.000	190674	N	0	0	0
	0:00.000	190956	N	0	0	0
	0:00.000	191239	N	0	0	0
	0:00.000	191514	N	0	0	0
	0:00.000	191786	N	0	0	0
	0:00.000	191948	N	0	0	0
	0:00.000	192300	N	0	0	0
	0:00.000	192557	N	0	0	0
	0:00.000	192822	N	0	0	0
	0:00.000	193092	N	0	0	0
	0:00.000	193393	N	0	0	0
	0:00.000	193575	N	0	0	0
	0:00.000	193987	N	0	0	0
	0:00.000	194255	N	0	0	0
	0:00.000	194523	N	0	0	0
	0:00.000	194800	N	0	0	0
	0:00.000	195090	N	0	0	0
	0:00.000	195264	N	0	0	0
	0:00.000	195368	N	0	0	0
	0:00.000	195671	N	0	0	0
	0:00.000	195989	N	0	0	0
	0:00.000	196173	N	0	0	0
	0:00.000	196533	N	0	0	0
	0:00.000	196796	N	0	0	0
	0:00.000	196968	N	0	0	0
	0:00.000	197342	N	0	0	0
	0:00.000	197626	N	0	0	0
	0:00.000	197817	N	0	0	0
	0:00.000	197820	N	0	0	0
	0:00.000	198180	N	0	0	0
	0:00.000	198452	N	0	0	0
	0:00.000	198702	N	0	0	0
	0:00.000	198944	N	0	0	0
	0:00.000	199194	N	0	0	0
	0:00.000	199368	N	0	0	0
	0:00.000	199725	N	0	0	0
	0:00.000	200006	N	0	0	0
	0:00.000	200274	N	0	0	0
	0:00.000	200523	N	0	0	0
	0:00.000	200764	N	0	0	0
	0:00.000	200933	N	0	0	0
	0:00.000	201266	N	0	0	0
	0:00.000	201511	N	0	0	0
	0:00.000	201776	N	0	0	0
	0:00.000	202042	N	0	0	0
	0:00.000	202044	N	0	0	0
	0:00.000	202324	N	0	0	0
	0:00.000	202516	N	0	0	0
	0:00.000	202863	N	0	0	0
	0:00.000	203108	N	0	0	0
	0:00.000	203246	N	0	0	0
	0:00.000	203350	N	0	0	0
	0:00.000	203354	N	0	0	0
	0:00.000	203652	N	0	0	0
	0:00.000	203936	N	0	0	0
	0:00.000	204225	N	0	0	0
	0:00.000	204518	N	0	0	0
	0:00.000	204809	N	0	0	0
	0:00.000	205078	N	0	0	0
	0:00.000	205089	N	0	0	0
	0:00.000	205335	N	0	0	0
	0:00.000	205346	N	0	0	0
	0:00.000	205590	N	0	0	0
	0:00.000	205604	N	0	0	0
	0:00.000	205870	N	0	0	0
	0:00.000	206168	N	0	0	0
	0:00.000	206181	N	0	0	0
	0:00.000	206470	N	0	0	0
	0:00.000	206486	N	0	0	0
	0:00.000	206752	N	0	0	0
	0:00.000	206762	N	0	0	0
	0:00.000	207021	N	0	0	0
	0:00.000	207031	N	0	0	0
	0:00.000	207275	N	0	0	0
	0:00.000	207526	N	0	0	0
	0:00.000	207537	N	0	0	0
	0:00.000	207774	N	0	0	0
	0:00.000	208025	N	0	0	0
	0:00.000	208037	N	0	0	0
	0:00.000	208293	N	0	0	0
	0:00.000	208580	N	0	0	0
	0:00.000	208593	N	0	0	0
	0:00.000	208856	N	0	0	0
	0:00.000	208870	N	0	0	0
	0:00.000	209109	N	0	0	0
	0:00.000	209124	N	0	0	0
	0:00.000	209350	N	0	0	0
	0:00.000	209362	N	0	0	0
	0:00.000	209581	N	0	0	0
	0:00.000	209822	N	0	0	0
	0:00.000	209834	N	0	0	0
	0:00.000	210086	N	0	0	0
	0:00.000	210098	N	0	0	0
	0:00.000	210344	N	0	0	0
	0:00.000	210357	N	0	0	0
	0:00.000	210607	N	0	0	0
	0:00.000	210619	N	0	0	0
	0:00.000	210893	N	0	0	0
	0:00.000	210905	N	0	0	0
	0:00.000	211185	N	0	0	0
	0:00.000	211450	N	0	0	0
	0:00.000	211461	N	0	0	0
	0:00.000	211696	N	0	0	0
	0:00.000	211707	N	0	0	0
	0:00.000	211958	N	0	0	0
	0:00.000	212225	N	0	0	0
	0:00.000	212237	N	0	0	0
	0:00.000	212395	N	0	0	0
	0:00.000	212500	N	0	0	0
	0:00.000	212506	N	0	0	0
	0:00.000	212825	N	0	0	0
	0:00.000	213107	N	0	0	0
	0:00.000	213412	N	0	0	0
	0:00.000	213690	N	0	0	0
	0:00.000	213952	N	0	0	0
	0:00.000	214221	N	0	0	0
	0:00.000	214501	N	0	0	0
	0:00.000	214803	N	0	0	0
	0:00.000	215116	N	0	0	0
	0:00.000	215411	N	0	0	0
	0:00.000	215689	N	0	0	0
	0:00.000	215968	N	0	0	0
	0:00.000	216242	N	0	0	0
	0:00.000	216515	N	0	0	0
	0:00.000	216797	N	0	0	0
	0:00.000	217092	N	0	0	0
	0:00.000	217390	N	0	0	0
	0:00.000	217692	N	0	0	0
	0:00.000	217967	N	0	0	0
	0:00.000	218226	N	0	0	0
	0:00.000	218509	N	0	0	0
	0:00.000	218710	N	0	0	0
	0:00.000	218819	N	0	0	0
	0:00.000	218825	N	0	0	0
	0:00.000	219087	N	0	0	0
	0:00.000	219383	N	0	0	0
	0:00.000	219674	N	0	0	0
	0:00.000	219968	N	0	0	0
	0:00.000	220237	N	0	0	0
	0:00.000	220501	N	0	0	0
	0:00.000	220776	N	0	0	0
	0:00.000	221077	N	0	0	0
	0:00.000	221388	N	0	0	0
	0:00.000	221687	N	0	0	0
	0:00.000	221995	N	0	0	0
	0:00.000	222286	N	0	0	0
	0:00.000	222570	N	0	0	0
	0:00.000	222856	N	0	0	0
	0:00.000	223147	N	0	0	0
	0:00.000	223463	N	0	0	0
	0:00.000	223627	N	0	0	0
	0:00.000	223729	N	0	0	0
	0:00.000	223734	N	0	0	0
	0:00.000	223738	N	0	0	0
	0:00.000	223745	N	0	0	0
	0:00.000	224117	N	0	0	0
	0:00.000	224413	N	0	0	0
	0:00.000	224690	N	0	0	0
	0:00.000	224980	N	0	0	0
	0:00.000	225279	N	0	0	0
	0:00.000	225428	N	0	0	0
	0:00.000	225540	N	0	0	0
	0:00.000	225908	N	0	0	0
	0:00.000	226234	N	0	0	0
	0:00.000	226530	N	0	0	0
	0:00.000	226665	N	0	0	0
	0:00.000	226759	N	0	0	0
	0:00.000	226765	N	0	0	0
	0:00.000	227094	N	0	0	0
	0:00.000	227376	N	0	0	0
	0:00.000	227692	N	0	0	0
	0:00.000	227996	N	0	0	0
	0:00.000	228309	N	0	0	0
	0:00.000	228617	N	0	0	0
	0:00.000	228899	N	0	0	0
	0:00.000	229180	N	0	0	0
	0:00.000	229463	N	0	0	0
	0:00.000	229765	N	0	0	0
	0:00.000	230080	N	0	0	0
	0:00.000	230402	N	0	0	0
	0:00.000	230709	N	0	0	0
	0:00.000	230989	N	0	0	0
	0:00.000	231280	N	0	0	0
	0:00.000	231418	N	0	0	0
	0:00.000	231517	N	0	0	0
	0:00.000	231523	N	0	0	0
	0:00.000	231861	N	0	0	0
	0:00.000	232167	N	0	0	0
	0:00.000	232460	N	0	0	0
	0:00.000	232641	N	0	0	0
	0:00.000	233054	N	0	0	0
	0:00.000	233311	N	0	0	0
	0:00.000	233501	N	0	0	0
	0:00.000	233868	N	0	0	0
	0:00.000	234154	N	0	0	0
	0:00.000	234338	N	0	0	0
	0:00.000	234742	N	0	0	0
	0:00.000	235022	N	0	0	0
	0:00.000	235190	N	0	0	0
	0:00.000	235559	N	0	0	0
	0:00.000	235813	N	0	0	0
	0:00.000	235978	N	0	0	0
	0:00.000	236377	N	0	0	0
	0:00.000	236673	N	0	0	0
	0:00.000	236959	N	0	0	0
	0:00.000	237239	N	0	0	0
	0:00.000	237498	N	0	0	0
	0:00.000	237757	N	0	0	0
	0:00.000	238024	N	0	0	0
	0:00.000	238289	N	0	0	0
	0:00.000	238579	N	0	0	0
	0:00.000	238778	N	0	0	0
	0:00.000	239216	N	0	0	0
	0:00.000	239490	N	0	0	0
	0:00.000	239769	N	0	0	0
	0:00.000	240040	N	0	0	0
	0:00.000	240337	N	0	0	0
	0:00.000	240637	N	0	0	0
	0:00.000	240946	N	0	0	0
	0:00.000	241274	N	0	0	0
	0:00.000	241590	N	0	0	0
	0:00.000	241879	N	0	0	0
	0:00.000	242014	N	0	0	0
	0:00.000	242111	N	0	0	0
	0:00.000	242113	N	0	0	0
	0:00.000	242115	N	0	0	0
	0:00.000	242481	N	0	0	0
	0:00.000	242810	N	0	0	0
	0:00.000	243147	N	0	0	0
	0:00.000	243477	N	0	0	0
	0:00.000	243804	N	0	0	0
	0:00.000	244100	N	0	0	0
	0:00.000	244388	N	0	0	0
	0:00.000	244688	N	0	0	0
	0:00.000	244832	N	0	0	0
	0:00.000	244935	N	0	0	0
	0:00.000	244942	N	0	0	0
	0:00.000	244947	N	0	0	0
	0:00.000	245346	N	0	0	0
	0:00.000	245662	N	0	0	0
	0:00.000	245953	N	0	0	0
	0:00.000	246228	N	0	0	0
	0:00.000	246502	N	0	0	0
	0:00.000	246788	N	0	0	0
	0:00.000	247078	N	0	0	0
	0:00.000	247240	N	0	0	0
	0:00.000	247343	N	0	0	0
	0:00.000	247348	N	0	0	0
	0:00.000	247708	N	0	0	0
	0:00.000	248013	N	0	0	0
	0:00.000	248293	N	0	0	0
	0:00.000	248562	N	0	0	0
	0:00.000	248854	N	0	0	0
	0:00.000	249021	N	0	0	0
	0:00.000	249440	N	0	0	0
	0:00.000	249732	N	0	0	0
	0:00.000	250028	N	0	0	0
	0:00.000	250310	N	0	0	0
	0:00.000	250573	N	0	0	0
	0:00.000	250832	N	0	0	0
	0:00.000	251105	N	0	0	0
	0:00.000	251412	N	0	0	0
	0:00.000	251716	N	0	0	0
	0:00.000	252008	N	0	0	0
	0:00.000	252311	N	0	0	0
	0:00.000	252589	N	0	0	0
	0:00.000	252875	N	0	0	0
	0:00.000	253013	N	0	0	0
	0:00.000	253115	N	0	0	0
	0:00.000	253118	N	0	0	0
	0:00.000	253120	N	0	0	0
	0:00.000	253451	N	0	0	0
	0:00.000	253767	N	0	0	0
	0:00.000	254081	N	0	0	0
	0:00.000	254244	N	0	0	0
	0:00.000	254345	N	0	0	0
	0:00.000	254350	N	0	0	0
	0:00.000	254663	N	0	0	0
	0:00.000	254933	N	0	0	0
	0:00.000	255201	N	0	0	0
	0:00.000	255481	N	0	0	0
	0:00.000	255754	N	0	0	0
	0:00.000	255899	N	0	0	0
	0:00.000	256007	N	0	0	0
	0:00.000	256013	N	0	0	0
	0:00.000	256328	N	0	0	0
	0:00.000	256616	N	0	0	0
	0:00.000	256875	N	0	0	0
	0:00.000	257128	N	0	0	0
	0:00.000	257388	N	0	0	0
	0:00.000	257660	N	0	0	0
	0:00.000	257953	N	0	0	0
	0:00.000	258245	N	0	0	0
	0:00.000	258533	N	0	0	0
	0:00.000	258691	N	0	0	0
	0:00.000	258799	N	0	0	0
	0:00.000	258804	N	0	0	0
	0:00.000	258807	N	0	0	0
	0:00.000	259124	N	0	0	0
	0:00.000	259393	N	0	0	0
	0:00.000	259669	N	0	0	0
	0:00.000	259680	N	0	0	0
	0:00.000	259955	N	0	0	0
	0:00.000	260256	N	0	0	0
	0:00.000	260567	N	0	0	0
	0:00.000	260870	N	0	0	0
	0:00.000	261153	N	0	0	0
	0:00.000	261439	N	0	0	0
	0:00.000	261714	N	0	0	0
	0:00.000	261999	N	0	0	0
	0:00.000	262296	N	0	0	0
	0:00.000	262598	N	0	0	0
	0:00.000	262911	N	0	0	0
	0:00.000	263204	N	0	0	0
	0:00.000	263471	N	0	0	0
	0:00.000	263735	N	0	0	0
	0:00.000	263882	N	0	0	0
	0:00.000	263978	N	0	0	0
	0:00.000	263989	N	0	0	0
	0:00.000	263992	N	0	0	0
	0:00.000	263995	N	0	0	0
	0:00.000	264313	N	0	0	0
	0:00.000	264599	N	0	0	0
	0:00.000	264889	N	0	0	0
	0:00.000	265180	N	0	0	0
	0:00.000	265462	N	0	0	0
	0:00.000	265726	N	0	0	0
	0:00.000	265993	N	0	0	0
	0:00.000	266269	N	0	0	0
	0:00.000	266574	N	0	0	0
	0:00.000	266890	N	0	0	0
	0:00.000	267194	N	0	0	0
	0:00.000	267500	N	0	0	0
	0:00.000	267781	N	0	0	0
	0:00.000	268065	N	0	0	0
	0:00.000	268358	N	0	0	0
	0:00.000	268369	N	0	0	0
	0:00.000	268649	N	0	0	0
	0:00.000	268975	N	0	0	0
	0:00.000	268987	N	0	0	0
	0:00.000	269305	N	0	0	0
	0:00.000	269318	N	0	0	0
	0:00.000	269619	N	0	0	0
	0:00.000	269630	N	0	0	0
	0:00.000	269918	N	0	0	0
	0:00.000	269929	N	0	0	0
	0:00.000	270201	N	0	0	0
	0:00.000	270212	N	0	0	0
	0:00.000	270511	N	0	0	0
	0:00.000	270522	N	0	0	0
	0:00.000	270831	N	0	0	0
	0:00.000	270843	N	0	0	0
	0:00.000	271152	N	0	0	0
	0:00.000	271162	N	0	0	0
	0:00.000	271481	N	0	0	0
	0:00.000	271492	N	0	0	0
	0:00.000	271495	N	0	0	0
	0:00.000	271815	N	0	0	0
	0:00.000	271826	N	0	0	0
	0:00.000	272108	N	0	0	0
	0:00.000	272117	N	0	0	0
	0:00.000	272399	N	0	0	0
	0:00.000	272703	N	0	0	0
	0:00.000	272713	N	0	0	0
	0:00.000	272948	N	0	0	0
	0:00.000	272985	N	0	0	0
	0:00.000	272990	N	0	0	0
	0:00.000	272995	N	0	0	0
	0:00.000	273378	N	0	0	0
	0:00.000	273694	N	0	0	0
	0:00.000	274011	N	0	0	0
	0:00.000	274307	N	0	0	0
	0:00.000	274449	N	0	0	0
	0:00.000	274516	N	0	0	0
	0:00.000	274545	N	0	0	0
	0:00.000	274874	N	0	0	0
	0:00.000	275170	N	0	0	0
	0:00.000	275471	N	0	0	0
	0:00.000	275779	N	0	0	0
	0:00.000	276066	N	0	0	0
	0:00.000	276075	N	0	0	0
	0:00.000	276331	N	0	0	0
	0:00.000	276605	N	0	0	0
	0:00.000	276881	N	0	0	0
	0:00.000	277147	N	0	0	0
	0:00.000	277439	N	0	0	0
	0:00.000	277732	N	0	0	0
	0:00.000	277894	N	0	0	0
	0:00.000	277972	N	0	0	0
	0:00.000	277996	N	0	0	0
	0:00.000	278008	N	0	0	0
	0:00.000	278326	N	0	0	0
	0:00.000	278588	N	0	0	0
	0:00.000	278848	N	0	0	0
	0:00.000	279132	N	0	0	0
	0:00.000	279416	N	0	0	0
	0:00.000	279700	N	0	0	0
	0:00.000	279998	N	0	0	0
	0:00.000	280292	N	0	0	0
	0:00.000	280584	N	0	0	0
	0:00.000	280721	N	0	0	0
	0:00.000	280816	N	0	0	0
	0:00.000	280823	N	0	0	0
	0:00.000	281134	N	0	0	0
	0:00.000	281422	N	0	0	0
	0:00.000	281605	N	0	0	0
	0:00.000	282045	N	0	0	0
	0:00.000	282338	N	0	0	0
	0:00.000	282629	N	0	0	0
	0:00.000	282909	N	0	0	0
	0:00.000	283184	N	0	0	0
	0:00.000	283468	N	0	0	0
	0:00.000	283608	N	0	0	0
	0:00.000	283686	N	0	0	0
	0:00.000	283703	N	0	0	0
	0:00.000	283715	N	0	0	0
	0:00.000	283720	N	0	0	0
	0:00.000	283724	N	0	0	0
	0:00.000	284095	N	0	0	0
	0:00.000	284410	N	0	0	0
	0:00.000	284717	N	0	0	0
	0:00.000	285001	N	0	0	0
	0:00.000	285011	N	0	0	0
	0:00.000	285280	N	0	0	0
	0:00.000	285291	N	0	0	0
	0:00.000	285444	N	0	0	0
	0:00.000	285546	N	0	0	0
	0:00.000	285551	N	0	0	0
	0:00.000	285556	N	0	0	0
	0:00.000	285879	N	0	0	0
	0:00.000	286176	N	0	0	0
	0:00.000	286187	N	0	0	0
	0:00.000	286506	N	0	0	0
	0:00.000	286821	N	0	0	0
	0:00.000	287110	N	0	0	0
	0:00.000	287391	N	0	0	0
	0:00.000	287676	N	0	0	0
	0:00.000	287851	N	0	0	0
	0:00.000	287948	N	0	0	0
	0:00.000	287958	N	0	0	0
	0:00.000	287961	N	0	0	0
	0:00.000	288318	N	0	0	0
	0:00.000	288631	N	0	0	0
	0:00.000	288641	N	0	0	0
	0:00.000	288948	N	0	0	0
	0:00.000	289247	N	0	0	0
	0:00.000	289527	N	0	0	0
	0:00.000	289804	N	0	0	0
	0:00.000	290094	N	0	0	0
	0:00.000	290250	N	0	0	0
	0:00.000	290358	N	0	0	0
	0:00.000	290360	N	0	0	0
	0:00.000	290363	N	0	0	0
	0:00.000	290724	N	0	0	0
	0:00.000	291029	N	0	0	0
	0:00.000	291307	N	0	0	0
	0:00.000	291588	N	0	0	0
	0:00.000	291854	N	0	0	0
	0:00.000	291996	N	0	0	0
	0:00.000	292064	N	0	0	0
	0:00.000	292092	N	0	0	0
	0:00.000	292096	N	0	0	0
	0:00.000	292392	N	0	0	0
	0:00.000	292672	N	0	0	0
	0:00.000	292959	N	0	0	0
	0:00.000	293243	N	0	0	0
	0:00.000	293508	N	0	0	0
	0:00.000	293763	N	0	0	0
	0:00.000	294026	N	0	0	0
	0:00.000	294302	N	0	0	0
	0:00.000	294579	N	0	0	0
	0:00.000	294865	N	0	0	0
	0:00.000	295161	N	0	0	0
	0:00.000	295459	N	0	0	0
	0:00.000	295755	N	0	0	0
	0:00.000	295893	N	0	0	0
	0:00.000	295993	N	0	0	0
	0:00.000	295998	N	0	0	0
	0:00.000	296005	N	0	0	0
	0:00.000	296328	N	0	0	0
	0:00.000	296630	N	0	0	0
	0:00.000	296942	N	0	0	0
	0:00.000	296953	N	0	0	0
	0:00.000	297241	N	0	0	0
	0:00.000	297253	N	0	0	0
	0:00.000	297549	N	0	0	0
	0:00.000	297559	N	0	0	0
	0:00.000	297716	N	0	0	0
	0:00.000	297811	N	0	0	0
	0:00.000	297817	N	0	0	0
	0:00.000	298143	N	0	0	0
	0:00.000	298426	N	0	0	0
	0:00.000	298712	N	0	0	0
	0:00.000	298724	N	0	0	0
	0:00.000	299019	N	0	0	0
	0:00.000	299186	N	0	0	0
	0:00.000	299289	N	0	0	0
	0:00.000	299294	N	0	0	0
	0:00.000	299300	N	0	0	0
	0:00.000	299305	N	0	0	0
	0:00.000	299662	N	0	0	0
	0:00.000	299947	N	0	0	0
	0:00.000	300228	N	0	0	0
	0:00.000	300510	N	0	0	0
	0:00.000	300800	N	0	0	0
	0:00.000	301096	N	0	0	0
	0:00.000	301398	N	0	0	0
	0:00.000	301556	N	0	0	0
	0:00.000	301671	N	0	0	0
	0:00.000	301673	N	0	0	0
	0:00.000	301678	N	0	0	0
	0:00.000	301767	N	0	0	0
	0:00.000	301911	N	0	0	0
	0:00.000	302019	N	0	0	0
	0:00.000	302022	N	0	0	0
	0:00.000	302024	N	0	0	0
	0:00.000	302402	N	0	0	0
	0:00.000	302670	N	0	0	0
	0:00.000	302948	N	0	0	0
	0:00.000	303238	N	0	0	0
	0:00.000	303523	N	0	0	0
	0:00.000	303711	N	0	0	0
	0:00.000	304094	N	0	0	0
	0:00.000	304362	N	0	0	0
	0:00.000	304626	N	0	0	0
	0:00.000	304875	N	0	0	0
	0:00.000	305139	N	0	0	0
	0:00.000	305410	N	0	0	0
	0:00.000	305702	N	0	0	0
	0:00.000	305992	N	0	0	0
	0:00.000	306281	N	0	0	0
	0:00.000	306559	N	0	0	0
	0:00.000	306703	N	0	0	0
	0:00.000	306798	N	0	0	0
	0:00.000	306803	N	0	0	0
	0:00.000	306808	N	0	0	0
	0:00.000	306831	N	0	0	0
	0:00.000	306862	N	0	0	0
	0:00.000	306960	N	0	0	0
	0:00.000	306963	N	0	0	0
	0:00.000	307342	N	0	0	0
	0:00.000	307637	N	0	0	0
	0:00.000	307939	N	0	0	0
	0:00.000	308254	N	0	0	0
	0:00.000	308546	N	0	0	0
	0:00.000	308819	N	0	0	0
	0:00.000	308830	N	0	0	0
	0:00.000	308997	N	0	0	0
	0:00.000	309101	N	0	0	0
	0:00.000	309106	N	0	0	0
	0:00.000	309423	N	0	0	0
	0:00.000	309431	N	0	0	0
	0:00.000	309720	N	0	0	0
	0:00.000	309730	N	0	0	0
	0:00.000	310037	N	0	0	0
	0:00.000	310049	N	0	0	0
	0:00.000	310350	N	0	0	0
	0:00.000	310511	N	0	0	0
	0:00.000	310603	N	0	0	0
	0:00.000	310615	N	0	0	0
	0:00.000	310618	N	0	0	0
	0:00.000	310623	N	0	0	0
	0:00.000	310625	N	0	0	0
	0:00.000	310977	N	0	0	0
	0:00.000	310985	N	0	0	0
	0:00.000	311257	N	0	0	0
	0:00.000	311268	N	0	0	0
	0:00.000	311559	N	0	0	0
	0:00.000	311569	N	0	0	0
	0:00.000	311876	N	0	0	0
	0:00.000	311890	N	0	0	0
	0:00.000	312196	N	0	0	0
	0:00.000	312207	N	0	0	0
	0:00.000	312510	N	0	0	0
	0:00.000	312522	N	0	0	0
	0:00.000	312826	N	0	0	0
	0:00.000	313122	N	0	0	0
	0:00.000	313134	N	0	0	0
	0:00.000	313413	N	0	0	0
	0:00.000	313422	N	0	0	0
	0:00.000	313705	N	0	0	0
	0:00.000	313715	N	0	0	0
	0:00.000	313849	N	0	0	0
	0:00.000	313951	N	0	0	0
	0:00.000	313958	N	0	0	0
	0:00.000	313962	N	0	0	0
	0:00.000	314343	N	0	0	0
	0:00.000	314652	N	0	0	0
	0:00.000	314938	N	0	0	0
	0:00.000	315207	N	0	0	0
	0:00.000	315477	N	0	0	0
	0:00.000	315756	N	0	0	0
	0:00.000	316037	N	0	0	0
	0:00.000	316212	N	0	0	0
	0:00.000	316310	N	0	0	0
	0:00.000	316315	N	0	0	0
	0:00.000	316320	N	0	0	0
	0:00.000	316644	N	0	0	0
	0:00.000	316951	N	0	0	0
	0:00.000	317128	N	0	0	0
	0:00.000	317221	N	0	0	0
	0:00.000	317227	N	0	0	0
	0:00.000	317498	N	0	0	0
	0:00.000	317760	N	0	0	0
	0:00.000	318031	N	0	0	0
	0:00.000	318304	N	0	0	0
	0:00.000	318588	N	0	0	0
	0:00.000	318600	N	0	0	0
	0:00.000	318873	N	0	0	0
	0:00.000	319172	N	0	0	0
	0:00.000	319447	N	0	0	0
	0:00.000	319704	N	0	0	0
	0:00.000	319839	N	0	0	0
	0:00.000	319930	N	0	0	0
	0:00.000	319934	N	0	0	0
	0:00.000	319940	N	0	0	0
	0:00.000	319945	N	0	0	0
	0:00.000	320236	N	0	0	0
	0:00.000	320523	N	0	0	0
	0:00.000	320820	N	0	0	0
	0:00.000	321116	N	0	0	0
	0:00.000	321127	N	0	0	0
	0:00.000	321411	N	0	0	0
	0:00.000	321701	N	0	0	0
	0:00.000	321984	N	0	0	0
	0:00.000	321993	N	0	0	0
	0:00.000	322275	N	0	0	0
	0:00.000	322286	N	0	0	0
	0:00.000	322580	N	0	0	0
	0:00.000	322899	N	0	0	0
	0:00.000	322910	N	0	0	0
	0:00.000	323236	N	0	0	0
	0:00.000	323248	N	0	0	0
	0:00.000	323562	N	0	0	0
	0:00.000	323571	N	0	0	0
	0:00.000	323864	N	0	0	0
	0:00.000	323875	N	0	0	0
	0:00.000	324028	N	0	0	0
	0:00.000	324129	N	0	0	0
	0:00.000	324134	N	0	0	0
	0:00.000	324503	N	0	0	0
	0:00.000	324814	N	0	0	0
	0:00.000	324825	N	0	0	0
	0:00.000	325146	N	0	0	0
	0:00.000	325156	N	0	0	0
	0:00.000	325342	N	0	0	0
	0:00.000	325456	N	0	0	0
	0:00.000	325462	N	0	0	0
	0:00.000	325825	N	0	0	0
	0:00.000	326116	N	0	0	0
	0:00.000	326127	N	0	0	0
	0:00.000	326402	N	0	0	0
	0:00.000	326411	N	0	0	0
	0:00.000	326721	N	0	0	0
	0:00.000	327033	N	0	0	0
	0:00.000	327342	N	0	0	0
	0:00.000	327353	N	0	0	0
	0:00.000	327659	N	0	0	0
	0:00.000	327805	N	0	0	0
	0:00.000	327911	N	0	0	0
	0:00.000	327918	N	0	0	0
	0:00.000	327923	N	0	0	0
	0:00.000	328260	N	0	0	0
	0:00.000	328532	N	0	0	0
	0:00.000	328808	N	0	0	0
	0:00.000	328960	N	0	0	0
	0:00.000	329065	N	0	0	0
	0:00.000	329070	N	0	0	0
	0:00.000	329075	N	0	0	0
	0:00.000	329082	N	0	0	0
	0:00.000	329422	N	0	0	0
	0:00.000	329714	N	0	0	0
	0:00.000	330008	N	0	0	0
	0:00.000	330291	N	0	0	0
	0:00.000	330564	N	0	0	0
	0:00.000	330843	N	0	0	0
	0:00.000	331118	N	0	0	0
	0:00.000	331390	N	0	0	0
	0:00.000	331681	N	0	0	0
	0:00.000	331972	N	0	0	0
	0:00.000	332246	N	0	0	0
	0:00.000	332505	N	0	0	0
	0:00.000	332762	N	0	0	0
	0:00.000	333022	N	0	0	0
	0:00.000	333303	N	0	0	0
	0:00.000	333595	N	0	0	0
	0:00.000	333749	N	0	0	0
	0:00.000	333854	N	0	0	0
	0:00.000	333859	N	0	0	0
	0:00.000	334200	N	0	0	0
	0:00.000	334496	N	0	0	0
	0:00.000	334772	N	0	0	0
	0:00.000	335044	N	0	0	0
	0:00.000	335333	N	0	0	0
	0:00.000	335533	N	0	0	0
	0:00.000	335952	N	0	0	0
	0:00.000	336264	N	0	0	0
	0:00.000	336567	N	0	0	0
	0:00.000	336578	N	0	0	0
	0:00.000	336869	N	0	0	0
	0:00.000	336879	N	0	0	0
	0:00.000	337157	N	0	0	0
	0:00.000	337167	N	0	0	0
	0:00.000	337448	N	0	0	0
	0:00.000	337456	N	0	0	0
	0:00.000	337757	N	0	0	0
	0:00.000	337768	N	0	0	0
	0:00.000	338084	N	0	0	0
	0:00.000	338097	N	0	0	0
	0:00.000	338428	N	0	0	0
	0:00.000	338439	N	0	0	0
	0:00.000	338607	N	0	0	0
	0:00.000	339073	N	0	0	0
	0:00.000	339382	N	0	0	0
	0:00.000	339392	N	0	0	0
	0:00.000	339700	N	0	0	0
	0:00.000	339711	N	0	0	0
	0:00.000	340009	N	0	0	0
	0:00.000	340019	N	0	0	0
	0:00.000	340190	N	0	0	0
	0:00.000	340294	N	0	0	0
	0:00.000	340298	N	0	0	0
	0:00.000	340687	N	0	0	0
	0:00.000	341005	N	0	0	0
	0:00.000	341294	N	0	0	0
	0:00.000	341302	N	0	0	0
	0:00.000	341578	N	0	0	0
	0:00.000	341588	N	0	0	0
	0:00.000	341879	N	0	0	0
	0:00.000	342182	N	0	0	0
	0:00.000	342486	N	0	0	0
	0:00.000	342496	N	0	0	0
	0:00.000	342793	N	0	0	0
	0:00.000	343095	N	0	0	0
	0:00.000	343385	N	0	0	0
	0:00.000	343657	N	0	0	0
	0:00.000	343932	N	0	0	0
	0:00.000	344116	N	0	0	0
	0:00.000	344561	N	0	0	0
	0:00.000	344864	N	0	0	0
	0:00.000	345163	N	0	0	0
	0:00.000	345432	N	0	0	0
	0:00.000	345698	N	0	0	0
	0:00.000	345968	N	0	0	0
	0:00.000	346240	N	0	0	0
	0:00.000	346523	N	0	0	0
	0:00.000	346837	N	0	0	0
	0:00.000	347138	N	0	0	0
	0:00.000	347421	N	0	0	0
	0:00.000	347693	N	0	0	0
	0:00.000	347953	N	0	0	0
	0:00.000	348100	N	0	0	0
	0:00.000	348188	N	0	0	0
	0:00.000	348200	N	0	0	0
	0:00.000	348206	N	0	0	0
	0:00.000	348229	N	0	0	0
	0:00.000	348538	N	0	0	0
	0:00.000	348832	N	0	0	0
	0:00.000	349137	N	0	0	0
	0:00.000	349148	N	0	0	0
	0:00.000	349456	N	0	0	0
	0:00.000	349740	N	0	0	0
	0:00.000	350006	N	0	0	0
	0:00.000	350285	N	0	0	0
	0:00.000	350295	N	0	0	0
	0:00.000	350576	N	0	0	0
	0:00.000	350895	N	0	0	0
	0:00.000	350906	N	0	0	0
	0:00.000	351048	N	0	0	0
	0:00.000	351154	N	0	0	0
	0:00.000	351160	N	0	0	0
	0:00.000	351165	N	0	0	0
	0:00.000	351171	N	0	0	0
	0:00.000	351195	N	0	0	0
	0:00.000	351549	N	0	0	0
	0:00.000	351559	N	0	0	0
	0:00.000	351861	N	0	0	0
	0:00.000	351872	N	0	0	0
	0:00.000	352152	N	0	0	0
	0:00.000	352161	N	0	0	0
	0:00.000	352429	N	0	0	0
	0:00.000	352439	N	0	0	0
	0:00.000	352729	N	0	0	0
	0:00.000	353045	N	0	0	0
	0:00.000	353047	N	0	0	0
	0:00.000	353376	N	0	0	0
	0:00.000	353386	N	0	0	0
	0:00.000	353704	N	0	0	0
	0:00.000	354004	N	0	0	0
	0:00.000	354150	N	0	0	0
	0:00.000	354251	N	0	0	0
	0:00.000	354256	N	0	0	0
	0:00.000	354604	N	0	0	0
	0:00.000	354887	N	0	0	0
	0:00.000	354898	N	0	0	0
	0:00.000	355193	N	0	0	0
	0:00.000	355205	N	0	0	0
	0:00.000	355342	N	0	0	0
	0:00.000	355441	N	0	0	0
	0:00.000	355452	N	0	0	0
	0:00.000	355454	N	0	0	0
	0:00.000	355456	N	0	0	0
	0:00.000	355461	N	0	0	0
	0:00.000	355529	N	0	0	0
	0:00.000	355638	N	0	0	0
	0:00.000	355642	N	0	0	0
	0:00.000	356057	N	0	0	0
	0:00.000	356333	N	0	0	0
	0:00.000	356598	N	0	0	0
	0:00.000	356868	N	0	0	0
	0:00.000	357140	N	0	0	0
	0:00.000	357414	N	0	0	0
	0:00.000	357693	N	0	0	0
	0:00.000	357973	N	0	0	0
	0:00.000	358259	N	0	0	0
	0:00.000	358519	N	0	0	0
	0:00.000	358774	N	0	0	0
	0:00.000	359039	N	0	0	0
	0:00.000	359329	N	0	0	0
	0:00.000	359621	N	0	0	0
	0:00.000	359906	N	0	0	0
	0:00.000	360203	N	0	0	0
	0:00.000	360483	N	0	0	0
	0:00.000	360761	N	0	0	0
	0:00.000	360770	N	0	0	0
	0:00.000	361034	N	0	0	0
	0:00.000	361316	N	0	0	0
	0:00.000	361617	N	0	0	0
	0:00.000	361790	N	0	0	0
	0:00.000	361905	N	0	0	0
	0:00.000	361910	N	0	0	0
	0:00.000	361922	N	0	0	0
	0:00.000	362277	N	0	0	0
	0:00.000	362573	N	0	0	0
	0:00.000	362583	N	0	0	0
	0:00.000	362858	N	0	0	0
	0:00.000	363135	N	0	0	0
	0:00.000	363436	N	0	0	0
	0:00.000	363447	N	0	0	0
	0:00.000	363735	N	0	0	0
	0:00.000	364037	N	0	0	0
	0:00.000	364048	N	0	0	0
	0:00.000	364369	N	0	0	0
	0:00.000	364379	N	0	0	0
	0:00.000	364682	N	0	0	0
	0:00.000	364964	N	0	0	0
	0:00.000	365248	N	0	0	0
	0:00.000	365532	N	0	0	0
	0:00.000	365836	N	0	0	0
	0:00.000	365848	N	0	0	0
	0:00.000	366023	N	0	0	0
	0:00.000	366114	N	0	0	0
	0:00.000	366119	N	0	0	0
	0:00.000	366124	N	0	0	0
	0:00.000	366130	N	0	0	0
	0:00.000	366474	N	0	0	0
	0:00.000	366485	N	0	0	0
	0:00.000	366775	N	0	0	0
	0:00.000	366788	N	0	0	0
	0:00.000	366954	N	0	0	0
	0:00.000	367049	N	0	0	0
	0:00.000	367054	N	0	0	0
	0:00.000	367348	N	0	0	0
	0:00.000	367614	N	0	0	0
	0:00.000	367625	N	0	0	0
	0:00.000	367896	N	0	0	0
	0:00.000	368179	N	0	0	0
	0:00.000	368488	N	0	0	0
	0:00.000	368501	N	0	0	0
	0:00.000	368650	N	0	0	0
	0:00.000	368742	N	0	0	0
	0:00.000	368755	N	0	0	0
	0:00.000	368760	N	0	0	0
	0:00.000	368765	N	0	0	0
	0:00.000	369096	N	0	0	0
	0:00.000	369372	N	0	0	0
	0:00.000	369650	N	0	0	0
	0:00.000	369930	N	0	0	0
	0:00.000	370205	N	0	0	0
	0:00.000	370386	N	0	0	0
	0:00.000	370494	N	0	0	0
	0:00.000	370800	N	0	0	0
	0:00.000	371095	N	0	0	0
	0:00.000	371367	N	0	0	0
	0:00.000	371620	N	0	0	0
	0:00.000	371889	N	0	0	0
	0:00.000	372168	N	0	0	0
	0:00.000	372449	N	0	0	0
	0:00.000	372734	N	0	0	0
	0:00.000	372745	N	0	0	0
	0:00.000	373031	N	0	0	0
	0:00.000	373322	N	0	0	0
	0:00.000	373600	N	0	0	0
	0:00.000	373868	N	0	0	0
	0:00.000	373880	N	0	0	0
	0:00.000	374147	N	0	0	0
	0:00.000	374290	N	0	0	0
	0:00.000	374398	N	0	0	0
	0:00.000	374403	N	0	0	0
	0:00.000	374407	N	0	0	0
	0:00.000	374414	N	0	0	0
	0:00.000	374778	N	0	0	0
	0:00.000	375089	N	0	0	0
	0:00.000	375405	N	0	0	0
	0:00.000	375699	N	0	0	0
	0:00.000	375999	N	0	0	0
	0:00.000	376010	N	0	0	0
	0:00.000	376183	N	0	0	0
	0:00.000	376282	N	0	0	0
	0:00.000	376284	N	0	0	0
	0:00.000	376287	N	0	0	0
	0:00.000	376626	N	0	0	0
	0:00.000	376955	N	0	0	0
	0:00.000	376966	N	0	0	0
	0:00.000	377301	N	0	0	0
	0:00.000	377314	N	0	0	0
	0:00.000	377624	N	0	0	0
	0:00.000	377633	N	0	0	0
	0:00.000	377923	N	0	0	0
	0:00.000	377933	N	0	0	0
	0:00.000	378218	N	0	0	0
	0:00.000	378538	N	0	0	0
	0:00.000	378550	N	0	0	0
	0:00.000	378860	N	0	0	0
	0:00.000	379186	N	0	0	0
	0:00.000	379197	N	0	0	0
	0:00.000	379540	N	0	0	0
	0:00.000	379775	N	0	0	0
	0:00.000	379889	N	0	0	0
	0:00.000	380183	N	0	0	0
	0:00.000	380194	N	0	0	0
	0:00.000	380485	N	0	0	0
	0:00.000	380784	N	0	0	0
	0:00.000	381098	N	0	0	0
	0:00.000	381415	N	0	0	0
	0:00.000	381567	N	0	0	0
	0:00.000	381655	N	0	0	0
	0:00.000	381673	N	0	0	0
	0:00.000	381677	N	0	0	0
	0:00.000	381683	N	0	0	0
	0:00.000	382055	N	0	0	0
	0:00.000	382334	N	0	0	0
	0:00.000	382598	N	0	0	0
	0:00.000	382878	N	0	0	0
	0:00.000	383166	N	0	0	0
	0:00.000	383473	N	0	0	0
	0:00.000	383784	N	0	0	0
	0:00.000	384086	N	0	0	0
	0:00.000	384367	N	0	0	0
	0:00.000	384642	N	0	0	0
	0:00.000	384906	N	0	0	0
	0:00.000	385176	N	0	0	0
	0:00.000	385461	N	0	0	0
	0:00.000	385748	N	0	0	0
	0:00.000	386045	N	0	0	0
	0:00.000	386323	N	0	0	0
	0:00.000	386570	N	0	0	0
	0:00.000	386817	N	0	0	0
	0:00.000	387082	N	0	0	0
	0:00.000	387346	N	0	0	0
	0:00.000	387601	N	0	0	0
	0:00.000	387866	N	0	0	0
	0:00.000	388131	N	0	0	0
	0:00.000	388395	N	0	0	0
	0:00.000	388646	N	0	0	0
	0:00.000	388885	N	0	0	0
	0:00.000	389115	N	0	0	0
	0:00.000	389373	N	0	0	0
	0:00.000	389644	N	0	0	0
	0:00.000	389927	N	0	0	0
	0:00.000	390202	N	0	0	0
	0:00.000	390487	N	0	0	0
	0:00.000	390754	N	0	0	0
	0:00.000	391018	N	0	0	0
	0:00.000	391265	N	0	0	0
	0:00.000	391519	N	0	0	0
	0:00.000	391789	N	0	0	0
	0:00.000	392081	N	0	0	0
	0:00.000	392372	N	0	0	0
	0:00.000	392653	N	0	0	0
	0:00.000	392926	N	0	0	0
	0:00.000	393190	N	0	0	0
	0:00.000	393396	N	0	0	0
	0:00.000	393416	N	0	0	0
	0:00.000	393743	N	0	0	0
	0:00.000	394021	N	0	0	0
	0:00.000	394319	N	0	0	0
	0:00.000	394628	N	0	0	0
	0:00.000	394928	N	0	0	0
	0:00.000	395205	N	0	0	0
	0:00.000	395343	N	0	0	0
	0:00.000	395442	N	0	0	0
	0:00.000	395447	N	0	0	0
	0:00.000	395779	N	0	0	0
	0:00.000	396079	N	0	0	0
	0:00.000	396385	N	0	0	0
	0:00.000	396686	N	0	0	0
	0:00.000	397009	N	0	0	0
	0:00.000	397163	N	0	0	0
	0:00.000	397255	N	0	0	0
	0:00.000	397257	N	0	0	0
	0:00.000	397261	N	0	0	0
	0:00.000	397267	N	0	0	0
	0:00.000	397588	N	0	0	0
	0:00.000	397859	N	0	0	0
	0:00.000	398151	N	0	0	0
	0:00.000	398468	N	0	0	0
	0:00.000	398480	N	0	0	0
	0:00.000	398778	N	0	0	0
	0:00.000	398956	N	0	0	0
	0:00.000	399050	N	0	0	0
	0:00.000	399056	N	0	0	0
	0:00.000	399061	N	0	0	0
	0:00.000	399400	N	0	0	0
	0:00.000	399683	N	0	0	0
	0:00.000	399692	N	0	0	0
	0:00.000	399848	N	0	0	0
	0:00.000	399944	N	0	0	0
	0:00.000	400253	N	0	0	0
	0:00.000	400542	N	0	0	0
	0:00.000	400739	N	0	0	0
	0:00.000	401159	N	0	0	0
	0:00.000	401441	N	0	0	0
	0:00.000	401704	N	0	0	0
	0:00.000	401972	N	0	0	0
	0:00.000	402247	N	0	0	0
	0:00.000	402397	N	0	0	0
	0:00.000	402497	N	0	0	0
	0:00.000	402501	N	0	0	0
	0:00.000	402820	N	0	0	0
	0:00.000	403108	N	0	0	0
	0:00.000	403407	N	0	0	0
	0:00.000	403697	N	0	0	0
	0:00.000	403961	N	0	0	0
	0:00.000	404216	N	0	0	0
	0:00.000	404501	N	0	0	0
	0:00.000	404802	N	0	0	0
	0:00.000	404988	N	0	0	0
	0:00.000	405412	N	0	0	0
	0:00.000	405712	N	0	0	0
	0:00.000	406000	N	0	0	0
	0:00.000	406277	N	0	0	0
	0:00.000	406566	N	0	0	0
	0:00.000	406855	N	0	0	0
	0:00.000	407043	N	0	0	0
	0:00.000	407516	N	0	0	0
	0:00.000	407818	N	0	0	0
	0:00.000	408121	N	0	0	0
	0:00.000	408405	N	0	0	0
	0:00.000	408704	N	0	0	0
	0:00.000	409011	N	0	0	0
	0:00.000	409021	N	0	0	0
	0:00.000	409322	N	0	0	0
	0:00.000	409333	N	0	0	0
	0:00.000	409659	N	0	0	0
	0:00.000	409992	N	0	0	0
	0:00.000	410005	N	0	0	0
	0:00.000	410297	N	0	0	0
	0:00.000	410306	N	0	0	0
	0:00.000	410599	N	0	0	0
	0:00.000	410609	N	0	0	0
	0:00.000	410911	N	0	0	0
	0:00.000	411240	N	0	0	0
	0:00.000	411575	N	0	0	0
	0:00.000	411585	N	0	0	0
	0:00.000	411905	N	0	0	0
	0:00.000	412246	N	0	0	0
	0:00.000	412456	N	0	0	0
	0:00.000	412557	N	0	0	0
	0:00.000	412561	N	0	0	0
	0:00.000	412586	N	0	0	0
	0:00.000	412678	N	0	0	0
	0:00.000	412682	N	0	0	0
	0:00.000	413090	N	0	0	0
	0:00.000	413396	N	0	0	0
	0:00.000	413717	N	0	0	0
	0:00.000	414014	N	0	0	0
	0:00.000	414309	N	0	0	0
	0:00.000	414597	N	0	0	0
	0:00.000	414868	N	0	0	0
	0:00.000	415135	N	0	0	0
	0:00.000	415402	N	0	0	0
	0:00.000	415682	N	0	0	0
	0:00.000	415694	N	0	0	0
	0:00.000	415973	N	0	0	0
	0:00.000	415984	N	0	0	0
	0:00.000	416265	N	0	0	0
	0:00.000	416536	N	0	0	0
	0:00.000	416787	N	0	0	0
	0:00.000	417050	N	0	0	0
	0:00.000	417216	N	0	0	0
	0:00.000	417587	N	0	0	0
	0:00.000	417869	N	0	0	0
	0:00.000	418159	N	0	0	0
	0:00.000	418451	N	0	0	0
	0:00.000	418746	N	0	0	0
	0:00.000	418910	N	0	0	0
	0:00.000	419268	N	0	0	0
	0:00.000	419554	N	0	0	0
	0:00.000	419843	N	0	0	0
	0:00.000	420137	N	0	0	0
	0:00.000	420432	N	0	0	0
	0:00.000	420716	N	0	0	0
	0:00.000	420988	N	0	0	0
	0:00.000	421249	N	0	0	0
	0:00.000	421502	N	0	0	0
	0:00.000	421758	N	0	0	0
	0:00.000	422035	N	0	0	0
	0:00.000	422317	N	0	0	0
	0:00.000	422589	N	0	0	0
	0:00.000	422856	N	0	0	0
	0:00.000	423116	N	0	0	0
	0:00.000	423360	N	0	0	0
	0:00.000	423601	N	0	0	0
	0:00.000	423844	N	0	0	0
	0:00.000	424059	N	0	0	0
	0:00.000	424076	N	0	0	0
	0:00.000	424335	N	0	0	0
	0:00.000	424613	N	0	0	0
	0:00.000	424877	N	0	0	0
	0:00.000	425125	N	0	0	0
	0:00.000	425363	N	0	0	0
	0:00.000	425595	N	0	0	0
	0:00.000	425607	N	0	0	0
	0:00.000	425829	N	0	0	0
	0:00.000	426004	N	0	0	0
	0:00.000	426006	N	0	0	0
	0:00.000	426325	N	0	0	0
	0:00.000	426581	N	0	0	0
	0:00.000	426848	N	0	0	0
	0:00.000	427131	N	0	0	0
	0:00.000	427395	N	0	0	0
	0:00.000	427641	N	0	0	0
	0:00.000	427814	N	0	0	0
	0:00.000	428147	N	0	0	0
	0:00.000	428415	N	0	0	0
	0:00.000	428427	N	0	0	0
	0:00.000	428698	N	0	0	0
	0:00.000	428977	N	0	0	0
	0:00.000	429257	N	0	0	0
	0:00.000	429545	N	0	0	0
	0:00.000	429714	N	0	0	0
	0:00.000	429803	N	0	0	0
	0:00.000	429808	N	0	0	0
	0:00.000	430109	N	0	0	0
	0:00.000	430381	N	0	0	0
	0:00.000	430675	N	0	0	0
	0:00.000	430838	N	0	0	0
	0:00.000	430943	N	0	0	0
	0:00.000	430946	N	0	0	0
	0:00.000	430948	N	0	0	0
	0:00.000	430954	N	0	0	0
	0:00.000	430960	N	0	0	0
	0:00.000	431320	N	0	0	0
	0:00.000	431631	N	0	0	0
	0:00.000	431925	N	0	0	0
	0:00.000	432214	N	0	0	0
	0:00.000	432515	N	0	0	0
	0:00.000	432709	N	0	0	0
	0:00.000	433133	N	0	0	0
	0:00.000	433459	N	0	0	0
	0:00.000	433780	N	0	0	0
	0:00.000	434074	N	0	0	0
	0:00.000	434351	N	0	0	0
	0:00.000	434657	N	0	0	0
	0:00.000	434822	N	0	0	0
	0:00.000	434928	N	0	0	0
	0:00.000	435279	N	0	0	0
	0:00.000	435596	N	0	0	0
	0:00.000	435907	N	0	0	0
	0:00.000	436211	N	0	0	0
	0:00.000	436491	N	0	0	0
	0:00.000	436776	N	0	0	0
	0:00.000	437095	N	0	0	0
	0:00.000	437421	N	0	0	0
	0:00.000	437750	N	0	0	0
	0:00.000	437929	N	0	0	0
	0:00.000	438401	N	0	0	0
	0:00.000	438707	N	0	0	0
	0:00.000	439013	N	0	0	0
	0:00.000	439318	N	0	0	0
	0:00.000	439658	N	0	0	0
	0:00.000	440001	N	0	0	0
	0:00.000	440175	N	0	0	0
	0:00.000	440271	N	0	0	0
	0:00.000	440634	N	0	0	0
	0:00.000	440926	N	0	0	0
	0:00.000	441239	N	0	0	0
	0:00.000	441555	N	0	0	0
	0:00.000	441863	N	0	0	0
	0:00.000	442209	N	0	0	0
	0:00.000	442523	N	0	0	0
	0:00.000	442814	N	0	0	0
	0:00.000	443112	N	0	0	0
	0:00.000	443409	N	0	0	0
	0:00.000	443732	N	0	0	0
	0:00.000	443937	N	0	0	0
	0:00.000	444047	N	0	0	0
	0:00.000	444055	N	0	0	0
	0:00.000	444059	N	0	0	0
	0:00.000	444063	N	0	0	0
	0:00.000	444376	N	0	0	0
	0:00.000	444666	N	0	0	0
	0:00.000	444670	N	0	0	0
	0:00.000	444676	N	0	0	0
	0:00.000	444982	N	0	0	0
	0:00.000	445251	N	0	0	0
	0:00.000	445529	N	0	0	0
	0:00.000	445810	N	0	0	0
	0:00.000	446110	N	0	0	0
	0:00.000	446275	N	0	0	0
	0:00.000	446390	N	0	0	0
	0:00.000	446396	N	0	0	0
	0:00.000	446714	N	0	0	0
	0:00.000	446981	N	0	0	0
	0:00.000	447246	N	0	0	0
	0:00.000	447510	N	0	0	0
	0:00.000	447774	N	0	0	0
	0:00.000	448049	N	0	0	0
	0:00.000	448335	N	0	0	0
	0:00.000	448631	N	0	0	0
	0:00.000	448922	N	0	0	0
	0:00.000	449180	N	0	0	0
	0:00.000	449427	N	0	0	0
	0:00.000	449696	N	0	0	0
	0:00.000	449874	N	0	0	0
	0:00.000	450256	N	0	0	0
	0:00.000	450545	N	0	0	0
	0:00.000	450844	N	0	0	0
	0:00.000	451142	N	0	0	0
	0:00.000	451319	N	0	0	0
	0:00.000	451410	N	0	0	0
	0:00.000	451412	N	0	0	0
	0:00.000	451688	N	0	0	0
	0:00.000	451965	N	0	0	0
	0:00.000	451977	N	0	0	0
	0:00.000	452142	N	0	0	0
	0:00.000	452254	N	0	0	0
	0:00.000	452573	N	0	0	0
	0:00.000	452866	N	0	0	0
	0:00.000	453042	N	0	0	0
	0:00.000	453431	N	0	0	0
	0:00.000	453695	N	0	0	0
	0:00.000	453947	N	0	0	0
	0:00.000	454208	N	0	0	0
	0:00.000	454475	N	0	0	0
	0:00.000	454662	N	0	0	0
	0:00.000	455057	N	0	0	0
	0:00.000	455327	N	0	0	0
	0:00.000	455586	N	0	0	0
	0:00.000	455829	N	0	0	0
	0:00.000	456078	N	0	0	0
	0:00.000	456253	N	0	0	0
	0:00.000	456348	N	0	0	0
	0:00.000	456351	N	0	0	0
	0:00.000	456357	N	0	0	0
	0:00.000	456402	N	0	0	0
	0:00.000	456405	N	0	0	0
	0:00.000	456855	N	0	0	0
	0:00.000	457149	N	0	0	0
	0:00.000	457311	N	0	0	0
	0:00.000	457415	N	0	0	0
	0:00.000	457422	N	0	0	0
	0:00.000	457719	N	0	0	0
	0:00.000	457967	N	0	0	0
	0:00.000	458107	N	0	0	0
	0:00.000	458197	N	0	0	0
	0:00.000	458202	N	0	0	0
	0:00.000	458206	N	0	0	0
	0:00.000	458486	N	0	0	0
	0:00.000	458760	N	0	0	0
	0:00.000	458908	N	0	0	0
	0:00.000	459018	N	0	0	0
	0:00.000	459023	N	0	0	0
	0:00.000	459309	N	0	0	0
	0:00.000	459595	N	0	0	0
	0:00.000	459864	N	0	0	0
	0:00.000	460112	N	0	0	0
	0:00.000	460356	N	0	0	0
	0:00.000	460615	N	0	0	0
	0:00.000	460886	N	0	0	0
	0:00.000	461180	N	0	0	0
	0:00.000	461477	N	0	0	0
	0:00.000	461773	N	0	0	0
	0:00.000	462072	N	0	0	0
	0:00.000	462352	N	0	0	0
	0:00.000	462634	N	0	0	0
	0:00.000	462923	N	0	0	0
	0:00.000	463221	N	0	0	0
	0:00.000	463232	N	0	0	0
	0:00.000	463550	N	0	0	0
	0:00.000	463562	N	0	0	0
	0:00.000	463875	N	0	0	0
	0:00.000	463885	N	0	0	0
	0:00.000	463887	N	0	0	0
	0:00.000	464181	N	0	0	0
	0:00.000	464192	N	0	0	0
	0:00.000	464476	N	0	0	0
	0:00.000	464486	N	0	0	0
	0:00.000	464777	N	0	0	0
	0:00.000	465087	N	0	0	0
	0:00.000	465096	N	0	0	0
	0:00.000	465397	N	0	0	0
	0:00.000	465720	N	0	0	0
	0:00.000	466056	N	0	0	0
	0:00.000	466379	N	0	0	0
	0:00.000	466389	N	0	0	0
	0:00.000	466670	N	0	0	0
	0:00.000	466679	N	0	0	0
	0:00.000	466959	N	0	0	0
	0:00.000	466970	N	0	0	0
	0:00.000	467272	N	0	0	0
	0:00.000	467283	N	0	0	0
	0:00.000	467422	N	0	0	0
	0:00.000	467531	N	0	0	0
	0:00.000	467537	N	0	0	0
	0:00.000	467542	N	0	0	0
	0:00.000	467898	N	0	0	0
	0:00.000	468198	N	0	0	0
	0:00.000	468486	N	0	0	0
	0:00.000	468760	N	0	0	0
	0:00.000	469021	N	0	0	0
	0:00.000	469164	N	0	0	0
	0:00.000	469259	N	0	0	0
	0:00.000	469262	N	0	0	0
	0:00.000	469264	N	0	0	0
	0:00.000	469580	N	0	0	0
	0:00.000	469877	N	0	0	0
	0:00.000	470168	N	0	0	0
	0:00.000	470452	N	0	0	0
	0:00.000	470729	N	0	0	0
	0:00.000	470993	N	0	0	0
	0:00.000	471265	N	0	0	0
	0:00.000	471540	N	0	0	0
	0:00.000	471820	N	0	0	0
	0:00.000	472113	N	0	0	0
	0:00.000	472313	N	0	0	0
	0:00.000	472711	N	0	0	0
	0:00.000	472967	N	0	0	0
	0:00.000	473109	N	0	0	0
	0:00.000	473209	N	0	0	0
	0:00.000	473211	N	0	0	0
	0:00.000	473214	N	0	0	0
	0:00.000	473467	N	0	0	0
	0:00.000	473722	N	0	0	0
	0:00.000	473995	N	0	0	0
	0:00.000	474264	N	0	0	0
	0:00.000	474528	N	0	0	0
	0:00.000	474817	N	0	0	0
	0:00.000	475078	N	0	0	0
	0:00.000	475329	N	0	0	0
	0:00.000	475590	N	0	0	0
	0:00.000	475867	N	0	0	0
	0:00.000	476169	N	0	0	0
	0:00.000	476493	N	0	0	0
	0:00.000	476812	N	0	0	0
	0:00.000	477120	N	0	0	0
	0:00.000	477428	N	0	0	0
	0:00.000	477720	N	0	0	0
	0:00.000	478027	N	0	0	0
	0:00.000	478353	N	0	0	0
	0:00.000	478673	N	0	0	0
	0:00.000	478678	N	0	0	0
	0:00.000	478684	N	0	0	0
	0:00.000	479049	N	0	0	0
	0:00.000	479361	N	0	0	0
	0:00.000	479671	N	0	0	0
	0:00.000	479988	N	0	0	0
	0:00.000	480308	N	0	0	0
	0:00.000	480632	N	0	0	0
	0:00.000	480974	N	0	0	0
	0:00.000	480988	N	0	0	0
	0:00.000	481325	N	0	0	0
	0:00.000	481336	N	0	0	0
	0:00.000	481639	N	0	0	0
	0:00.000	481649	N	0	0	0
	0:00.000	481942	N	0	0	0
	0:00.000	482268	N	0	0	0
	0:00.000	482279	N	0	0	0
	0:00.000	482610	N	0	0	0
	0:00.000	482622	N	0	0	0
	0:00.000	482945	N	0	0	0
	0:00.000	482957	N	0	0	0
	0:00.000	483296	N	0	0	0
	0:00.000	483306	N	0	0	0
	0:00.000	483628	N	0	0	0
	0:00.000	483640	N	0	0	0
	0:00.000	483948	N	0	0	0
	0:00.000	484254	N	0	0	0
	0:00.000	484264	N	0	0	0
	0:00.000	484571	N	0	0	0
	0:00.000	484936	N	0	0	0
	0:00.000	485298	N	0	0	0
	0:00.000	485310	N	0	0	0
	0:00.000	485629	N	0	0	0
	0:00.000	485640	N	0	0	0
	0:00.000	485946	N	0	0	0
	0:00.000	486251	N	0	0	0
	0:00.000	486559	N	0	0	0
	0:00.000	486570	N	0	0	0
	0:00.000	486876	N	0	0	0
	0:00.000	487207	N	0	0	0
	0:00.000	487219	N	0	0	0
	0:00.000	487547	N	0	0	0
	0:00.000	487871	N	0	0	0
	0:00.000	488154	N	0	0	0
	0:00.000	488423	N	0	0	0
	0:00.000	488710	N	0	0	0
	0:00.000	489007	N	0	0	0
	0:00.000	489162	N	0	0	0
	0:00.000	489256	N	0	0	0
	0:00.000	489273	N	0	0	0
	0:00.000	489278	N	0	0	0
	0:00.000	489283	N	0	0	0
	0:00.000	489601	N	0	0	0
	0:00.000	489912	N	0	0	0
	0:00.000	490190	N	0	0	0
	0:00.000	490451	N	0	0	0
	0:00.000	490723	N	0	0	0
	0:00.000	491002	N	0	0	0
	0:00.000	491313	N	0	0	0
	0:00.000	491629	N	0	0	0
	0:00.000	491941	N	0	0	0
	0:00.000	492266	N	0	0	0
	0:00.000	492569	N	0	0	0
	0:00.000	492857	N	0	0	0
	0:00.000	492868	N	0	0	0
	0:00.000	493175	N	0	0	0
	0:00.000	493185	N	0	0	0
	0:00.000	493511	N	0	0	0
	0:00.000	493522	N	0	0	0
	0:00.000	493861	N	0	0	0
	0:00.000	493871	N	0	0	0
	0:00.000	493874	N	0	0	0
	0:00.000	494197	N	0	0	0
	0:00.000	494210	N	0	0	0
	0:00.000	494514	N	0	0	0
	0:00.000	494524	N	0	0	0
	0:00.000	494836	N	0	0	0
	0:00.000	495146	N	0	0	0
	0:00.000	495155	N	0	0	0
	0:00.000	495463	N	0	0	0
	0:00.000	495801	N	0	0	0
	0:00.000	495812	N	0	0	0
	0:00.000	496139	N	0	0	0
	0:00.000	496150	N	0	0	0
	0:00.000	496478	N	0	0	0
	0:00.000	496784	N	0	0	0
	0:00.000	496794	N	0	0	0
	0:00.000	497072	N	0	0	0
	0:00.000	497084	N	0	0	0
	0:00.000	497222	N	0	0	0
	0:00.000	497328	N	0	0	0
	0:00.000	497333	N	0	0	0
	0:00.000	497363	N	0	0	0
	0:00.000	497674	N	0	0	0
	0:00.000	497964	N	0	0	0
	0:00.000	498255	N	0	0	0
	0:00.000	498548	N	0	0	0
	0:00.000	498826	N	0	0	0
	0:00.000	499081	N	0	0	0
	0:00.000	499341	N	0	0	0
	0:00.000	499612	N	0	0	0
	0:00.000	499901	N	0	0	0
	0:00.000	500197	N	0	0	0
	0:00.000	500477	N	0	0	0
	0:00.000	500762	N	0	0	0
	0:00.000	500924	N	0	0	0
	0:00.000	501288	N	0	0	0
	0:00.000	501544	N	0	0	0
	0:00.000	501688	N	0	0	0
	0:00.000	501765	N	0	0	0
	0:00.000	501788	N	0	0	0
	0:00.000	502074	N	0	0	0
	0:00.000	502370	N	0	0	0
	0:00.000	502650	N	0	0	0
	0:00.000	502909	N	0	0	0
	0:00.000	503161	N	0	0	0
	0:00.000	503402	N	0	0	0
	0:00.000	503646	N	0	0	0
	0:00.000	503912	N	0	0	0
	0:00.000	504178	N	0	0	0
	0:00.000	504463	N	0	0	0
	0:00.000	504775	N	0	0	0
	0:00.000	505077	N	0	0	0
	0:00.000	505083	N	0	0	0
	0:00.000	505195	N	0	0	0
	0:00.000	505215	N	0	0	0
	0:00.000	505633	N	0	0	0
	0:00.000	505900	N	0	0	0
	0:00.000	506180	N	0	0	0
	0:00.000	506481	N	0	0	0
	0:00.000	506777	N	0	0	0
	0:00.000	507073	N	0	0	0
	0:00.000	507384	N	0	0	0
	0:00.000	507668	N	0	0	0
	0:00.000	507953	N	0	0	0
	0:00.000	508258	N	0	0	0
	0:00.000	508569	N	0	0	0
	0:00.000	508899	N	0	0	0
	0:00.000	509235	N	0	0	0
	0:00.000	509546	N	0	0	0
	0:00.000	509558	N	0	0	0
	0:00.000	509849	N	0	0	0
	0:00.000	510150	N	0	0	0
	0:00.000	510161	N	0	0	0
	0:00.000	510438	N	0	0	0
	0:00.000	510733	N	0	0	0
	0:00.000	511033	N	0	0	0
	0:00.000	511347	N	0	0	0
	0:00.000	511359	N	0	0	0
	0:00.000	511656	N	0	0	0
	0:00.000	511934	N	0	0	0
	0:00.000	512204	N	0	0	0
	0:00.000	512496	N	0	0	0
	0:00.000	512639	N	0	0	0
	0:00.000	512742	N	0	0	0
	0:00.000	512752	N	0	0	0
	0:00.000	512757	N	0	0	0
	0:00.000	512764	N	0	0	0
	0:00.000	513067	N	0	0	0
	0:00.000	513356	N	0	0	0
	0:00.000	513532	N	0	0	0
	0:00.000	513895	N	0	0	0
	0:00.000	514142	N	0	0	0
	0:00.000	514382	N	0	0	0
	0:00.000	514621	N	0	0	0
	0:00.000	514877	N	0	0	0
	0:00.000	515148	N	0	0	0
	0:00.000	515428	N	0	0	0
	0:00.000	515706	N	0	0	0
	0:00.000	515990	N	0	0	0
	0:00.000	516256	N	0	0	0
	0:00.000	516521	N	0	0	0
	0:00.000	516683	N	0	0	0
	0:00.000	517062	N	0	0	0
	0:00.000	517348	N	0	0	0
	0:00.000	517640	N	0	0	0
	0:00.000	517929	N	0	0	0
	0:00.000	518193	N	0	0	0
	0:00.000	518354	N	0	0	0
	0:00.000	518737	N	0	0	0
	0:00.000	519023	N	0	0	0
	0:00.000	519300	N	0	0	0
	0:00.000	519573	N	0	0	0
	0:00.000	519876	N	0	0	0
	0:00.000	520070	N	0	0	0
	0:00.000	520468	N	0	0	0
	0:00.000	520728	N	0	0	0
	0:00.000	520907	N	0	0	0
	0:00.000	521333	N	0	0	0
	0:00.000	521652	N	0	0	0
	0:00.000	521963	N	0	0	0
	0:00.000	522289	N	0	0	0
	0:00.000	522603	N	0	0	0
	0:00.000	522790	N	0	0	0
	0:00.000	523184	N	0	0	0
	0:00.000	523476	N	0	0	0
	0:00.000	523797	N	0	0	0
	0:00.000	524120	N	0	0	0
	0:00.000	524289	N	0	0	0
	0:00.000	524392	N	0	0	0
	0:00.000	524402	N	0	0	0
	0:00.000	524408	N	0	0	0
	0:00.000	524724	N	0	0	0
	0:00.000	524998	N	0	0	0
	0:00.000	525273	N	0	0	0
	0:00.000	525545	N	0	0	0
	0:00.000	525836	N	0	0	0
	0:00.000	526137	N	0	0	0
	0:00.000	526449	N	0	0	0
	0:00.000	526737	N	0	0	0
	0:00.000	527006	N	0	0	0
	0:00.000	527278	N	0	0	0
	0:00.000	527578	N	0	0	0
	0:00.000	527865	N	0	0	0
	0:00.000	528162	N	0	0	0
	0:00.000	528476	N	0	0	0
	0:00.000	528786	N	0	0	0
	0:00.000	529096	N	0	0	0
	0:00.000	529373	N	0	0	0
	0:00.000	529662	N	0	0	0
	0:00.000	529986	N	0	0	0
	0:00.000	530307	N	0	0	0
	0:00.000	530609	N	0	0	0
	0:00.000	530765	N	0	0	0
	0:00.000	530868	N	0	0	0
	0:00.000	530874	N	0	0	0
	0:00.000	530879	N	0	0	0
	0:00.000	531226	N	0	0	0
	0:00.000	531505	N	0	0	0
	0:00.000	531781	N	0	0	0
	0:00.000	532057	N	0	0	0
	0:00.000	532362	N	0	0	0
	0:00.000	532522	N	0	0	0
	0:00.000	532626	N	0	0	0
	0:00.000	532628	N	0	0	0
	0:00.000	532630	N	0	0	0
	0:00.000	532636	N	0	0	0
	0:00.000	532982	N	0	0	0
	0:00.000	533268	N	0	0	0
	0:00.000	533549	N	0	0	0
	0:00.000	533823	N	0	0	0
	0:00.000	534100	N	0	0	0
	0:00.000	534247	N	0	0	0
	0:00.000	534328	N	0	0	0
	0:00.000	534337	N	0	0	0
	0:00.000	534349	N	0	0	0
	0:00.000	534354	N	0	0	0
	0:00.000	534357	N	0	0	0
	0:00.000	534361	N	0	0	0
	0:00.000	534674	N	0	0	0
	0:00.000	534981	N	0	0	0
	0:00.000	535283	N	0	0	0
	0:00.000	535554	N	0	0	0
	0:00.000	535821	N	0	0	0
	0:00.000	536086	N	0	0	0
	0:00.000	536376	N	0	0	0
	0:00.000	536665	N	0	0	0
	0:00.000	536953	N	0	0	0
	0:00.000	537253	N	0	0	0
	0:00.000	537552	N	0	0	0
	0:00.000	537817	N	0	0	0
	0:00.000	538073	N	0	0	0
	0:00.000	538340	N	0	0	0
	0:00.000	538621	N	0	0	0
	0:00.000	538923	N	0	0	0
	0:00.000	539229	N	0	0	0
	0:00.000	539528	N	0	0	0
	0:00.000	539833	N	0	0	0
	0:00.000	540120	N	0	0	0
	0:00.000	540262	N	0	0	0
	0:00.000	540345	N	0	0	0
	0:00.000	540357	N	0	0	0
	0:00.000	540361	N	0	0	0
	0:00.000	540697	N	0	0	0
	0:00.000	541003	N	0	0	0
	0:00.000	541309	N	0	0	0
	0:00.000	541626	N	0	0	0
	0:00.000	541918	N	0	0	0
	0:00.000	542055	N	0	0	0
	0:00.000	542151	N	0	0	0
	0:00.000	542156	N	0	0	0
	0:00.000	542452	N	0	0	0
	0:00.000	542715	N	0	0	0
	0:00.000	542975	N	0	0	0
	0:00.000	543245	N	0	0	0
	0:00.000	543520	N	0	0	0
	0:00.000	543797	N	0	0	0
	0:00.000	544078	N	0	0	0
	0:00.000	544331	N	0	0	0
	0:00.000	544573	N	0	0	0
	0:00.000	544826	N	0	0	0
	0:00.000	545105	N	0	0	0
	0:00.000	545393	N	0	0	0
	0:00.000	545685	N	0	0	0
	0:00.000	545996	N	0	0	0
	0:00.000	546301	N	0	0	0
	0:00.000	546587	N	0	0	0
	0:00.000	546597	N	0	0	0
	0:00.000	546730	N	0	0	0
	0:00.000	546825	N	0	0	0
	0:00.000	546827	N	0	0	0
	0:00.000	546832	N	0	0	0
	0:00.000	547172	N	0	0	0
	0:00.000	547485	N	0	0	0
	0:00.000	547809	N	0	0	0
	0:00.000	547821	N	0	0	0
	0:00.000	547969	N	0	0	0
	0:00.000	548073	N	0	0	0
	0:00.000	548079	N	0	0	0
	0:00.000	548439	N	0	0	0
	0:00.000	548720	N	0	0	0
	0:00.000	548730	N	0	0	0
	0:00.000	549001	N	0	0	0
	0:00.000	549154	N	0	0	0
	0:00.000	549250	N	0	0	0
	0:00.000	549252	N	0	0	0
	0:00.000	549255	N	0	0	0
	0:00.000	549591	N	0	0	0
	0:00.000	549886	N	0	0	0
	0:00.000	549898	N	0	0	0
	0:00.000	550095	N	0	0	0
	0:00.000	550200	N	0	0	0
	0:00.000	550210	N	0	0	0
	0:00.000	550515	N	0	0	0
	0:00.000	550780	N	0	0	0
	0:00.000	550790	N	0	0	0
	0:00.000	551052	N	0	0	0
	0:00.000	551062	N	0	0	0
	0:00.000	551337	N	0	0	0
	0:00.000	551642	N	0	0	0
	0:00.000	551956	N	0	0	0
	0:00.000	552108	N	0	0	0
	0:00.000	552215	N	0	0	0
	0:00.000	552220	N	0	0	0
	0:00.000	552610	N	0	0	0
	0:00.000	552902	N	0	0	0
	0:00.000	553184	N	0	0	0
	0:00.000	553476	N	0	0	0
	0:00.000	553780	N	0	0	0
	0:00.000	554116	N	0	0	0
	0:00.000	554127	N	0	0	0
	0:00.000	554448	N	0	0	0
	0:00.000	554766	N	0	0	0
	0:00.000	555086	N	0	0	0
	0:00.000	555389	N	0	0	0
	0:00.000	555695	N	0	0	0
	0:00.000	556019	N	0	0	0
	0:00.000	556031	N	0	0	0
	0:00.000	556357	N	0	0	0
	0:00.000	556706	N	0	0	0
	0:00.000	557004	N	0	0	0
	0:00.000	557281	N	0	0	0
	0:00.000	557561	N	0	0	0
	0:00.000	557838	N	0	0	0
	0:00.000	558113	N	0	0	0
	0:00.000	558411	N	0	0	0
	0:00.000	558564	N	0	0	0
	0:00.000	558666	N	0	0	0
	0:00.000	558673	N	0	0	0
	0:00.000	558676	N	0	0	0
	0:00.000	558681	N	0	0	0
	0:00.000	559012	N	0	0	0
	0:00.000	559292	N	0	0	0
	0:00.000	559546	N	0	0	0
	0:00.000	559789	N	0	0	0
	0:00.000	560076	N	0	0	0
	0:00.000	560357	N	0	0	0
	0:00.000	560635	N	0	0	0
	0:00.000	560932	N	0	0	0
	0:00.000	561219	N	0	0	0
	0:00.000	561494	N	0	0	0
	0:00.000	561752	N	0	0	0
	0:00.000	562007	N	0	0	0
	0:00.000	562271	N	0	0	0
	0:00.000	562555	N	0	0	0
	0:00.000	562732	N	0	0	0
	0:00.000	563108	N	0	0	0
	0:00.000	563376	N	0	0	0
	0:00.000	563633	N	0	0	0
	0:00.000	563879	N	0	0	0
	0:00.000	564117	N	0	0	0
	0:00.000	564288	N	0	0	0
	0:00.000	564606	N	0	0	0
	0:00.000	564871	N	0	0	0
	0:00.000	565148	N	0	0	0
	0:00.000	565413	N	0	0	0
	0:00.000	565659	N	0	0	0
	0:00.000	565669	N	0	0	0
	0:00.000	565819	N	0	0	0
	0:00.000	565916	N	0	0	0
	0:00.000	565918	N	0	0	0
	0:00.000	566135	N	0	0	0
	0:00.000	566379	N	0	0	0
	0:00.000	566640	N	0	0	0
	0:00.000	566909	N	0	0	0
	0:00.000	567188	N	0	0	0
	0:00.000	567375	N	0	0	0
	0:00.000	567787	N	0	0	0
	0:00.000	568048	N	0	0	0
	0:00.000	568218	N	0	0	0
	0:00.000	568309	N	0	0	0
	0:00.000	568572	N	0	0	0
	0:00.000	568849	N	0	0	0
	0:00.000	569029	N	0	0	0
	0:00.000	569435	N	0	0	0
	0:00.000	569707	N	0	0	0
	0:00.000	569997	N	0	0	0
	0:00.000	570255	N	0	0	0
	0:00.000	570496	N	0	0	0
	0:00.000	570506	N	0	0	0
	0:00.000	570743	N	0	0	0
	0:00.000	570998	N	0	0	0
	0:00.000	571263	N	0	0	0
	0:00.000	571449	N	0	0	0
	0:00.000	571815	N	0	0	0
	0:00.000	572076	N	0	0	0
	0:00.000	572219	N	0	0	0
	0:00.000	572319	N	0	0	0
	0:00.000	572323	N	0	0	0
	0:00.000	572614	N	0	0	0
	0:00.000	572876	N	0	0	0
	0:00.000	573146	N	0	0	0
	0:00.000	573428	N	0	0	0
	0:00.000	573716	N	0	0	0
	0:00.000	573925	N	0	0	0
	0:00.000	574324	N	0	0	0
	0:00.000	574588	N	0	0	0
	0:00.000	574868	N	0	0	0
	0:00.000	575160	N	0	0	0
	0:00.000	575462	N	0	0	0
	0:00.000	575772	N	0	0	0
	0:00.000	576094	N	0	0	0
	0:00.000	576417	N	0	0	0
	0:00.000	576729	N	0	0	0
	0:00.000	577023	N	0	0	0
	0:00.000	577331	N	0	0	0
	0:00.000	577672	N	0	0	0
	0:00.000	578010	N	0	0	0
	0:00.000	578342	N	0	0	0
	0:00.000	578571	N	0	0	0
	0:00.000	578668	N	0	0	0
	0:00.000	578674	N	0	0	0
	0:00.000	579001	N	0	0	0
	0:00.000	579309	N	0	0	0
	0:00.000	579507	N	0	0	0
	0:00.000	579610	N	0	0	0
	0:00.000	579967	N	0	0	0
	0:00.000	580310	N	0	0	0
	0:00.000	580637	N	0	0	0
	0:00.000	580942	N	0	0	0
	0:00.000	581222	N	0	0	0
	0:00.000	581503	N	0	0	0
	0:00.000	581797	N	0	0	0
	0:00.000	582042	N	0	0	0
	0:00.000	582046	N	0	0	0
	0:00.000	582082	N	0	0	0
	0:00.000	582413	N	0	0	0
	0:00.000	582730	N	0	0	0
	0:00.000	583030	N	0	0	0
	0:00.000	583166	N	0	0	0
	0:00.000	583265	N	0	0	0
	0:00.000	583270	N	0	0	0
	0:00.000	583584	N	0	0	0
	0:00.000	583869	N	0	0	0
	0:00.000	584172	N	0	0	0
	0:00.000	584472	N	0	0	0
	0:00.000	584775	N	0	0	0
	0:00.000	585093	N	0	0	0
	0:00.000	585390	N	0	0	0
	0:00.000	585675	N	0	0	0
	0:00.000	585864	N	0	0	0
	0:00.000	585884	N	0	0	0
	0:00.000	586292	N	0	0	0
	0:00.000	586612	N	0	0	0
	0:00.000	586939	N	0	0	0
	0:00.000	587249	N	0	0	0
	0:00.000	587260	N	0	0	0
	0:00.000	587547	N	0	0	0
	0:00.000	587832	N	0	0	0
	0:00.000	588125	N	0	0	0
	0:00.000	588274	N	0	0	0
	0:00.000	588373	N	0	0	0
	0:00.000	588378	N	0	0	0
	0:00.000	588382	N	0	0	0
	0:00.000	588748	N	0	0	0
	0:00.000	589072	N	0	0	0
	0:00.000	589387	N	0	0	0
	0:00.000	589668	N	0	0	0
	0:00.000	589950	N	0	0	0
	0:00.000	590245	N	0	0	0
	0:00.000	590255	N	0	0	0
	0:00.000	590551	N	0	0	0
	0:00.000	590863	N	0	0	0
	0:00.000	591177	N	0	0	0
	0:00.000	591344	N	0	0	0
	0:00.000	591451	N	0	0	0
	0:00.000	591455	N	0	0	0
	0:00.000	591457	N	0	0	0
	0:00.000	591461	N	0	0	0
	0:00.000	591811	N	0	0	0
	0:00.000	592080	N	0	0	0
	0:00.000	592377	N	0	0	0
	0:00.000	592686	N	0	0	0
	0:00.000	592992	N	0	0	0
	0:00.000	593292	N	0	0	0
	0:00.000	593599	N	0	0	0
	0:00.000	593886	N	0	0	0
	0:00.000	594171	N	0	0	0
	0:00.000	594450	N	0	0	0
	0:00.000	594731	N	0	0	0
	0:00.000	595057	N	0	0	0
	0:00.000	595383	N	0	0	0
	0:00.000	595696	N	0	0	0
	0:00.000	596000	N	0	0	0
	0:00.000	596287	N	0	0	0
	0:00.000	596577	N	0	0	0
	0:00.000	596867	N	0	0	0
	0:00.000	597168	N	0	0	0
	0:00.000	597485	N	0	0	0
	0:00.000	597800	N	0	0	0
	0:00.000	598095	N	0	0	0
	0:00.000	598369	N	0	0	0
	0:00.000	598644	N	0	0	0
	0:00.000	598934	N	0	0	0
	0:00.000	599230	N	0	0	0
	0:00.000	599533	N	0	0	0
	0:00.000	599851	N	0	0	0
	0:00.000	600172	N	0	0	0
	0:00.000	600457	N	0	0	0
	0:00.000	600726	N	0	0	0
	0:00.000	601006	N	0	0	0
	0:00.000	601302	N	0	0	0
	0:00.000	601614	N	0	0	0
	0:00.000	601912	N	0	0	0
	0:00.000	602203	N	0	0	0
	0:00.000	602494	N	0	0	0
	0:00.000	602761	N	0	0	0
	0:00.000	603028	N	0	0	0
	0:00.000	603318	N	0	0	0
	0:00.000	603488	N	0	0	0
	0:00.000	603669	N	0	0	0
	0:00.000	604179	N	0	0	0
	0:00.000	604477	N	0	0	0
	0:00.000	604748	N	0	0	0
	0:00.000	605020	N	0	0	0
	0:00.000	605031	N	0	0	0
	0:00.000	605282	N	0	0	0
	0:00.000	605541	N	0	0	0
	0:00.000	605811	N	0	0	0
	0:00.000	606089	N	0	0	0
	0:00.000	606375	N	0	0	0
	0:00.000	606658	N	0	0	0
	0:00.000	606913	N	0	0	0
	0:00.000	607155	N	0	0	0
	0:00.000	607415	N	0	0	0
	0:00.000	607675	N	0	0	0
	0:00.000	607937	N	0	0	0
	0:00.000	608198	N	0	0	0
	0:00.000	608460	N	0	0	0
	0:00.000	608719	N	0	0	0
	0:00.000	608974	N	0	0	0
	0:00.000	609217	N	0	0	0
	0:00.000	609382	N	0	0	0
	0:00.000	609701	N	0	0	0
	0:00.000	609974	N	0	0	0
	0:00.000	610254	N	0	0	0
	0:00.000	610524	N	0	0	0
	0:00.000	610798	N	0	0	0
	0:00.000	611074	N	0	0	0
	0:00.000	611326	N	0	0	0
	0:00.000	611584	N	0	0	0
	0:00.000	611842	N	0	0	0
	0:00.000	612106	N	0	0	0
	0:00.000	612387	N	0	0	0
	0:00.000	612680	N	0	0	0
	0:00.000	612964	N	0	0	0
	0:00.000	613220	N	0	0	0
	0:00.000	613469	N	0	0	0
	0:00.000	613712	N	0	0	0
	0:00.000	613962	N	0	0	0
	0:00.000	614221	N	0	0	0
	0:00.000	614398	N	0	0	0
	0:00.000	614740	N	0	0	0
	0:00.000	615009	N	0	0	0
	0:00.000	615272	N	0	0	0
	0:00.000	615514	N	0	0	0
	0:00.000	615743	N	0	0	0
	0:00.000	615983	N	0	0	0
	0:00.000	616142	N	0	0	0
	0:00.000	616499	N	0	0	0
	0:00.000	616774	N	0	0	0
	0:00.000	617052	N	0	0	0
	0:00.000	617322	N	0	0	0
	0:00.000	617472	N	0	0	0
	0:00.000	617569	N	0	0	0
	0:00.000	617579	N	0	0	0
	0:00.000	617584	N	0	0	0
	0:00.000	617849	N	0	0	0
	0:00.000	618090	N	0	0	0
	0:00.000	618335	N	0	0	0
	0:00.000	618597	N	0	0	0
	0:00.000	618872	N	0	0	0
	0:00.000	619051	N	0	0	0
	0:00.000	619472	N	0	0	0
	0:00.000	619746	N	0	0	0
	0:00.000	620029	N	0	0	0
	0:00.000	620310	N	0	0	0
	0:00.000	620597	N	0	0	0
	0:00.000	620767	N	0	0	0
	0:00.000	621211	N	0	0	0
	0:00.000	621526	N	0	0	0
	0:00.000	621822	N	0	0	0
	0:00.000	622093	N	0	0	0
	0:00.000	622351	N	0	0	0
	0:00.000	622522	N	0	0	0
	0:00.000	622924	N	0	0	0
	0:00.000	623213	N	0	0	0
	0:00.000	623521	N	0	0	0
	0:00.000	623819	N	0	0	0
	0:00.000	624102	N	0	0	0
	0:00.000	624368	N	0	0	0
	0:00.000	624525	N	0	0	0
	0:00.000	624921	N	0	0	0
	0:00.000	625218	N	0	0	0
	0:00.000	625527	N	0	0	0
	0:00.000	625811	N	0	0	0
	0:00.000	625996	N	0	0	0
	0:00.000	625998	N	0	0	0
	0:00.000	626382	N	0	0	0
	0:00.000	626653	N	0	0	0
	0:00.000	626933	N	0	0	0
	0:00.000	627071	N	0	0	0
	0:00.000	627164	N	0	0	0
	0:00.000	627170	N	0	0	0
	0:00.000	627174	N	0	0	0
	0:00.000	627180	N	0	0	0
	0:00.000	627517	N	0	0	0
	0:00.000	627812	N	0	0	0
	0:00.000	628105	N	0	0	0
	0:00.000	628380	N	0	0	0
	0:00.000	628642	N	0	0	0
	0:00.000	628903	N	0	0	0
	0:00.000	629181	N	0	0	0
	0:00.000	629454	N	0	0	0
	0:00.000	629732	N	0	0	0
	0:00.000	630031	N	0	0	0
	0:00.000	630326	N	0	0	0
	0:00.000	630592	N	0	0	0
	0:00.000	630857	N	0	0	0
	0:00.000	631118	N	0	0	0
	0:00.000	631401	N	0	0	0
	0:00.000	631702	N	0	0	0
	0:00.000	632002	N	0	0	0
	0:00.000	632303	N	0	0	0
	0:00.000	632616	N	0	0	0
	0:00.000	632891	N	0	0	0
	0:00.000	633153	N	0	0	0
	0:00.000	633420	N	0	0	0
	0:00.000	633701	N	0	0	0
	0:00.000	633998	N	0	0	0
	0:00.000	634279	N	0	0	0
	0:00.000	634560	N	0	0	0
	0:00.000	634841	N	0	0	0
	0:00.000	635109	N	0	0	0
	0:00.000	635374	N	0	0	0
	0:00.000	635643	N	0	0	0
	0:00.000	635927	N	0	0	0
	0:00.000	636221	N	0	0	0
	0:00.000	636529	N	0	0	0
	0:00.000	636816	N	0	0	0
	0:00.000	637086	N	0	0	0
	0:00.000	637353	N	0	0	0
	0:00.000	637606	N	0	0	0
	0:00.000	637872	N	0	0	0
	0:00.000	638043	N	0	0	0
	0:00.000	638047	N	0	0	0
	0:00.000	638421	N	0	0	0
	0:00.000	638702	N	0	0	0
	0:00.000	638715	N	0	0	0
	0:00.000	639001	N	0	0	0
	0:00.000	639265	N	0	0	0
	0:00.000	639508	N	0	0	0
	0:00.000	639667	N	0	0	0
	0:00.000	640042	N	0	0	0
	0:00.000	640316	N	0	0	0
	0:00.000	640587	N	0	0	0
	0:00.000	640868	N	0	0	0
	0:00.000	641148	N	0	0	0
	0:00.000	641426	N	0	0	0
	0:00.000	641564	N	0	0	0
	0:00.000	641656	N	0	0	0
	0:00.000	641662	N	0	0	0
	0:00.000	641950	N	0	0	0
	0:00.000	642214	N	0	0	0
	0:00.000	642517	N	0	0	0
	0:00.000	642813	N	0	0	0
	0:00.000	643104	N	0	0	0
	0:00.000	643276	N	0	0	0
	0:00.000	643673	N	0	0	0
	0:00.000	643942	N	0	0	0
	0:00.000	644214	N	0	0	0
	0:00.000	644484	N	0	0	0
	0:00.000	644775	N	0	0	0
	0:00.000	645078	N	0	0	0
	0:00.000	645257	N	0	0	0
	0:00.000	645640	N	0	0	0
	0:00.000	645898	N	0	0	0
	0:00.000	646152	N	0	0	0
	0:00.000	646420	N	0	0	0
	0:00.000	646697	N	0	0	0
	0:00.000	646877	N	0	0	0
	0:00.000	647258	N	0	0	0
	0:00.000	647556	N	0	0	0
	0:00.000	647734	N	0	0	0
	0:00.000	648077	N	0	0	0
	0:00.000	648322	N	0	0	0
	0:00.000	648490	N	0	0	0
	0:00.000	648834	N	0	0	0
	0:00.000	649113	N	0	0	0
	0:00.000	649379	N	0	0	0
	0:00.000	649627	N	0	0	0
	0:00.000	649890	N	0	0	0
