0.688895259399198 -0.3560301250734684
0.4507186799714408 -1.4269234163831492
0.1908896842320693 -2.2683395738407555
0.05014897820657639 -2.612555274618867
0.07180139451819069 -2.4213243297421387
0.3749352228807908 -1.7902622116489337
0.8188097572688838 -0.9870922431666731
1.3492939569034341 -0.10742989673372103
1.9339091973170202 0.6574938827731939
2.518524437730606 1.2694329063787257
3.0490086373651564 1.6327717016445105
3.557840420688092 1.843125741008912
4.001714955076185 1.9387412134472763
4.380632240529436 1.9387412134472763
4.651287444424614 1.9004950244719305
4.792028150450107 1.6327717016445105
4.824506774917529 1.3459252843294174
4.716244693359457 0.944340300088287
4.532199154710735 0.6192476937978482
4.272370158971364 0.44713984340879226
3.9259314979855353 0.31327818199508217
3.5145355880648634 0.2750319930197364
3.0706610536767704 0.2941550875074093
2.6051341029770634 0.38977055994577364
2.139607152277356 0.5618784103348295
1.70655882604507 0.6192476937978482
1.208553250877941 0.5618784103348295
0.7105476757108123 0.40889365443344655
0.2341945168552979 0.23678580404439067
-0.16637518490956657 -0.011814424295356661
-0.4478565969605524 -0.1265529912213939
-0.5777710948302381 -0.10742989673372103
-0.6210759274534667 0.0073086701923162104
-0.566944886674431 0.12204723711835344
-0.5019876377395881 0.31327818199508217
-0.4262041806489381 0.5045091268718109
-0.3828993480257095 0.6192476937978482
-0.2854634746234452 0.6957400717485396
-0.25298485015602373 0.7531093552115582
-0.24215864200021658 0.7531093552115582
-0.23133243384440944 0.7339862607238854
-0.2638110583118309 0.7722324496992311
-0.3071158909350595 0.7339862607238854
-0.29628968277925233 0.791355544186904
-0.3179420990908666 0.7531093552115582
-0.29628968277925233 0.8104786386745768
-0.3071158909350595 0.8104786386745768
-0.27463726646763803 0.8678479221375954
-0.2854634746234452 0.9060941111129412
-0.27463726646763803 0.925217205600614
-0.27463726646763803 0.944340300088287
-0.27463726646763803 0.944340300088287
-0.27463726646763803 0.8678479221375954
-0.29628968277925233 0.8678479221375954
-0.3179420990908666 0.8296017331622497
-0.3287683072466738 0.8104786386745768
-0.3179420990908666 0.8869710166252683
-0.35042072355828807 0.8487248276499226
-0.35042072355828807 0.925217205600614
-0.3395945154024809 0.925217205600614
-0.3287683072466738 0.925217205600614
-0.3179420990908666 0.8869710166252683
-0.29628968277925233 0.8869710166252683
-0.3395945154024809 0.8678479221375954
-0.35042072355828807 0.8104786386745768
-0.37207313986990237 0.791355544186904
-0.3828993480257095 0.7722324496992311
-0.3828993480257095 0.7722324496992311
-0.39372555618151667 0.7722324496992311
-0.4045517643373238 0.8104786386745768
-0.3828993480257095 0.8296017331622497
-0.39372555618151667 0.8869710166252683
-0.37207313986990237 0.8678479221375954
-0.37207313986990237 0.8678479221375954
-0.3828993480257095 0.8487248276499226
-0.3828993480257095 0.8296017331622497
-0.37207313986990237 0.7148631662362125
-0.41537797249313096 0.7148631662362125
-0.43703038880474526 0.6766169772608668
-0.45868280511635956 0.638370788285521
-0.45868280511635956 0.7148631662362125
-0.4695090132721667 0.7339862607238854
-0.4695090132721667 0.7339862607238854
-0.4262041806489381 0.7722324496992311
-0.45868280511635956 0.7722324496992311
-0.4478565969605524 0.7531093552115582
-0.43703038880474526 0.6766169772608668
-0.4478565969605524 0.6766169772608668
-0.4695090132721667 0.5810015048225023
-0.48033522142797386 0.5427553158471566
-0.5128138458953952 0.5427553158471566
-0.5344662622070095 0.5427553158471566
-0.5344662622070095 0.5236322213594837
-0.5452924703628167 0.5045091268718109
-0.5561186785186238 0.5810015048225023
-0.5561186785186238 0.5236322213594837
-0.5777710948302381 0.5427553158471566
-0.566944886674431 0.5427553158471566
-0.566944886674431 0.485386032384138
-0.5777710948302381 0.3706474654581008
-0.5994235111418524 0.332401276482755
-0.6210759274534667 0.2750319930197364
-0.6643807600766953 0.2176627095567178
-0.6643807600766953 0.19853961506904494
-0.6860331763883096 0.19853961506904494
-0.6860331763883096 0.17941652058137206
-0.6860331763883096 0.17941652058137206
-0.6860331763883096 0.19853961506904494
-0.6860331763883096 0.17941652058137206
-0.6860331763883096 0.16029342609369918
-0.642728343765081 0.12204723711835344
-0.642728343765081 0.0838010481430077
-0.6643807600766953 0.026431764679989082
-0.6752069682325025 -0.05006061327070241
-0.6752069682325025 -0.08830680224604816
-0.6968593845441168 -0.10742989673372103
-0.6968593845441168 -0.08830680224604816
-0.6535545519208882 -0.05006061327070241
-0.642728343765081 -0.05006061327070241
-0.6210759274534667 -0.030937518783029534
-0.5885973029860453 -0.030937518783029534
-0.5344662622070095 -0.030937518783029534
-0.5236400540512024 0.0073086701923162104
-0.5344662622070095 -0.011814424295356661
-0.491161429583781 -0.05006061327070241
-0.491161429583781 -0.06918370775837528
-0.45868280511635956 -0.08830680224604816
-0.4262041806489381 -0.08830680224604816
-0.41537797249313096 -0.05006061327070241
-0.37207313986990237 -0.030937518783029534
-0.3179420990908666 0.026431764679989082
-0.2854634746234452 0.06467795365533482
-0.2205062256886023 0.06467795365533482
-0.17720139306537372 0.0838010481430077
-0.16637518490956657 0.10292414263068057
-0.13389656044214512 0.10292414263068057
-0.14472276859795227 0.04555485916766196
-0.11224414413053083 0.026431764679989082
-0.06893931150730223 0.026431764679989082
-0.05811310335149509 0.06467795365533482
-0.014808270728266496 0.06467795365533482
0.006844145583347798 0.12204723711835344
0.017670353739154945 0.14117033160602632
0.08262760267399782 0.19853961506904494
0.09345381082980497 0.19853961506904494
0.13675864345303357 0.2176627095567178
0.14758485160884072 0.19853961506904494
0.15841105976464787 0.16029342609369918
0.15841105976464787 0.14117033160602632
0.12593243529722642 0.06467795365533482
0.11510622714141927 0.0838010481430077
0.08262760267399782 0.026431764679989082
0.09345381082980497 0.12204723711835344
0.07180139451819069 0.10292414263068057
0.08262760267399782 0.17941652058137206
0.09345381082980497 0.17941652058137206
0.08262760267399782 0.10292414263068057
0.09345381082980497 0.14117033160602632
0.03932277005076924 0.10292414263068057
0.03932277005076924 0.04555485916766196
0.006844145583347798 0.0073086701923162104
-0.025634478884073643 -0.011814424295356661
-0.05811310335149509 -0.08830680224604816
-0.10141793597472368 -0.030937518783029534
-0.12307035228633798 -0.05006061327070241
-0.14472276859795227 0.0073086701923162104
-0.15554897675375942 0.026431764679989082
-0.17720139306537372 0.0073086701923162104
-0.17720139306537372 0.06467795365533482
-0.20968001753279517 0.0073086701923162104
-0.19885380937698802 -0.030937518783029534
-0.25298485015602373 -0.011814424295356661
-0.25298485015602373 -0.06918370775837528
-0.25298485015602373 -0.08830680224604816
-0.29628968277925233 -0.16479918019673964
-0.27463726646763803 -0.1265529912213939
-0.3071158909350595 -0.10742989673372103
-0.3287683072466738 -0.14567608570906676
-0.3395945154024809 -0.011814424295356661
-0.3071158909350595 -0.030937518783029534
-0.3071158909350595 -0.011814424295356661
-0.29628968277925233 0.026431764679989082
-0.2854634746234452 -0.030937518783029534
-0.29628968277925233 -0.030937518783029534
-0.2854634746234452 -0.06918370775837528
-0.3071158909350595 -0.06918370775837528
-0.29628968277925233 -0.05006061327070241
-0.27463726646763803 -0.030937518783029534
-0.27463726646763803 -0.011814424295356661
-0.2854634746234452 -0.011814424295356661
-0.2638110583118309 0.04555485916766196
-0.27463726646763803 0.026431764679989082
-0.2854634746234452 0.0838010481430077
-0.24215864200021658 0.0838010481430077
-0.19885380937698802 0.04555485916766196
-0.19885380937698802 0.0838010481430077
-0.19885380937698802 0.10292414263068057
-0.19885380937698802 0.12204723711835344
-0.20968001753279517 0.12204723711835344
-0.20968001753279517 0.0838010481430077
-0.19885380937698802 0.12204723711835344
-0.18802760122118087 0.16029342609369918
-0.17720139306537372 0.17941652058137206
-0.16637518490956657 0.16029342609369918
-0.16637518490956657 0.2176627095567178
-0.13389656044214512 0.23678580404439067
-0.12307035228633798 0.19853961506904494
-0.16637518490956657 0.2176627095567178
-0.12307035228633798 0.2176627095567178
-0.15554897675375942 0.17941652058137206
-0.16637518490956657 0.16029342609369918
-0.12307035228633798 0.14117033160602632
-0.13389656044214512 0.12204723711835344
-0.14472276859795227 0.17941652058137206
-0.15554897675375942 0.16029342609369918
-0.13389656044214512 0.19853961506904494
-0.12307035228633798 0.2750319930197364
-0.09059172781891653 0.2941550875074093
-0.10141793597472368 0.2941550875074093
-0.07976551966310938 0.31327818199508217
-0.11224414413053083 0.25590889853206356
-0.09059172781891653 0.19853961506904494
-0.10141793597472368 0.16029342609369918
-0.09059172781891653 0.19853961506904494
-0.11224414413053083 0.19853961506904494
-0.10141793597472368 0.23678580404439067
-0.09059172781891653 0.25590889853206356
-0.07976551966310938 0.2941550875074093
-0.06893931150730223 0.2750319930197364
-0.05811310335149509 0.332401276482755
-0.04728689519568794 0.2750319930197364
-0.04728689519568794 0.2176627095567178
-0.06893931150730223 0.17941652058137206
-0.06893931150730223 0.19853961506904494
-0.07976551966310938 0.17941652058137206
-0.09059172781891653 0.17941652058137206
-0.09059172781891653 0.16029342609369918
-0.06893931150730223 0.2176627095567178
-0.07976551966310938 0.31327818199508217
-0.04728689519568794 0.332401276482755
-0.025634478884073643 0.35152437097042794
-0.03646068703988079 0.3706474654581008
-0.014808270728266496 0.35152437097042794
-0.03646068703988079 0.31327818199508217
-0.04728689519568794 0.2750319930197364
-0.05811310335149509 0.19853961506904494
-0.06893931150730223 0.19853961506904494
-0.06893931150730223 0.2176627095567178
-0.06893931150730223 0.19853961506904494
-0.05811310335149509 0.2750319930197364
-0.05811310335149509 0.332401276482755
-0.03646068703988079 0.2941550875074093
-0.03646068703988079 0.35152437097042794
-0.03646068703988079 0.35152437097042794
-0.03646068703988079 0.332401276482755
-0.025634478884073643 0.2750319930197364
-0.003982062572459349 0.2750319930197364
-0.04728689519568794 0.2750319930197364
-0.03646068703988079 0.17941652058137206
-0.04728689519568794 0.2176627095567178
-0.03646068703988079 0.2176627095567178
-0.025634478884073643 0.23678580404439067
-0.025634478884073643 0.31327818199508217
-0.025634478884073643 0.31327818199508217
-0.003982062572459349 0.35152437097042794
0.028496561894962094 0.31327818199508217
-0.003982062572459349 0.35152437097042794
-0.014808270728266496 0.31327818199508217
-0.014808270728266496 0.25590889853206356
-0.03646068703988079 0.19853961506904494
0.017670353739154945 0.17941652058137206
-0.014808270728266496 0.19853961506904494
-0.04728689519568794 0.17941652058137206
-0.03646068703988079 0.2176627095567178
-0.025634478884073643 0.2941550875074093
-0.014808270728266496 0.2941550875074093
-0.014808270728266496 0.31327818199508217
0.03932277005076924 0.40889365443344655
0.017670353739154945 0.35152437097042794
0.017670353739154945 0.2941550875074093
0.006844145583347798 0.23678580404439067
-0.003982062572459349 0.2176627095567178
-0.003982062572459349 0.17941652058137206
-0.03646068703988079 0.2176627095567178
-0.03646068703988079 0.23678580404439067
-0.03646068703988079 0.2941550875074093
-0.025634478884073643 0.31327818199508217
-0.025634478884073643 0.2941550875074093
-0.003982062572459349 0.25590889853206356
0.028496561894962094 0.25590889853206356
0.006844145583347798 0.2941550875074093
-0.003982062572459349 0.23678580404439067
-0.003982062572459349 0.25590889853206356
-0.014808270728266496 0.2176627095567178
-0.003982062572459349 0.23678580404439067
-0.014808270728266496 0.19853961506904494
-0.03646068703988079 0.25590889853206356
-0.003982062572459349 0.23678580404439067
0.017670353739154945 0.31327818199508217
0.017670353739154945 0.3706474654581008
0.03932277005076924 0.332401276482755
0.006844145583347798 0.332401276482755
0.017670353739154945 0.2941550875074093
0.017670353739154945 0.2750319930197364
0.03932277005076924 0.2176627095567178
0.017670353739154945 0.2176627095567178
0.006844145583347798 0.14117033160602632
-0.003982062572459349 0.14117033160602632
-0.003982062572459349 0.19853961506904494
0.006844145583347798 0.25590889853206356
0.006844145583347798 0.2941550875074093
0.028496561894962094 0.31327818199508217
0.017670353739154945 0.332401276482755
0.060975186362383534 0.332401276482755
0.03932277005076924 0.31327818199508217
0.028496561894962094 0.23678580404439067
0.017670353739154945 0.17941652058137206
0.017670353739154945 0.16029342609369918
-0.003982062572459349 0.17941652058137206
0.017670353739154945 0.2176627095567178
-0.003982062572459349 0.2750319930197364
0.006844145583347798 0.2941550875074093
0.017670353739154945 0.31327818199508217
0.006844145583347798 0.2750319930197364
0.060975186362383534 0.31327818199508217
0.05014897820657639 0.2941550875074093
0.03932277005076924 0.332401276482755
0.03932277005076924 0.35152437097042794
0.05014897820657639 0.25590889853206356
0.017670353739154945 0.25590889853206356
0.03932277005076924 0.19853961506904494
0.017670353739154945 0.23678580404439067
0.006844145583347798 0.23678580404439067
-0.003982062572459349 0.25590889853206356
-0.003982062572459349 0.2750319930197364
0.017670353739154945 0.2750319930197364
0.03932277005076924 0.332401276482755
0.05014897820657639 0.35152437097042794
0.060975186362383534 0.31327818199508217
0.03932277005076924 0.31327818199508217
0.028496561894962094 0.25590889853206356
0.017670353739154945 0.19853961506904494
0.028496561894962094 0.17941652058137206
0.017670353739154945 0.16029342609369918
-0.003982062572459349 0.17941652058137206
0.017670353739154945 0.17941652058137206
0.017670353739154945 0.25590889853206356
0.017670353739154945 0.25590889853206356
0.028496561894962094 0.31327818199508217
0.07180139451819069 0.31327818199508217
0.05014897820657639 0.31327818199508217
0.006844145583347798 0.31327818199508217
0.05014897820657639 0.25590889853206356
0.03932277005076924 0.19853961506904494
0.03932277005076924 0.19853961506904494
0.017670353739154945 0.23678580404439067
-0.003982062572459349 0.19853961506904494
0.006844145583347798 0.19853961506904494
0.017670353739154945 0.2750319930197364
0.03932277005076924 0.23678580404439067
0.03932277005076924 0.23678580404439067
0.08262760267399782 0.23678580404439067
0.08262760267399782 0.31327818199508217
0.03932277005076924 0.25590889853206356
0.05014897820657639 0.2176627095567178
0.028496561894962094 0.23678580404439067
0.028496561894962094 0.17941652058137206
0.028496561894962094 0.16029342609369918
0.03932277005076924 0.19853961506904494
0.017670353739154945 0.2176627095567178
0.05014897820657639 0.23678580404439067
0.07180139451819069 0.25590889853206356
0.10428001898561212 0.31327818199508217
0.10428001898561212 0.31327818199508217
0.09345381082980497 0.2941550875074093
0.09345381082980497 0.23678580404439067
0.10428001898561212 0.23678580404439067
0.09345381082980497 0.17941652058137206
0.09345381082980497 0.14117033160602632
0.09345381082980497 0.19853961506904494
0.10428001898561212 0.14117033160602632
0.08262760267399782 0.16029342609369918
0.09345381082980497 0.17941652058137206
0.10428001898561212 0.19853961506904494
0.11510622714141927 0.25590889853206356
0.14758485160884072 0.2750319930197364
0.15841105976464787 0.25590889853206356
0.16923726792045501 0.25590889853206356
0.20171589238787646 0.19853961506904494
0.20171589238787646 0.12204723711835344
0.1908896842320693 0.12204723711835344
0.20171589238787646 0.12204723711835344
0.1908896842320693 0.14117033160602632
0.18006347607626216 0.17941652058137206
0.14758485160884072 0.2176627095567178
0.16923726792045501 0.2750319930197364
0.14758485160884072 0.2750319930197364
0.16923726792045501 0.31327818199508217
0.16923726792045501 0.2750319930197364
0.14758485160884072 0.2750319930197364
0.16923726792045501 0.2176627095567178
0.14758485160884072 0.25590889853206356
0.13675864345303357 0.17941652058137206
0.16923726792045501 0.23678580404439067
0.20171589238787646 0.35152437097042794
0.22336830869949076 0.35152437097042794
0.26667314132271935 0.44713984340879226
0.26667314132271935 0.44713984340879226
0.24502072501110506 0.44713984340879226
0.2341945168552979 0.40889365443344655
0.22336830869949076 0.35152437097042794
0.1908896842320693 0.31327818199508217
0.14758485160884072 0.17941652058137206
0.10428001898561212 0.16029342609369918
0.060975186362383534 0.06467795365533482
0.060975186362383534 0.0838010481430077
0.006844145583347798 0.10292414263068057
0.006844145583347798 0.10292414263068057
0.03932277005076924 0.14117033160602632
0.03932277005076924 0.2176627095567178
0.05014897820657639 0.2176627095567178
0.060975186362383534 0.2176627095567178
0.060975186362383534 0.17941652058137206
0.060975186362383534 0.14117033160602632
0.05014897820657639 0.0838010481430077
0.05014897820657639 0.0838010481430077
0.006844145583347798 0.0073086701923162104
-0.003982062572459349 -0.08830680224604816
0.006844145583347798 -0.10742989673372103
-0.025634478884073643 -0.1265529912213939
-0.03646068703988079 -0.1265529912213939
0.006844145583347798 0.0838010481430077
0.07180139451819069 0.3706474654581008
0.22336830869949076 0.8296017331622497
0.4182400555040194 1.250309811891053
0.6239380104643552 1.5562793236938188
0.7646787164898481 1.7092640795952019
0.8729407980479196 1.6518947961321833
0.9378980469827625 1.384171473304763
0.9162456306711482 0.7722324496992311
0.7538525083340409 -0.08830680224604816
0.4831973044388623 -1.1974462825310748
0.16923726792045501 -2.23009338486541
-0.12307035228633798 -2.995017164372325
-0.23133243384440944 -3.205371203736726
-0.10141793597472368 -2.8994016919339605
0.2125421005436836 -2.2683395738407555
0.688895259399198 -1.4842926998461679
1.2410318753453626 -0.70024582585158
1.7498636586682985 -0.1265529912213939
2.226216817523813 0.332401276482755
2.659265143756099 0.5236322213594837
3.0706610536767704 0.6001245993101753
3.471230755441635 0.638370788285521
3.8176694164274636 0.6574938827731939
4.077498412166835 0.638370788285521
4.2507177426597496 0.5427553158471566
4.315674991594593 0.35152437097042794
4.283196367127171 0.23678580404439067
4.174934285569099 0.2750319930197364
3.9367577061413424 0.332401276482755
3.5903190451555136 0.31327818199508217
3.1572707189232276 0.3706474654581008
2.6917437682235206 0.4280167489211194
2.1720857767447774 0.40889365443344655
1.6091229526428057 0.40889365443344655
1.0678125448524483 0.25590889853206356
0.4831973044388623 0.12204723711835344
0.05014897820657639 -0.011814424295356661
-0.25298485015602373 -0.16479918019673964
-0.4478565969605524 -0.16479918019673964
-0.5019876377395881 -0.10742989673372103
-0.491161429583781 0.0073086701923162104
-0.43703038880474526 0.12204723711835344
-0.39372555618151667 0.19853961506904494
-0.3287683072466738 0.2941550875074093
-0.27463726646763803 0.3706474654581008
-0.24215864200021658 0.4280167489211194
-0.2205062256886023 0.485386032384138
-0.19885380937698802 0.5618784103348295
-0.19885380937698802 0.5618784103348295
-0.16637518490956657 0.5810015048225023
-0.18802760122118087 0.5618784103348295
-0.19885380937698802 0.5236322213594837
-0.2205062256886023 0.5045091268718109
-0.25298485015602373 0.485386032384138
-0.27463726646763803 0.485386032384138
-0.27463726646763803 0.485386032384138
-0.27463726646763803 0.485386032384138
-0.2638110583118309 0.5045091268718109
-0.23133243384440944 0.5618784103348295
-0.23133243384440944 0.5810015048225023
-0.23133243384440944 0.6192476937978482
-0.19885380937698802 0.6192476937978482
-0.24215864200021658 0.5618784103348295
-0.2205062256886023 0.6001245993101753
-0.23133243384440944 0.5618784103348295
-0.24215864200021658 0.5236322213594837
-0.27463726646763803 0.5045091268718109
-0.25298485015602373 0.5045091268718109
-0.25298485015602373 0.5427553158471566
-0.27463726646763803 0.5618784103348295
-0.29628968277925233 0.638370788285521
-0.2638110583118309 0.6574938827731939
-0.2638110583118309 0.6192476937978482
-0.2205062256886023 0.7148631662362125
-0.23133243384440944 0.5618784103348295
-0.23133243384440944 0.6001245993101753
-0.25298485015602373 0.5618784103348295
-0.2638110583118309 0.5045091268718109
-0.3071158909350595 0.5236322213594837
-0.3287683072466738 0.485386032384138
-0.3071158909350595 0.5427553158471566
-0.3071158909350595 0.5236322213594837
-0.2854634746234452 0.6001245993101753
-0.29628968277925233 0.6192476937978482
-0.27463726646763803 0.6001245993101753
-0.2638110583118309 0.6192476937978482
-0.27463726646763803 0.5618784103348295
-0.2854634746234452 0.5618784103348295
-0.3071158909350595 0.5236322213594837
-0.35042072355828807 0.5045091268718109
-0.3612469317140952 0.485386032384138
-0.35042072355828807 0.46626293789646517
-0.35042072355828807 0.5045091268718109
-0.3612469317140952 0.5236322213594837
-0.3395945154024809 0.5427553158471566
-0.3612469317140952 0.5427553158471566
-0.3287683072466738 0.5236322213594837
-0.3287683072466738 0.5427553158471566
-0.3287683072466738 0.5236322213594837
-0.3828993480257095 0.46626293789646517
-0.3828993480257095 0.40889365443344655
-0.3828993480257095 0.38977055994577364
-0.3828993480257095 0.332401276482755
-0.4045517643373238 0.2941550875074093
-0.45868280511635956 0.31327818199508217
-0.4262041806489381 0.31327818199508217
-0.4695090132721667 0.31327818199508217
-0.45868280511635956 0.2941550875074093
-0.4695090132721667 0.31327818199508217
-0.4478565969605524 0.2941550875074093
-0.4262041806489381 0.19853961506904494
-0.48033522142797386 0.19853961506904494
-0.491161429583781 0.10292414263068057
-0.5128138458953952 0.10292414263068057
-0.5019876377395881 0.026431764679989082
-0.5344662622070095 -0.011814424295356661
-0.566944886674431 -0.030937518783029534
-0.5561186785186238 -0.030937518783029534
-0.5452924703628167 -0.030937518783029534
-0.5344662622070095 -0.06918370775837528
-0.5452924703628167 -0.06918370775837528
-0.5561186785186238 -0.06918370775837528
-0.5019876377395881 -0.1265529912213939
-0.5236400540512024 -0.16479918019673964
-0.5344662622070095 -0.27953774712277685
-0.5777710948302381 -0.33690703058579546
-0.5885973029860453 -0.39427631404881414
-0.5885973029860453 -0.413399408536487
-0.6102497192976596 -0.45164559751183275
-0.5885973029860453 -0.43252250302415984
-0.5452924703628167 -0.39427631404881414
-0.5236400540512024 -0.39427631404881414
-0.491161429583781 -0.3751532195611412
-0.4695090132721667 -0.3560301250734684
-0.45868280511635956 -0.413399408536487
-0.4478565969605524 -0.43252250302415984
-0.4695090132721667 -0.4707686919995056
-0.4478565969605524 -0.48989178648717846
-0.4695090132721667 -0.56638416443787
-0.4478565969605524 -0.6237534479008886
-0.4045517643373238 -0.5855072589255428
-0.3828993480257095 -0.56638416443787
-0.3395945154024809 -0.5090148809748514
-0.29628968277925233 -0.48989178648717846
-0.25298485015602373 -0.43252250302415984
-0.2205062256886023 -0.43252250302415984
-0.18802760122118087 -0.45164559751183275
-0.13389656044214512 -0.43252250302415984
-0.14472276859795227 -0.48989178648717846
-0.14472276859795227 -0.48989178648717846
-0.12307035228633798 -0.56638416443787
-0.07976551966310938 -0.5472610699501971
-0.06893931150730223 -0.5281379754625242
-0.025634478884073643 -0.4707686919995056
0.017670353739154945 -0.3751532195611412
0.05014897820657639 -0.33690703058579546
0.09345381082980497 -0.29866084161044976
0.10428001898561212 -0.24129155814743114
0.10428001898561212 -0.27953774712277685
0.12593243529722642 -0.27953774712277685
0.14758485160884072 -0.3177839360981226
0.18006347607626216 -0.29866084161044976
0.18006347607626216 -0.3560301250734684
0.15841105976464787 -0.3560301250734684
0.16923726792045501 -0.3177839360981226
0.1908896842320693 -0.29866084161044976
0.1908896842320693 -0.24129155814743114
0.2125421005436836 -0.22216846365975826
0.22336830869949076 -0.16479918019673964
0.2558469331669122 -0.18392227468441252
0.2341945168552979 -0.16479918019673964
0.2125421005436836 -0.20304536917208538
0.2125421005436836 -0.27953774712277685
0.20171589238787646 -0.33690703058579546
0.18006347607626216 -0.3751532195611412
0.10428001898561212 -0.3560301250734684
0.08262760267399782 -0.3560301250734684
0.05014897820657639 -0.3177839360981226
0.05014897820657639 -0.3177839360981226
0.028496561894962094 -0.24129155814743114
0.017670353739154945 -0.22216846365975826
0.006844145583347798 -0.24129155814743114
-0.014808270728266496 -0.27953774712277685
-0.03646068703988079 -0.3177839360981226
-0.09059172781891653 -0.3560301250734684
-0.14472276859795227 -0.413399408536487
-0.18802760122118087 -0.43252250302415984
-0.20968001753279517 -0.413399408536487
-0.19885380937698802 -0.3751532195611412
-0.2205062256886023 -0.3560301250734684
-0.2205062256886023 -0.3177839360981226
-0.19885380937698802 -0.29866084161044976
-0.19885380937698802 -0.24129155814743114
-0.18802760122118087 -0.260414652635104
-0.2205062256886023 -0.27953774712277685
-0.23133243384440944 -0.33690703058579546
-0.2205062256886023 -0.3751532195611412
-0.24215864200021658 -0.3751532195611412
-0.24215864200021658 -0.3751532195611412
-0.25298485015602373 -0.413399408536487
-0.27463726646763803 -0.3751532195611412
-0.27463726646763803 -0.33690703058579546
-0.2638110583118309 -0.27953774712277685
-0.25298485015602373 -0.22216846365975826
-0.24215864200021658 -0.260414652635104
-0.23133243384440944 -0.27953774712277685
-0.20968001753279517 -0.29866084161044976
-0.20968001753279517 -0.29866084161044976
-0.24215864200021658 -0.3560301250734684
-0.2205062256886023 -0.33690703058579546
-0.2205062256886023 -0.33690703058579546
-0.2205062256886023 -0.27953774712277685
-0.20968001753279517 -0.24129155814743114
-0.20968001753279517 -0.18392227468441252
-0.19885380937698802 -0.20304536917208538
-0.18802760122118087 -0.14567608570906676
-0.17720139306537372 -0.10742989673372103
-0.14472276859795227 -0.18392227468441252
-0.14472276859795227 -0.22216846365975826
-0.14472276859795227 -0.18392227468441252
-0.14472276859795227 -0.20304536917208538
-0.14472276859795227 -0.27953774712277685
-0.16637518490956657 -0.20304536917208538
-0.15554897675375942 -0.20304536917208538
-0.17720139306537372 -0.22216846365975826
-0.15554897675375942 -0.14567608570906676
-0.13389656044214512 -0.14567608570906676
-0.13389656044214512 -0.1265529912213939
-0.12307035228633798 -0.1265529912213939
-0.10141793597472368 -0.1265529912213939
-0.09059172781891653 -0.1265529912213939
-0.11224414413053083 -0.14567608570906676
-0.09059172781891653 -0.14567608570906676
-0.11224414413053083 -0.18392227468441252
-0.12307035228633798 -0.14567608570906676
-0.13389656044214512 -0.16479918019673964
-0.11224414413053083 -0.14567608570906676
-0.13389656044214512 -0.14567608570906676
-0.11224414413053083 -0.1265529912213939
-0.06893931150730223 -0.1265529912213939
-0.10141793597472368 -0.06918370775837528
-0.07976551966310938 -0.06918370775837528
-0.06893931150730223 -0.011814424295356661
-0.07976551966310938 -0.10742989673372103
-0.10141793597472368 -0.08830680224604816
-0.12307035228633798 -0.1265529912213939
-0.11224414413053083 -0.16479918019673964
-0.10141793597472368 -0.1265529912213939
-0.10141793597472368 -0.18392227468441252
-0.09059172781891653 -0.16479918019673964
-0.07976551966310938 -0.14567608570906676
-0.06893931150730223 -0.1265529912213939
-0.05811310335149509 -0.08830680224604816
-0.03646068703988079 -0.08830680224604816
-0.03646068703988079 -0.08830680224604816
-0.04728689519568794 -0.10742989673372103
-0.05811310335149509 -0.10742989673372103
-0.07976551966310938 -0.10742989673372103
-0.07976551966310938 -0.20304536917208538
-0.09059172781891653 -0.18392227468441252
-0.10141793597472368 -0.18392227468441252
-0.09059172781891653 -0.14567608570906676
-0.06893931150730223 -0.1265529912213939
-0.04728689519568794 -0.10742989673372103
-0.04728689519568794 -0.08830680224604816
-0.03646068703988079 -0.10742989673372103
-0.025634478884073643 -0.06918370775837528
-0.025634478884073643 -0.1265529912213939
-0.025634478884073643 -0.1265529912213939
-0.05811310335149509 -0.18392227468441252
-0.04728689519568794 -0.20304536917208538
-0.04728689519568794 -0.18392227468441252
-0.05811310335149509 -0.18392227468441252
-0.04728689519568794 -0.14567608570906676
-0.04728689519568794 -0.1265529912213939
-0.04728689519568794 -0.08830680224604816
-0.025634478884073643 -0.08830680224604816
0.017670353739154945 -0.08830680224604816
-0.003982062572459349 -0.06918370775837528
-0.003982062572459349 -0.10742989673372103
-0.003982062572459349 -0.14567608570906676
-0.04728689519568794 -0.16479918019673964
-0.03646068703988079 -0.20304536917208538
-0.06893931150730223 -0.20304536917208538
-0.04728689519568794 -0.24129155814743114
-0.05811310335149509 -0.18392227468441252
-0.05811310335149509 -0.10742989673372103
-0.014808270728266496 -0.06918370775837528
-0.04728689519568794 -0.030937518783029534
-0.003982062572459349 -0.030937518783029534
-0.014808270728266496 -0.08830680224604816
-0.025634478884073643 -0.10742989673372103
-0.025634478884073643 -0.18392227468441252
-0.03646068703988079 -0.18392227468441252
-0.05811310335149509 -0.22216846365975826
-0.04728689519568794 -0.22216846365975826
-0.04728689519568794 -0.14567608570906676
-0.05811310335149509 -0.1265529912213939
-0.04728689519568794 -0.1265529912213939
-0.03646068703988079 -0.1265529912213939
-0.003982062572459349 -0.08830680224604816
0.006844145583347798 -0.08830680224604816
0.006844145583347798 -0.1265529912213939
-0.003982062572459349 -0.10742989673372103
0.006844145583347798 -0.14567608570906676
-0.014808270728266496 -0.18392227468441252
-0.025634478884073643 -0.14567608570906676
-0.05811310335149509 -0.18392227468441252
-0.014808270728266496 -0.14567608570906676
-0.025634478884073643 -0.18392227468441252
-0.003982062572459349 -0.14567608570906676
0.006844145583347798 -0.1265529912213939
0.006844145583347798 -0.06918370775837528
0.028496561894962094 -0.08830680224604816
0.05014897820657639 -0.030937518783029534
0.028496561894962094 -0.10742989673372103
0.017670353739154945 -0.10742989673372103
-0.003982062572459349 -0.16479918019673964
-0.003982062572459349 -0.16479918019673964
-0.025634478884073643 -0.16479918019673964
-0.014808270728266496 -0.16479918019673964
-0.003982062572459349 -0.16479918019673964
-0.014808270728266496 -0.1265529912213939
-0.003982062572459349 -0.14567608570906676
-0.014808270728266496 -0.10742989673372103
0.006844145583347798 -0.06918370775837528
0.017670353739154945 -0.10742989673372103
0.03932277005076924 -0.08830680224604816
0.03932277005076924 -0.1265529912213939
0.006844145583347798 -0.20304536917208538
-0.014808270728266496 -0.18392227468441252
-0.003982062572459349 -0.16479918019673964
-0.014808270728266496 -0.18392227468441252
-0.014808270728266496 -0.22216846365975826
-0.014808270728266496 -0.16479918019673964
-0.025634478884073643 -0.14567608570906676
-0.003982062572459349 -0.1265529912213939
0.028496561894962094 -0.10742989673372103
0.028496561894962094 -0.08830680224604816
0.028496561894962094 -0.08830680224604816
0.006844145583347798 -0.1265529912213939
0.006844145583347798 -0.1265529912213939
0.006844145583347798 -0.20304536917208538
-0.025634478884073643 -0.22216846365975826
-0.025634478884073643 -0.24129155814743114
-0.05811310335149509 -0.24129155814743114
-0.03646068703988079 -0.16479918019673964
-0.003982062572459349 -0.06918370775837528
-0.014808270728266496 -0.08830680224604816
0.006844145583347798 -0.1265529912213939
0.006844145583347798 -0.10742989673372103
0.006844145583347798 -0.1265529912213939
0.006844145583347798 -0.22216846365975826
-0.014808270728266496 -0.20304536917208538
-0.014808270728266496 -0.24129155814743114
-0.025634478884073643 -0.24129155814743114
-0.05811310335149509 -0.22216846365975826
-0.04728689519568794 -0.14567608570906676
-0.04728689519568794 -0.10742989673372103
-0.003982062572459349 -0.10742989673372103
0.017670353739154945 -0.08830680224604816
0.017670353739154945 -0.08830680224604816
0.006844145583347798 -0.10742989673372103
0.006844145583347798 -0.10742989673372103
-0.014808270728266496 -0.14567608570906676
-0.014808270728266496 -0.16479918019673964
-0.025634478884073643 -0.20304536917208538
-0.014808270728266496 -0.24129155814743114
-0.025634478884073643 -0.24129155814743114
-0.025634478884073643 -0.20304536917208538
-0.014808270728266496 -0.16479918019673964
0.017670353739154945 -0.18392227468441252
0.006844145583347798 -0.08830680224604816
0.006844145583347798 -0.1265529912213939
0.006844145583347798 -0.10742989673372103
0.028496561894962094 -0.14567608570906676
0.03932277005076924 -0.05006061327070241
0.060975186362383534 -0.05006061327070241
0.05014897820657639 -0.06918370775837528
0.08262760267399782 -0.1265529912213939
0.09345381082980497 -0.10742989673372103
0.09345381082980497 -0.08830680224604816
0.11510622714141927 -0.06918370775837528
0.13675864345303357 -0.05006061327070241
0.15841105976464787 0.0073086701923162104
0.15841105976464787 0.026431764679989082
0.12593243529722642 0.0073086701923162104
0.10428001898561212 0.026431764679989082
0.08262760267399782 -0.06918370775837528
0.060975186362383534 -0.08830680224604816
0.028496561894962094 -0.08830680224604816
0.028496561894962094 -0.08830680224604816
0.028496561894962094 -0.10742989673372103
0.03932277005076924 -0.06918370775837528
0.028496561894962094 0.026431764679989082
0.05014897820657639 0.0838010481430077
0.07180139451819069 0.10292414263068057
0.13675864345303357 0.16029342609369918
0.15841105976464787 0.16029342609369918
0.1908896842320693 0.19853961506904494
0.20171589238787646 0.14117033160602632
0.15841105976464787 0.04555485916766196
0.12593243529722642 0.026431764679989082
0.07180139451819069 -0.06918370775837528
0.028496561894962094 -0.10742989673372103
-0.03646068703988079 -0.1265529912213939
-0.04728689519568794 -0.06918370775837528
-0.04728689519568794 -0.08830680224604816
-0.06893931150730223 -0.05006061327070241
-0.06893931150730223 -0.05006061327070241
-0.04728689519568794 -0.08830680224604816
-0.03646068703988079 -0.06918370775837528
-0.06893931150730223 -0.1265529912213939
-0.06893931150730223 -0.16479918019673964
-0.06893931150730223 -0.20304536917208538
-0.06893931150730223 -0.20304536917208538
-0.10141793597472368 -0.260414652635104
-0.10141793597472368 -0.260414652635104
-0.07976551966310938 -0.29866084161044976
-0.12307035228633798 -0.33690703058579546
-0.09059172781891653 -0.260414652635104
-0.04728689519568794 -0.05006061327070241
0.05014897820657639 0.23678580404439067
0.18006347607626216 0.638370788285521
0.3424565984133694 1.0017095835513055
0.5156759289062838 1.2885560008663988
0.6780690512433909 1.3076790953540716
0.7755049246456552 1.1164481504773427
0.7863311328014624 0.638370788285521
0.688895259399198 -0.20304536917208538
0.4723710962830551 -1.2356924715064206
0.1908896842320693 -2.1536010069147182
-0.03646068703988079 -2.7655400305202504
-0.09059172781891653 -2.8994016919339605
0.05014897820657639 -2.5169398021805027
0.3749352228807908 -1.7902622116489337
0.8729407980479196 -0.9870922431666731
1.425077413994084 -0.18392227468441252
1.9663878217844415 0.38977055994577364
2.518524437730606 0.791355544186904
3.016530012897735 1.1355712449650157
3.4820569635974423 1.250309811891053
3.915105289829728 1.3459252843294174
4.272370158971364 1.4415407567677816
4.55385157102235 1.4606638512554546
4.7270709015152645 1.3268021898417444
4.770375734138493 1.059078867014324
4.6837660688920355 0.6574938827731939
4.4780681139317 0.31327818199508217
4.185760493724906 0.026431764679989082
3.7851907919600425 -0.20304536917208538
3.2871852167929134 -0.29866084161044976
2.7783534334699778 -0.18392227468441252
2.2911740664586557 -0.06918370775837528
1.8256471157589487 0.12204723711835344
1.3709463732150484 0.17941652058137206
0.9378980469827625 0.2176627095567178
0.5156759289062838 0.04555485916766196
0.13675864345303357 -0.14567608570906676
-0.17720139306537372 -0.3560301250734684
-0.4262041806489381 -0.4707686919995056
-0.5561186785186238 -0.4707686919995056
-0.6319021356092739 -0.43252250302415984
-0.6643807600766953 -0.27953774712277685
-0.6319021356092739 -0.14567608570906676
-0.5885973029860453 -0.030937518783029534
-0.5344662622070095 0.10292414263068057
-0.48033522142797386 0.16029342609369918
-0.43703038880474526 0.23678580404439067
-0.4045517643373238 0.332401276482755
-0.4045517643373238 0.35152437097042794
-0.35042072355828807 0.35152437097042794
-0.3612469317140952 0.332401276482755
-0.3828993480257095 0.38977055994577364
-0.39372555618151667 0.332401276482755
-0.41537797249313096 0.332401276482755
-0.4262041806489381 0.35152437097042794
-0.4262041806489381 0.3706474654581008
-0.4262041806489381 0.35152437097042794
-0.4478565969605524 0.38977055994577364
-0.41537797249313096 0.40889365443344655
-0.4045517643373238 0.44713984340879226
-0.3828993480257095 0.44713984340879226
-0.4045517643373238 0.485386032384138
-0.4262041806489381 0.44713984340879226
-0.43703038880474526 0.40889365443344655
-0.45868280511635956 0.4280167489211194
-0.4695090132721667 0.35152437097042794
-0.491161429583781 0.3706474654581008
-0.4695090132721667 0.38977055994577364
-0.43703038880474526 0.4280167489211194
-0.4478565969605524 0.485386032384138
-0.45868280511635956 0.5045091268718109
-0.41537797249313096 0.5427553158471566
-0.43703038880474526 0.485386032384138
-0.43703038880474526 0.44713984340879226
-0.4478565969605524 0.40889365443344655
-0.4478565969605524 0.3706474654581008
-0.48033522142797386 0.332401276482755
-0.491161429583781 0.35152437097042794
-0.48033522142797386 0.332401276482755
-0.5019876377395881 0.38977055994577364
-0.491161429583781 0.38977055994577364
-0.48033522142797386 0.4280167489211194
-0.5019876377395881 0.4280167489211194
-0.491161429583781 0.44713984340879226
-0.48033522142797386 0.46626293789646517
-0.5019876377395881 0.40889365443344655
-0.5019876377395881 0.35152437097042794
-0.5236400540512024 0.3706474654581008
-0.5344662622070095 0.31327818199508217
-0.566944886674431 0.25590889853206356
-0.566944886674431 0.31327818199508217
-0.5777710948302381 0.2941550875074093
-0.566944886674431 0.31327818199508217
-0.566944886674431 0.31327818199508217
-0.566944886674431 0.332401276482755
-0.566944886674431 0.3706474654581008
-0.5885973029860453 0.332401276482755
-0.5994235111418524 0.2750319930197364
-0.5885973029860453 0.19853961506904494
-0.6210759274534667 0.16029342609369918
-0.642728343765081 0.12204723711835344
-0.6535545519208882 0.10292414263068057
-0.6535545519208882 0.17941652058137206
-0.642728343765081 0.14117033160602632
-0.6643807600766953 0.14117033160602632
-0.6643807600766953 0.12204723711835344
-0.6643807600766953 0.10292414263068057
-0.6860331763883096 0.0838010481430077
-0.7076855926999239 0.10292414263068057
-0.6860331763883096 0.04555485916766196
-0.7076855926999239 -0.030937518783029534
-0.7401642171673454 -0.06918370775837528
-0.7618166334789597 -0.10742989673372103
-0.7726428416347668 -0.1265529912213939
-0.7618166334789597 -0.16479918019673964
-0.7726428416347668 -0.14567608570906676
-0.7942952579463811 -0.1265529912213939
-0.7618166334789597 -0.22216846365975826
-0.7726428416347668 -0.22216846365975826
-0.7942952579463811 -0.24129155814743114
-0.783469049790574 -0.29866084161044976
-0.783469049790574 -0.3177839360981226
-0.7942952579463811 -0.43252250302415984
-0.8159476742579954 -0.45164559751183275
-0.8376000905696097 -0.45164559751183275
-0.8267738824138026 -0.48989178648717846
-0.8159476742579954 -0.5472610699501971
-0.8159476742579954 -0.5281379754625242
-0.7942952579463811 -0.5090148809748514
-0.7509904253231525 -0.43252250302415984
-0.7401642171673454 -0.45164559751183275
-0.7076855926999239 -0.39427631404881414
-0.6752069682325025 -0.4707686919995056
-0.6535545519208882 -0.5090148809748514
-0.6102497192976596 -0.48989178648717846
-0.5994235111418524 -0.5472610699501971
-0.6102497192976596 -0.5472610699501971
-0.5885973029860453 -0.56638416443787
-0.5236400540512024 -0.56638416443787
-0.5019876377395881 -0.5281379754625242
-0.5019876377395881 -0.45164559751183275
-0.43703038880474526 -0.43252250302415984
-0.3612469317140952 -0.43252250302415984
-0.3071158909350595 -0.413399408536487
-0.27463726646763803 -0.413399408536487
-0.2638110583118309 -0.39427631404881414
-0.19885380937698802 -0.413399408536487
-0.20968001753279517 -0.45164559751183275
-0.17720139306537372 -0.43252250302415984
-0.14472276859795227 -0.43252250302415984
-0.10141793597472368 -0.3751532195611412
-0.07976551966310938 -0.33690703058579546
-0.06893931150730223 -0.3177839360981226
-0.04728689519568794 -0.27953774712277685
-0.003982062572459349 -0.260414652635104
0.028496561894962094 -0.22216846365975826
0.017670353739154945 -0.24129155814743114
0.060975186362383534 -0.24129155814743114
0.05014897820657639 -0.3177839360981226
0.07180139451819069 -0.24129155814743114
0.07180139451819069 -0.33690703058579546
0.028496561894962094 -0.3177839360981226
0.028496561894962094 -0.33690703058579546
0.028496561894962094 -0.3177839360981226
0.006844145583347798 -0.27953774712277685
0.006844145583347798 -0.24129155814743114
0.006844145583347798 -0.20304536917208538
-0.003982062572459349 -0.18392227468441252
-0.025634478884073643 -0.24129155814743114
-0.03646068703988079 -0.260414652635104
-0.07976551966310938 -0.27953774712277685
-0.09059172781891653 -0.3560301250734684
-0.13389656044214512 -0.3751532195611412
-0.14472276859795227 -0.39427631404881414
-0.17720139306537372 -0.4707686919995056
-0.17720139306537372 -0.48989178648717846
-0.19885380937698802 -0.413399408536487
-0.20968001753279517 -0.3560301250734684
-0.23133243384440944 -0.3177839360981226
-0.24215864200021658 -0.3177839360981226
-0.27463726646763803 -0.33690703058579546
-0.2638110583118309 -0.3177839360981226
-0.2854634746234452 -0.413399408536487
-0.3179420990908666 -0.45164559751183275
-0.3179420990908666 -0.48989178648717846
-0.3612469317140952 -0.5281379754625242
-0.3612469317140952 -0.48989178648717846
-0.35042072355828807 -0.4707686919995056
-0.3612469317140952 -0.43252250302415984
-0.35042072355828807 -0.3177839360981226
-0.3612469317140952 -0.27953774712277685
-0.35042072355828807 -0.33690703058579546
-0.3179420990908666 -0.33690703058579546
-0.3179420990908666 -0.3560301250734684
-0.3179420990908666 -0.33690703058579546
-0.3287683072466738 -0.39427631404881414
-0.3287683072466738 -0.413399408536487
-0.3179420990908666 -0.39427631404881414
-0.3395945154024809 -0.413399408536487
-0.3071158909350595 -0.3177839360981226
-0.3071158909350595 -0.29866084161044976
-0.27463726646763803 -0.27953774712277685
-0.25298485015602373 -0.18392227468441252
-0.2638110583118309 -0.22216846365975826
-0.2205062256886023 -0.18392227468441252
-0.23133243384440944 -0.24129155814743114
-0.20968001753279517 -0.260414652635104
-0.23133243384440944 -0.260414652635104
-0.23133243384440944 -0.27953774712277685
-0.24215864200021658 -0.24129155814743114
-0.25298485015602373 -0.260414652635104
-0.23133243384440944 -0.24129155814743114
-0.23133243384440944 -0.22216846365975826
-0.2205062256886023 -0.18392227468441252
-0.20968001753279517 -0.1265529912213939
-0.17720139306537372 -0.06918370775837528
-0.16637518490956657 -0.08830680224604816
-0.17720139306537372 -0.1265529912213939
-0.18802760122118087 -0.18392227468441252
-0.20968001753279517 -0.20304536917208538
-0.23133243384440944 -0.16479918019673964
-0.20968001753279517 -0.20304536917208538
-0.2205062256886023 -0.20304536917208538
-0.20968001753279517 -0.1265529912213939
-0.20968001753279517 -0.10742989673372103
-0.19885380937698802 -0.08830680224604816
-0.15554897675375942 -0.06918370775837528
-0.14472276859795227 0.0073086701923162104
-0.14472276859795227 -0.030937518783029534
-0.12307035228633798 -0.011814424295356661
-0.14472276859795227 -0.011814424295356661
-0.18802760122118087 -0.08830680224604816
-0.20968001753279517 -0.10742989673372103
-0.17720139306537372 -0.1265529912213939
-0.17720139306537372 -0.10742989673372103
-0.16637518490956657 -0.05006061327070241
-0.17720139306537372 0.0073086701923162104
-0.16637518490956657 0.0073086701923162104
-0.17720139306537372 0.04555485916766196
-0.12307035228633798 0.0838010481430077
-0.14472276859795227 0.0073086701923162104
-0.13389656044214512 -0.011814424295356661
-0.14472276859795227 -0.030937518783029534
-0.16637518490956657 -0.05006061327070241
-0.14472276859795227 -0.05006061327070241
-0.16637518490956657 -0.06918370775837528
-0.14472276859795227 -0.05006061327070241
-0.16637518490956657 -0.030937518783029534
-0.13389656044214512 0.026431764679989082
-0.15554897675375942 0.026431764679989082
-0.14472276859795227 0.06467795365533482
-0.14472276859795227 0.10292414263068057
-0.10141793597472368 0.04555485916766196
-0.14472276859795227 0.04555485916766196
-0.14472276859795227 0.026431764679989082
-0.15554897675375942 -0.030937518783029534
-0.15554897675375942 -0.06918370775837528
-0.15554897675375942 -0.06918370775837528
-0.14472276859795227 -0.011814424295356661
-0.14472276859795227 -0.05006061327070241
-0.12307035228633798 0.0073086701923162104
-0.09059172781891653 0.0073086701923162104
-0.10141793597472368 0.06467795365533482
-0.07976551966310938 0.06467795365533482
-0.09059172781891653 0.026431764679989082
-0.10141793597472368 0.0073086701923162104
-0.10141793597472368 -0.05006061327070241
-0.13389656044214512 -0.011814424295356661
-0.12307035228633798 -0.030937518783029534
-0.12307035228633798 -0.030937518783029534
-0.13389656044214512 -0.05006061327070241
-0.14472276859795227 0.026431764679989082
-0.11224414413053083 0.026431764679989082
-0.09059172781891653 0.0838010481430077
-0.09059172781891653 0.026431764679989082
-0.06893931150730223 0.06467795365533482
-0.05811310335149509 0.04555485916766196
-0.06893931150730223 -0.011814424295356661
-0.10141793597472368 0.026431764679989082
-0.10141793597472368 -0.05006061327070241
-0.11224414413053083 -0.05006061327070241
-0.11224414413053083 0.0073086701923162104
-0.13389656044214512 0.026431764679989082
-0.12307035228633798 0.0073086701923162104
-0.13389656044214512 0.06467795365533482
-0.10141793597472368 0.0838010481430077
-0.12307035228633798 0.0838010481430077
-0.12307035228633798 0.12204723711835344
-0.10141793597472368 0.12204723711835344
-0.07976551966310938 0.12204723711835344
-0.09059172781891653 0.10292414263068057
-0.12307035228633798 0.026431764679989082
-0.12307035228633798 -0.011814424295356661
-0.10141793597472368 -0.011814424295356661
-0.11224414413053083 -0.030937518783029534
-0.10141793597472368 0.0073086701923162104
-0.09059172781891653 0.04555485916766196
-0.07976551966310938 0.06467795365533482
-0.07976551966310938 0.04555485916766196
-0.10141793597472368 0.12204723711835344
-0.09059172781891653 0.12204723711835344
-0.06893931150730223 0.12204723711835344
-0.10141793597472368 0.04555485916766196
-0.07976551966310938 0.06467795365533482
-0.11224414413053083 0.026431764679989082
-0.11224414413053083 0.0073086701923162104
-0.11224414413053083 -0.030937518783029534
-0.10141793597472368 0.026431764679989082
-0.09059172781891653 0.0073086701923162104
-0.10141793597472368 0.12204723711835344
-0.06893931150730223 0.10292414263068057
-0.05811310335149509 0.14117033160602632
-0.06893931150730223 0.14117033160602632
-0.06893931150730223 0.10292414263068057
-0.06893931150730223 0.04555485916766196
-0.07976551966310938 0.026431764679989082
-0.09059172781891653 0.04555485916766196
-0.09059172781891653 0.04555485916766196
-0.07976551966310938 0.06467795365533482
-0.11224414413053083 0.06467795365533482
-0.10141793597472368 0.0838010481430077
-0.09059172781891653 0.10292414263068057
-0.06893931150730223 0.12204723711835344
-0.03646068703988079 0.2176627095567178
0.006844145583347798 0.19853961506904494
-0.014808270728266496 0.17941652058137206
-0.03646068703988079 0.14117033160602632
-0.05811310335149509 0.10292414263068057
-0.06893931150730223 0.0073086701923162104
-0.09059172781891653 0.026431764679989082
-0.09059172781891653 0.04555485916766196
-0.07976551966310938 0.06467795365533482
-0.07976551966310938 0.16029342609369918
-0.06893931150730223 0.16029342609369918
-0.04728689519568794 0.17941652058137206
-0.025634478884073643 0.19853961506904494
-0.014808270728266496 0.17941652058137206
-0.03646068703988079 0.12204723711835344
-0.05811310335149509 0.14117033160602632
-0.04728689519568794 0.0838010481430077
-0.06893931150730223 0.026431764679989082
-0.07976551966310938 -0.030937518783029534
-0.09059172781891653 0.04555485916766196
-0.09059172781891653 0.04555485916766196
-0.07976551966310938 0.06467795365533482
-0.05811310335149509 0.12204723711835344
-0.03646068703988079 0.17941652058137206
-0.014808270728266496 0.19853961506904494
-0.025634478884073643 0.17941652058137206
-0.014808270728266496 0.17941652058137206
-0.025634478884073643 0.16029342609369918
-0.05811310335149509 0.10292414263068057
-0.06893931150730223 0.06467795365533482
-0.06893931150730223 0.04555485916766196
-0.06893931150730223 0.0838010481430077
-0.07976551966310938 0.12204723711835344
-0.06893931150730223 0.19853961506904494
-0.04728689519568794 0.2176627095567178
-0.04728689519568794 0.2176627095567178
-0.014808270728266496 0.23678580404439067
0.006844145583347798 0.16029342609369918
-0.014808270728266496 0.17941652058137206
-0.04728689519568794 0.10292414263068057
-0.05811310335149509 0.12204723711835344
-0.05811310335149509 0.14117033160602632
-0.07976551966310938 0.12204723711835344
-0.06893931150730223 0.16029342609369918
-0.09059172781891653 0.17941652058137206
-0.06893931150730223 0.17941652058137206
-0.05811310335149509 0.19853961506904494
-0.05811310335149509 0.19853961506904494
-0.03646068703988079 0.2176627095567178
-0.003982062572459349 0.19853961506904494
-0.025634478884073643 0.17941652058137206
-0.04728689519568794 0.17941652058137206
-0.025634478884073643 0.14117033160602632
-0.05811310335149509 0.12204723711835344
-0.06893931150730223 0.14117033160602632
-0.06893931150730223 0.16029342609369918
-0.07976551966310938 0.16029342609369918
-0.07976551966310938 0.16029342609369918
-0.05811310335149509 0.2176627095567178
-0.05811310335149509 0.19853961506904494
-0.025634478884073643 0.2176627095567178
-0.014808270728266496 0.17941652058137206
-0.014808270728266496 0.16029342609369918
-0.014808270728266496 0.14117033160602632
-0.003982062572459349 0.12204723711835344
0.017670353739154945 0.06467795365533482
-0.014808270728266496 0.06467795365533482
-0.003982062572459349 0.0838010481430077
-0.014808270728266496 0.10292414263068057
-0.025634478884073643 0.12204723711835344
-0.003982062572459349 0.17941652058137206
0.006844145583347798 0.19853961506904494
0.028496561894962094 0.2176627095567178
0.03932277005076924 0.19853961506904494
0.028496561894962094 0.17941652058137206
0.03932277005076924 0.16029342609369918
0.07180139451819069 0.12204723711835344
0.09345381082980497 0.06467795365533482
0.09345381082980497 0.10292414263068057
0.10428001898561212 0.16029342609369918
0.10428001898561212 0.16029342609369918
0.13675864345303357 0.17941652058137206
0.11510622714141927 0.2176627095567178
0.13675864345303357 0.23678580404439067
0.12593243529722642 0.25590889853206356
0.09345381082980497 0.2176627095567178
0.08262760267399782 0.19853961506904494
0.060975186362383534 0.19853961506904494
0.05014897820657639 0.19853961506904494
0.05014897820657639 0.14117033160602632
0.03932277005076924 0.16029342609369918
0.006844145583347798 0.14117033160602632
0.05014897820657639 0.17941652058137206
0.017670353739154945 0.2750319930197364
0.05014897820657639 0.332401276482755
0.10428001898561212 0.3706474654581008
0.13675864345303357 0.4280167489211194
0.18006347607626216 0.40889365443344655
0.18006347607626216 0.332401276482755
0.16923726792045501 0.31327818199508217
0.13675864345303357 0.2176627095567178
0.08262760267399782 0.16029342609369918
0.03932277005076924 0.10292414263068057
-0.003982062572459349 0.10292414263068057
-0.04728689519568794 0.06467795365533482
-0.06893931150730223 0.04555485916766196
-0.07976551966310938 0.026431764679989082
-0.06893931150730223 0.0838010481430077
-0.07976551966310938 0.06467795365533482
-0.07976551966310938 0.12204723711835344
-0.05811310335149509 0.10292414263068057
-0.05811310335149509 0.06467795365533482
-0.07976551966310938 0.026431764679989082
-0.10141793597472368 -0.011814424295356661
-0.12307035228633798 0.0073086701923162104
-0.13389656044214512 -0.011814424295356661
-0.10141793597472368 0.0073086701923162104
-0.11224414413053083 -0.030937518783029534
-0.12307035228633798 -0.10742989673372103
-0.11224414413053083 -0.1265529912213939
-0.12307035228633798 -0.18392227468441252
-0.12307035228633798 -0.14567608570906676
-0.09059172781891653 0.12204723711835344
-0.014808270728266496 0.40889365443344655
0.14758485160884072 0.8104786386745768
0.3208041821017551 1.1929405284280343
0.4831973044388623 1.4224176622801088
0.613111802308548 1.537156229206146
0.7105476757108123 1.4606638512554546
0.7646787164898481 1.3076790953540716
0.7863311328014624 0.8869710166252683
0.7213738838666195 0.19853961506904494
0.5156759289062838 -0.7576151093145986
0.24502072501110506 -1.8476314951119523
-0.06893931150730223 -2.803786219495596
-0.29628968277925233 -3.3009866761750906
-0.3612469317140952 -3.262740487199745
-0.17720139306537372 -2.7272938415449044
0.20171589238787646 -2.0006162510133354
0.688895259399198 -1.2356924715064206
1.2410318753453626 -0.48989178648717846
1.7715160749799128 0.12204723711835344
2.3128264827702703 0.6001245993101753
2.800005849781592 0.925217205600614
3.2763590086371064 1.1355712449650157
3.7310597511810064 1.1164481504773427
4.077498412166835 1.1546943394526885
4.337327407906207 0.9825864890636327
4.488894322087507 0.6957400717485396
4.532199154710735 0.44713984340879226
4.467241905775893 0.2176627095567178
4.3265011997504 0.10292414263068057
4.131629452945871 0.10292414263068057
3.828495624583271 0.17941652058137206
3.460404547285828 0.25590889853206356
3.0598348455209634 0.332401276482755
2.659265143756099 0.4280167489211194
2.247869233835427 0.4280167489211194
1.78234228313572 0.4280167489211194
1.3059891242802055 0.31327818199508217
0.7863311328014624 0.14117033160602632
0.2991517657901408 -0.030937518783029534
-0.12307035228633798 -0.22216846365975826
-0.3828993480257095 -0.3560301250734684
-0.5452924703628167 -0.3751532195611412
-0.642728343765081 -0.29866084161044976
-0.6319021356092739 -0.14567608570906676
-0.5777710948302381 0.0073086701923162104
-0.5236400540512024 0.16029342609369918
-0.48033522142797386 0.25590889853206356
-0.4478565969605524 0.31327818199508217
-0.4262041806489381 0.35152437097042794
-0.4045517643373238 0.3706474654581008
-0.37207313986990237 0.38977055994577364
-0.3828993480257095 0.40889365443344655
-0.37207313986990237 0.38977055994577364
-0.37207313986990237 0.38977055994577364
-0.35042072355828807 0.5045091268718109
-0.3395945154024809 0.5236322213594837
-0.35042072355828807 0.5810015048225023
-0.35042072355828807 0.5618784103348295
-0.3395945154024809 0.5427553158471566
-0.35042072355828807 0.5045091268718109
-0.3612469317140952 0.5045091268718109
-0.37207313986990237 0.46626293789646517
-0.3828993480257095 0.485386032384138
-0.39372555618151667 0.44713984340879226
-0.4045517643373238 0.485386032384138
-0.4045517643373238 0.5236322213594837
-0.3828993480257095 0.6192476937978482
-0.37207313986990237 0.6192476937978482
-0.3395945154024809 0.6192476937978482
-0.3612469317140952 0.6766169772608668
-0.3612469317140952 0.638370788285521
-0.35042072355828807 0.638370788285521
-0.3612469317140952 0.6001245993101753
-0.37207313986990237 0.5810015048225023
-0.3828993480257095 0.5810015048225023
-0.4045517643373238 0.5810015048225023
-0.41537797249313096 0.5427553158471566
-0.41537797249313096 0.5427553158471566
-0.41537797249313096 0.6574938827731939
-0.39372555618151667 0.6574938827731939
-0.3828993480257095 0.7339862607238854
-0.4045517643373238 0.6957400717485396
-0.41537797249313096 0.6957400717485396
-0.37207313986990237 0.638370788285521
-0.39372555618151667 0.6192476937978482
-0.4262041806489381 0.5618784103348295
-0.4478565969605524 0.6001245993101753
-0.4695090132721667 0.5618784103348295
-0.43703038880474526 0.638370788285521
-0.4478565969605524 0.6766169772608668
-0.4478565969605524 0.6766169772608668
-0.43703038880474526 0.6957400717485396
-0.4262041806489381 0.7148631662362125
-0.4045517643373238 0.6957400717485396
-0.37207313986990237 0.638370788285521
-0.4045517643373238 0.6001245993101753
-0.41537797249313096 0.6192476937978482
-0.45868280511635956 0.5618784103348295
-0.5019876377395881 0.5045091268718109
-0.5019876377395881 0.5427553158471566
-0.5128138458953952 0.5427553158471566
-0.5344662622070095 0.5427553158471566
-0.5452924703628167 0.5236322213594837
-0.5236400540512024 0.5618784103348295
-0.5128138458953952 0.485386032384138
-0.491161429583781 0.5236322213594837
-0.5019876377395881 0.5236322213594837
-0.5019876377395881 0.46626293789646517
-0.5344662622070095 0.40889365443344655
-0.5777710948302381 0.3706474654581008
-0.566944886674431 0.2941550875074093
-0.6102497192976596 0.25590889853206356
-0.6210759274534667 0.2176627095567178
-0.642728343765081 0.25590889853206356
-0.6319021356092739 0.23678580404439067
-0.6102497192976596 0.25590889853206356
-0.642728343765081 0.23678580404439067
-0.6319021356092739 0.2750319930197364
-0.642728343765081 0.16029342609369918
-0.6752069682325025 0.16029342609369918
-0.6535545519208882 0.0838010481430077
-0.6860331763883096 0.0073086701923162104
-0.6860331763883096 -0.011814424295356661
-0.7185118008557311 -0.10742989673372103
-0.7185118008557311 -0.14567608570906676
-0.7401642171673454 -0.10742989673372103
-0.6968593845441168 -0.16479918019673964
-0.7076855926999239 -0.18392227468441252
-0.7185118008557311 -0.16479918019673964
-0.6968593845441168 -0.20304536917208538
-0.6643807600766953 -0.20304536917208538
-0.6752069682325025 -0.27953774712277685
-0.6860331763883096 -0.3177839360981226
-0.6860331763883096 -0.29866084161044976
-0.6968593845441168 -0.33690703058579546
-0.6860331763883096 -0.413399408536487
-0.6643807600766953 -0.39427631404881414
-0.642728343765081 -0.39427631404881414
-0.5994235111418524 -0.43252250302415984
-0.5561186785186238 -0.39427631404881414
-0.5128138458953952 -0.33690703058579546
-0.4695090132721667 -0.29866084161044976
-0.4478565969605524 -0.33690703058579546
-0.43703038880474526 -0.33690703058579546
-0.4045517643373238 -0.33690703058579546
-0.39372555618151667 -0.39427631404881414
-0.3612469317140952 -0.4707686919995056
-0.3612469317140952 -0.45164559751183275
-0.3612469317140952 -0.45164559751183275
-0.3071158909350595 -0.413399408536487
-0.25298485015602373 -0.3751532195611412
-0.19885380937698802 -0.260414652635104
-0.14472276859795227 -0.22216846365975826
-0.11224414413053083 -0.18392227468441252
-0.06893931150730223 -0.260414652635104
-0.05811310335149509 -0.260414652635104
-0.03646068703988079 -0.260414652635104
-0.03646068703988079 -0.24129155814743114
-0.025634478884073643 -0.3177839360981226
-0.014808270728266496 -0.27953774712277685
-0.025634478884073643 -0.24129155814743114
0.006844145583347798 -0.20304536917208538
0.03932277005076924 -0.18392227468441252
0.05014897820657639 -0.1265529912213939
0.09345381082980497 -0.14567608570906676
0.09345381082980497 -0.14567608570906676
0.08262760267399782 -0.16479918019673964
0.07180139451819069 -0.16479918019673964
0.03932277005076924 -0.16479918019673964
0.05014897820657639 -0.20304536917208538
0.017670353739154945 -0.18392227468441252
-0.025634478884073643 -0.22216846365975826
-0.03646068703988079 -0.24129155814743114
-0.05811310335149509 -0.20304536917208538
-0.06893931150730223 -0.14567608570906676
-0.05811310335149509 -0.10742989673372103
-0.03646068703988079 -0.1265529912213939
-0.10141793597472368 -0.1265529912213939
-0.11224414413053083 -0.14567608570906676
-0.14472276859795227 -0.16479918019673964
-0.14472276859795227 -0.16479918019673964
-0.18802760122118087 -0.20304536917208538
-0.23133243384440944 -0.22216846365975826
-0.2638110583118309 -0.24129155814743114
-0.29628968277925233 -0.22216846365975826
-0.29628968277925233 -0.24129155814743114
-0.3179420990908666 -0.22216846365975826
-0.29628968277925233 -0.22216846365975826
-0.3395945154024809 -0.22216846365975826
-0.27463726646763803 -0.18392227468441252
-0.3071158909350595 -0.18392227468441252
-0.35042072355828807 -0.22216846365975826
-0.3395945154024809 -0.24129155814743114
-0.3395945154024809 -0.27953774712277685
-0.37207313986990237 -0.260414652635104
-0.39372555618151667 -0.3177839360981226
-0.41537797249313096 -0.260414652635104
-0.39372555618151667 -0.27953774712277685
-0.3828993480257095 -0.260414652635104
-0.39372555618151667 -0.22216846365975826
-0.37207313986990237 -0.29866084161044976
-0.35042072355828807 -0.20304536917208538
-0.3395945154024809 -0.22216846365975826
-0.3612469317140952 -0.22216846365975826
-0.3612469317140952 -0.18392227468441252
-0.35042072355828807 -0.20304536917208538
-0.37207313986990237 -0.18392227468441252
-0.3612469317140952 -0.16479918019673964
-0.3828993480257095 -0.20304536917208538
-0.3612469317140952 -0.18392227468441252
-0.3395945154024809 -0.18392227468441252
-0.3179420990908666 -0.1265529912213939
-0.2854634746234452 -0.08830680224604816
-0.25298485015602373 -0.05006061327070241
-0.2638110583118309 -0.06918370775837528
-0.2638110583118309 -0.06918370775837528
-0.2638110583118309 -0.05006061327070241
-0.2638110583118309 -0.10742989673372103
-0.29628968277925233 -0.06918370775837528
-0.29628968277925233 -0.08830680224604816
-0.29628968277925233 -0.14567608570906676
-0.3071158909350595 -0.10742989673372103
-0.29628968277925233 -0.06918370775837528
-0.2638110583118309 0.0073086701923162104
-0.24215864200021658 -0.011814424295356661
-0.2205062256886023 0.026431764679989082
-0.20968001753279517 -0.011814424295356661
-0.19885380937698802 -0.05006061327070241
-0.23133243384440944 0.0073086701923162104
-0.2205062256886023 -0.08830680224604816
-0.23133243384440944 -0.08830680224604816
-0.25298485015602373 -0.05006061327070241
-0.25298485015602373 -0.08830680224604816
-0.24215864200021658 -0.05006061327070241
-0.23133243384440944 -0.011814424295356661
-0.19885380937698802 0.04555485916766196
-0.20968001753279517 0.06467795365533482
-0.16637518490956657 0.06467795365533482
-0.16637518490956657 0.026431764679989082
-0.15554897675375942 0.0838010481430077
-0.17720139306537372 0.026431764679989082
-0.2205062256886023 -0.011814424295356661
-0.20968001753279517 -0.030937518783029534
-0.2205062256886023 -0.08830680224604816
-0.20968001753279517 -0.030937518783029534
-0.19885380937698802 0.0073086701923162104
-0.20968001753279517 0.06467795365533482
-0.19885380937698802 0.04555485916766196
-0.16637518490956657 0.12204723711835344
-0.13389656044214512 0.10292414263068057
-0.15554897675375942 0.0838010481430077
-0.13389656044214512 0.0838010481430077
-0.12307035228633798 0.06467795365533482
-0.14472276859795227 0.04555485916766196
-0.16637518490956657 0.04555485916766196
-0.18802760122118087 0.04555485916766196
-0.20968001753279517 0.0838010481430077
-0.16637518490956657 0.10292414263068057
-0.17720139306537372 0.14117033160602632
-0.14472276859795227 0.14117033160602632
-0.11224414413053083 0.14117033160602632
-0.10141793597472368 0.14117033160602632
-0.12307035228633798 0.16029342609369918
-0.10141793597472368 0.12204723711835344
-0.12307035228633798 0.10292414263068057
-0.12307035228633798 0.10292414263068057
-0.12307035228633798 0.06467795365533482
-0.14472276859795227 0.0073086701923162104
-0.16637518490956657 0.04555485916766196
-0.14472276859795227 0.04555485916766196
-0.15554897675375942 0.12204723711835344
-0.14472276859795227 0.12204723711835344
-0.14472276859795227 0.16029342609369918
-0.11224414413053083 0.16029342609369918
-0.10141793597472368 0.16029342609369918
-0.09059172781891653 0.10292414263068057
-0.11224414413053083 0.14117033160602632
-0.14472276859795227 0.06467795365533482
-0.15554897675375942 0.06467795365533482
-0.16637518490956657 0.06467795365533482
-0.14472276859795227 0.06467795365533482
-0.14472276859795227 0.0838010481430077
-0.15554897675375942 0.12204723711835344
-0.13389656044214512 0.16029342609369918
-0.13389656044214512 0.16029342609369918
-0.11224414413053083 0.17941652058137206
-0.12307035228633798 0.17941652058137206
-0.11224414413053083 0.14117033160602632
-0.15554897675375942 0.12204723711835344
-0.17720139306537372 0.12204723711835344
-0.15554897675375942 0.06467795365533482
-0.16637518490956657 0.0073086701923162104
-0.16637518490956657 0.04555485916766196
-0.16637518490956657 0.026431764679989082
-0.16637518490956657 0.0838010481430077
-0.15554897675375942 0.10292414263068057
-0.13389656044214512 0.10292414263068057
-0.12307035228633798 0.10292414263068057
-0.12307035228633798 0.10292414263068057
-0.11224414413053083 0.06467795365533482
-0.12307035228633798 0.04555485916766196
-0.12307035228633798 0.04555485916766196
-0.12307035228633798 0.04555485916766196
-0.15554897675375942 0.04555485916766196
-0.17720139306537372 0.0073086701923162104
-0.17720139306537372 0.04555485916766196
-0.16637518490956657 0.06467795365533482
-0.14472276859795227 0.06467795365533482
-0.12307035228633798 0.10292414263068057
-0.11224414413053083 0.10292414263068057
-0.09059172781891653 0.12204723711835344
-0.10141793597472368 0.14117033160602632
-0.13389656044214512 0.10292414263068057
-0.14472276859795227 0.0838010481430077
-0.13389656044214512 0.04555485916766196
-0.16637518490956657 0.026431764679989082
-0.15554897675375942 0.06467795365533482
-0.17720139306537372 0.04555485916766196
-0.15554897675375942 0.06467795365533482
-0.13389656044214512 0.10292414263068057
-0.11224414413053083 0.10292414263068057
-0.12307035228633798 0.19853961506904494
-0.06893931150730223 0.19853961506904494
-0.09059172781891653 0.17941652058137206
-0.10141793597472368 0.14117033160602632
-0.12307035228633798 0.12204723711835344
-0.13389656044214512 0.12204723711835344
-0.13389656044214512 0.0838010481430077
-0.14472276859795227 0.0838010481430077
-0.14472276859795227 0.14117033160602632
-0.14472276859795227 0.14117033160602632
-0.12307035228633798 0.14117033160602632
-0.13389656044214512 0.16029342609369918
-0.12307035228633798 0.23678580404439067
-0.10141793597472368 0.19853961506904494
-0.11224414413053083 0.17941652058137206
-0.10141793597472368 0.14117033160602632
-0.12307035228633798 0.10292414263068057
-0.13389656044214512 0.04555485916766196
-0.14472276859795227 0.04555485916766196
-0.13389656044214512 0.026431764679989082
-0.14472276859795227 0.06467795365533482
-0.14472276859795227 0.10292414263068057
-0.12307035228633798 0.16029342609369918
-0.11224414413053083 0.17941652058137206
-0.11224414413053083 0.17941652058137206
-0.10141793597472368 0.17941652058137206
-0.10141793597472368 0.17941652058137206
-0.09059172781891653 0.17941652058137206
-0.10141793597472368 0.16029342609369918
-0.12307035228633798 0.12204723711835344
-0.14472276859795227 0.12204723711835344
-0.16637518490956657 0.06467795365533482
-0.13389656044214512 0.12204723711835344
-0.13389656044214512 0.16029342609369918
-0.14472276859795227 0.16029342609369918
-0.12307035228633798 0.19853961506904494
-0.12307035228633798 0.17941652058137206
-0.09059172781891653 0.16029342609369918
-0.10141793597472368 0.14117033160602632
-0.11224414413053083 0.12204723711835344
-0.12307035228633798 0.06467795365533482
-0.14472276859795227 0.06467795365533482
-0.13389656044214512 0.10292414263068057
-0.13389656044214512 0.06467795365533482
-0.15554897675375942 0.10292414263068057
-0.12307035228633798 0.10292414263068057
-0.11224414413053083 0.14117033160602632
-0.12307035228633798 0.12204723711835344
-0.12307035228633798 0.16029342609369918
-0.09059172781891653 0.14117033160602632
-0.10141793597472368 0.14117033160602632
-0.10141793597472368 0.10292414263068057
-0.11224414413053083 0.06467795365533482
-0.10141793597472368 0.0838010481430077
-0.12307035228633798 0.026431764679989082
-0.11224414413053083 0.0838010481430077
-0.11224414413053083 0.0838010481430077
-0.12307035228633798 0.14117033160602632
-0.11224414413053083 0.12204723711835344
-0.07976551966310938 0.10292414263068057
-0.03646068703988079 0.10292414263068057
-0.03646068703988079 0.12204723711835344
-0.014808270728266496 0.10292414263068057
-0.05811310335149509 0.06467795365533482
-0.05811310335149509 0.06467795365533482
-0.06893931150730223 0.0838010481430077
-0.09059172781891653 0.10292414263068057
-0.05811310335149509 0.026431764679989082
-0.03646068703988079 0.16029342609369918
-0.003982062572459349 0.14117033160602632
0.028496561894962094 0.16029342609369918
0.028496561894962094 0.16029342609369918
0.060975186362383534 0.14117033160602632
0.060975186362383534 0.16029342609369918
0.07180139451819069 0.10292414263068057
0.060975186362383534 0.0838010481430077
0.03932277005076924 0.04555485916766196
0.006844145583347798 0.06467795365533482
-0.06893931150730223 0.0838010481430077
-0.06893931150730223 0.12204723711835344
-0.09059172781891653 0.12204723711835344
-0.05811310335149509 0.2176627095567178
-0.05811310335149509 0.16029342609369918
-0.05811310335149509 0.23678580404439067
-0.025634478884073643 0.23678580404439067
-0.04728689519568794 0.19853961506904494
0.006844145583347798 0.25590889853206356
0.028496561894962094 0.31327818199508217
0.03932277005076924 0.31327818199508217
0.028496561894962094 0.31327818199508217
0.05014897820657639 0.2750319930197364
0.017670353739154945 0.2176627095567178
-0.003982062572459349 0.2176627095567178
-0.025634478884073643 0.2176627095567178
-0.025634478884073643 0.19853961506904494
-0.05811310335149509 0.17941652058137206
-0.07976551966310938 0.17941652058137206
-0.10141793597472368 0.14117033160602632
-0.12307035228633798 0.0838010481430077
-0.16637518490956657 0.0838010481430077
-0.18802760122118087 0.06467795365533482
-0.16637518490956657 0.0073086701923162104
-0.18802760122118087 -0.011814424295356661
-0.18802760122118087 -0.011814424295356661
-0.19885380937698802 -0.011814424295356661
-0.18802760122118087 0.0073086701923162104
-0.17720139306537372 -0.030937518783029534
-0.15554897675375942 -0.011814424295356661
-0.16637518490956657 -0.05006061327070241
-0.17720139306537372 -0.16479918019673964
-0.23133243384440944 -0.22216846365975826
-0.24215864200021658 -0.14567608570906676
-0.17720139306537372 0.04555485916766196
-0.09059172781891653 0.4280167489211194
0.08262760267399782 0.9060941111129412
0.2991517657901408 1.3268021898417444
0.4831973044388623 1.537156229206146
0.6564166349317766 1.5754024181814918
0.7646787164898481 1.2311867174033801
0.7646787164898481 0.485386032384138
0.5481545533737052 -0.56638416443787
0.2341945168552979 -1.7328929281859151
-0.10141793597472368 -2.669924558081886
-0.3179420990908666 -3.1671250147613805
-0.3287683072466738 -2.937647880909306
-0.06893931150730223 -2.344831951791447
0.42906626365982653 -1.5607850777968593
1.0245077122292197 -0.6619996368762343
1.6632539934218413 0.10292414263068057
2.302000274614463 0.6192476937978482
2.9082679313396635 0.944340300088287
3.4279259228184062 1.078201961501997
3.8718004572064997 1.1355712449650157
4.218239118192328 1.0208326780389785
4.413110864996857 0.9060941111129412
4.456415697620085 0.5810015048225023
4.348153616062014 0.332401276482755
4.153281869257485 0.06467795365533482
3.8176694164274636 -0.10742989673372103
3.3629686738835636 -0.14567608570906676
2.8324844742490134 -0.030937518783029534
2.23704302567962 0.0838010481430077
1.6957326178892629 0.25590889853206356
1.1652484182547125 0.35152437097042794
0.6455904267759695 0.31327818199508217
0.18006347607626216 0.14117033160602632
-0.20968001753279517 -0.05006061327070241
-0.491161429583781 -0.20304536917208538
-0.6752069682325025 -0.260414652635104
-0.7293380090115382 -0.260414652635104
-0.7076855926999239 -0.10742989673372103
-0.6752069682325025 0.04555485916766196
-0.6102497192976596 0.16029342609369918
-0.5344662622070095 0.332401276482755
-0.4695090132721667 0.4280167489211194
-0.45868280511635956 0.5236322213594837
-0.39372555618151667 0.6192476937978482
-0.37207313986990237 0.5810015048225023
-0.3828993480257095 0.5618784103348295
-0.4045517643373238 0.5427553158471566
-0.4045517643373238 0.5618784103348295
-0.4478565969605524 0.46626293789646517
-0.41537797249313096 0.5045091268718109
-0.43703038880474526 0.46626293789646517
-0.4262041806489381 0.46626293789646517
-0.4695090132721667 0.485386032384138
-0.43703038880474526 0.5427553158471566
-0.41537797249313096 0.6192476937978482
-0.3828993480257095 0.6192476937978482
-0.37207313986990237 0.6574938827731939
-0.37207313986990237 0.638370788285521
-0.39372555618151667 0.6001245993101753
-0.39372555618151667 0.5810015048225023
-0.41537797249313096 0.5618784103348295
-0.4262041806489381 0.5427553158471566
-0.43703038880474526 0.5618784103348295
-0.4478565969605524 0.5236322213594837
-0.4478565969605524 0.5810015048225023
-0.45868280511635956 0.638370788285521
-0.43703038880474526 0.6957400717485396
-0.4045517643373238 0.7148631662362125
-0.39372555618151667 0.7531093552115582
-0.4045517643373238 0.6574938827731939
-0.41537797249313096 0.6001245993101753
-0.41537797249313096 0.5810015048225023
-0.43703038880474526 0.5618784103348295
-0.4695090132721667 0.5045091268718109
-0.48033522142797386 0.5427553158471566
-0.491161429583781 0.5810015048225023
-0.5019876377395881 0.6192476937978482
-0.491161429583781 0.638370788285521
-0.48033522142797386 0.638370788285521
-0.5019876377395881 0.6001245993101753
-0.491161429583781 0.5810015048225023
-0.48033522142797386 0.5618784103348295
-0.5128138458953952 0.5045091268718109
-0.5344662622070095 0.46626293789646517
-0.5561186785186238 0.5236322213594837
-0.5777710948302381 0.485386032384138
-0.5885973029860453 0.44713984340879226
-0.5994235111418524 0.44713984340879226
-0.6102497192976596 0.485386032384138
-0.5777710948302381 0.485386032384138
-0.5885973029860453 0.485386032384138
-0.6102497192976596 0.485386032384138
-0.6210759274534667 0.485386032384138
-0.6210759274534667 0.38977055994577364
-0.6535545519208882 0.332401276482755
-0.6643807600766953 0.31327818199508217
-0.6643807600766953 0.332401276482755
-0.6752069682325025 0.332401276482755
-0.6860331763883096 0.31327818199508217
-0.6968593845441168 0.332401276482755
-0.6752069682325025 0.332401276482755
-0.7076855926999239 0.2750319930197364
-0.6860331763883096 0.23678580404439067
-0.6968593845441168 0.23678580404439067
-0.7076855926999239 0.23678580404439067
-0.7076855926999239 0.16029342609369918
-0.7293380090115382 0.10292414263068057
-0.7293380090115382 0.10292414263068057
-0.7509904253231525 -0.011814424295356661
-0.7942952579463811 -0.011814424295356661
-0.8159476742579954 -0.030937518783029534
-0.8051214661021883 -0.10742989673372103
-0.8267738824138026 -0.16479918019673964
-0.8159476742579954 -0.16479918019673964
-0.8267738824138026 -0.16479918019673964
-0.8159476742579954 -0.20304536917208538
-0.8159476742579954 -0.18392227468441252
-0.8159476742579954 -0.22216846365975826
-0.8376000905696097 -0.260414652635104
-0.8051214661021883 -0.3177839360981226
-0.859252506881224 -0.39427631404881414
-0.8700787150370312 -0.3751532195611412
-0.8809049231928383 -0.45164559751183275
-0.859252506881224 -0.4707686919995056
-0.8484262987254169 -0.45164559751183275
-0.8159476742579954 -0.48989178648717846
-0.7618166334789597 -0.413399408536487
-0.7293380090115382 -0.43252250302415984
-0.6643807600766953 -0.43252250302415984
-0.6535545519208882 -0.45164559751183275
-0.6319021356092739 -0.48989178648717846
-0.6319021356092739 -0.48989178648717846
-0.5994235111418524 -0.5090148809748514
-0.5994235111418524 -0.48989178648717846
-0.566944886674431 -0.5090148809748514
-0.5452924703628167 -0.45164559751183275
-0.5019876377395881 -0.48989178648717846
-0.48033522142797386 -0.413399408536487
-0.43703038880474526 -0.3751532195611412
-0.37207313986990237 -0.39427631404881414
-0.3287683072466738 -0.3560301250734684
-0.2854634746234452 -0.33690703058579546
-0.27463726646763803 -0.33690703058579546
-0.2854634746234452 -0.3177839360981226
-0.24215864200021658 -0.3177839360981226
-0.23133243384440944 -0.3177839360981226
-0.20968001753279517 -0.3177839360981226
-0.17720139306537372 -0.33690703058579546
-0.15554897675375942 -0.29866084161044976
-0.10141793597472368 -0.29866084161044976
-0.06893931150730223 -0.260414652635104
-0.04728689519568794 -0.24129155814743114
-0.003982062572459349 -0.18392227468441252
0.017670353739154945 -0.24129155814743114
0.017670353739154945 -0.20304536917208538
0.028496561894962094 -0.18392227468441252
0.028496561894962094 -0.20304536917208538
-0.014808270728266496 -0.22216846365975826
-0.003982062572459349 -0.20304536917208538
-0.014808270728266496 -0.18392227468441252
-0.003982062572459349 -0.14567608570906676
0.006844145583347798 -0.030937518783029534
0.028496561894962094 -0.08830680224604816
0.017670353739154945 -0.05006061327070241
0.017670353739154945 -0.011814424295356661
0.006844145583347798 -0.05006061327070241
-0.025634478884073643 -0.05006061327070241
-0.04728689519568794 -0.06918370775837528
-0.07976551966310938 -0.06918370775837528
-0.12307035228633798 -0.10742989673372103
-0.14472276859795227 -0.1265529912213939
-0.14472276859795227 -0.08830680224604816
-0.16637518490956657 -0.06918370775837528
-0.16637518490956657 -0.011814424295356661
-0.17720139306537372 -0.011814424295356661
-0.18802760122118087 0.0073086701923162104
-0.19885380937698802 -0.05006061327070241
-0.20968001753279517 -0.05006061327070241
-0.24215864200021658 -0.08830680224604816
-0.27463726646763803 -0.08830680224604816
-0.27463726646763803 -0.14567608570906676
-0.2854634746234452 -0.14567608570906676
-0.3179420990908666 -0.18392227468441252
-0.3179420990908666 -0.14567608570906676
-0.3395945154024809 -0.10742989673372103
-0.3179420990908666 -0.030937518783029534
-0.3395945154024809 -0.011814424295356661
-0.3287683072466738 -0.030937518783029534
-0.29628968277925233 -0.06918370775837528
-0.3071158909350595 -0.030937518783029534
-0.3287683072466738 -0.06918370775837528
-0.3179420990908666 -0.1265529912213939
-0.3179420990908666 -0.1265529912213939
-0.35042072355828807 -0.14567608570906676
-0.35042072355828807 -0.14567608570906676
-0.3395945154024809 -0.08830680224604816
-0.3287683072466738 -0.030937518783029534
-0.3287683072466738 0.0073086701923162104
-0.3071158909350595 0.026431764679989082
-0.2854634746234452 0.026431764679989082
-0.2638110583118309 0.026431764679989082
-0.29628968277925233 -0.05006061327070241
-0.2854634746234452 -0.030937518783029534
-0.29628968277925233 -0.030937518783029534
-0.3071158909350595 -0.030937518783029534
-0.3287683072466738 -0.05006061327070241
-0.3179420990908666 0.026431764679989082
-0.2854634746234452 0.026431764679989082
-0.27463726646763803 0.0838010481430077
-0.23133243384440944 0.06467795365533482
-0.2205062256886023 0.0838010481430077
-0.18802760122118087 0.06467795365533482
-0.17720139306537372 0.10292414263068057
-0.19885380937698802 0.0838010481430077
-0.20968001753279517 0.0838010481430077
-0.24215864200021658 0.026431764679989082
-0.2205062256886023 -0.011814424295356661
-0.2205062256886023 -0.011814424295356661
-0.25298485015602373 0.026431764679989082
-0.23133243384440944 0.04555485916766196
-0.23133243384440944 0.0838010481430077
-0.2205062256886023 0.14117033160602632
-0.2205062256886023 0.0838010481430077
-0.20968001753279517 0.14117033160602632
-0.16637518490956657 0.16029342609369918
-0.16637518490956657 0.14117033160602632
-0.17720139306537372 0.12204723711835344
-0.20968001753279517 0.0838010481430077
-0.18802760122118087 0.10292414263068057
-0.19885380937698802 0.0838010481430077
-0.20968001753279517 0.0838010481430077
-0.18802760122118087 0.0838010481430077
-0.18802760122118087 0.10292414263068057
-0.17720139306537372 0.12204723711835344
-0.16637518490956657 0.10292414263068057
-0.14472276859795227 0.19853961506904494
-0.10141793597472368 0.19853961506904494
-0.11224414413053083 0.19853961506904494
-0.15554897675375942 0.16029342609369918
-0.16637518490956657 0.14117033160602632
-0.16637518490956657 0.0838010481430077
-0.19885380937698802 0.12204723711835344
-0.16637518490956657 0.12204723711835344
-0.15554897675375942 0.12204723711835344
-0.15554897675375942 0.17941652058137206
-0.14472276859795227 0.17941652058137206
-0.12307035228633798 0.17941652058137206
-0.11224414413053083 0.23678580404439067
-0.10141793597472368 0.25590889853206356
-0.11224414413053083 0.2176627095567178
-0.13389656044214512 0.19853961506904494
-0.15554897675375942 0.2176627095567178
-0.13389656044214512 0.14117033160602632
-0.12307035228633798 0.14117033160602632
-0.14472276859795227 0.19853961506904494
-0.14472276859795227 0.2176627095567178
-0.12307035228633798 0.23678580404439067
-0.10141793597472368 0.25590889853206356
-0.10141793597472368 0.2176627095567178
-0.07976551966310938 0.2176627095567178
-0.06893931150730223 0.2941550875074093
-0.06893931150730223 0.25590889853206356
-0.09059172781891653 0.23678580404439067
-0.09059172781891653 0.2176627095567178
-0.13389656044214512 0.17941652058137206
-0.14472276859795227 0.12204723711835344
-0.12307035228633798 0.14117033160602632
-0.13389656044214512 0.10292414263068057
-0.11224414413053083 0.2176627095567178
-0.09059172781891653 0.23678580404439067
-0.09059172781891653 0.25590889853206356
-0.06893931150730223 0.25590889853206356
-0.03646068703988079 0.25590889853206356
-0.04728689519568794 0.23678580404439067
-0.07976551966310938 0.2176627095567178
-0.06893931150730223 0.19853961506904494
-0.11224414413053083 0.10292414263068057
-0.12307035228633798 0.12204723711835344
-0.12307035228633798 0.0838010481430077
-0.11224414413053083 0.10292414263068057
-0.13389656044214512 0.16029342609369918
-0.12307035228633798 0.16029342609369918
-0.12307035228633798 0.17941652058137206
-0.09059172781891653 0.2176627095567178
-0.06893931150730223 0.2176627095567178
-0.09059172781891653 0.25590889853206356
-0.09059172781891653 0.19853961506904494
-0.09059172781891653 0.14117033160602632
-0.09059172781891653 0.06467795365533482
-0.10141793597472368 0.04555485916766196
-0.11224414413053083 0.0838010481430077
-0.13389656044214512 0.12204723711835344
-0.12307035228633798 0.14117033160602632
-0.11224414413053083 0.19853961506904494
-0.10141793597472368 0.16029342609369918
-0.06893931150730223 0.19853961506904494
-0.03646068703988079 0.2176627095567178
-0.04728689519568794 0.16029342609369918
-0.06893931150730223 0.14117033160602632
-0.10141793597472368 0.10292414263068057
-0.11224414413053083 0.04555485916766196
-0.12307035228633798 0.04555485916766196
-0.10141793597472368 0.04555485916766196
-0.10141793597472368 0.0838010481430077
-0.13389656044214512 0.12204723711835344
-0.10141793597472368 0.0838010481430077
-0.10141793597472368 0.14117033160602632
-0.07976551966310938 0.10292414263068057
-0.06893931150730223 0.12204723711835344
-0.06893931150730223 0.10292414263068057
-0.06893931150730223 0.12204723711835344
-0.10141793597472368 0.0838010481430077
-0.09059172781891653 0.04555485916766196
-0.13389656044214512 0.04555485916766196
-0.14472276859795227 0.026431764679989082
-0.14472276859795227 0.04555485916766196
-0.11224414413053083 0.0838010481430077
-0.07976551966310938 0.14117033160602632
-0.07976551966310938 0.14117033160602632
-0.05811310335149509 0.12204723711835344
-0.03646068703988079 0.16029342609369918
-0.06893931150730223 0.12204723711835344
-0.05811310335149509 0.0838010481430077
-0.10141793597472368 0.10292414263068057
-0.10141793597472368 -0.011814424295356661
-0.11224414413053083 0.06467795365533482
-0.11224414413053083 0.06467795365533482
-0.11224414413053083 0.04555485916766196
-0.11224414413053083 0.10292414263068057
-0.06893931150730223 0.06467795365533482
-0.05811310335149509 0.16029342609369918
-0.07976551966310938 0.12204723711835344
-0.04728689519568794 0.14117033160602632
-0.025634478884073643 0.10292414263068057
-0.04728689519568794 0.10292414263068057
-0.06893931150730223 0.06467795365533482
-0.09059172781891653 0.04555485916766196
-0.10141793597472368 0.026431764679989082
-0.12307035228633798 0.04555485916766196
-0.15554897675375942 0.06467795365533482
-0.11224414413053083 0.10292414263068057
-0.10141793597472368 0.14117033160602632
-0.07976551966310938 0.12204723711835344
-0.07976551966310938 0.14117033160602632
-0.04728689519568794 0.10292414263068057
-0.06893931150730223 0.0838010481430077
-0.09059172781891653 0.0838010481430077
-0.07976551966310938 0.026431764679989082
-0.07976551966310938 0.026431764679989082
-0.09059172781891653 -0.011814424295356661
-0.10141793597472368 0.0073086701923162104
-0.11224414413053083 0.026431764679989082
-0.07976551966310938 0.0838010481430077
-0.07976551966310938 0.026431764679989082
-0.06893931150730223 0.0838010481430077
-0.06893931150730223 0.10292414263068057
-0.04728689519568794 0.14117033160602632
-0.05811310335149509 0.06467795365533482
-0.04728689519568794 0.0838010481430077
-0.05811310335149509 0.026431764679989082
-0.10141793597472368 0.0073086701923162104
-0.11224414413053083 0.026431764679989082
-0.15554897675375942 0.0073086701923162104
-0.15554897675375942 -0.011814424295356661
-0.17720139306537372 0.06467795365533482
-0.15554897675375942 0.06467795365533482
-0.09059172781891653 0.0838010481430077
-0.06893931150730223 0.0838010481430077
-0.04728689519568794 0.14117033160602632
-0.03646068703988079 0.0838010481430077
-0.05811310335149509 0.06467795365533482
-0.09059172781891653 0.04555485916766196
-0.10141793597472368 0.0073086701923162104
-0.11224414413053083 -0.05006061327070241
-0.09059172781891653 -0.05006061327070241
-0.11224414413053083 -0.030937518783029534
-0.11224414413053083 0.026431764679989082
-0.12307035228633798 0.06467795365533482
-0.06893931150730223 0.04555485916766196
-0.03646068703988079 0.14117033160602632
-0.025634478884073643 0.10292414263068057
-0.025634478884073643 0.04555485916766196
-0.03646068703988079 0.04555485916766196
-0.04728689519568794 -0.05006061327070241
-0.04728689519568794 -0.011814424295356661
-0.05811310335149509 -0.05006061327070241
-0.025634478884073643 -0.011814424295356661
-0.04728689519568794 0.026431764679989082
-0.03646068703988079 0.0073086701923162104
-0.04728689519568794 0.026431764679989082
-0.03646068703988079 0.0073086701923162104
-0.04728689519568794 0.026431764679989082
-0.025634478884073643 0.06467795365533482
-0.014808270728266496 0.026431764679989082
-0.003982062572459349 0.026431764679989082
0.03932277005076924 -0.011814424295356661
0.03932277005076924 -0.08830680224604816
0.028496561894962094 -0.06918370775837528
0.05014897820657639 -0.030937518783029534
0.05014897820657639 0.026431764679989082
0.060975186362383534 0.0073086701923162104
0.05014897820657639 0.04555485916766196
0.060975186362383534 0.12204723711835344
0.060975186362383534 0.10292414263068057
0.060975186362383534 0.12204723711835344
0.060975186362383534 0.0838010481430077
0.05014897820657639 0.04555485916766196
-0.003982062572459349 0.0073086701923162104
0.006844145583347798 0.026431764679989082
-0.014808270728266496 0.0073086701923162104
-0.014808270728266496 0.026431764679989082
-0.025634478884073643 0.10292414263068057
-0.025634478884073643 0.16029342609369918
0.03932277005076924 0.19853961506904494
0.060975186362383534 0.25590889853206356
0.09345381082980497 0.25590889853206356
0.15841105976464787 0.2941550875074093
0.15841105976464787 0.2750319930197364
0.12593243529722642 0.19853961506904494
0.08262760267399782 0.16029342609369918
0.017670353739154945 0.04555485916766196
-0.014808270728266496 0.06467795365533482
-0.09059172781891653 0.0073086701923162104
-0.12307035228633798 -0.011814424295356661
-0.12307035228633798 -0.05006061327070241
-0.09059172781891653 -0.05006061327070241
-0.09059172781891653 -0.030937518783029534
-0.07976551966310938 0.026431764679989082
-0.04728689519568794 -0.011814424295356661
-0.05811310335149509 -0.011814424295356661
-0.09059172781891653 -0.030937518783029534
-0.10141793597472368 -0.06918370775837528
-0.11224414413053083 -0.08830680224604816
-0.10141793597472368 -0.1265529912213939
-0.14472276859795227 -0.18392227468441252
-0.14472276859795227 -0.20304536917208538
-0.15554897675375942 -0.260414652635104
-0.16637518490956657 -0.3177839360981226
-0.16637518490956657 -0.27953774712277685
-0.13389656044214512 -0.14567608570906676
-0.04728689519568794 0.14117033160602632
0.08262760267399782 0.5618784103348295
0.26667314132271935 0.944340300088287
0.4507186799714408 1.1738174339403615
0.5914593859969338 1.3076790953540716
0.688895259399198 1.250309811891053
0.7213738838666195 1.0208326780389785
0.7213738838666195 0.5236322213594837
0.6455904267759695 -0.27953774712277685
0.4182400555040194 -1.2739386604817662
0.14758485160884072 -2.23009338486541
-0.11224414413053083 -2.8420324084709416
-0.25298485015602373 -3.0141402588599977
-0.23133243384440944 -2.746416936032577
0.11510622714141927 -2.077108628964027
0.5698069696853195 -1.312184849457112
1.1327697937872911 -0.5090148809748514
1.6957326178892629 0.14117033160602632
2.247869233835427 0.6766169772608668
2.745874809002556 0.9634633945759599
3.243880384169685 1.2120636229157071
3.7202335430251994 1.3268021898417444
4.120803244790064 1.384171473304763
4.467241905775893 1.3268021898417444
4.662113652580421 1.1355712449650157
4.737897109671072 0.791355544186904
4.6837660688920355 0.44713984340879226
4.510546738399121 0.12204723711835344
4.2507177426597496 -0.011814424295356661
3.8934528735181138 -0.05006061327070241
3.4495783391300208 -0.05006061327070241
2.962398972118699 0.0073086701923162104
2.46439339695157 0.16029342609369918
1.9880402380960558 0.2750319930197364
1.5333394955521555 0.332401276482755
1.0569863366966412 0.25590889853206356
0.5806331778411267 0.12204723711835344
0.10428001898561212 -0.10742989673372103
-0.27463726646763803 -0.3177839360981226
-0.5344662622070095 -0.45164559751183275
-0.6860331763883096 -0.4707686919995056
-0.7185118008557311 -0.33690703058579546
-0.6968593845441168 -0.260414652635104
-0.642728343765081 -0.06918370775837528
-0.5885973029860453 0.04555485916766196
-0.5236400540512024 0.19853961506904494
-0.48033522142797386 0.332401276482755
-0.4045517643373238 0.4280167489211194
-0.3612469317140952 0.46626293789646517
-0.35042072355828807 0.5045091268718109
-0.3287683072466738 0.5045091268718109
-0.3395945154024809 0.46626293789646517
-0.37207313986990237 0.485386032384138
-0.3828993480257095 0.4280167489211194
-0.4262041806489381 0.4280167489211194
-0.4262041806489381 0.485386032384138
-0.4045517643373238 0.5427553158471566
-0.4045517643373238 0.5810015048225023
-0.3828993480257095 0.5810015048225023
-0.3612469317140952 0.6192476937978482
-0.3395945154024809 0.6957400717485396
-0.35042072355828807 0.6192476937978482
-0.37207313986990237 0.5618784103348295
-0.37207313986990237 0.5618784103348295
-0.39372555618151667 0.5427553158471566
-0.41537797249313096 0.5810015048225023
-0.41537797249313096 0.5618784103348295
-0.41537797249313096 0.5810015048225023
-0.41537797249313096 0.5810015048225023
-0.4045517643373238 0.638370788285521
-0.39372555618151667 0.6574938827731939
-0.37207313986990237 0.638370788285521
-0.35042072355828807 0.6766169772608668
-0.37207313986990237 0.6957400717485396
-0.37207313986990237 0.638370788285521
-0.4045517643373238 0.5810015048225023
-0.39372555618151667 0.6001245993101753
-0.41537797249313096 0.5427553158471566
-0.4478565969605524 0.5427553158471566
-0.45868280511635956 0.5618784103348295
-0.45868280511635956 0.5427553158471566
-0.4478565969605524 0.5810015048225023
-0.4262041806489381 0.6001245993101753
-0.43703038880474526 0.6192476937978482
-0.4262041806489381 0.6766169772608668
-0.4262041806489381 0.6192476937978482
-0.43703038880474526 0.638370788285521
-0.43703038880474526 0.5618784103348295
-0.45868280511635956 0.5427553158471566
-0.491161429583781 0.5236322213594837
-0.5019876377395881 0.485386032384138
-0.5236400540512024 0.5045091268718109
-0.5344662622070095 0.5236322213594837
-0.5128138458953952 0.5236322213594837
-0.5236400540512024 0.5236322213594837
-0.5128138458953952 0.6192476937978482
-0.48033522142797386 0.5810015048225023
-0.491161429583781 0.5810015048225023
-0.5019876377395881 0.5236322213594837
-0.5236400540512024 0.44713984340879226
-0.5344662622070095 0.40889365443344655
-0.5777710948302381 0.35152437097042794
-0.5885973029860453 0.35152437097042794
-0.6102497192976596 0.35152437097042794
-0.6210759274534667 0.38977055994577364
-0.6102497192976596 0.40889365443344655
-0.6319021356092739 0.44713984340879226
-0.642728343765081 0.44713984340879226
-0.6210759274534667 0.40889365443344655
-0.6210759274534667 0.4280167489211194
-0.6319021356092739 0.35152437097042794
-0.642728343765081 0.25590889853206356
-0.6535545519208882 0.17941652058137206
-0.6643807600766953 0.12204723711835344
-0.6860331763883096 0.0838010481430077
-0.7185118008557311 0.0838010481430077
-0.7185118008557311 0.10292414263068057
-0.7185118008557311 0.12204723711835344
-0.7076855926999239 0.04555485916766196
-0.6968593845441168 0.0838010481430077
-0.6860331763883096 0.06467795365533482
-0.7185118008557311 -0.011814424295356661
-0.7185118008557311 -0.06918370775837528
-0.7293380090115382 -0.1265529912213939
-0.7509904253231525 -0.18392227468441252
-0.783469049790574 -0.18392227468441252
-0.783469049790574 -0.260414652635104
-0.7726428416347668 -0.29866084161044976
-0.7726428416347668 -0.29866084161044976
-0.7401642171673454 -0.260414652635104
-0.7293380090115382 -0.24129155814743114
-0.6968593845441168 -0.27953774712277685
-0.642728343765081 -0.27953774712277685
-0.6210759274534667 -0.27953774712277685
-0.6102497192976596 -0.29866084161044976
-0.5994235111418524 -0.3560301250734684
-0.5777710948302381 -0.3560301250734684
-0.5561186785186238 -0.33690703058579546
-0.5452924703628167 -0.33690703058579546
-0.5236400540512024 -0.3177839360981226
-0.491161429583781 -0.29866084161044976
-0.4478565969605524 -0.27953774712277685
-0.41537797249313096 -0.260414652635104
-0.37207313986990237 -0.22216846365975826
-0.3179420990908666 -0.18392227468441252
-0.27463726646763803 -0.20304536917208538
-0.25298485015602373 -0.18392227468441252
-0.25298485015602373 -0.22216846365975826
-0.2205062256886023 -0.260414652635104
-0.20968001753279517 -0.22216846365975826
-0.17720139306537372 -0.20304536917208538
-0.15554897675375942 -0.24129155814743114
-0.14472276859795227 -0.22216846365975826
-0.10141793597472368 -0.18392227468441252
-0.04728689519568794 -0.14567608570906676
-0.014808270728266496 -0.08830680224604816
-0.003982062572459349 -0.10742989673372103
0.017670353739154945 -0.10742989673372103
0.05014897820657639 -0.08830680224604816
0.060975186362383534 -0.1265529912213939
0.05014897820657639 -0.14567608570906676
0.017670353739154945 -0.20304536917208538
0.028496561894962094 -0.22216846365975826
0.028496561894962094 -0.20304536917208538
0.006844145583347798 -0.1265529912213939
0.006844145583347798 -0.14567608570906676
0.006844145583347798 -0.1265529912213939
0.006844145583347798 -0.1265529912213939
0.006844145583347798 -0.10742989673372103
0.006844145583347798 -0.16479918019673964
-0.014808270728266496 -0.20304536917208538
-0.04728689519568794 -0.16479918019673964
-0.07976551966310938 -0.22216846365975826
-0.10141793597472368 -0.260414652635104
-0.15554897675375942 -0.29866084161044976
-0.19885380937698802 -0.3177839360981226
-0.2205062256886023 -0.29866084161044976
-0.2205062256886023 -0.22216846365975826
-0.24215864200021658 -0.260414652635104
-0.23133243384440944 -0.22216846365975826
-0.24215864200021658 -0.18392227468441252
-0.23133243384440944 -0.22216846365975826
-0.27463726646763803 -0.20304536917208538
-0.2854634746234452 -0.27953774712277685
-0.3287683072466738 -0.33690703058579546
-0.37207313986990237 -0.33690703058579546
-0.41537797249313096 -0.29866084161044976
-0.39372555618151667 -0.33690703058579546
-0.4045517643373238 -0.3177839360981226
-0.4045517643373238 -0.24129155814743114
-0.4045517643373238 -0.22216846365975826
-0.39372555618151667 -0.18392227468441252
-0.37207313986990237 -0.16479918019673964
-0.3828993480257095 -0.20304536917208538
-0.4045517643373238 -0.22216846365975826
-0.41537797249313096 -0.22216846365975826
-0.41537797249313096 -0.22216846365975826
-0.4262041806489381 -0.260414652635104
-0.4045517643373238 -0.22216846365975826
-0.43703038880474526 -0.22216846365975826
-0.43703038880474526 -0.16479918019673964
-0.39372555618151667 -0.1265529912213939
-0.4045517643373238 -0.06918370775837528
-0.37207313986990237 -0.06918370775837528
-0.35042072355828807 -0.011814424295356661
-0.3287683072466738 -0.05006061327070241
-0.3395945154024809 -0.08830680224604816
-0.3612469317140952 -0.06918370775837528
-0.35042072355828807 -0.10742989673372103
-0.3287683072466738 -0.08830680224604816
-0.35042072355828807 -0.08830680224604816
-0.3287683072466738 -0.06918370775837528
-0.3071158909350595 -0.05006061327070241
-0.3179420990908666 0.026431764679989082
-0.2854634746234452 0.0073086701923162104
-0.25298485015602373 0.026431764679989082
-0.27463726646763803 0.06467795365533482
-0.27463726646763803 0.0073086701923162104
-0.25298485015602373 0.04555485916766196
-0.25298485015602373 -0.011814424295356661
-0.25298485015602373 -0.05006061327070241
-0.2638110583118309 -0.011814424295356661
-0.24215864200021658 0.0073086701923162104
-0.24215864200021658 0.026431764679989082
-0.23133243384440944 0.026431764679989082
-0.23133243384440944 0.12204723711835344
-0.20968001753279517 0.16029342609369918
-0.20968001753279517 0.17941652058137206
-0.18802760122118087 0.17941652058137206
-0.18802760122118087 0.14117033160602632
-0.20968001753279517 0.10292414263068057
-0.20968001753279517 0.06467795365533482
-0.20968001753279517 0.04555485916766196
-0.23133243384440944 0.04555485916766196
-0.20968001753279517 0.0073086701923162104
-0.23133243384440944 0.0838010481430077
-0.20968001753279517 0.10292414263068057
-0.19885380937698802 0.17941652058137206
-0.17720139306537372 0.14117033160602632
-0.17720139306537372 0.17941652058137206
-0.13389656044214512 0.16029342609369918
-0.15554897675375942 0.10292414263068057
-0.15554897675375942 0.12204723711835344
-0.16637518490956657 0.14117033160602632
-0.18802760122118087 0.06467795365533482
-0.18802760122118087 0.06467795365533482
-0.17720139306537372 0.04555485916766196
-0.2205062256886023 0.0838010481430077
-0.2205062256886023 0.16029342609369918
-0.17720139306537372 0.14117033160602632
-0.15554897675375942 0.17941652058137206
-0.16637518490956657 0.17941652058137206
-0.14472276859795227 0.19853961506904494
-0.13389656044214512 0.2176627095567178
-0.13389656044214512 0.16029342609369918
-0.15554897675375942 0.16029342609369918
-0.16637518490956657 0.10292414263068057
-0.17720139306537372 0.0838010481430077
-0.18802760122118087 0.06467795365533482
-0.17720139306537372 0.10292414263068057
-0.15554897675375942 0.12204723711835344
-0.13389656044214512 0.0838010481430077
-0.13389656044214512 0.14117033160602632
-0.13389656044214512 0.17941652058137206
-0.11224414413053083 0.2176627095567178
-0.13389656044214512 0.17941652058137206
-0.12307035228633798 0.14117033160602632
-0.16637518490956657 0.14117033160602632
-0.15554897675375942 0.10292414263068057
-0.16637518490956657 0.06467795365533482
-0.16637518490956657 0.04555485916766196
-0.16637518490956657 0.04555485916766196
-0.14472276859795227 0.0838010481430077
-0.13389656044214512 0.0838010481430077
-0.15554897675375942 0.17941652058137206
-0.15554897675375942 0.17941652058137206
-0.12307035228633798 0.2176627095567178
-0.11224414413053083 0.17941652058137206
-0.12307035228633798 0.17941652058137206
-0.13389656044214512 0.12204723711835344
-0.13389656044214512 0.14117033160602632
-0.15554897675375942 0.10292414263068057
-0.15554897675375942 0.12204723711835344
-0.16637518490956657 0.16029342609369918
-0.16637518490956657 0.17941652058137206
-0.12307035228633798 0.2176627095567178
-0.14472276859795227 0.25590889853206356
-0.13389656044214512 0.23678580404439067
-0.09059172781891653 0.2750319930197364
-0.12307035228633798 0.23678580404439067
-0.12307035228633798 0.23678580404439067
-0.11224414413053083 0.23678580404439067
-0.13389656044214512 0.19853961506904494
-0.14472276859795227 0.12204723711835344
-0.15554897675375942 0.10292414263068057
-0.16637518490956657 0.19853961506904494
-0.16637518490956657 0.16029342609369918
-0.15554897675375942 0.19853961506904494
-0.13389656044214512 0.2176627095567178
-0.11224414413053083 0.2750319930197364
-0.09059172781891653 0.31327818199508217
-0.09059172781891653 0.2941550875074093
-0.11224414413053083 0.31327818199508217
-0.12307035228633798 0.23678580404439067
-0.12307035228633798 0.17941652058137206
-0.13389656044214512 0.14117033160602632
-0.13389656044214512 0.14117033160602632
-0.14472276859795227 0.12204723711835344
-0.14472276859795227 0.16029342609369918
-0.13389656044214512 0.17941652058137206
-0.11224414413053083 0.19853961506904494
-0.11224414413053083 0.23678580404439067
-0.09059172781891653 0.25590889853206356
-0.09059172781891653 0.23678580404439067
-0.10141793597472368 0.2176627095567178
-0.11224414413053083 0.16029342609369918
-0.15554897675375942 0.16029342609369918
-0.14472276859795227 0.14117033160602632
-0.13389656044214512 0.14117033160602632
-0.15554897675375942 0.12204723711835344
-0.16637518490956657 0.19853961506904494
-0.14472276859795227 0.14117033160602632
-0.13389656044214512 0.19853961506904494
-0.11224414413053083 0.2176627095567178
-0.11224414413053083 0.23678580404439067
-0.10141793597472368 0.19853961506904494
-0.11224414413053083 0.19853961506904494
-0.12307035228633798 0.12204723711835344
-0.13389656044214512 0.06467795365533482
-0.14472276859795227 0.06467795365533482
-0.14472276859795227 0.026431764679989082
-0.15554897675375942 0.026431764679989082
-0.15554897675375942 0.12204723711835344
-0.11224414413053083 0.12204723711835344
-0.12307035228633798 0.17941652058137206
-0.12307035228633798 0.2176627095567178
-0.10141793597472368 0.25590889853206356
-0.10141793597472368 0.2176627095567178
-0.11224414413053083 0.16029342609369918
-0.11224414413053083 0.14117033160602632
-0.14472276859795227 0.10292414263068057
-0.15554897675375942 0.0838010481430077
-0.17720139306537372 0.06467795365533482
-0.16637518490956657 0.12204723711835344
-0.18802760122118087 0.12204723711835344
-0.15554897675375942 0.17941652058137206
-0.13389656044214512 0.17941652058137206
-0.11224414413053083 0.19853961506904494
-0.09059172781891653 0.23678580404439067
-0.10141793597472368 0.16029342609369918
-0.13389656044214512 0.19853961506904494
-0.13389656044214512 0.16029342609369918
-0.14472276859795227 0.2176627095567178
-0.14472276859795227 0.17941652058137206
-0.16637518490956657 0.19853961506904494
-0.15554897675375942 0.16029342609369918
-0.15554897675375942 0.14117033160602632
-0.13389656044214512 0.25590889853206356
-0.11224414413053083 0.2750319930197364
-0.11224414413053083 0.23678580404439067
-0.10141793597472368 0.2941550875074093
-0.10141793597472368 0.2176627095567178
-0.11224414413053083 0.19853961506904494
-0.14472276859795227 0.16029342609369918
-0.17720139306537372 0.10292414263068057
-0.18802760122118087 0.12204723711835344
-0.18802760122118087 0.0838010481430077
-0.17720139306537372 0.0838010481430077
-0.18802760122118087 0.14117033160602632
-0.15554897675375942 0.17941652058137206
-0.12307035228633798 0.19853961506904494
-0.09059172781891653 0.23678580404439067
-0.06893931150730223 0.23678580404439067
-0.09059172781891653 0.2176627095567178
-0.07976551966310938 0.19853961506904494
-0.11224414413053083 0.17941652058137206
-0.11224414413053083 0.14117033160602632
-0.10141793597472368 0.10292414263068057
-0.12307035228633798 0.10292414263068057
-0.15554897675375942 0.10292414263068057
-0.16637518490956657 0.12204723711835344
-0.12307035228633798 0.06467795365533482
-0.11224414413053083 0.16029342609369918
-0.09059172781891653 0.14117033160602632
-0.04728689519568794 0.17941652058137206
-0.04728689519568794 0.23678580404439067
-0.003982062572459349 0.19853961506904494
-0.003982062572459349 0.2176627095567178
-0.014808270728266496 0.12204723711835344
-0.014808270728266496 0.0838010481430077
-0.003982062572459349 0.12204723711835344
0.006844145583347798 0.16029342609369918
0.006844145583347798 0.2176627095567178
0.017670353739154945 0.2176627095567178
-0.003982062572459349 0.23678580404439067
0.017670353739154945 0.2750319930197364
0.028496561894962094 0.31327818199508217
-0.003982062572459349 0.23678580404439067
-0.04728689519568794 0.25590889853206356
-0.05811310335149509 0.19853961506904494
-0.06893931150730223 0.25590889853206356
-0.06893931150730223 0.2176627095567178
-0.06893931150730223 0.16029342609369918
-0.07976551966310938 0.2176627095567178
-0.07976551966310938 0.2941550875074093
-0.03646068703988079 0.40889365443344655
0.017670353739154945 0.46626293789646517
0.060975186362383534 0.485386032384138
0.08262760267399782 0.485386032384138
0.07180139451819069 0.40889365443344655
0.060975186362383534 0.3706474654581008
0.017670353739154945 0.332401276482755
-0.003982062572459349 0.2176627095567178
-0.03646068703988079 0.19853961506904494
-0.07976551966310938 0.19853961506904494
-0.14472276859795227 0.14117033160602632
-0.15554897675375942 0.14117033160602632
-0.15554897675375942 0.14117033160602632
-0.16637518490956657 0.14117033160602632
-0.16637518490956657 0.19853961506904494
-0.14472276859795227 0.14117033160602632
-0.15554897675375942 0.23678580404439067
-0.16637518490956657 0.16029342609369918
-0.16637518490956657 0.12204723711835344
-0.17720139306537372 0.04555485916766196
-0.16637518490956657 0.04555485916766196
-0.18802760122118087 0.04555485916766196
-0.18802760122118087 0.0073086701923162104
-0.19885380937698802 -0.030937518783029534
-0.2205062256886023 -0.08830680224604816
-0.2205062256886023 -0.10742989673372103
-0.23133243384440944 -0.08830680224604816
-0.16637518490956657 0.10292414263068057
-0.06893931150730223 0.44713984340879226
0.060975186362383534 0.8678479221375954
0.2558469331669122 1.2311867174033801
0.4182400555040194 1.5754024181814918
0.5806331778411267 1.690140985107529
0.7105476757108123 1.6136486071568374
0.7755049246456552 1.2885560008663988
0.7646787164898481 0.7339862607238854
0.6239380104643552 -0.16479918019673964
0.33163039025756225 -1.2739386604817662
-0.003982062572459349 -2.2492164793530827
-0.27463726646763803 -2.956770975396979
-0.41537797249313096 -3.071509542323016
-0.3395945154024809 -2.746416936032577
-0.025634478884073643 -2.172724101402391
0.4398924718156337 -1.5034157943338406
0.9595504632943768 -0.8341074872652902
1.47920845477312 -0.260414652635104
1.9555616136286345 0.19853961506904494
2.4102623561725345 0.5618784103348295
2.8541368905606275 0.7722324496992311
3.308837633104528 0.8869710166252683
3.7202335430251994 0.9634633945759599
4.088324620322642 1.0208326780389785
4.294022575282979 0.9634633945759599
4.391458448685243 0.7531093552115582
4.391458448685243 0.44713984340879226
4.2507177426597496 0.17941652058137206
4.034193579543607 0.0073086701923162104
3.7202335430251994 -0.05006061327070241
3.308837633104528 -0.06918370775837528
2.875789306872242 0.026431764679989082
2.4102623561725345 0.19853961506904494
1.9447354054728272 0.31327818199508217
1.5008608710847342 0.38977055994577364
1.035333920385027 0.3706474654581008
0.602285594152741 0.25590889853206356
0.12593243529722642 0.06467795365533482
-0.24215864200021658 -0.08830680224604816
-0.491161429583781 -0.22216846365975826
-0.6643807600766953 -0.260414652635104
-0.7185118008557311 -0.18392227468441252
-0.7185118008557311 -0.05006061327070241
-0.6968593845441168 0.06467795365533482
-0.6102497192976596 0.23678580404439067
-0.5777710948302381 0.2750319930197364
-0.5019876377395881 0.3706474654581008
-0.45868280511635956 0.46626293789646517
-0.4478565969605524 0.485386032384138
-0.4045517643373238 0.5236322213594837
-0.4262041806489381 0.5236322213594837
-0.39372555618151667 0.485386032384138
-0.4478565969605524 0.5236322213594837
-0.4262041806489381 0.5236322213594837
-0.4262041806489381 0.5427553158471566
-0.4262041806489381 0.5810015048225023
-0.4262041806489381 0.5810015048225023
-0.4045517643373238 0.638370788285521
-0.39372555618151667 0.638370788285521
-0.3828993480257095 0.6957400717485396
-0.3612469317140952 0.6574938827731939
-0.37207313986990237 0.6001245993101753
-0.3828993480257095 0.5810015048225023
-0.39372555618151667 0.6001245993101753
-0.41537797249313096 0.5236322213594837
-0.41537797249313096 0.5618784103348295
-0.45868280511635956 0.5236322213594837
-0.43703038880474526 0.6192476937978482
-0.43703038880474526 0.6192476937978482
-0.43703038880474526 0.638370788285521
-0.4045517643373238 0.6766169772608668
-0.39372555618151667 0.6766169772608668
-0.4045517643373238 0.638370788285521
-0.41537797249313096 0.6574938827731939
-0.41537797249313096 0.6001245993101753
-0.43703038880474526 0.5810015048225023
-0.43703038880474526 0.5810015048225023
-0.45868280511635956 0.5618784103348295
-0.4695090132721667 0.5810015048225023
-0.48033522142797386 0.5618784103348295
-0.491161429583781 0.6001245993101753
-0.48033522142797386 0.6574938827731939
-0.4695090132721667 0.6766169772608668
-0.4478565969605524 0.6957400717485396
-0.4478565969605524 0.6574938827731939
-0.48033522142797386 0.6574938827731939
-0.48033522142797386 0.6192476937978482
-0.491161429583781 0.638370788285521
-0.5128138458953952 0.5427553158471566
-0.5344662622070095 0.5236322213594837
-0.5452924703628167 0.46626293789646517
-0.5344662622070095 0.5045091268718109
-0.5236400540512024 0.5236322213594837
-0.5128138458953952 0.5810015048225023
-0.5344662622070095 0.5810015048225023
-0.5344662622070095 0.6192476937978482
-0.5452924703628167 0.5810015048225023
-0.5452924703628167 0.5427553158471566
-0.566944886674431 0.44713984340879226
-0.5885973029860453 0.35152437097042794
-0.6102497192976596 0.31327818199508217
-0.6210759274534667 0.332401276482755
-0.6319021356092739 0.35152437097042794
-0.6210759274534667 0.38977055994577364
-0.6102497192976596 0.3706474654581008
-0.6102497192976596 0.4280167489211194
-0.6210759274534667 0.40889365443344655
-0.5994235111418524 0.332401276482755
-0.6210759274534667 0.332401276482755
-0.642728343765081 0.23678580404439067
-0.6860331763883096 0.19853961506904494
-0.6968593845441168 0.14117033160602632
-0.7185118008557311 0.06467795365533482
-0.7618166334789597 0.0838010481430077
-0.7618166334789597 0.04555485916766196
-0.7726428416347668 0.06467795365533482
-0.7942952579463811 0.0073086701923162104
-0.7942952579463811 0.04555485916766196
-0.7942952579463811 0.04555485916766196
-0.783469049790574 0.0073086701923162104
-0.7618166334789597 -0.1265529912213939
-0.7942952579463811 -0.1265529912213939
-0.8159476742579954 -0.24129155814743114
-0.859252506881224 -0.3177839360981226
-0.8700787150370312 -0.3751532195611412
-0.8809049231928383 -0.39427631404881414
-0.8809049231928383 -0.45164559751183275
-0.8809049231928383 -0.4707686919995056
-0.859252506881224 -0.43252250302415984
-0.8159476742579954 -0.4707686919995056
-0.8051214661021883 -0.43252250302415984
-0.7942952579463811 -0.5281379754625242
-0.7942952579463811 -0.56638416443787
-0.7726428416347668 -0.6046303534132157
-0.783469049790574 -0.6237534479008886
-0.7618166334789597 -0.6811227313639072
-0.7401642171673454 -0.70024582585158
-0.7293380090115382 -0.70024582585158
-0.6860331763883096 -0.6619996368762343
-0.6643807600766953 -0.6428765423885614
-0.6102497192976596 -0.6428765423885614
-0.566944886674431 -0.6046303534132157
-0.5452924703628167 -0.5855072589255428
-0.5019876377395881 -0.6237534479008886
-0.48033522142797386 -0.6428765423885614
-0.45868280511635956 -0.6237534479008886
-0.4262041806489381 -0.6428765423885614
-0.37207313986990237 -0.6428765423885614
-0.37207313986990237 -0.6237534479008886
-0.3071158909350595 -0.6811227313639072
-0.27463726646763803 -0.6428765423885614
-0.2638110583118309 -0.6046303534132157
-0.23133243384440944 -0.5472610699501971
-0.17720139306537372 -0.48989178648717846
-0.13389656044214512 -0.43252250302415984
-0.07976551966310938 -0.39427631404881414
-0.04728689519568794 -0.413399408536487
-0.025634478884073643 -0.39427631404881414
-0.003982062572459349 -0.43252250302415984
-0.003982062572459349 -0.4707686919995056
-0.003982062572459349 -0.43252250302415984
0.017670353739154945 -0.43252250302415984
0.03932277005076924 -0.43252250302415984
0.017670353739154945 -0.4707686919995056
0.03932277005076924 -0.3560301250734684
0.028496561894962094 -0.3560301250734684
0.017670353739154945 -0.29866084161044976
0.05014897820657639 -0.27953774712277685
0.006844145583347798 -0.3177839360981226
0.017670353739154945 -0.3177839360981226
-0.003982062572459349 -0.413399408536487
-0.03646068703988079 -0.43252250302415984
-0.06893931150730223 -0.5090148809748514
-0.07976551966310938 -0.48989178648717846
-0.09059172781891653 -0.413399408536487
-0.11224414413053083 -0.3751532195611412
-0.11224414413053083 -0.3560301250734684
-0.14472276859795227 -0.3177839360981226
-0.16637518490956657 -0.29866084161044976
-0.15554897675375942 -0.29866084161044976
-0.18802760122118087 -0.3751532195611412
-0.18802760122118087 -0.43252250302415984
-0.23133243384440944 -0.45164559751183275
-0.27463726646763803 -0.4707686919995056
-0.27463726646763803 -0.48989178648717846
-0.3071158909350595 -0.45164559751183275
-0.3071158909350595 -0.5090148809748514
-0.29628968277925233 -0.48989178648717846
-0.3071158909350595 -0.45164559751183275
-0.29628968277925233 -0.43252250302415984
-0.2854634746234452 -0.413399408536487
-0.27463726646763803 -0.39427631404881414
-0.25298485015602373 -0.39427631404881414
-0.29628968277925233 -0.413399408536487
-0.3179420990908666 -0.45164559751183275
-0.3287683072466738 -0.4707686919995056
-0.3395945154024809 -0.43252250302415984
-0.3287683072466738 -0.413399408536487
-0.3287683072466738 -0.39427631404881414
-0.3395945154024809 -0.3751532195611412
-0.3395945154024809 -0.33690703058579546
-0.29628968277925233 -0.29866084161044976
-0.29628968277925233 -0.27953774712277685
-0.27463726646763803 -0.29866084161044976
-0.27463726646763803 -0.260414652635104
-0.2854634746234452 -0.29866084161044976
-0.27463726646763803 -0.33690703058579546
-0.27463726646763803 -0.27953774712277685
-0.3071158909350595 -0.27953774712277685
-0.2854634746234452 -0.33690703058579546
-0.3071158909350595 -0.27953774712277685
-0.3287683072466738 -0.27953774712277685
-0.29628968277925233 -0.22216846365975826
-0.2638110583118309 -0.22216846365975826
-0.24215864200021658 -0.22216846365975826
-0.20968001753279517 -0.20304536917208538
-0.2205062256886023 -0.22216846365975826
-0.24215864200021658 -0.18392227468441252
-0.2205062256886023 -0.260414652635104
-0.23133243384440944 -0.24129155814743114
-0.23133243384440944 -0.260414652635104
-0.2205062256886023 -0.260414652635104
-0.2205062256886023 -0.24129155814743114
-0.20968001753279517 -0.24129155814743114
-0.2205062256886023 -0.16479918019673964
-0.17720139306537372 -0.20304536917208538
-0.16637518490956657 -0.14567608570906676
-0.15554897675375942 -0.10742989673372103
-0.15554897675375942 -0.16479918019673964
-0.17720139306537372 -0.16479918019673964
-0.19885380937698802 -0.18392227468441252
-0.17720139306537372 -0.20304536917208538
-0.17720139306537372 -0.22216846365975826
-0.19885380937698802 -0.22216846365975826
-0.18802760122118087 -0.18392227468441252
-0.18802760122118087 -0.16479918019673964
-0.17720139306537372 -0.14567608570906676
-0.15554897675375942 -0.20304536917208538
-0.13389656044214512 -0.10742989673372103
-0.13389656044214512 -0.14567608570906676
-0.17720139306537372 -0.16479918019673964
-0.15554897675375942 -0.14567608570906676
-0.16637518490956657 -0.14567608570906676
-0.19885380937698802 -0.18392227468441252
-0.16637518490956657 -0.16479918019673964
-0.16637518490956657 -0.18392227468441252
-0.15554897675375942 -0.18392227468441252
-0.15554897675375942 -0.1265529912213939
-0.15554897675375942 -0.14567608570906676
-0.13389656044214512 -0.06918370775837528
-0.13389656044214512 -0.06918370775837528
-0.12307035228633798 -0.10742989673372103
-0.12307035228633798 -0.06918370775837528
-0.11224414413053083 -0.05006061327070241
-0.15554897675375942 -0.05006061327070241
-0.15554897675375942 -0.10742989673372103
-0.13389656044214512 -0.10742989673372103
-0.14472276859795227 -0.14567608570906676
-0.17720139306537372 -0.1265529912213939
-0.17720139306537372 -0.10742989673372103
-0.15554897675375942 -0.06918370775837528
-0.15554897675375942 -0.030937518783029534
-0.10141793597472368 0.0073086701923162104
-0.07976551966310938 0.0073086701923162104
-0.07976551966310938 -0.030937518783029534
-0.10141793597472368 -0.05006061327070241
-0.11224414413053083 -0.08830680224604816
-0.13389656044214512 -0.20304536917208538
-0.14472276859795227 -0.14567608570906676
-0.14472276859795227 -0.24129155814743114
-0.16637518490956657 -0.16479918019673964
-0.17720139306537372 -0.14567608570906676
-0.12307035228633798 -0.1265529912213939
-0.12307035228633798 -0.05006061327070241
-0.10141793597472368 -0.06918370775837528
-0.05811310335149509 -0.05006061327070241
-0.11224414413053083 -0.030937518783029534
-0.10141793597472368 -0.08830680224604816
-0.13389656044214512 -0.1265529912213939
-0.13389656044214512 -0.1265529912213939
-0.12307035228633798 -0.16479918019673964
-0.14472276859795227 -0.18392227468441252
-0.12307035228633798 -0.18392227468441252
-0.11224414413053083 -0.20304536917208538
-0.12307035228633798 -0.10742989673372103
-0.10141793597472368 -0.08830680224604816
-0.07976551966310938 -0.08830680224604816
-0.05811310335149509 -0.08830680224604816
-0.12307035228633798 -0.10742989673372103
-0.11224414413053083 -0.14567608570906676
-0.12307035228633798 -0.16479918019673964
-0.13389656044214512 -0.22216846365975826
-0.14472276859795227 -0.18392227468441252
-0.13389656044214512 -0.20304536917208538
-0.13389656044214512 -0.20304536917208538
-0.12307035228633798 -0.22216846365975826
-0.12307035228633798 -0.16479918019673964
-0.07976551966310938 -0.14567608570906676
-0.06893931150730223 -0.10742989673372103
-0.06893931150730223 -0.1265529912213939
-0.05811310335149509 -0.14567608570906676
-0.06893931150730223 -0.16479918019673964
-0.07976551966310938 -0.16479918019673964
-0.09059172781891653 -0.24129155814743114
-0.11224414413053083 -0.27953774712277685
-0.11224414413053083 -0.20304536917208538
-0.16637518490956657 -0.24129155814743114
-0.14472276859795227 -0.18392227468441252
-0.14472276859795227 -0.20304536917208538
-0.12307035228633798 -0.20304536917208538
-0.10141793597472368 -0.22216846365975826
-0.09059172781891653 -0.16479918019673964
-0.09059172781891653 -0.18392227468441252
-0.07976551966310938 -0.24129155814743114
-0.09059172781891653 -0.27953774712277685
-0.12307035228633798 -0.260414652635104
-0.14472276859795227 -0.260414652635104
-0.13389656044214512 -0.260414652635104
-0.13389656044214512 -0.24129155814743114
-0.15554897675375942 -0.20304536917208538
-0.13389656044214512 -0.18392227468441252
-0.12307035228633798 -0.1265529912213939
-0.11224414413053083 -0.1265529912213939
-0.07976551966310938 -0.16479918019673964
-0.10141793597472368 -0.18392227468441252
-0.10141793597472368 -0.22216846365975826
-0.11224414413053083 -0.260414652635104
-0.12307035228633798 -0.24129155814743114
-0.12307035228633798 -0.27953774712277685
-0.11224414413053083 -0.27953774712277685
-0.13389656044214512 -0.29866084161044976
-0.13389656044214512 -0.27953774712277685
-0.15554897675375942 -0.27953774712277685
-0.12307035228633798 -0.27953774712277685
-0.10141793597472368 -0.27953774712277685
-0.07976551966310938 -0.22216846365975826
-0.07976551966310938 -0.29866084161044976
-0.09059172781891653 -0.27953774712277685
-0.11224414413053083 -0.3177839360981226
-0.15554897675375942 -0.33690703058579546
-0.14472276859795227 -0.33690703058579546
-0.15554897675375942 -0.3560301250734684
-0.15554897675375942 -0.29866084161044976
-0.14472276859795227 -0.29866084161044976
-0.14472276859795227 -0.29866084161044976
-0.10141793597472368 -0.260414652635104
