0.028496561894962094 -0.10742989673372103
0.028496561894962094 -0.1265529912213939
0.017670353739154945 -0.08830680224604816
0.006844145583347798 -0.10742989673372103
0.006844145583347798 -0.1265529912213939
-0.014808270728266496 -0.14567608570906676
-0.025634478884073643 -0.08830680224604816
-0.04728689519568794 -0.08830680224604816
-0.025634478884073643 -0.030937518783029534
0.017670353739154945 0.026431764679989082
0.028496561894962094 0.0073086701923162104
0.017670353739154945 -0.011814424295356661
0.006844145583347798 -0.030937518783029534
0.03932277005076924 -0.10742989673372103
0.006844145583347798 -0.1265529912213939
0.028496561894962094 -0.18392227468441252
0.03932277005076924 -0.18392227468441252
0.017670353739154945 -0.16479918019673964
0.060975186362383534 -0.08830680224604816
0.05014897820657639 -0.06918370775837528
0.08262760267399782 -0.011814424295356661
0.13675864345303357 0.04555485916766196
0.15841105976464787 0.06467795365533482
0.15841105976464787 0.0838010481430077
0.12593243529722642 0.026431764679989082
0.12593243529722642 0.0073086701923162104
0.10428001898561212 -0.06918370775837528
0.11510622714141927 -0.10742989673372103
0.12593243529722642 -0.1265529912213939
0.14758485160884072 -0.06918370775837528
0.1908896842320693 -0.05006061327070241
0.20171589238787646 0.0073086701923162104
0.2125421005436836 0.06467795365533482
0.2341945168552979 0.06467795365533482
0.2558469331669122 0.12204723711835344
0.24502072501110506 0.0838010481430077
0.2774993494785265 0.06467795365533482
0.26667314132271935 0.026431764679989082
0.22336830869949076 0.0073086701923162104
0.1908896842320693 0.04555485916766196
0.18006347607626216 0.04555485916766196
0.15841105976464787 0.026431764679989082
0.14758485160884072 0.10292414263068057
0.16923726792045501 0.14117033160602632
0.16923726792045501 0.23678580404439067
0.1908896842320693 0.2750319930197364
0.2125421005436836 0.332401276482755
0.24502072501110506 0.3706474654581008
0.2558469331669122 0.332401276482755
0.26667314132271935 0.31327818199508217
0.24502072501110506 0.25590889853206356
0.22336830869949076 0.2176627095567178
0.1908896842320693 0.10292414263068057
0.13675864345303357 0.10292414263068057
0.12593243529722642 0.16029342609369918
0.08262760267399782 0.10292414263068057
0.060975186362383534 0.16029342609369918
0.05014897820657639 0.14117033160602632
0.060975186362383534 0.0838010481430077
0.05014897820657639 0.026431764679989082
0.05014897820657639 0.026431764679989082
0.05014897820657639 -0.030937518783029534
0.028496561894962094 -0.030937518783029534
-0.003982062572459349 -0.10742989673372103
0.017670353739154945 -0.08830680224604816
0.017670353739154945 -0.06918370775837528
0.017670353739154945 -0.06918370775837528
-0.003982062572459349 -0.1265529912213939
-0.014808270728266496 -0.18392227468441252
0.006844145583347798 -0.22216846365975826
0.028496561894962094 -0.18392227468441252
0.09345381082980497 -0.011814424295356661
0.2125421005436836 0.2941550875074093
0.3641090147249837 0.8104786386745768
0.5265021370620909 1.3076790953540716
0.688895259399198 1.8048795520335663
0.8188097572688838 2.0726028748609866
0.9162456306711482 2.263833819737715
1.0136815040734126 2.0726028748609866
0.9920290877617982 1.7092640795952019
0.8945932143595339 0.9825864890636327
0.6997214675550052 0.06467795365533482
0.5373283452178981 -0.9488460541913274
0.38576143103659793 -1.7520160226735881
0.4507186799714408 -2.1536010069147182
0.6780690512433909 -1.8858776840872982
1.046160128540834 -1.2739386604817662
1.5333394955521555 -0.45164559751183275
2.031345070719284 0.46626293789646517
2.4968720214189917 1.3459252843294174
2.962398972118699 1.996110496910295
3.417099714662599 2.588926426028154
3.8826266653623067 2.9713883157816112
4.315674991594593 3.219988544121359
4.6729398607362285 3.29648092207205
4.911116440163986 3.2391116386090317
4.976073689098828 3.0861268827076485
4.911116440163986 2.6845418984665184
4.7270709015152645 2.2255876307623694
4.434763281308471 1.8240026465212391
4.034193579543607 1.384171473304763
3.5037093799090564 0.9825864890636327
2.9082679313396635 0.6766169772608668
2.356131315393499 0.44713984340879226
1.8256471157589487 0.31327818199508217
1.3384677487476269 0.25590889853206356
0.829635965424691 0.19853961506904494
0.3749352228807908 0.026431764679989082
-0.025634478884073643 -0.18392227468441252
-0.3287683072466738 -0.3751532195611412
-0.5452924703628167 -0.5472610699501971
-0.7076855926999239 -0.6428765423885614
-0.7293380090115382 -0.6428765423885614
-0.7293380090115382 -0.6046303534132157
-0.6860331763883096 -0.45164559751183275
-0.6210759274534667 -0.29866084161044976
-0.5561186785186238 -0.10742989673372103
-0.4695090132721667 -0.011814424295356661
-0.39372555618151667 0.14117033160602632
-0.3395945154024809 0.2750319930197364
-0.3071158909350595 0.35152437097042794
-0.2854634746234452 0.3706474654581008
-0.2854634746234452 0.38977055994577364
-0.3071158909350595 0.38977055994577364
-0.29628968277925233 0.38977055994577364
-0.3395945154024809 0.3706474654581008
-0.35042072355828807 0.38977055994577364
-0.35042072355828807 0.4280167489211194
-0.3287683072466738 0.5045091268718109
-0.3287683072466738 0.5236322213594837
-0.2854634746234452 0.5236322213594837
-0.2854634746234452 0.5236322213594837
-0.27463726646763803 0.5045091268718109
-0.2854634746234452 0.46626293789646517
-0.3287683072466738 0.485386032384138
-0.35042072355828807 0.40889365443344655
-0.3612469317140952 0.35152437097042794
-0.3612469317140952 0.35152437097042794
-0.35042072355828807 0.40889365443344655
-0.3612469317140952 0.5045091268718109
-0.3612469317140952 0.5427553158471566
-0.35042072355828807 0.5236322213594837
-0.3828993480257095 0.5810015048225023
-0.3287683072466738 0.5427553158471566
-0.3287683072466738 0.5045091268718109
-0.3395945154024809 0.485386032384138
-0.3828993480257095 0.4280167489211194
-0.3828993480257095 0.40889365443344655
-0.37207313986990237 0.38977055994577364
-0.4045517643373238 0.38977055994577364
-0.3612469317140952 0.44713984340879226
-0.3287683072466738 0.485386032384138
-0.3179420990908666 0.5236322213594837
-0.3179420990908666 0.5618784103348295
-0.3179420990908666 0.5618784103348295
-0.3287683072466738 0.46626293789646517
-0.37207313986990237 0.4280167489211194
-0.4045517643373238 0.38977055994577364
-0.4262041806489381 0.35152437097042794
-0.41537797249313096 0.35152437097042794
-0.43703038880474526 0.31327818199508217
-0.4478565969605524 0.332401276482755
-0.4478565969605524 0.35152437097042794
-0.4478565969605524 0.31327818199508217
-0.43703038880474526 0.35152437097042794
-0.4262041806489381 0.35152437097042794
-0.43703038880474526 0.332401276482755
-0.4262041806489381 0.2750319930197364
-0.4262041806489381 0.23678580404439067
-0.43703038880474526 0.17941652058137206
-0.45868280511635956 0.17941652058137206
-0.4695090132721667 0.16029342609369918
-0.48033522142797386 0.17941652058137206
-0.45868280511635956 0.16029342609369918
-0.48033522142797386 0.10292414263068057
-0.4695090132721667 0.10292414263068057
-0.491161429583781 0.06467795365533482
-0.48033522142797386 0.04555485916766196
-0.48033522142797386 0.026431764679989082
-0.491161429583781 0.0073086701923162104
-0.5344662622070095 -0.06918370775837528
-0.5344662622070095 -0.06918370775837528
-0.5344662622070095 -0.16479918019673964
-0.5452924703628167 -0.18392227468441252
-0.5236400540512024 -0.260414652635104
-0.5344662622070095 -0.22216846365975826
-0.5344662622070095 -0.260414652635104
-0.5236400540512024 -0.27953774712277685
-0.5128138458953952 -0.3177839360981226
-0.5128138458953952 -0.3560301250734684
-0.4695090132721667 -0.3560301250734684
-0.491161429583781 -0.413399408536487
-0.48033522142797386 -0.39427631404881414
-0.48033522142797386 -0.43252250302415984
-0.491161429583781 -0.45164559751183275
-0.5019876377395881 -0.48989178648717846
-0.4695090132721667 -0.5855072589255428
-0.4478565969605524 -0.5855072589255428
-0.43703038880474526 -0.5855072589255428
-0.41537797249313096 -0.5472610699501971
-0.3828993480257095 -0.5855072589255428
-0.3612469317140952 -0.56638416443787
-0.3287683072466738 -0.5090148809748514
-0.29628968277925233 -0.5281379754625242
-0.3071158909350595 -0.56638416443787
-0.2638110583118309 -0.56638416443787
-0.25298485015602373 -0.6046303534132157
-0.23133243384440944 -0.6428765423885614
-0.2205062256886023 -0.70024582585158
-0.17720139306537372 -0.6619996368762343
-0.14472276859795227 -0.5472610699501971
-0.06893931150730223 -0.48989178648717846
-0.05811310335149509 -0.48989178648717846
-0.014808270728266496 -0.413399408536487
0.05014897820657639 -0.3560301250734684
0.08262760267399782 -0.413399408536487
0.07180139451819069 -0.3751532195611412
0.12593243529722642 -0.413399408536487
0.15841105976464787 -0.413399408536487
0.16923726792045501 -0.43252250302415984
0.1908896842320693 -0.413399408536487
0.2125421005436836 -0.3560301250734684
0.2341945168552979 -0.33690703058579546
0.24502072501110506 -0.27953774712277685
0.2774993494785265 -0.20304536917208538
0.28832555763433365 -0.14567608570906676
0.3208041821017551 -0.1265529912213939
0.33163039025756225 -0.1265529912213939
0.30997797394594795 -0.16479918019673964
0.35328280656917654 -0.24129155814743114
0.33163039025756225 -0.22216846365975826
0.30997797394594795 -0.20304536917208538
0.3424565984133694 -0.22216846365975826
0.30997797394594795 -0.18392227468441252
0.2774993494785265 -0.16479918019673964
0.2774993494785265 -0.16479918019673964
0.2341945168552979 -0.1265529912213939
0.24502072501110506 -0.06918370775837528
0.2341945168552979 -0.06918370775837528
0.22336830869949076 -0.05006061327070241
0.2125421005436836 -0.10742989673372103
0.16923726792045501 -0.14567608570906676
0.15841105976464787 -0.18392227468441252
0.10428001898561212 -0.20304536917208538
0.05014897820657639 -0.18392227468441252
0.05014897820657639 -0.16479918019673964
0.017670353739154945 -0.10742989673372103
0.006844145583347798 -0.08830680224604816
0.006844145583347798 -0.030937518783029534
-0.003982062572459349 -0.08830680224604816
-0.014808270728266496 -0.05006061327070241
-0.03646068703988079 -0.06918370775837528
-0.025634478884073643 -0.08830680224604816
-0.03646068703988079 -0.14567608570906676
-0.06893931150730223 -0.1265529912213939
-0.07976551966310938 -0.16479918019673964
-0.09059172781891653 -0.18392227468441252
-0.11224414413053083 -0.14567608570906676
-0.14472276859795227 -0.1265529912213939
-0.17720139306537372 -0.1265529912213939
-0.17720139306537372 -0.1265529912213939
-0.16637518490956657 -0.06918370775837528
-0.16637518490956657 -0.05006061327070241
-0.17720139306537372 -0.030937518783029534
-0.17720139306537372 -0.06918370775837528
-0.15554897675375942 -0.14567608570906676
-0.15554897675375942 -0.16479918019673964
-0.16637518490956657 -0.22216846365975826
-0.17720139306537372 -0.18392227468441252
-0.16637518490956657 -0.14567608570906676
-0.15554897675375942 -0.14567608570906676
-0.16637518490956657 -0.10742989673372103
-0.15554897675375942 -0.06918370775837528
-0.16637518490956657 -0.06918370775837528
-0.13389656044214512 -0.05006061327070241
-0.12307035228633798 -0.10742989673372103
-0.13389656044214512 -0.06918370775837528
-0.12307035228633798 -0.1265529912213939
-0.12307035228633798 -0.10742989673372103
-0.10141793597472368 -0.14567608570906676
-0.13389656044214512 -0.16479918019673964
-0.13389656044214512 -0.18392227468441252
-0.12307035228633798 -0.1265529912213939
-0.14472276859795227 -0.08830680224604816
-0.12307035228633798 -0.10742989673372103
-0.10141793597472368 0.0073086701923162104
-0.09059172781891653 0.0073086701923162104
-0.07976551966310938 -0.030937518783029534
-0.10141793597472368 0.026431764679989082
-0.07976551966310938 -0.011814424295356661
-0.09059172781891653 -0.05006061327070241
-0.09059172781891653 -0.06918370775837528
-0.09059172781891653 -0.06918370775837528
-0.13389656044214512 -0.06918370775837528
-0.11224414413053083 -0.08830680224604816
-0.06893931150730223 -0.030937518783029534
-0.04728689519568794 0.026431764679989082
-0.014808270728266496 0.0073086701923162104
-0.014808270728266496 0.04555485916766196
-0.03646068703988079 0.06467795365533482
-0.06893931150730223 0.0073086701923162104
-0.09059172781891653 0.0073086701923162104
-0.09059172781891653 -0.06918370775837528
-0.11224414413053083 -0.08830680224604816
-0.13389656044214512 -0.08830680224604816
-0.13389656044214512 -0.030937518783029534
-0.12307035228633798 -0.08830680224604816
-0.09059172781891653 -0.05006061327070241
-0.09059172781891653 0.026431764679989082
-0.05811310335149509 0.04555485916766196
-0.03646068703988079 0.0838010481430077
-0.03646068703988079 0.026431764679989082
-0.03646068703988079 0.0073086701923162104
-0.03646068703988079 -0.030937518783029534
-0.05811310335149509 -0.06918370775837528
-0.04728689519568794 -0.06918370775837528
-0.07976551966310938 -0.06918370775837528
-0.09059172781891653 -0.05006061327070241
-0.10141793597472368 -0.05006061327070241
-0.11224414413053083 0.026431764679989082
-0.09059172781891653 0.026431764679989082
-0.09059172781891653 0.0838010481430077
-0.06893931150730223 0.06467795365533482
-0.04728689519568794 0.026431764679989082
-0.04728689519568794 0.0073086701923162104
-0.04728689519568794 -0.05006061327070241
-0.04728689519568794 -0.08830680224604816
-0.05811310335149509 -0.08830680224604816
-0.07976551966310938 -0.10742989673372103
-0.09059172781891653 -0.1265529912213939
-0.09059172781891653 -0.08830680224604816
-0.09059172781891653 -0.011814424295356661
-0.06893931150730223 0.0073086701923162104
-0.04728689519568794 0.0073086701923162104
-0.04728689519568794 0.04555485916766196
-0.04728689519568794 0.026431764679989082
-0.09059172781891653 -0.06918370775837528
-0.09059172781891653 -0.08830680224604816
-0.06893931150730223 -0.1265529912213939
-0.06893931150730223 -0.14567608570906676
-0.05811310335149509 -0.16479918019673964
-0.10141793597472368 -0.14567608570906676
-0.10141793597472368 -0.10742989673372103
-0.09059172781891653 -0.06918370775837528
-0.07976551966310938 -0.030937518783029534
-0.03646068703988079 -0.030937518783029534
-0.05811310335149509 0.0073086701923162104
-0.09059172781891653 -0.030937518783029534
-0.10141793597472368 -0.030937518783029534
-0.04728689519568794 -0.10742989673372103
-0.07976551966310938 -0.08830680224604816
-0.10141793597472368 -0.10742989673372103
-0.10141793597472368 -0.1265529912213939
-0.09059172781891653 -0.10742989673372103
-0.09059172781891653 -0.1265529912213939
-0.07976551966310938 -0.05006061327070241
-0.11224414413053083 -0.030937518783029534
-0.11224414413053083 -0.011814424295356661
-0.10141793597472368 0.0073086701923162104
-0.07976551966310938 -0.05006061327070241
-0.07976551966310938 -0.030937518783029534
-0.10141793597472368 -0.05006061327070241
-0.13389656044214512 -0.05006061327070241
-0.11224414413053083 -0.08830680224604816
-0.11224414413053083 -0.1265529912213939
-0.12307035228633798 -0.1265529912213939
-0.12307035228633798 -0.10742989673372103
-0.11224414413053083 -0.05006061327070241
-0.13389656044214512 -0.06918370775837528
-0.11224414413053083 -0.05006061327070241
-0.09059172781891653 -0.030937518783029534
-0.07976551966310938 -0.011814424295356661
-0.06893931150730223 -0.030937518783029534
-0.07976551966310938 -0.030937518783029534
-0.10141793597472368 -0.06918370775837528
-0.09059172781891653 -0.10742989673372103
-0.16637518490956657 -0.10742989673372103
-0.17720139306537372 -0.10742989673372103
-0.13389656044214512 -0.06918370775837528
-0.12307035228633798 -0.06918370775837528
-0.10141793597472368 -0.011814424295356661
-0.07976551966310938 -0.011814424295356661
-0.07976551966310938 0.0073086701923162104
-0.06893931150730223 -0.05006061327070241
-0.06893931150730223 -0.011814424295356661
-0.09059172781891653 -0.030937518783029534
-0.11224414413053083 -0.08830680224604816
-0.11224414413053083 -0.08830680224604816
-0.12307035228633798 -0.10742989673372103
-0.12307035228633798 -0.1265529912213939
-0.10141793597472368 -0.10742989673372103
-0.10141793597472368 -0.08830680224604816
-0.11224414413053083 -0.06918370775837528
-0.09059172781891653 -0.05006061327070241
-0.06893931150730223 -0.06918370775837528
-0.04728689519568794 -0.030937518783029534
-0.06893931150730223 -0.06918370775837528
-0.11224414413053083 -0.10742989673372103
-0.12307035228633798 -0.10742989673372103
-0.12307035228633798 -0.18392227468441252
-0.15554897675375942 -0.20304536917208538
-0.16637518490956657 -0.22216846365975826
-0.15554897675375942 -0.20304536917208538
-0.13389656044214512 -0.1265529912213939
-0.11224414413053083 -0.1265529912213939
-0.05811310335149509 -0.06918370775837528
-0.06893931150730223 -0.011814424295356661
-0.025634478884073643 -0.030937518783029534
-0.04728689519568794 -0.05006061327070241
-0.06893931150730223 -0.06918370775837528
-0.07976551966310938 -0.10742989673372103
-0.06893931150730223 -0.10742989673372103
-0.06893931150730223 -0.1265529912213939
-0.04728689519568794 -0.08830680224604816
-0.014808270728266496 -0.06918370775837528
0.017670353739154945 0.0073086701923162104
0.05014897820657639 0.0073086701923162104
0.060975186362383534 0.026431764679989082
0.03932277005076924 0.0073086701923162104
0.05014897820657639 0.0073086701923162104
0.07180139451819069 0.026431764679989082
0.028496561894962094 -0.030937518783029534
0.03932277005076924 -0.08830680224604816
0.03932277005076924 -0.10742989673372103
0.028496561894962094 -0.14567608570906676
-0.03646068703988079 -0.1265529912213939
-0.04728689519568794 -0.08830680224604816
-0.04728689519568794 -0.05006061327070241
-0.05811310335149509 0.0073086701923162104
-0.04728689519568794 0.04555485916766196
-0.025634478884073643 0.06467795365533482
0.017670353739154945 0.0838010481430077
0.006844145583347798 0.026431764679989082
0.028496561894962094 0.0838010481430077
0.05014897820657639 0.0073086701923162104
0.05014897820657639 0.026431764679989082
0.060975186362383534 0.04555485916766196
0.05014897820657639 0.06467795365533482
0.060975186362383534 0.0838010481430077
0.028496561894962094 0.16029342609369918
0.028496561894962094 0.12204723711835344
-0.03646068703988079 0.14117033160602632
-0.05811310335149509 0.16029342609369918
-0.09059172781891653 0.0838010481430077
-0.14472276859795227 -0.011814424295356661
-0.16637518490956657 -0.06918370775837528
-0.17720139306537372 -0.14567608570906676
-0.24215864200021658 -0.24129155814743114
-0.23133243384440944 -0.260414652635104
-0.24215864200021658 -0.24129155814743114
-0.2638110583118309 -0.16479918019673964
-0.24215864200021658 -0.18392227468441252
-0.24215864200021658 -0.08830680224604816
-0.23133243384440944 -0.1265529912213939
-0.20968001753279517 -0.08830680224604816
-0.18802760122118087 -0.10742989673372103
-0.17720139306537372 -0.1265529912213939
-0.19885380937698802 -0.22216846365975826
-0.23133243384440944 -0.27953774712277685
-0.2854634746234452 -0.43252250302415984
-0.2854634746234452 -0.5281379754625242
-0.27463726646763803 -0.5090148809748514
-0.19885380937698802 -0.3751532195611412
-0.10141793597472368 -0.011814424295356661
0.060975186362383534 0.5045091268718109
0.22336830869949076 0.9634633945759599
0.3424565984133694 1.3459252843294174
0.461544888127248 1.5562793236938188
0.5265021370620909 1.5945255126691646
0.5589807615295124 1.4989100402308002
0.5698069696853195 1.1738174339403615
0.5373283452178981 0.638370788285521
0.40741384734821223 -0.14567608570906676
0.26667314132271935 -1.0635846211173647
0.14758485160884072 -1.8476314951119523
0.12593243529722642 -2.344831951791447
0.22336830869949076 -2.2874626683284283
0.5048497207504766 -1.7902622116489337
0.8945932143595339 -1.0062153376543461
1.3276415405918198 -0.18392227468441252
1.7498636586682985 0.5810015048225023
2.139607152277356 1.2885560008663988
2.5401768540422203 1.8813719299842577
2.9407465558070847 2.397695481151425
3.3737948820393706 2.89489593783092
3.860974249050692 3.315604016559723
4.304848783438786 3.5833273393871434
4.6729398607362285 3.7171890008008535
4.921942648319793 3.6024504338748162
4.954421272787214 3.29648092207205
4.85698539938495 2.837526654367901
4.651287444424614 2.3403261976884067
4.304848783438786 1.9196181189596035
3.828495624583271 1.403294567792436
3.2763590086371064 1.0208326780389785
2.659265143756099 0.6001245993101753
2.0638236951867057 0.3706474654581008
1.490034662928927 0.17941652058137206
0.9270718388269553 0.04555485916766196
0.40741384734821223 -0.06918370775837528
-0.06893931150730223 -0.260414652635104
-0.4262041806489381 -0.413399408536487
-0.7076855926999239 -0.6237534479008886
-0.859252506881224 -0.7958612982899445
-0.9458621721276812 -0.8914767707283088
-0.9675145884392955 -0.9297229597036545
-0.9783407965951026 -0.8914767707283088
-0.9891670047509098 -0.7958612982899445
-0.9999932129067169 -0.6619996368762343
-0.9783407965951026 -0.5281379754625242
-0.9242097558160669 -0.45164559751183275
-0.8809049231928383 -0.29866084161044976
-0.7942952579463811 -0.18392227468441252
-0.7293380090115382 -0.08830680224604816
-0.7076855926999239 0.026431764679989082
-0.6752069682325025 0.0838010481430077
-0.6643807600766953 0.06467795365533482
-0.642728343765081 0.0073086701923162104
-0.642728343765081 0.0073086701923162104
-0.6860331763883096 -0.011814424295356661
-0.6968593845441168 -0.06918370775837528
-0.7401642171673454 0.0073086701923162104
-0.7618166334789597 0.0073086701923162104
-0.7509904253231525 0.06467795365533482
-0.7293380090115382 0.14117033160602632
-0.6968593845441168 0.14117033160602632
-0.6643807600766953 0.19853961506904494
-0.642728343765081 0.17941652058137206
-0.6535545519208882 0.16029342609369918
-0.642728343765081 0.0838010481430077
-0.6643807600766953 0.12204723711835344
-0.6968593845441168 0.04555485916766196
-0.7185118008557311 0.06467795365533482
-0.7293380090115382 0.026431764679989082
-0.7293380090115382 0.10292414263068057
-0.7293380090115382 0.12204723711835344
-0.7185118008557311 0.12204723711835344
-0.7076855926999239 0.17941652058137206
-0.6968593845441168 0.16029342609369918
-0.7185118008557311 0.16029342609369918
-0.6968593845441168 0.0838010481430077
-0.7185118008557311 0.0838010481430077
-0.7185118008557311 0.026431764679989082
-0.7076855926999239 0.026431764679989082
-0.7293380090115382 0.026431764679989082
-0.7293380090115382 0.0073086701923162104
-0.7185118008557311 0.0838010481430077
-0.7185118008557311 0.04555485916766196
-0.7509904253231525 0.10292414263068057
-0.7618166334789597 0.10292414263068057
-0.7401642171673454 0.0838010481430077
-0.7509904253231525 0.06467795365533482
-0.7509904253231525 0.04555485916766196
-0.7509904253231525 0.0073086701923162104
-0.7942952579463811 -0.06918370775837528
-0.8267738824138026 -0.05006061327070241
-0.8159476742579954 -0.06918370775837528
-0.8159476742579954 -0.011814424295356661
-0.8159476742579954 -0.030937518783029534
-0.8267738824138026 -0.011814424295356661
-0.8267738824138026 0.026431764679989082
-0.8159476742579954 -0.05006061327070241
-0.8051214661021883 -0.030937518783029534
-0.783469049790574 -0.05006061327070241
-0.7942952579463811 -0.06918370775837528
-0.8159476742579954 -0.05006061327070241
-0.8376000905696097 -0.16479918019673964
-0.8376000905696097 -0.16479918019673964
-0.8809049231928383 -0.24129155814743114
-0.9025573395044526 -0.260414652635104
-0.9242097558160669 -0.29866084161044976
-0.9025573395044526 -0.24129155814743114
-0.8700787150370312 -0.22216846365975826
-0.859252506881224 -0.260414652635104
-0.859252506881224 -0.27953774712277685
-0.8267738824138026 -0.27953774712277685
-0.8484262987254169 -0.3751532195611412
-0.8484262987254169 -0.43252250302415984
-0.8809049231928383 -0.48989178648717846
-0.9025573395044526 -0.4707686919995056
-0.9133835476602598 -0.48989178648717846
-0.9133835476602598 -0.5472610699501971
-0.9025573395044526 -0.5281379754625242
-0.935035963971874 -0.48989178648717846
-0.9025573395044526 -0.5281379754625242
-0.8917311313486455 -0.5281379754625242
-0.859252506881224 -0.5281379754625242
-0.8267738824138026 -0.56638416443787
-0.8484262987254169 -0.6046303534132157
-0.859252506881224 -0.70024582585158
-0.859252506881224 -0.70024582585158
-0.8700787150370312 -0.7576151093145986
-0.859252506881224 -0.7576151093145986
-0.859252506881224 -0.7958612982899445
-0.8700787150370312 -0.7958612982899445
-0.8267738824138026 -0.7576151093145986
-0.8267738824138026 -0.7576151093145986
-0.7942952579463811 -0.7576151093145986
-0.7509904253231525 -0.7384920148269258
-0.7293380090115382 -0.7384920148269258
-0.7076855926999239 -0.8149843927776173
-0.6968593845441168 -0.8149843927776173
-0.6968593845441168 -0.8341074872652902
-0.6752069682325025 -0.8341074872652902
-0.6860331763883096 -0.8149843927776173
-0.6643807600766953 -0.7958612982899445
-0.642728343765081 -0.7958612982899445
-0.6102497192976596 -0.7576151093145986
-0.5452924703628167 -0.6237534479008886
-0.5236400540512024 -0.6619996368762343
-0.4695090132721667 -0.6046303534132157
-0.41537797249313096 -0.56638416443787
-0.37207313986990237 -0.56638416443787
-0.35042072355828807 -0.6237534479008886
-0.3287683072466738 -0.6046303534132157
-0.35042072355828807 -0.6237534479008886
-0.3287683072466738 -0.6428765423885614
-0.3071158909350595 -0.6046303534132157
-0.2638110583118309 -0.5855072589255428
-0.23133243384440944 -0.5855072589255428
-0.18802760122118087 -0.5281379754625242
-0.13389656044214512 -0.4707686919995056
-0.11224414413053083 -0.413399408536487
-0.12307035228633798 -0.39427631404881414
-0.12307035228633798 -0.413399408536487
-0.11224414413053083 -0.3751532195611412
-0.12307035228633798 -0.43252250302415984
-0.12307035228633798 -0.48989178648717846
-0.11224414413053083 -0.48989178648717846
-0.10141793597472368 -0.5281379754625242
-0.09059172781891653 -0.5090148809748514
-0.11224414413053083 -0.45164559751183275
-0.11224414413053083 -0.43252250302415984
-0.11224414413053083 -0.413399408536487
-0.13389656044214512 -0.3560301250734684
-0.14472276859795227 -0.413399408536487
-0.16637518490956657 -0.413399408536487
-0.19885380937698802 -0.45164559751183275
-0.2205062256886023 -0.5472610699501971
-0.2638110583118309 -0.6046303534132157
-0.3071158909350595 -0.6619996368762343
-0.3395945154024809 -0.6428765423885614
-0.3612469317140952 -0.6428765423885614
-0.4045517643373238 -0.56638416443787
-0.41537797249313096 -0.56638416443787
-0.4262041806489381 -0.5281379754625242
-0.4262041806489381 -0.5281379754625242
-0.43703038880474526 -0.5472610699501971
-0.45868280511635956 -0.5855072589255428
-0.48033522142797386 -0.6619996368762343
-0.5019876377395881 -0.6619996368762343
-0.5344662622070095 -0.70024582585158
-0.5994235111418524 -0.70024582585158
-0.642728343765081 -0.7193689203392529
-0.6319021356092739 -0.6237534479008886
-0.642728343765081 -0.6237534479008886
-0.6319021356092739 -0.5855072589255428
-0.5885973029860453 -0.6046303534132157
-0.5885973029860453 -0.6428765423885614
-0.5777710948302381 -0.6619996368762343
-0.566944886674431 -0.70024582585158
-0.6210759274534667 -0.70024582585158
-0.6102497192976596 -0.6811227313639072
-0.6102497192976596 -0.6619996368762343
-0.6319021356092739 -0.6619996368762343
-0.6319021356092739 -0.6619996368762343
-0.6102497192976596 -0.6619996368762343
-0.6102497192976596 -0.6046303534132157
-0.6102497192976596 -0.56638416443787
-0.5777710948302381 -0.6046303534132157
-0.5236400540512024 -0.56638416443787
-0.5128138458953952 -0.5281379754625242
-0.5344662622070095 -0.5281379754625242
-0.566944886674431 -0.56638416443787
-0.566944886674431 -0.5090148809748514
-0.566944886674431 -0.56638416443787
-0.566944886674431 -0.5472610699501971
-0.5777710948302381 -0.5472610699501971
-0.5561186785186238 -0.5855072589255428
-0.5561186785186238 -0.5472610699501971
-0.5019876377395881 -0.5090148809748514
-0.5128138458953952 -0.4707686919995056
-0.4695090132721667 -0.33690703058579546
-0.45868280511635956 -0.3751532195611412
-0.45868280511635956 -0.413399408536487
-0.48033522142797386 -0.43252250302415984
-0.5128138458953952 -0.4707686919995056
-0.491161429583781 -0.5090148809748514
-0.5019876377395881 -0.48989178648717846
-0.491161429583781 -0.48989178648717846
-0.48033522142797386 -0.45164559751183275
-0.48033522142797386 -0.413399408536487
-0.48033522142797386 -0.39427631404881414
-0.4478565969605524 -0.3177839360981226
-0.41537797249313096 -0.29866084161044976
-0.3828993480257095 -0.3751532195611412
-0.4262041806489381 -0.33690703058579546
-0.39372555618151667 -0.29866084161044976
-0.4262041806489381 -0.3560301250734684
-0.43703038880474526 -0.3560301250734684
-0.43703038880474526 -0.39427631404881414
-0.45868280511635956 -0.3751532195611412
-0.491161429583781 -0.33690703058579546
-0.4695090132721667 -0.3177839360981226
-0.4262041806489381 -0.29866084161044976
-0.4262041806489381 -0.29866084161044976
-0.41537797249313096 -0.24129155814743114
-0.4045517643373238 -0.260414652635104
-0.4262041806489381 -0.24129155814743114
-0.4045517643373238 -0.24129155814743114
-0.39372555618151667 -0.27953774712277685
-0.3828993480257095 -0.27953774712277685
-0.4045517643373238 -0.33690703058579546
-0.43703038880474526 -0.3177839360981226
-0.43703038880474526 -0.3177839360981226
-0.45868280511635956 -0.29866084161044976
-0.4262041806489381 -0.24129155814743114
-0.39372555618151667 -0.20304536917208538
-0.3612469317140952 -0.14567608570906676
-0.3395945154024809 -0.16479918019673964
-0.3287683072466738 -0.20304536917208538
-0.35042072355828807 -0.22216846365975826
-0.37207313986990237 -0.29866084161044976
-0.39372555618151667 -0.33690703058579546
-0.39372555618151667 -0.3177839360981226
-0.41537797249313096 -0.29866084161044976
-0.41537797249313096 -0.29866084161044976
-0.4262041806489381 -0.20304536917208538
-0.41537797249313096 -0.16479918019673964
-0.3612469317140952 -0.16479918019673964
-0.37207313986990237 -0.16479918019673964
-0.3179420990908666 -0.16479918019673964
-0.3287683072466738 -0.24129155814743114
-0.3395945154024809 -0.29866084161044976
-0.3828993480257095 -0.33690703058579546
-0.4045517643373238 -0.3560301250734684
-0.3828993480257095 -0.29866084161044976
-0.37207313986990237 -0.27953774712277685
-0.37207313986990237 -0.22216846365975826
-0.3612469317140952 -0.22216846365975826
-0.3395945154024809 -0.20304536917208538
-0.3287683072466738 -0.14567608570906676
-0.3287683072466738 -0.1265529912213939
-0.3179420990908666 -0.1265529912213939
-0.3287683072466738 -0.10742989673372103
-0.3071158909350595 -0.14567608570906676
-0.3395945154024809 -0.16479918019673964
-0.3179420990908666 -0.22216846365975826
-0.3179420990908666 -0.260414652635104
-0.3287683072466738 -0.22216846365975826
-0.3395945154024809 -0.260414652635104
-0.3179420990908666 -0.18392227468441252
-0.29628968277925233 -0.14567608570906676
-0.3395945154024809 -0.14567608570906676
-0.3287683072466738 -0.05006061327070241
-0.3179420990908666 -0.05006061327070241
-0.3179420990908666 -0.08830680224604816
-0.3179420990908666 -0.1265529912213939
-0.3179420990908666 -0.16479918019673964
-0.35042072355828807 -0.16479918019673964
-0.35042072355828807 -0.18392227468441252
-0.3287683072466738 -0.20304536917208538
-0.3395945154024809 -0.1265529912213939
-0.29628968277925233 -0.05006061327070241
-0.2854634746234452 -0.05006061327070241
-0.2638110583118309 -0.030937518783029534
-0.23133243384440944 0.0073086701923162104
-0.24215864200021658 -0.011814424295356661
-0.24215864200021658 -0.08830680224604816
-0.2638110583118309 -0.16479918019673964
-0.3071158909350595 -0.18392227468441252
-0.3395945154024809 -0.24129155814743114
-0.35042072355828807 -0.260414652635104
-0.3612469317140952 -0.18392227468441252
-0.35042072355828807 -0.10742989673372103
-0.3287683072466738 -0.030937518783029534
-0.3179420990908666 -0.011814424295356661
-0.2854634746234452 0.026431764679989082
-0.2854634746234452 -0.011814424295356661
-0.25298485015602373 -0.011814424295356661
-0.2638110583118309 -0.08830680224604816
-0.2638110583118309 -0.1265529912213939
-0.29628968277925233 -0.1265529912213939
-0.29628968277925233 -0.14567608570906676
-0.3395945154024809 -0.16479918019673964
-0.3179420990908666 -0.16479918019673964
-0.3179420990908666 -0.14567608570906676
-0.2854634746234452 -0.10742989673372103
-0.27463726646763803 -0.16479918019673964
-0.27463726646763803 -0.10742989673372103
-0.27463726646763803 -0.1265529912213939
-0.23133243384440944 -0.14567608570906676
-0.25298485015602373 -0.14567608570906676
-0.2638110583118309 -0.10742989673372103
-0.27463726646763803 -0.16479918019673964
-0.27463726646763803 -0.14567608570906676
-0.29628968277925233 -0.1265529912213939
-0.2638110583118309 -0.20304536917208538
-0.2638110583118309 -0.20304536917208538
-0.25298485015602373 -0.20304536917208538
-0.2205062256886023 -0.18392227468441252
-0.18802760122118087 -0.14567608570906676
-0.15554897675375942 -0.08830680224604816
-0.16637518490956657 -0.05006061327070241
-0.17720139306537372 -0.030937518783029534
-0.20968001753279517 -0.05006061327070241
-0.18802760122118087 -0.030937518783029534
-0.19885380937698802 -0.030937518783029534
-0.17720139306537372 -0.030937518783029534
-0.18802760122118087 -0.05006061327070241
-0.13389656044214512 -0.030937518783029534
-0.11224414413053083 -0.011814424295356661
-0.09059172781891653 -0.030937518783029534
-0.06893931150730223 0.0073086701923162104
-0.04728689519568794 -0.030937518783029534
-0.025634478884073643 -0.030937518783029534
-0.03646068703988079 -0.05006061327070241
-0.03646068703988079 -0.08830680224604816
-0.05811310335149509 -0.06918370775837528
-0.09059172781891653 -0.08830680224604816
-0.11224414413053083 -0.10742989673372103
-0.12307035228633798 -0.1265529912213939
-0.14472276859795227 -0.10742989673372103
-0.15554897675375942 -0.05006061327070241
-0.14472276859795227 0.0073086701923162104
-0.14472276859795227 -0.011814424295356661
-0.12307035228633798 0.04555485916766196
-0.11224414413053083 0.10292414263068057
-0.09059172781891653 0.16029342609369918
-0.04728689519568794 0.2176627095567178
-0.014808270728266496 0.23678580404439067
-0.025634478884073643 0.19853961506904494
-0.04728689519568794 0.10292414263068057
-0.05811310335149509 0.10292414263068057
-0.11224414413053083 0.06467795365533482
-0.13389656044214512 0.0838010481430077
-0.14472276859795227 -0.011814424295356661
-0.16637518490956657 0.026431764679989082
-0.16637518490956657 0.026431764679989082
-0.19885380937698802 0.026431764679989082
-0.23133243384440944 0.0073086701923162104
-0.23133243384440944 -0.08830680224604816
-0.3071158909350595 -0.14567608570906676
-0.3287683072466738 -0.10742989673372103
-0.3612469317140952 -0.14567608570906676
-0.35042072355828807 -0.14567608570906676
-0.3179420990908666 -0.16479918019673964
-0.29628968277925233 -0.1265529912213939
-0.27463726646763803 -0.1265529912213939
-0.2638110583118309 -0.030937518783029534
-0.27463726646763803 -0.05006061327070241
-0.2638110583118309 -0.14567608570906676
-0.29628968277925233 -0.260414652635104
-0.29628968277925233 -0.3560301250734684
-0.2854634746234452 -0.29866084161044976
-0.20968001753279517 -0.08830680224604816
-0.06893931150730223 0.3706474654581008
0.10428001898561212 0.9060941111129412
0.28832555763433365 1.4606638512554546
0.4723710962830551 1.862248835496585
0.6239380104643552 2.0534797803733134
0.688895259399198 1.9196181189596035
0.6780690512433909 1.403294567792436
0.5481545533737052 0.38977055994577364
0.33163039025756225 -0.7384920148269258
0.18006347607626216 -1.7520160226735881
0.12593243529722642 -2.3065857628161015
0.2774993494785265 -2.23009338486541
0.5914593859969338 -1.6946467392105695
1.0569863366966412 -0.9297229597036545
1.5549919118637698 0.10292414263068057
2.0529974870308987 1.0017095835513055
2.5401768540422203 1.7283871740828747
3.0057038047419278 2.302080008713061
3.4820569635974423 2.703664992954191
3.980062538764571 2.9905114102692845
4.369806032373628 3.1052499771953217
4.662113652580421 3.1434961661706673
4.770375734138493 2.9905114102692845
4.759549525982686 2.780157370904883
4.629635028112999 2.397695481151425
4.391458448685243 1.9769874024226222
4.088324620322642 1.537156229206146
3.687754918557778 1.1738174339403615
3.189749343390649 0.9060941111129412
2.6376127274444845 0.5236322213594837
2.0746499033425128 0.31327818199508217
1.5116870792405412 0.16029342609369918
1.0136815040734126 -0.011814424295356661
0.5048497207504766 -0.1265529912213939
0.07180139451819069 -0.3177839360981226
-0.2854634746234452 -0.45164559751183275
-0.5885973029860453 -0.6046303534132157
-0.8159476742579954 -0.7576151093145986
-0.9025573395044526 -0.7958612982899445
-0.9783407965951026 -0.7193689203392529
-0.9891670047509098 -0.6811227313639072
-0.9133835476602598 -0.48989178648717846
-0.8700787150370312 -0.3751532195611412
-0.8051214661021883 -0.24129155814743114
-0.7618166334789597 -0.18392227468441252
-0.7293380090115382 -0.10742989673372103
-0.6968593845441168 -0.011814424295356661
-0.6860331763883096 0.0073086701923162104
-0.6752069682325025 0.10292414263068057
-0.642728343765081 0.17941652058137206
-0.6319021356092739 0.16029342609369918
-0.6102497192976596 0.19853961506904494
-0.6210759274534667 0.25590889853206356
-0.6102497192976596 0.2750319930197364
-0.5777710948302381 0.2941550875074093
-0.5561186785186238 0.2750319930197364
-0.5561186785186238 0.2750319930197364
-0.566944886674431 0.23678580404439067
-0.5885973029860453 0.23678580404439067
-0.642728343765081 0.17941652058137206
-0.6535545519208882 0.19853961506904494
-0.6860331763883096 0.17941652058137206
-0.6643807600766953 0.2176627095567178
-0.6535545519208882 0.2750319930197364
-0.642728343765081 0.2750319930197364
-0.6319021356092739 0.31327818199508217
-0.6210759274534667 0.31327818199508217
-0.5777710948302381 0.31327818199508217
-0.5777710948302381 0.2941550875074093
-0.566944886674431 0.2750319930197364
-0.5885973029860453 0.25590889853206356
-0.6102497192976596 0.2176627095567178
-0.642728343765081 0.2176627095567178
-0.6643807600766953 0.19853961506904494
-0.6860331763883096 0.19853961506904494
-0.6968593845441168 0.17941652058137206
-0.6968593845441168 0.2941550875074093
-0.642728343765081 0.23678580404439067
-0.6210759274534667 0.2750319930197364
-0.5885973029860453 0.2750319930197364
-0.5994235111418524 0.23678580404439067
-0.5994235111418524 0.16029342609369918
-0.642728343765081 0.16029342609369918
-0.642728343765081 0.14117033160602632
-0.6752069682325025 0.16029342609369918
-0.6752069682325025 0.12204723711835344
-0.6643807600766953 0.12204723711835344
-0.6860331763883096 0.10292414263068057
-0.6752069682325025 0.16029342609369918
-0.6643807600766953 0.10292414263068057
-0.6535545519208882 0.10292414263068057
-0.642728343765081 0.0838010481430077
-0.6535545519208882 0.0838010481430077
-0.6643807600766953 0.0838010481430077
-0.6643807600766953 0.06467795365533482
-0.6643807600766953 -0.030937518783029534
-0.6968593845441168 -0.030937518783029534
-0.7293380090115382 -0.06918370775837528
-0.7293380090115382 -0.1265529912213939
-0.7509904253231525 -0.16479918019673964
-0.7401642171673454 -0.14567608570906676
-0.7185118008557311 -0.14567608570906676
-0.7185118008557311 -0.14567608570906676
-0.6643807600766953 -0.16479918019673964
-0.6860331763883096 -0.260414652635104
-0.7076855926999239 -0.29866084161044976
-0.6968593845441168 -0.3560301250734684
-0.7293380090115382 -0.43252250302415984
-0.7618166334789597 -0.4707686919995056
-0.7076855926999239 -0.5090148809748514
-0.7076855926999239 -0.48989178648717846
-0.7618166334789597 -0.5472610699501971
-0.7726428416347668 -0.5281379754625242
-0.7942952579463811 -0.48989178648717846
-0.7401642171673454 -0.5090148809748514
-0.7076855926999239 -0.56638416443787
-0.7401642171673454 -0.6046303534132157
-0.7401642171673454 -0.6428765423885614
-0.7293380090115382 -0.7576151093145986
-0.7401642171673454 -0.7576151093145986
-0.7185118008557311 -0.7958612982899445
-0.6968593845441168 -0.8149843927776173
-0.6860331763883096 -0.8149843927776173
-0.6643807600766953 -0.7767382038022715
-0.642728343765081 -0.7576151093145986
-0.6210759274534667 -0.7576151093145986
-0.5777710948302381 -0.7384920148269258
-0.5344662622070095 -0.7767382038022715
-0.491161429583781 -0.8149843927776173
-0.4695090132721667 -0.8149843927776173
-0.45868280511635956 -0.8532305817529631
-0.43703038880474526 -0.8149843927776173
-0.4045517643373238 -0.8149843927776173
-0.4045517643373238 -0.7767382038022715
-0.35042072355828807 -0.7193689203392529
-0.3179420990908666 -0.7193689203392529
-0.3287683072466738 -0.6237534479008886
-0.27463726646763803 -0.6046303534132157
-0.20968001753279517 -0.6046303534132157
-0.14472276859795227 -0.5472610699501971
-0.10141793597472368 -0.5855072589255428
-0.07976551966310938 -0.5855072589255428
-0.03646068703988079 -0.5472610699501971
0.006844145583347798 -0.5281379754625242
-0.003982062572459349 -0.5472610699501971
0.006844145583347798 -0.5281379754625242
0.028496561894962094 -0.5281379754625242
0.060975186362383534 -0.4707686919995056
0.11510622714141927 -0.39427631404881414
0.13675864345303357 -0.413399408536487
0.15841105976464787 -0.33690703058579546
0.16923726792045501 -0.3751532195611412
0.15841105976464787 -0.33690703058579546
0.12593243529722642 -0.3177839360981226
0.11510622714141927 -0.33690703058579546
0.08262760267399782 -0.3560301250734684
0.05014897820657639 -0.3560301250734684
0.05014897820657639 -0.3177839360981226
0.03932277005076924 -0.3177839360981226
0.028496561894962094 -0.29866084161044976
0.028496561894962094 -0.260414652635104
0.017670353739154945 -0.260414652635104
-0.025634478884073643 -0.18392227468441252
-0.07976551966310938 -0.22216846365975826
-0.09059172781891653 -0.22216846365975826
-0.12307035228633798 -0.260414652635104
-0.15554897675375942 -0.24129155814743114
-0.15554897675375942 -0.29866084161044976
-0.17720139306537372 -0.39427631404881414
-0.18802760122118087 -0.3560301250734684
-0.2205062256886023 -0.3177839360981226
-0.23133243384440944 -0.29866084161044976
-0.2854634746234452 -0.22216846365975826
-0.3287683072466738 -0.22216846365975826
-0.3287683072466738 -0.260414652635104
-0.3071158909350595 -0.260414652635104
-0.3071158909350595 -0.29866084161044976
-0.2854634746234452 -0.3751532195611412
-0.3071158909350595 -0.3751532195611412
-0.3287683072466738 -0.3560301250734684
-0.37207313986990237 -0.413399408536487
-0.3612469317140952 -0.3751532195611412
-0.3395945154024809 -0.33690703058579546
-0.35042072355828807 -0.33690703058579546
-0.3395945154024809 -0.27953774712277685
-0.3179420990908666 -0.260414652635104
-0.3179420990908666 -0.22216846365975826
-0.29628968277925233 -0.24129155814743114
-0.3287683072466738 -0.260414652635104
-0.3287683072466738 -0.29866084161044976
-0.35042072355828807 -0.3177839360981226
-0.3828993480257095 -0.29866084161044976
-0.3612469317140952 -0.3751532195611412
-0.35042072355828807 -0.3560301250734684
-0.35042072355828807 -0.33690703058579546
-0.3612469317140952 -0.33690703058579546
-0.3287683072466738 -0.260414652635104
-0.3071158909350595 -0.20304536917208538
-0.3071158909350595 -0.22216846365975826
-0.2638110583118309 -0.18392227468441252
-0.27463726646763803 -0.24129155814743114
-0.25298485015602373 -0.24129155814743114
-0.2854634746234452 -0.24129155814743114
-0.2854634746234452 -0.24129155814743114
-0.27463726646763803 -0.260414652635104
-0.25298485015602373 -0.20304536917208538
-0.2854634746234452 -0.260414652635104
-0.2638110583118309 -0.24129155814743114
-0.2638110583118309 -0.24129155814743114
-0.24215864200021658 -0.20304536917208538
-0.19885380937698802 -0.14567608570906676
-0.18802760122118087 -0.1265529912213939
-0.18802760122118087 -0.16479918019673964
-0.20968001753279517 -0.20304536917208538
-0.19885380937698802 -0.260414652635104
-0.2205062256886023 -0.27953774712277685
-0.19885380937698802 -0.29866084161044976
-0.19885380937698802 -0.27953774712277685
-0.2205062256886023 -0.260414652635104
-0.2205062256886023 -0.22216846365975826
-0.23133243384440944 -0.20304536917208538
-0.19885380937698802 -0.16479918019673964
-0.16637518490956657 -0.10742989673372103
-0.15554897675375942 -0.1265529912213939
-0.12307035228633798 -0.1265529912213939
-0.14472276859795227 -0.1265529912213939
-0.15554897675375942 -0.16479918019673964
-0.16637518490956657 -0.22216846365975826
-0.18802760122118087 -0.24129155814743114
-0.2205062256886023 -0.24129155814743114
-0.20968001753279517 -0.260414652635104
-0.17720139306537372 -0.20304536917208538
-0.16637518490956657 -0.1265529912213939
-0.15554897675375942 -0.10742989673372103
-0.14472276859795227 -0.08830680224604816
-0.15554897675375942 -0.08830680224604816
-0.16637518490956657 -0.1265529912213939
-0.16637518490956657 -0.14567608570906676
-0.18802760122118087 -0.20304536917208538
-0.19885380937698802 -0.24129155814743114
-0.19885380937698802 -0.260414652635104
-0.19885380937698802 -0.27953774712277685
-0.18802760122118087 -0.260414652635104
-0.19885380937698802 -0.22216846365975826
-0.18802760122118087 -0.24129155814743114
-0.16637518490956657 -0.14567608570906676
-0.17720139306537372 -0.14567608570906676
-0.13389656044214512 -0.14567608570906676
-0.11224414413053083 -0.10742989673372103
-0.12307035228633798 -0.18392227468441252
-0.14472276859795227 -0.18392227468441252
-0.14472276859795227 -0.20304536917208538
-0.14472276859795227 -0.20304536917208538
-0.15554897675375942 -0.22216846365975826
-0.17720139306537372 -0.260414652635104
-0.18802760122118087 -0.24129155814743114
-0.20968001753279517 -0.20304536917208538
-0.19885380937698802 -0.18392227468441252
-0.15554897675375942 -0.14567608570906676
-0.12307035228633798 -0.16479918019673964
-0.11224414413053083 -0.1265529912213939
-0.07976551966310938 -0.14567608570906676
-0.11224414413053083 -0.22216846365975826
-0.14472276859795227 -0.20304536917208538
-0.15554897675375942 -0.29866084161044976
-0.16637518490956657 -0.3177839360981226
-0.17720139306537372 -0.27953774712277685
-0.16637518490956657 -0.260414652635104
-0.19885380937698802 -0.22216846365975826
-0.15554897675375942 -0.16479918019673964
-0.13389656044214512 -0.10742989673372103
-0.12307035228633798 -0.14567608570906676
-0.11224414413053083 -0.18392227468441252
-0.13389656044214512 -0.20304536917208538
-0.13389656044214512 -0.24129155814743114
-0.15554897675375942 -0.27953774712277685
-0.13389656044214512 -0.260414652635104
-0.17720139306537372 -0.260414652635104
-0.17720139306537372 -0.27953774712277685
-0.17720139306537372 -0.24129155814743114
-0.16637518490956657 -0.14567608570906676
-0.13389656044214512 -0.16479918019673964
-0.13389656044214512 -0.18392227468441252
-0.10141793597472368 -0.18392227468441252
-0.10141793597472368 -0.18392227468441252
-0.11224414413053083 -0.260414652635104
-0.13389656044214512 -0.24129155814743114
-0.14472276859795227 -0.29866084161044976
-0.15554897675375942 -0.3177839360981226
-0.16637518490956657 -0.27953774712277685
-0.16637518490956657 -0.29866084161044976
-0.16637518490956657 -0.27953774712277685
-0.16637518490956657 -0.260414652635104
-0.14472276859795227 -0.20304536917208538
-0.11224414413053083 -0.16479918019673964
-0.11224414413053083 -0.18392227468441252
-0.10141793597472368 -0.20304536917208538
-0.11224414413053083 -0.260414652635104
-0.13389656044214512 -0.3560301250734684
-0.14472276859795227 -0.39427631404881414
-0.15554897675375942 -0.3751532195611412
-0.16637518490956657 -0.3560301250734684
-0.18802760122118087 -0.3560301250734684
-0.15554897675375942 -0.3177839360981226
-0.16637518490956657 -0.33690703058579546
-0.17720139306537372 -0.29866084161044976
-0.17720139306537372 -0.27953774712277685
-0.16637518490956657 -0.29866084161044976
-0.19885380937698802 -0.39427631404881414
-0.18802760122118087 -0.3751532195611412
-0.16637518490956657 -0.39427631404881414
-0.15554897675375942 -0.413399408536487
-0.15554897675375942 -0.39427631404881414
-0.13389656044214512 -0.45164559751183275
-0.15554897675375942 -0.3751532195611412
-0.17720139306537372 -0.39427631404881414
-0.15554897675375942 -0.3177839360981226
-0.14472276859795227 -0.33690703058579546
-0.11224414413053083 -0.29866084161044976
-0.10141793597472368 -0.3177839360981226
-0.13389656044214512 -0.3751532195611412
-0.14472276859795227 -0.3560301250734684
-0.12307035228633798 -0.413399408536487
-0.15554897675375942 -0.413399408536487
-0.12307035228633798 -0.43252250302415984
-0.11224414413053083 -0.45164559751183275
-0.11224414413053083 -0.413399408536487
-0.10141793597472368 -0.3751532195611412
-0.10141793597472368 -0.39427631404881414
-0.07976551966310938 -0.39427631404881414
-0.05811310335149509 -0.3751532195611412
-0.03646068703988079 -0.39427631404881414
-0.07976551966310938 -0.39427631404881414
-0.07976551966310938 -0.413399408536487
-0.04728689519568794 -0.39427631404881414
-0.03646068703988079 -0.413399408536487
-0.04728689519568794 -0.3751532195611412
-0.03646068703988079 -0.3751532195611412
-0.003982062572459349 -0.33690703058579546
0.006844145583347798 -0.3560301250734684
0.017670353739154945 -0.3560301250734684
-0.003982062572459349 -0.3560301250734684
0.017670353739154945 -0.3177839360981226
0.07180139451819069 -0.3560301250734684
0.05014897820657639 -0.3177839360981226
0.05014897820657639 -0.39427631404881414
0.028496561894962094 -0.39427631404881414
0.006844145583347798 -0.43252250302415984
-0.05811310335149509 -0.45164559751183275
-0.05811310335149509 -0.4707686919995056
-0.07976551966310938 -0.39427631404881414
-0.06893931150730223 -0.4707686919995056
-0.06893931150730223 -0.43252250302415984
-0.06893931150730223 -0.3751532195611412
-0.06893931150730223 -0.27953774712277685
-0.014808270728266496 -0.24129155814743114
0.006844145583347798 -0.20304536917208538
0.017670353739154945 -0.18392227468441252
0.05014897820657639 -0.20304536917208538
0.028496561894962094 -0.24129155814743114
0.017670353739154945 -0.22216846365975826
-0.014808270728266496 -0.24129155814743114
-0.04728689519568794 -0.29866084161044976
-0.09059172781891653 -0.3560301250734684
-0.14472276859795227 -0.3751532195611412
-0.16637518490956657 -0.43252250302415984
-0.18802760122118087 -0.43252250302415984
-0.20968001753279517 -0.48989178648717846
-0.23133243384440944 -0.5281379754625242
-0.2205062256886023 -0.5472610699501971
-0.2205062256886023 -0.56638416443787
-0.25298485015602373 -0.6428765423885614
-0.2638110583118309 -0.6811227313639072
-0.2854634746234452 -0.6811227313639072
-0.27463726646763803 -0.6811227313639072
-0.3179420990908666 -0.6619996368762343
-0.2854634746234452 -0.7193689203392529
-0.2854634746234452 -0.7193689203392529
-0.2638110583118309 -0.7576151093145986
-0.23133243384440944 -0.7767382038022715
-0.23133243384440944 -0.7193689203392529
-0.16637518490956657 -0.56638416443787
-0.05811310335149509 -0.24129155814743114
0.07180139451819069 0.23678580404439067
0.24502072501110506 0.638370788285521
0.38576143103659793 0.944340300088287
0.5048497207504766 1.1164481504773427
0.5806331778411267 1.059078867014324
0.613111802308548 0.6001245993101753
0.5156759289062838 -0.16479918019673964
0.38576143103659793 -1.1209539045803834
0.2774993494785265 -2.038862439988681
0.2125421005436836 -2.650801463594213
0.2558469331669122 -2.669924558081886
0.5481545533737052 -2.210970290377737
0.9378980469827625 -1.4078003218954764
1.3817725813708555 -0.5090148809748514
1.847299532070563 0.40889365443344655
2.2695216501470417 1.1738174339403615
2.735048600846749 1.843125741008912
3.2222279678580708 2.4168185756390983
3.7094073348693923 2.8757728433432472
4.2290653263481355 3.2391116386090317
4.629635028112999 3.3920963945104146
4.921942648319793 3.3729733000227418
5.051857146189478 3.0670037882199757
5.041030938033671 2.6462957094911728
4.878637815696564 2.1682183472993506
4.629635028112999 1.6327717016445105
4.272370158971364 1.250309811891053
3.7851907919600425 0.791355544186904
3.2114017597022633 0.3706474654581008
2.6051341029770634 0.06467795365533482
1.9555616136286345 -0.10742989673372103
1.4034249976824698 -0.260414652635104
0.8404621735804981 -0.413399408536487
0.30997797394594795 -0.6428765423885614
-0.14472276859795227 -0.8723536762406359
-0.5236400540512024 -1.1018308100927103
-0.7509904253231525 -1.2739386604817662
-0.8917311313486455 -1.4269234163831492
-1.010819421062524 -1.5034157943338406
-1.010819421062524 -1.4078003218954764
-0.9891670047509098 -1.2548155659940934
-0.9891670047509098 -1.1018308100927103
-0.9133835476602598 -0.9679691486790003
-0.8917311313486455 -0.8341074872652902
-0.783469049790574 -0.7576151093145986
-0.7401642171673454 -0.6811227313639072
-0.6968593845441168 -0.6428765423885614
-0.6643807600766953 -0.56638416443787
-0.6210759274534667 -0.5090148809748514
-0.6102497192976596 -0.5090148809748514
-0.6319021356092739 -0.4707686919995056
-0.6643807600766953 -0.48989178648717846
-0.6643807600766953 -0.413399408536487
-0.642728343765081 -0.39427631404881414
-0.6319021356092739 -0.3751532195611412
-0.6210759274534667 -0.3560301250734684
-0.6210759274534667 -0.3560301250734684
-0.6210759274534667 -0.3560301250734684
-0.6319021356092739 -0.3751532195611412
-0.6319021356092739 -0.33690703058579546
-0.6643807600766953 -0.39427631404881414
-0.6968593845441168 -0.3751532195611412
-0.7076855926999239 -0.43252250302415984
-0.6968593845441168 -0.45164559751183275
-0.6968593845441168 -0.43252250302415984
-0.6752069682325025 -0.3560301250734684
-0.6535545519208882 -0.33690703058579546
-0.6643807600766953 -0.3560301250734684
-0.6643807600766953 -0.27953774712277685
-0.6860331763883096 -0.33690703058579546
-0.7076855926999239 -0.3177839360981226
-0.7076855926999239 -0.3560301250734684
-0.7185118008557311 -0.413399408536487
-0.7185118008557311 -0.45164559751183275
-0.7293380090115382 -0.45164559751183275
-0.7401642171673454 -0.43252250302415984
-0.7401642171673454 -0.4707686919995056
-0.7293380090115382 -0.39427631404881414
-0.7509904253231525 -0.3177839360981226
-0.7509904253231525 -0.3751532195611412
-0.6860331763883096 -0.3751532195611412
-0.6860331763883096 -0.413399408536487
-0.6752069682325025 -0.5090148809748514
-0.6860331763883096 -0.5090148809748514
-0.7076855926999239 -0.5472610699501971
-0.7076855926999239 -0.56638416443787
-0.7293380090115382 -0.5855072589255428
-0.7509904253231525 -0.56638416443787
-0.7401642171673454 -0.5855072589255428
-0.7618166334789597 -0.5472610699501971
-0.7509904253231525 -0.5472610699501971
-0.7293380090115382 -0.5472610699501971
-0.7293380090115382 -0.56638416443787
-0.7293380090115382 -0.6237534479008886
-0.7618166334789597 -0.6619996368762343
-0.8159476742579954 -0.7384920148269258
-0.8159476742579954 -0.7384920148269258
-0.8267738824138026 -0.7958612982899445
-0.859252506881224 -0.8532305817529631
-0.859252506881224 -0.8532305817529631
-0.8267738824138026 -0.8914767707283088
-0.8159476742579954 -0.8914767707283088
-0.8159476742579954 -0.8723536762406359
-0.8159476742579954 -0.8914767707283088
-0.8159476742579954 -0.8723536762406359
-0.8267738824138026 -0.9105998652159817
-0.8267738824138026 -1.0062153376543461
-0.859252506881224 -1.0444615266296917
-0.8376000905696097 -1.1018308100927103
-0.859252506881224 -1.1400769990680562
-0.859252506881224 -1.1209539045803834
-0.8484262987254169 -1.159200093555729
-0.859252506881224 -1.1974462825310748
-0.8484262987254169 -1.1400769990680562
-0.8267738824138026 -1.1209539045803834
-0.783469049790574 -1.1400769990680562
-0.7726428416347668 -1.159200093555729
-0.7726428416347668 -1.178323188043402
-0.7618166334789597 -1.2165693770187476
-0.783469049790574 -1.2930617549694392
-0.7293380090115382 -1.2739386604817662
-0.7293380090115382 -1.2739386604817662
-0.7185118008557311 -1.2548155659940934
-0.6860331763883096 -1.2548155659940934
-0.6535545519208882 -1.1974462825310748
-0.642728343765081 -1.2165693770187476
-0.5994235111418524 -1.1974462825310748
-0.5561186785186238 -1.1400769990680562
-0.5344662622070095 -1.0827077156050375
-0.48033522142797386 -1.0635846211173647
-0.4695090132721667 -1.0827077156050375
-0.4478565969605524 -1.1018308100927103
-0.41537797249313096 -1.1018308100927103
-0.41537797249313096 -1.1209539045803834
-0.3828993480257095 -1.0827077156050375
-0.35042072355828807 -1.0827077156050375
-0.3287683072466738 -1.0635846211173647
-0.25298485015602373 -0.9679691486790003
-0.2205062256886023 -0.8914767707283088
-0.16637518490956657 -0.9105998652159817
-0.13389656044214512 -0.7958612982899445
-0.10141793597472368 -0.8149843927776173
-0.07976551966310938 -0.8914767707283088
-0.09059172781891653 -0.8723536762406359
-0.11224414413053083 -0.9105998652159817
-0.13389656044214512 -0.9297229597036545
-0.13389656044214512 -0.9679691486790003
-0.11224414413053083 -0.9297229597036545
-0.10141793597472368 -0.9105998652159817
-0.06893931150730223 -0.8914767707283088
-0.05811310335149509 -0.8532305817529631
-0.04728689519568794 -0.8149843927776173
-0.03646068703988079 -0.7958612982899445
-0.03646068703988079 -0.7384920148269258
-0.04728689519568794 -0.7767382038022715
-0.06893931150730223 -0.7958612982899445
-0.11224414413053083 -0.8914767707283088
-0.10141793597472368 -0.9105998652159817
-0.12307035228633798 -0.9105998652159817
-0.16637518490956657 -0.9488460541913274
-0.19885380937698802 -0.8723536762406359
-0.23133243384440944 -0.8341074872652902
-0.2205062256886023 -0.8532305817529631
-0.23133243384440944 -0.8149843927776173
-0.23133243384440944 -0.7958612982899445
-0.2638110583118309 -0.8149843927776173
-0.29628968277925233 -0.8532305817529631
-0.3395945154024809 -0.9488460541913274
-0.35042072355828807 -0.9488460541913274
-0.3612469317140952 -1.025338432142019
-0.41537797249313096 -1.0444615266296917
-0.41537797249313096 -1.025338432142019
-0.4478565969605524 -1.0635846211173647
-0.4478565969605524 -0.9870922431666731
-0.4695090132721667 -0.9679691486790003
-0.491161429583781 -0.9488460541913274
-0.491161429583781 -0.9488460541913274
-0.48033522142797386 -0.9488460541913274
-0.491161429583781 -1.025338432142019
-0.5128138458953952 -1.0062153376543461
-0.5128138458953952 -1.0062153376543461
-0.5236400540512024 -1.0635846211173647
-0.5344662622070095 -1.0635846211173647
-0.5452924703628167 -1.0444615266296917
-0.5561186785186238 -1.025338432142019
-0.5561186785186238 -0.9870922431666731
-0.5561186785186238 -0.9488460541913274
-0.5236400540512024 -0.8914767707283088
-0.5128138458953952 -0.8914767707283088
-0.5236400540512024 -0.8914767707283088
-0.5344662622070095 -0.9297229597036545
-0.5236400540512024 -0.9297229597036545
-0.5344662622070095 -0.9488460541913274
-0.5236400540512024 -1.0062153376543461
-0.5344662622070095 -0.9297229597036545
-0.5561186785186238 -0.9488460541913274
-0.5236400540512024 -0.9297229597036545
-0.491161429583781 -0.8723536762406359
-0.48033522142797386 -0.8341074872652902
-0.4478565969605524 -0.7767382038022715
-0.41537797249313096 -0.7576151093145986
-0.41537797249313096 -0.7958612982899445
-0.3828993480257095 -0.7576151093145986
-0.3828993480257095 -0.7576151093145986
-0.39372555618151667 -0.7767382038022715
-0.4695090132721667 -0.7767382038022715
-0.4695090132721667 -0.7384920148269258
-0.4478565969605524 -0.7767382038022715
-0.4262041806489381 -0.7193689203392529
-0.43703038880474526 -0.70024582585158
-0.3828993480257095 -0.6811227313639072
-0.39372555618151667 -0.6619996368762343
-0.3828993480257095 -0.6619996368762343
-0.37207313986990237 -0.6619996368762343
-0.39372555618151667 -0.7193689203392529
-0.39372555618151667 -0.70024582585158
-0.41537797249313096 -0.6811227313639072
-0.4045517643373238 -0.7193689203392529
-0.39372555618151667 -0.70024582585158
-0.39372555618151667 -0.70024582585158
-0.37207313986990237 -0.7193689203392529
-0.3395945154024809 -0.6237534479008886
-0.3287683072466738 -0.6237534479008886
-0.29628968277925233 -0.5855072589255428
-0.2638110583118309 -0.5472610699501971
-0.29628968277925233 -0.5472610699501971
-0.3179420990908666 -0.5281379754625242
-0.3287683072466738 -0.56638416443787
-0.3395945154024809 -0.5472610699501971
-0.3395945154024809 -0.5855072589255428
-0.35042072355828807 -0.5855072589255428
-0.3612469317140952 -0.5855072589255428
-0.3612469317140952 -0.56638416443787
-0.3179420990908666 -0.5472610699501971
-0.3071158909350595 -0.48989178648717846
-0.3287683072466738 -0.45164559751183275
-0.29628968277925233 -0.45164559751183275
-0.29628968277925233 -0.45164559751183275
-0.27463726646763803 -0.48989178648717846
-0.2638110583118309 -0.4707686919995056
-0.27463726646763803 -0.5281379754625242
-0.29628968277925233 -0.5472610699501971
-0.29628968277925233 -0.6046303534132157
-0.3071158909350595 -0.56638416443787
-0.3071158909350595 -0.5090148809748514
-0.29628968277925233 -0.4707686919995056
-0.2854634746234452 -0.43252250302415984
-0.2854634746234452 -0.39427631404881414
-0.25298485015602373 -0.39427631404881414
-0.23133243384440944 -0.43252250302415984
-0.25298485015602373 -0.413399408536487
-0.25298485015602373 -0.48989178648717846
-0.25298485015602373 -0.48989178648717846
-0.23133243384440944 -0.5090148809748514
-0.27463726646763803 -0.5281379754625242
-0.27463726646763803 -0.5281379754625242
-0.2854634746234452 -0.56638416443787
-0.27463726646763803 -0.5090148809748514
-0.24215864200021658 -0.5090148809748514
-0.20968001753279517 -0.39427631404881414
-0.19885380937698802 -0.39427631404881414
-0.20968001753279517 -0.39427631404881414
-0.18802760122118087 -0.4707686919995056
-0.20968001753279517 -0.5472610699501971
-0.20968001753279517 -0.56638416443787
-0.2205062256886023 -0.6046303534132157
-0.2205062256886023 -0.5855072589255428
-0.23133243384440944 -0.5855072589255428
-0.20968001753279517 -0.5281379754625242
-0.20968001753279517 -0.5281379754625242
-0.19885380937698802 -0.48989178648717846
-0.17720139306537372 -0.4707686919995056
-0.16637518490956657 -0.45164559751183275
-0.17720139306537372 -0.48989178648717846
-0.2205062256886023 -0.45164559751183275
-0.2205062256886023 -0.48989178648717846
-0.24215864200021658 -0.5281379754625242
-0.2638110583118309 -0.5281379754625242
-0.27463726646763803 -0.5472610699501971
-0.2638110583118309 -0.5281379754625242
-0.27463726646763803 -0.48989178648717846
-0.24215864200021658 -0.4707686919995056
-0.23133243384440944 -0.43252250302415984
-0.16637518490956657 -0.413399408536487
-0.14472276859795227 -0.413399408536487
-0.16637518490956657 -0.4707686919995056
-0.16637518490956657 -0.45164559751183275
-0.18802760122118087 -0.5281379754625242
-0.17720139306537372 -0.56638416443787
-0.20968001753279517 -0.5472610699501971
-0.23133243384440944 -0.5855072589255428
-0.23133243384440944 -0.5855072589255428
-0.23133243384440944 -0.5090148809748514
-0.23133243384440944 -0.4707686919995056
-0.16637518490956657 -0.3751532195611412
-0.15554897675375942 -0.39427631404881414
-0.14472276859795227 -0.413399408536487
-0.14472276859795227 -0.45164559751183275
-0.15554897675375942 -0.48989178648717846
-0.15554897675375942 -0.45164559751183275
-0.17720139306537372 -0.43252250302415984
-0.16637518490956657 -0.45164559751183275
-0.18802760122118087 -0.45164559751183275
-0.19885380937698802 -0.45164559751183275
-0.17720139306537372 -0.43252250302415984
-0.18802760122118087 -0.3751532195611412
-0.15554897675375942 -0.39427631404881414
-0.13389656044214512 -0.29866084161044976
-0.11224414413053083 -0.27953774712277685
-0.11224414413053083 -0.3177839360981226
-0.12307035228633798 -0.3751532195611412
-0.13389656044214512 -0.413399408536487
-0.14472276859795227 -0.39427631404881414
-0.15554897675375942 -0.4707686919995056
-0.13389656044214512 -0.45164559751183275
-0.11224414413053083 -0.4707686919995056
-0.10141793597472368 -0.48989178648717846
-0.07976551966310938 -0.43252250302415984
-0.09059172781891653 -0.39427631404881414
-0.11224414413053083 -0.33690703058579546
-0.06893931150730223 -0.3177839360981226
-0.06893931150730223 -0.3751532195611412
-0.09059172781891653 -0.413399408536487
-0.12307035228633798 -0.413399408536487
-0.13389656044214512 -0.43252250302415984
-0.12307035228633798 -0.43252250302415984
-0.14472276859795227 -0.413399408536487
-0.12307035228633798 -0.3560301250734684
-0.09059172781891653 -0.33690703058579546
-0.07976551966310938 -0.33690703058579546
-0.025634478884073643 -0.260414652635104
-0.014808270728266496 -0.24129155814743114
0.03932277005076924 -0.22216846365975826
0.05014897820657639 -0.24129155814743114
0.03932277005076924 -0.260414652635104
0.060975186362383534 -0.33690703058579546
0.05014897820657639 -0.33690703058579546
0.028496561894962094 -0.33690703058579546
0.017670353739154945 -0.3560301250734684
0.006844145583347798 -0.33690703058579546
-0.025634478884073643 -0.33690703058579546
-0.05811310335149509 -0.29866084161044976
-0.03646068703988079 -0.24129155814743114
-0.003982062572459349 -0.20304536917208538
0.006844145583347798 -0.22216846365975826
0.006844145583347798 -0.22216846365975826
0.028496561894962094 -0.20304536917208538
0.060975186362383534 -0.16479918019673964
0.03932277005076924 -0.20304536917208538
0.03932277005076924 -0.18392227468441252
0.028496561894962094 -0.18392227468441252
0.03932277005076924 -0.20304536917208538
-0.014808270728266496 -0.18392227468441252
-0.003982062572459349 -0.24129155814743114
-0.003982062572459349 -0.22216846365975826
-0.03646068703988079 -0.22216846365975826
-0.06893931150730223 -0.22216846365975826
-0.11224414413053083 -0.260414652635104
-0.16637518490956657 -0.260414652635104
-0.16637518490956657 -0.33690703058579546
-0.19885380937698802 -0.39427631404881414
-0.19885380937698802 -0.3751532195611412
-0.15554897675375942 -0.3560301250734684
-0.13389656044214512 -0.39427631404881414
-0.14472276859795227 -0.3751532195611412
-0.14472276859795227 -0.3177839360981226
-0.12307035228633798 -0.29866084161044976
-0.14472276859795227 -0.33690703058579546
-0.14472276859795227 -0.33690703058579546
-0.18802760122118087 -0.5090148809748514
-0.2205062256886023 -0.5855072589255428
-0.23133243384440944 -0.6619996368762343
-0.19885380937698802 -0.5855072589255428
-0.11224414413053083 -0.33690703058579546
0.028496561894962094 0.0838010481430077
0.1908896842320693 0.6192476937978482
0.3424565984133694 1.078201961501997
0.5048497207504766 1.537156229206146
0.6564166349317766 1.843125741008912
0.7646787164898481 1.9769874024226222
0.829635965424691 1.843125741008912
0.8188097572688838 1.2694329063787257
0.688895259399198 0.40889365443344655
0.5048497207504766 -0.8149843927776173
0.2991517657901408 -1.8667545895996254
0.2125421005436836 -2.5169398021805027
0.28832555763433365 -2.5743090856435216
0.5698069696853195 -2.057985534476354
1.0028552959176054 -1.2548155659940934
1.490034662928927 -0.33690703058579546
1.998866446251863 0.6192476937978482
2.4968720214189917 1.4415407567677816
3.016530012897735 2.0343566858856406
3.5145355880648634 2.4741878591021167
3.980062538764571 2.722788087441864
4.391458448685243 2.89489593783092
4.662113652580421 2.9713883157816112
4.824506774917529 2.856649748855574
4.813680566761722 2.6654188039788456
4.7270709015152645 2.2447107252500422
4.521372946554928 1.843125741008912
4.2398915345039425 1.4606638512554546
3.904279081673921 1.1164481504773427
3.5037093799090564 0.791355544186904
3.038182429209349 0.5236322213594837
2.4968720214189917 0.2750319930197364
1.9339091973170202 0.0838010481430077
1.3492939569034341 -0.06918370775837528
0.7863311328014624 -0.20304536917208538
0.26667314132271935 -0.39427631404881414
-0.18802760122118087 -0.5472610699501971
-0.5236400540512024 -0.6619996368762343
-0.7618166334789597 -0.7767382038022715
-0.859252506881224 -0.8723536762406359
-0.8809049231928383 -0.8341074872652902
-0.8376000905696097 -0.7767382038022715
-0.7942952579463811 -0.6237534479008886
-0.7618166334789597 -0.5281379754625242
-0.7185118008557311 -0.3177839360981226
-0.6319021356092739 -0.20304536917208538
-0.5885973029860453 -0.1265529912213939
-0.5561186785186238 -0.030937518783029534
-0.5236400540512024 0.026431764679989082
-0.491161429583781 0.10292414263068057
-0.5019876377395881 0.14117033160602632
-0.5019876377395881 0.17941652058137206
-0.48033522142797386 0.19853961506904494
-0.491161429583781 0.19853961506904494
-0.48033522142797386 0.19853961506904494
-0.5019876377395881 0.14117033160602632
-0.5236400540512024 0.16029342609369918
-0.5236400540512024 0.14117033160602632
-0.5236400540512024 0.12204723711835344
-0.5236400540512024 0.16029342609369918
-0.5344662622070095 0.16029342609369918
-0.5019876377395881 0.19853961506904494
-0.5019876377395881 0.19853961506904494
-0.5019876377395881 0.2176627095567178
-0.5019876377395881 0.2176627095567178
-0.491161429583781 0.2941550875074093
-0.5019876377395881 0.332401276482755
-0.5019876377395881 0.332401276482755
-0.5128138458953952 0.31327818199508217
-0.5344662622070095 0.23678580404439067
-0.5344662622070095 0.25590889853206356
-0.5452924703628167 0.16029342609369918
-0.5452924703628167 0.14117033160602632
-0.5452924703628167 0.12204723711835344
-0.5561186785186238 0.12204723711835344
-0.566944886674431 0.17941652058137206
-0.5777710948302381 0.2176627095567178
-0.5561186785186238 0.2750319930197364
-0.5452924703628167 0.332401276482755
-0.5344662622070095 0.31327818199508217
-0.5344662622070095 0.23678580404439067
-0.5561186785186238 0.2176627095567178
-0.566944886674431 0.12204723711835344
-0.5885973029860453 0.06467795365533482
-0.5885973029860453 0.04555485916766196
-0.6102497192976596 0.06467795365533482
-0.5994235111418524 0.10292414263068057
-0.6210759274534667 0.06467795365533482
-0.6210759274534667 0.06467795365533482
-0.6102497192976596 0.14117033160602632
-0.5885973029860453 0.14117033160602632
-0.5994235111418524 0.0838010481430077
-0.5885973029860453 0.0838010481430077
-0.5777710948302381 0.0073086701923162104
-0.5885973029860453 -0.030937518783029534
-0.6319021356092739 -0.08830680224604816
-0.6860331763883096 -0.16479918019673964
-0.6752069682325025 -0.14567608570906676
-0.7076855926999239 -0.14567608570906676
-0.6860331763883096 -0.10742989673372103
-0.6643807600766953 -0.10742989673372103
-0.642728343765081 -0.10742989673372103
-0.6210759274534667 -0.1265529912213939
-0.6319021356092739 -0.14567608570906676
-0.6210759274534667 -0.22216846365975826
-0.6319021356092739 -0.22216846365975826
-0.6643807600766953 -0.3177839360981226
-0.6643807600766953 -0.413399408536487
-0.6968593845441168 -0.45164559751183275
-0.6860331763883096 -0.5090148809748514
-0.6752069682325025 -0.48989178648717846
-0.6860331763883096 -0.5281379754625242
-0.6643807600766953 -0.5281379754625242
-0.6535545519208882 -0.4707686919995056
-0.6210759274534667 -0.48989178648717846
-0.6319021356092739 -0.5281379754625242
-0.5994235111418524 -0.6046303534132157
-0.6319021356092739 -0.6046303534132157
-0.6752069682325025 -0.70024582585158
-0.642728343765081 -0.7576151093145986
-0.6535545519208882 -0.7958612982899445
-0.642728343765081 -0.7576151093145986
-0.6535545519208882 -0.7384920148269258
-0.6210759274534667 -0.7384920148269258
-0.5994235111418524 -0.7576151093145986
-0.566944886674431 -0.7193689203392529
-0.5344662622070095 -0.70024582585158
-0.5019876377395881 -0.7384920148269258
-0.5128138458953952 -0.7958612982899445
-0.48033522142797386 -0.8149843927776173
-0.491161429583781 -0.7958612982899445
-0.4695090132721667 -0.8341074872652902
-0.4695090132721667 -0.8149843927776173
-0.4478565969605524 -0.8149843927776173
-0.4045517643373238 -0.7958612982899445
-0.35042072355828807 -0.7576151093145986
-0.3071158909350595 -0.7384920148269258
-0.2638110583118309 -0.6811227313639072
-0.2638110583118309 -0.6046303534132157
-0.17720139306537372 -0.6428765423885614
-0.16637518490956657 -0.6046303534132157
-0.16637518490956657 -0.6619996368762343
-0.14472276859795227 -0.6237534479008886
-0.10141793597472368 -0.6046303534132157
-0.07976551966310938 -0.5855072589255428
-0.04728689519568794 -0.56638416443787
-0.04728689519568794 -0.5090148809748514
0.006844145583347798 -0.48989178648717846
0.03932277005076924 -0.4707686919995056
0.09345381082980497 -0.39427631404881414
0.11510622714141927 -0.3751532195611412
0.11510622714141927 -0.3560301250734684
0.12593243529722642 -0.3751532195611412
0.11510622714141927 -0.43252250302415984
0.15841105976464787 -0.39427631404881414
0.15841105976464787 -0.39427631404881414
0.13675864345303357 -0.3560301250734684
0.13675864345303357 -0.3560301250734684
0.13675864345303357 -0.33690703058579546
0.13675864345303357 -0.33690703058579546
0.12593243529722642 -0.3177839360981226
0.18006347607626216 -0.27953774712277685
0.14758485160884072 -0.27953774712277685
0.15841105976464787 -0.27953774712277685
0.12593243529722642 -0.27953774712277685
0.11510622714141927 -0.24129155814743114
0.07180139451819069 -0.29866084161044976
0.05014897820657639 -0.27953774712277685
0.017670353739154945 -0.3177839360981226
-0.003982062572459349 -0.33690703058579546
-0.025634478884073643 -0.27953774712277685
-0.05811310335149509 -0.260414652635104
-0.06893931150730223 -0.27953774712277685
-0.07976551966310938 -0.20304536917208538
-0.06893931150730223 -0.22216846365975826
-0.10141793597472368 -0.22216846365975826
-0.13389656044214512 -0.22216846365975826
-0.14472276859795227 -0.24129155814743114
-0.16637518490956657 -0.29866084161044976
-0.19885380937698802 -0.27953774712277685
-0.20968001753279517 -0.29866084161044976
-0.24215864200021658 -0.27953774712277685
-0.29628968277925233 -0.3177839360981226
-0.2854634746234452 -0.29866084161044976
-0.27463726646763803 -0.22216846365975826
-0.29628968277925233 -0.22216846365975826
-0.3071158909350595 -0.24129155814743114
-0.2854634746234452 -0.22216846365975826
-0.29628968277925233 -0.22216846365975826
-0.3071158909350595 -0.24129155814743114
-0.3071158909350595 -0.27953774712277685
-0.3071158909350595 -0.29866084161044976
-0.3179420990908666 -0.33690703058579546
-0.3395945154024809 -0.3177839360981226
-0.39372555618151667 -0.33690703058579546
-0.3612469317140952 -0.3177839360981226
-0.3828993480257095 -0.260414652635104
-0.35042072355828807 -0.24129155814743114
-0.3179420990908666 -0.24129155814743114
-0.3071158909350595 -0.20304536917208538
-0.35042072355828807 -0.22216846365975826
-0.35042072355828807 -0.260414652635104
-0.3828993480257095 -0.29866084161044976
-0.37207313986990237 -0.33690703058579546
-0.39372555618151667 -0.3560301250734684
-0.35042072355828807 -0.33690703058579546
-0.37207313986990237 -0.39427631404881414
-0.3179420990908666 -0.29866084161044976
-0.3071158909350595 -0.260414652635104
-0.29628968277925233 -0.24129155814743114
-0.25298485015602373 -0.16479918019673964
-0.25298485015602373 -0.16479918019673964
-0.25298485015602373 -0.22216846365975826
-0.2638110583118309 -0.24129155814743114
-0.27463726646763803 -0.29866084161044976
-0.29628968277925233 -0.27953774712277685
-0.2854634746234452 -0.29866084161044976
-0.3179420990908666 -0.24129155814743114
-0.2854634746234452 -0.20304536917208538
-0.2638110583118309 -0.18392227468441252
-0.24215864200021658 -0.1265529912213939
-0.23133243384440944 -0.1265529912213939
-0.2205062256886023 -0.10742989673372103
-0.19885380937698802 -0.1265529912213939
-0.18802760122118087 -0.10742989673372103
-0.18802760122118087 -0.1265529912213939
-0.19885380937698802 -0.16479918019673964
-0.23133243384440944 -0.260414652635104
-0.25298485015602373 -0.22216846365975826
-0.2638110583118309 -0.18392227468441252
-0.25298485015602373 -0.1265529912213939
-0.25298485015602373 -0.10742989673372103
-0.2205062256886023 -0.06918370775837528
-0.20968001753279517 0.026431764679989082
-0.18802760122118087 -0.011814424295356661
-0.17720139306537372 0.026431764679989082
-0.16637518490956657 -0.030937518783029534
-0.19885380937698802 -0.05006061327070241
-0.20968001753279517 -0.10742989673372103
-0.20968001753279517 -0.1265529912213939
-0.23133243384440944 -0.14567608570906676
-0.2205062256886023 -0.08830680224604816
-0.20968001753279517 -0.10742989673372103
-0.18802760122118087 -0.030937518783029534
-0.17720139306537372 -0.030937518783029534
-0.17720139306537372 0.0073086701923162104
-0.18802760122118087 0.04555485916766196
-0.19885380937698802 -0.011814424295356661
-0.18802760122118087 -0.030937518783029534
-0.17720139306537372 -0.08830680224604816
-0.18802760122118087 -0.05006061327070241
-0.17720139306537372 -0.08830680224604816
-0.17720139306537372 -0.10742989673372103
-0.20968001753279517 -0.06918370775837528
-0.2205062256886023 -0.06918370775837528
-0.16637518490956657 -0.05006061327070241
-0.14472276859795227 0.0073086701923162104
-0.15554897675375942 0.04555485916766196
-0.15554897675375942 0.04555485916766196
-0.13389656044214512 0.06467795365533482
-0.11224414413053083 0.026431764679989082
-0.12307035228633798 0.0073086701923162104
-0.13389656044214512 -0.05006061327070241
-0.19885380937698802 -0.06918370775837528
-0.19885380937698802 -0.05006061327070241
-0.18802760122118087 -0.05006061327070241
-0.16637518490956657 -0.011814424295356661
-0.16637518490956657 0.06467795365533482
-0.15554897675375942 0.0073086701923162104
-0.13389656044214512 0.026431764679989082
-0.11224414413053083 0.06467795365533482
-0.09059172781891653 0.06467795365533482
-0.11224414413053083 0.04555485916766196
-0.13389656044214512 0.0073086701923162104
-0.13389656044214512 -0.011814424295356661
-0.16637518490956657 -0.011814424295356661
-0.16637518490956657 0.0073086701923162104
-0.14472276859795227 -0.011814424295356661
-0.16637518490956657 0.0073086701923162104
-0.14472276859795227 0.04555485916766196
-0.17720139306537372 0.04555485916766196
-0.16637518490956657 0.0838010481430077
-0.15554897675375942 0.10292414263068057
-0.13389656044214512 0.12204723711835344
-0.13389656044214512 0.0838010481430077
-0.13389656044214512 0.04555485916766196
-0.13389656044214512 0.0073086701923162104
-0.11224414413053083 -0.011814424295356661
-0.11224414413053083 0.0073086701923162104
-0.10141793597472368 -0.011814424295356661
-0.11224414413053083 0.0073086701923162104
-0.12307035228633798 0.0073086701923162104
-0.12307035228633798 0.0838010481430077
-0.13389656044214512 0.10292414263068057
-0.12307035228633798 0.10292414263068057
-0.07976551966310938 0.06467795365533482
-0.10141793597472368 0.0838010481430077
-0.10141793597472368 0.026431764679989082
-0.11224414413053083 0.04555485916766196
-0.12307035228633798 0.0073086701923162104
-0.14472276859795227 0.0073086701923162104
-0.14472276859795227 0.0073086701923162104
-0.15554897675375942 0.026431764679989082
-0.16637518490956657 0.06467795365533482
-0.13389656044214512 0.04555485916766196
-0.11224414413053083 0.10292414263068057
-0.07976551966310938 0.12204723711835344
-0.05811310335149509 0.12204723711835344
-0.06893931150730223 0.0838010481430077
-0.03646068703988079 0.04555485916766196
-0.06893931150730223 0.06467795365533482
-0.06893931150730223 0.06467795365533482
-0.09059172781891653 0.04555485916766196
-0.12307035228633798 0.026431764679989082
-0.13389656044214512 0.0073086701923162104
-0.11224414413053083 0.026431764679989082
-0.11224414413053083 0.0838010481430077
-0.09059172781891653 0.04555485916766196
-0.03646068703988079 0.0838010481430077
-0.05811310335149509 0.06467795365533482
-0.07976551966310938 0.06467795365533482
-0.07976551966310938 0.06467795365533482
-0.07976551966310938 0.04555485916766196
-0.09059172781891653 0.04555485916766196
-0.13389656044214512 0.06467795365533482
-0.12307035228633798 0.0838010481430077
-0.12307035228633798 0.04555485916766196
-0.12307035228633798 0.10292414263068057
-0.09059172781891653 0.16029342609369918
-0.07976551966310938 0.12204723711835344
-0.05811310335149509 0.14117033160602632
-0.03646068703988079 0.17941652058137206
-0.03646068703988079 0.10292414263068057
-0.025634478884073643 0.12204723711835344
-0.03646068703988079 0.06467795365533482
-0.025634478884073643 0.06467795365533482
-0.04728689519568794 0.04555485916766196
-0.05811310335149509 0.04555485916766196
-0.05811310335149509 0.06467795365533482
-0.05811310335149509 0.10292414263068057
-0.025634478884073643 0.16029342609369918
-0.014808270728266496 0.17941652058137206
0.03932277005076924 0.2176627095567178
0.09345381082980497 0.2176627095567178
0.11510622714141927 0.2176627095567178
0.09345381082980497 0.19853961506904494
0.10428001898561212 0.14117033160602632
0.11510622714141927 0.06467795365533482
0.10428001898561212 0.026431764679989082
0.10428001898561212 0.0073086701923162104
0.08262760267399782 0.04555485916766196
0.09345381082980497 0.10292414263068057
0.10428001898561212 0.12204723711835344
0.10428001898561212 0.17941652058137206
0.09345381082980497 0.17941652058137206
0.08262760267399782 0.17941652058137206
0.060975186362383534 0.23678580404439067
0.07180139451819069 0.16029342609369918
0.05014897820657639 0.12204723711835344
0.03932277005076924 0.14117033160602632
0.060975186362383534 0.2176627095567178
0.07180139451819069 0.19853961506904494
0.11510622714141927 0.2750319930197364
0.11510622714141927 0.35152437097042794
0.13675864345303357 0.4280167489211194
0.12593243529722642 0.38977055994577364
0.14758485160884072 0.40889365443344655
0.13675864345303357 0.3706474654581008
0.08262760267399782 0.2941550875074093
0.05014897820657639 0.25590889853206356
0.017670353739154945 0.2176627095567178
-0.014808270728266496 0.14117033160602632
-0.11224414413053083 0.12204723711835344
-0.16637518490956657 0.10292414263068057
-0.17720139306537372 0.0838010481430077
-0.17720139306537372 0.17941652058137206
-0.16637518490956657 0.14117033160602632
-0.14472276859795227 0.17941652058137206
-0.12307035228633798 0.17941652058137206
-0.12307035228633798 0.12204723711835344
-0.07976551966310938 0.06467795365533482
-0.09059172781891653 -0.011814424295356661
-0.07976551966310938 -0.1265529912213939
-0.09059172781891653 -0.16479918019673964
-0.11224414413053083 -0.260414652635104
-0.12307035228633798 -0.22216846365975826
-0.09059172781891653 -0.05006061327070241
-0.014808270728266496 0.2750319930197364
0.14758485160884072 0.7339862607238854
0.28832555763433365 1.1164481504773427
0.4507186799714408 1.4989100402308002
0.5806331778411267 1.7475102685705477
0.6672428430875837 1.690140985107529
0.7646787164898481 1.4797869457431274
0.7322000920224266 0.9060941111129412
0.6455904267759695 -0.011814424295356661
0.461544888127248 -1.0062153376543461
0.30997797394594795 -1.8285084006242796
0.2991517657901408 -2.057985534476354
0.4723710962830551 -1.7328929281859151
0.8621145898921124 -0.9870922431666731
1.3276415405918198 0.026431764679989082
1.8689519483821773 1.0399557725266513
2.3886099398609204 1.9578643079349491
2.9299203476512776 2.6654188039788456
3.4495783391300208 3.181742355146013
3.9367577061413424 3.5642042448994706
4.413110864996857 3.889296851189909
4.792028150450107 4.02315851260362
5.073509562501092 3.8701737567022363
5.181771644059165 3.506834961436452
5.1384668114359355 3.047880693732303
4.9327688564756 2.6271726150034995
4.575503987333964 2.110849063836332
4.066672204011028 1.671017890619856
3.4495783391300208 1.2120636229157071
2.7567010171583632 0.8678479221375954
2.0963023196541273 0.6574938827731939
1.4359036221498913 0.46626293789646517
0.8404621735804981 0.23678580404439067
0.28832555763433365 0.04555485916766196
-0.18802760122118087 -0.22216846365975826
-0.5019876377395881 -0.43252250302415984
-0.7076855926999239 -0.56638416443787
-0.8267738824138026 -0.56638416443787
-0.8267738824138026 -0.48989178648717846
-0.7942952579463811 -0.33690703058579546
-0.7185118008557311 -0.18392227468441252
-0.6643807600766953 -0.06918370775837528
-0.5885973029860453 0.06467795365533482
-0.5019876377395881 0.12204723711835344
-0.45868280511635956 0.19853961506904494
-0.4478565969605524 0.2176627095567178
-0.41537797249313096 0.2941550875074093
-0.4262041806489381 0.332401276482755
-0.41537797249313096 0.40889365443344655
-0.4262041806489381 0.40889365443344655
-0.4262041806489381 0.46626293789646517
-0.4045517643373238 0.5045091268718109
-0.39372555618151667 0.5045091268718109
-0.4045517643373238 0.485386032384138
-0.4262041806489381 0.485386032384138
-0.43703038880474526 0.44713984340879226
-0.4262041806489381 0.4280167489211194
-0.4478565969605524 0.38977055994577364
-0.4695090132721667 0.46626293789646517
-0.4478565969605524 0.4280167489211194
-0.45868280511635956 0.5045091268718109
-0.43703038880474526 0.5427553158471566
-0.4478565969605524 0.5810015048225023
-0.43703038880474526 0.5618784103348295
-0.4262041806489381 0.5810015048225023
-0.4262041806489381 0.5236322213594837
-0.41537797249313096 0.485386032384138
-0.4695090132721667 0.44713984340879226
-0.4695090132721667 0.46626293789646517
-0.45868280511635956 0.4280167489211194
-0.491161429583781 0.44713984340879226
-0.5019876377395881 0.46626293789646517
-0.5236400540512024 0.5045091268718109
-0.5019876377395881 0.5045091268718109
-0.48033522142797386 0.5236322213594837
-0.45868280511635956 0.485386032384138
-0.4478565969605524 0.485386032384138
-0.43703038880474526 0.5045091268718109
-0.43703038880474526 0.44713984340879226
-0.45868280511635956 0.40889365443344655
-0.4478565969605524 0.40889365443344655
-0.4695090132721667 0.38977055994577364
-0.4695090132721667 0.38977055994577364
-0.48033522142797386 0.38977055994577364
-0.48033522142797386 0.38977055994577364
-0.5019876377395881 0.40889365443344655
-0.45868280511635956 0.40889365443344655
-0.4695090132721667 0.38977055994577364
-0.45868280511635956 0.332401276482755
-0.491161429583781 0.35152437097042794
-0.5128138458953952 0.2750319930197364
-0.5236400540512024 0.25590889853206356
-0.5128138458953952 0.23678580404439067
-0.5344662622070095 0.19853961506904494
-0.5452924703628167 0.2176627095567178
-0.566944886674431 0.17941652058137206
-0.5344662622070095 0.2176627095567178
-0.5452924703628167 0.17941652058137206
-0.5452924703628167 0.16029342609369918
-0.5452924703628167 0.14117033160602632
-0.5561186785186238 0.0838010481430077
-0.566944886674431 0.06467795365533482
-0.566944886674431 -0.030937518783029534
-0.5777710948302381 -0.06918370775837528
-0.5994235111418524 -0.10742989673372103
-0.5885973029860453 -0.16479918019673964
-0.5777710948302381 -0.20304536917208538
-0.5777710948302381 -0.20304536917208538
-0.5561186785186238 -0.22216846365975826
-0.5885973029860453 -0.24129155814743114
-0.5561186785186238 -0.20304536917208538
-0.5344662622070095 -0.22216846365975826
-0.5128138458953952 -0.260414652635104
-0.5344662622070095 -0.24129155814743114
-0.5128138458953952 -0.27953774712277685
-0.5344662622070095 -0.3177839360981226
-0.5236400540512024 -0.33690703058579546
-0.5344662622070095 -0.39427631404881414
-0.5236400540512024 -0.45164559751183275
-0.5452924703628167 -0.413399408536487
-0.491161429583781 -0.39427631404881414
-0.4695090132721667 -0.3751532195611412
-0.4478565969605524 -0.3560301250734684
-0.41537797249313096 -0.29866084161044976
-0.3828993480257095 -0.27953774712277685
-0.3612469317140952 -0.29866084161044976
-0.35042072355828807 -0.33690703058579546
-0.3287683072466738 -0.39427631404881414
-0.2854634746234452 -0.39427631404881414
-0.25298485015602373 -0.3560301250734684
-0.20968001753279517 -0.43252250302415984
-0.18802760122118087 -0.3751532195611412
-0.16637518490956657 -0.3751532195611412
-0.15554897675375942 -0.27953774712277685
-0.13389656044214512 -0.29866084161044976
-0.10141793597472368 -0.22216846365975826
-0.06893931150730223 -0.16479918019673964
-0.014808270728266496 -0.14567608570906676
0.028496561894962094 -0.10742989673372103
0.060975186362383534 -0.1265529912213939
0.060975186362383534 -0.1265529912213939
0.07180139451819069 -0.14567608570906676
0.10428001898561212 -0.10742989673372103
0.10428001898561212 -0.06918370775837528
0.14758485160884072 0.0073086701923162104
0.16923726792045501 0.0073086701923162104
0.1908896842320693 0.06467795365533482
0.2341945168552979 0.10292414263068057
0.2558469331669122 0.06467795365533482
0.26667314132271935 0.026431764679989082
0.2774993494785265 -0.030937518783029534
0.26667314132271935 -0.011814424295356661
0.26667314132271935 -0.05006061327070241
0.22336830869949076 -0.06918370775837528
0.20171589238787646 -0.05006061327070241
0.2125421005436836 -0.011814424295356661
0.20171589238787646 -0.05006061327070241
0.2125421005436836 -0.011814424295356661
0.2125421005436836 -0.011814424295356661
0.2125421005436836 0.026431764679989082
0.22336830869949076 0.0073086701923162104
0.20171589238787646 -0.011814424295356661
0.1908896842320693 -0.05006061327070241
0.16923726792045501 -0.08830680224604816
0.10428001898561212 -0.1265529912213939
0.07180139451819069 -0.1265529912213939
0.028496561894962094 -0.16479918019673964
-0.003982062572459349 -0.16479918019673964
0.006844145583347798 -0.1265529912213939
-0.014808270728266496 -0.10742989673372103
-0.025634478884073643 -0.14567608570906676
-0.03646068703988079 -0.1265529912213939
-0.03646068703988079 -0.16479918019673964
-0.07976551966310938 -0.18392227468441252
-0.10141793597472368 -0.24129155814743114
-0.12307035228633798 -0.29866084161044976
-0.13389656044214512 -0.29866084161044976
-0.16637518490956657 -0.33690703058579546
-0.2205062256886023 -0.3560301250734684
-0.23133243384440944 -0.29866084161044976
-0.27463726646763803 -0.27953774712277685
-0.2638110583118309 -0.260414652635104
-0.25298485015602373 -0.18392227468441252
-0.23133243384440944 -0.20304536917208538
-0.20968001753279517 -0.14567608570906676
-0.2205062256886023 -0.14567608570906676
-0.23133243384440944 -0.18392227468441252
-0.2638110583118309 -0.24129155814743114
-0.24215864200021658 -0.27953774712277685
-0.25298485015602373 -0.24129155814743114
-0.24215864200021658 -0.260414652635104
-0.24215864200021658 -0.18392227468441252
-0.23133243384440944 -0.18392227468441252
-0.2205062256886023 -0.1265529912213939
-0.16637518490956657 -0.16479918019673964
-0.14472276859795227 -0.08830680224604816
-0.11224414413053083 -0.10742989673372103
-0.10141793597472368 -0.06918370775837528
-0.14472276859795227 -0.08830680224604816
-0.11224414413053083 -0.14567608570906676
-0.13389656044214512 -0.08830680224604816
-0.14472276859795227 -0.1265529912213939
-0.14472276859795227 -0.16479918019673964
-0.15554897675375942 -0.1265529912213939
-0.13389656044214512 -0.08830680224604816
-0.13389656044214512 -0.011814424295356661
-0.09059172781891653 0.026431764679989082
-0.05811310335149509 0.06467795365533482
-0.04728689519568794 0.10292414263068057
-0.025634478884073643 0.06467795365533482
-0.025634478884073643 0.0838010481430077
-0.04728689519568794 0.06467795365533482
-0.04728689519568794 0.026431764679989082
-0.04728689519568794 0.026431764679989082
-0.06893931150730223 -0.011814424295356661
-0.07976551966310938 0.0073086701923162104
-0.05811310335149509 0.026431764679989082
-0.025634478884073643 0.0838010481430077
0.028496561894962094 0.10292414263068057
0.017670353739154945 0.16029342609369918
0.028496561894962094 0.12204723711835344
0.03932277005076924 0.16029342609369918
-0.014808270728266496 0.0838010481430077
-0.06893931150730223 0.06467795365533482
-0.03646068703988079 0.0073086701923162104
-0.03646068703988079 0.0073086701923162104
-0.003982062572459349 0.026431764679989082
0.006844145583347798 0.06467795365533482
0.03932277005076924 0.12204723711835344
0.03932277005076924 0.14117033160602632
0.03932277005076924 0.17941652058137206
0.060975186362383534 0.19853961506904494
0.10428001898561212 0.23678580404439067
0.09345381082980497 0.2176627095567178
0.05014897820657639 0.12204723711835344
0.05014897820657639 0.12204723711835344
0.006844145583347798 0.10292414263068057
-0.025634478884073643 0.026431764679989082
0.017670353739154945 0.0073086701923162104
0.006844145583347798 0.0838010481430077
0.05014897820657639 0.10292414263068057
0.028496561894962094 0.12204723711835344
0.05014897820657639 0.2176627095567178
0.10428001898561212 0.23678580404439067
0.10428001898561212 0.2750319930197364
0.11510622714141927 0.23678580404439067
0.12593243529722642 0.23678580404439067
0.13675864345303357 0.16029342609369918
0.12593243529722642 0.17941652058137206
0.11510622714141927 0.12204723711835344
0.05014897820657639 0.14117033160602632
0.05014897820657639 0.17941652058137206
0.060975186362383534 0.2176627095567178
0.08262760267399782 0.19853961506904494
0.10428001898561212 0.23678580404439067
0.11510622714141927 0.2750319930197364
0.13675864345303357 0.25590889853206356
0.13675864345303357 0.23678580404439067
0.10428001898561212 0.17941652058137206
0.13675864345303357 0.19853961506904494
0.09345381082980497 0.16029342609369918
0.07180139451819069 0.12204723711835344
0.08262760267399782 0.16029342609369918
0.07180139451819069 0.12204723711835344
0.09345381082980497 0.25590889853206356
0.11510622714141927 0.25590889853206356
0.14758485160884072 0.2941550875074093
0.15841105976464787 0.2176627095567178
0.18006347607626216 0.2750319930197364
0.18006347607626216 0.19853961506904494
0.18006347607626216 0.19853961506904494
0.14758485160884072 0.16029342609369918
0.15841105976464787 0.14117033160602632
0.10428001898561212 0.10292414263068057
0.10428001898561212 0.10292414263068057
0.10428001898561212 0.17941652058137206
0.05014897820657639 0.19853961506904494
0.09345381082980497 0.23678580404439067
0.10428001898561212 0.2176627095567178
0.12593243529722642 0.25590889853206356
0.1908896842320693 0.31327818199508217
0.20171589238787646 0.23678580404439067
0.20171589238787646 0.25590889853206356
0.20171589238787646 0.2176627095567178
0.18006347607626216 0.19853961506904494
0.20171589238787646 0.14117033160602632
0.20171589238787646 0.14117033160602632
0.16923726792045501 0.17941652058137206
0.13675864345303357 0.19853961506904494
0.11510622714141927 0.2176627095567178
0.13675864345303357 0.25590889853206356
0.15841105976464787 0.31327818199508217
0.16923726792045501 0.31327818199508217
0.15841105976464787 0.35152437097042794
0.14758485160884072 0.31327818199508217
0.15841105976464787 0.332401276482755
0.15841105976464787 0.2750319930197364
0.14758485160884072 0.23678580404439067
0.16923726792045501 0.19853961506904494
0.15841105976464787 0.16029342609369918
0.15841105976464787 0.23678580404439067
0.16923726792045501 0.332401276482755
0.13675864345303357 0.38977055994577364
0.16923726792045501 0.40889365443344655
0.1908896842320693 0.38977055994577364
0.20171589238787646 0.332401276482755
0.1908896842320693 0.332401276482755
0.16923726792045501 0.25590889853206356
0.14758485160884072 0.2176627095567178
0.12593243529722642 0.19853961506904494
0.14758485160884072 0.17941652058137206
0.14758485160884072 0.2176627095567178
0.16923726792045501 0.25590889853206356
0.1908896842320693 0.23678580404439067
0.24502072501110506 0.31327818199508217
0.2774993494785265 0.332401276482755
0.30997797394594795 0.31327818199508217
0.3208041821017551 0.2750319930197364
0.30997797394594795 0.2941550875074093
0.2991517657901408 0.25590889853206356
0.28832555763433365 0.2941550875074093
0.26667314132271935 0.23678580404439067
0.2774993494785265 0.25590889853206356
0.2991517657901408 0.2750319930197364
0.33163039025756225 0.3706474654581008
0.3641090147249837 0.3706474654581008
0.3749352228807908 0.4280167489211194
0.4398924718156337 0.3706474654581008
0.4398924718156337 0.35152437097042794
0.461544888127248 0.38977055994577364
0.4940235125946694 0.332401276482755
0.4831973044388623 0.31327818199508217
0.4831973044388623 0.31327818199508217
0.4398924718156337 0.38977055994577364
0.3965876391924051 0.38977055994577364
0.3749352228807908 0.4280167489211194
0.3641090147249837 0.4280167489211194
0.3641090147249837 0.5045091268718109
0.3641090147249837 0.485386032384138
0.38576143103659793 0.5427553158471566
0.38576143103659793 0.5236322213594837
0.3749352228807908 0.5045091268718109
0.40741384734821223 0.5427553158471566
0.42906626365982653 0.5045091268718109
0.4507186799714408 0.5810015048225023
0.4507186799714408 0.6001245993101753
0.4398924718156337 0.5810015048225023
0.4182400555040194 0.5618784103348295
0.38576143103659793 0.485386032384138
0.35328280656917654 0.485386032384138
0.2991517657901408 0.46626293789646517
0.2774993494785265 0.44713984340879226
0.2341945168552979 0.44713984340879226
0.2341945168552979 0.40889365443344655
0.2341945168552979 0.40889365443344655
0.24502072501110506 0.35152437097042794
0.24502072501110506 0.3706474654581008
0.20171589238787646 0.2750319930197364
0.1908896842320693 0.31327818199508217
0.18006347607626216 0.31327818199508217
0.1908896842320693 0.2941550875074093
0.2125421005436836 0.31327818199508217
0.22336830869949076 0.25590889853206356
0.2125421005436836 0.2176627095567178
0.22336830869949076 0.12204723711835344
0.2125421005436836 0.10292414263068057
0.24502072501110506 0.14117033160602632
0.3208041821017551 0.38977055994577364
0.4507186799714408 0.8487248276499226
0.602285594152741 1.384171473304763
0.7755049246456552 1.862248835496585
0.9378980469827625 2.2447107252500422
1.0678125448524483 2.455064764614444
1.1869008345663268 2.4741878591021167
1.2302056671895554 2.129972158324005
1.1652484182547125 1.4606638512554546
0.9812028796059911 0.40889365443344655
0.8079835491130767 -0.70024582585158
0.6564166349317766 -1.5799081722845323
0.6780690512433909 -1.8667545895996254
0.905419422515341 -1.5799081722845323
1.2843367079685912 -0.7767382038022715
1.8039946994473344 0.16029342609369918
2.345305107237692 1.1546943394526885
2.864963098716435 2.0152335913979678
3.3846210901951777 2.6845418984665184
3.8718004572064997 3.1052499771953217
4.337327407906207 3.4112194889980874
4.759549525982686 3.5450811504117974
5.051857146189478 3.4494656779734334
5.149293019591743 3.1434961661706673
5.105988186968514 2.722788087441864
4.911116440163986 2.282956914225388
4.521372946554928 1.7857564575458933
4.012541163231992 1.3650483788170902
3.406273506506792 1.09732505598967
2.7675272253141703 0.791355544186904
2.1179547359657414 0.6574938827731939
1.5333394955521555 0.5618784103348295
0.9920290877617982 0.44713984340879226
0.5265021370620909 0.25590889853206356
0.11510622714141927 0.04555485916766196
-0.18802760122118087 -0.16479918019673964
-0.39372555618151667 -0.33690703058579546
-0.48033522142797386 -0.33690703058579546
-0.5019876377395881 -0.24129155814743114
-0.491161429583781 -0.10742989673372103
-0.4478565969605524 -0.030937518783029534
-0.3828993480257095 0.0838010481430077
-0.3179420990908666 0.2941550875074093
-0.25298485015602373 0.35152437097042794
-0.2205062256886023 0.5045091268718109
-0.15554897675375942 0.5618784103348295
-0.15554897675375942 0.638370788285521
-0.12307035228633798 0.6957400717485396
-0.12307035228633798 0.7339862607238854
-0.12307035228633798 0.7531093552115582
-0.14472276859795227 0.7148631662362125
-0.12307035228633798 0.7531093552115582
-0.13389656044214512 0.7148631662362125
-0.13389656044214512 0.6957400717485396
-0.12307035228633798 0.7148631662362125
-0.11224414413053083 0.6957400717485396
-0.09059172781891653 0.7722324496992311
-0.09059172781891653 0.8296017331622497
-0.10141793597472368 0.791355544186904
-0.11224414413053083 0.8104786386745768
-0.12307035228633798 0.8104786386745768
-0.13389656044214512 0.8296017331622497
-0.13389656044214512 0.7339862607238854
-0.16637518490956657 0.7339862607238854
-0.13389656044214512 0.7531093552115582
-0.15554897675375942 0.7339862607238854
-0.17720139306537372 0.8104786386745768
-0.14472276859795227 0.8104786386745768
-0.11224414413053083 0.8296017331622497
-0.11224414413053083 0.8678479221375954
-0.10141793597472368 0.8678479221375954
-0.11224414413053083 0.8296017331622497
-0.12307035228633798 0.8104786386745768
-0.15554897675375942 0.7531093552115582
-0.17720139306537372 0.7722324496992311
-0.17720139306537372 0.6957400717485396
-0.20968001753279517 0.7148631662362125
-0.18802760122118087 0.6957400717485396
-0.18802760122118087 0.7339862607238854
-0.15554897675375942 0.7339862607238854
-0.14472276859795227 0.791355544186904
-0.15554897675375942 0.791355544186904
-0.16637518490956657 0.7339862607238854
-0.15554897675375942 0.7722324496992311
-0.18802760122118087 0.7148631662362125
-0.18802760122118087 0.6766169772608668
-0.19885380937698802 0.638370788285521
-0.2205062256886023 0.638370788285521
-0.23133243384440944 0.5810015048225023
-0.23133243384440944 0.6001245993101753
-0.23133243384440944 0.638370788285521
-0.24215864200021658 0.638370788285521
-0.23133243384440944 0.6957400717485396
-0.2205062256886023 0.6574938827731939
-0.2205062256886023 0.6574938827731939
-0.19885380937698802 0.5618784103348295
-0.19885380937698802 0.485386032384138
-0.20968001753279517 0.44713984340879226
-0.25298485015602373 0.38977055994577364
-0.25298485015602373 0.31327818199508217
-0.2638110583118309 0.2750319930197364
-0.2638110583118309 0.31327818199508217
-0.25298485015602373 0.332401276482755
-0.27463726646763803 0.35152437097042794
-0.2638110583118309 0.31327818199508217
-0.2638110583118309 0.2941550875074093
-0.27463726646763803 0.23678580404439067
-0.27463726646763803 0.2176627095567178
-0.3071158909350595 0.17941652058137206
-0.3179420990908666 0.0838010481430077
-0.35042072355828807 0.04555485916766196
-0.3395945154024809 -0.030937518783029534
-0.3395945154024809 -0.030937518783029534
-0.3612469317140952 -0.06918370775837528
-0.37207313986990237 -0.10742989673372103
-0.35042072355828807 -0.06918370775837528
-0.2638110583118309 -0.030937518783029534
-0.25298485015602373 -0.011814424295356661
-0.25298485015602373 -0.10742989673372103
-0.27463726646763803 -0.16479918019673964
-0.3287683072466738 -0.20304536917208538
-0.3179420990908666 -0.260414652635104
-0.3179420990908666 -0.29866084161044976
-0.3287683072466738 -0.33690703058579546
-0.3287683072466738 -0.3560301250734684
-0.3071158909350595 -0.3560301250734684
-0.2854634746234452 -0.33690703058579546
-0.25298485015602373 -0.3177839360981226
-0.24215864200021658 -0.3177839360981226
-0.2205062256886023 -0.260414652635104
-0.15554897675375942 -0.29866084161044976
-0.15554897675375942 -0.39427631404881414
-0.12307035228633798 -0.3751532195611412
-0.11224414413053083 -0.39427631404881414
-0.09059172781891653 -0.4707686919995056
-0.09059172781891653 -0.4707686919995056
-0.09059172781891653 -0.4707686919995056
-0.05811310335149509 -0.45164559751183275
-0.014808270728266496 -0.413399408536487
0.017670353739154945 -0.3560301250734684
0.07180139451819069 -0.3177839360981226
0.08262760267399782 -0.27953774712277685
0.11510622714141927 -0.260414652635104
0.12593243529722642 -0.3177839360981226
0.15841105976464787 -0.29866084161044976
0.1908896842320693 -0.29866084161044976
0.20171589238787646 -0.3177839360981226
0.2558469331669122 -0.27953774712277685
0.24502072501110506 -0.260414652635104
0.3208041821017551 -0.18392227468441252
0.3641090147249837 -0.1265529912213939
0.3965876391924051 -0.06918370775837528
0.4398924718156337 -0.030937518783029534
0.5048497207504766 -0.011814424295356661
0.5048497207504766 -0.06918370775837528
0.4831973044388623 -0.06918370775837528
0.4723710962830551 -0.05006061327070241
0.4940235125946694 -0.10742989673372103
0.4831973044388623 -0.10742989673372103
0.4723710962830551 -0.1265529912213939
0.4723710962830551 -0.1265529912213939
0.4507186799714408 -0.08830680224604816
0.4723710962830551 -0.011814424295356661
0.4831973044388623 0.04555485916766196
0.4831973044388623 0.10292414263068057
0.4831973044388623 0.04555485916766196
0.5156759289062838 0.06467795365533482
0.4940235125946694 0.06467795365533482
0.4507186799714408 0.0073086701923162104
0.4398924718156337 -0.030937518783029534
0.4182400555040194 -0.030937518783029534
0.38576143103659793 -0.030937518783029534
0.35328280656917654 0.0073086701923162104
0.33163039025756225 0.026431764679989082
0.3208041821017551 0.0073086701923162104
0.30997797394594795 0.04555485916766196
0.2991517657901408 0.026431764679989082
0.28832555763433365 0.0838010481430077
0.26667314132271935 0.04555485916766196
0.22336830869949076 0.0073086701923162104
0.15841105976464787 -0.011814424295356661
0.13675864345303357 -0.05006061327070241
0.08262760267399782 -0.06918370775837528
0.05014897820657639 -0.05006061327070241
0.017670353739154945 -0.06918370775837528
0.028496561894962094 -0.05006061327070241
0.017670353739154945 0.0073086701923162104
0.03932277005076924 0.0073086701923162104
0.028496561894962094 0.026431764679989082
0.03932277005076924 0.0073086701923162104
0.03932277005076924 -0.06918370775837528
0.028496561894962094 -0.06918370775837528
0.028496561894962094 -0.14567608570906676
-0.014808270728266496 -0.16479918019673964
-0.003982062572459349 -0.18392227468441252
-0.014808270728266496 -0.16479918019673964
-0.014808270728266496 -0.18392227468441252
-0.014808270728266496 -0.16479918019673964
-0.014808270728266496 -0.08830680224604816
-0.014808270728266496 -0.08830680224604816
-0.025634478884073643 -0.1265529912213939
-0.003982062572459349 -0.10742989673372103
-0.014808270728266496 -0.16479918019673964
-0.003982062572459349 -0.20304536917208538
0.017670353739154945 -0.20304536917208538
-0.025634478884073643 -0.24129155814743114
-0.04728689519568794 -0.24129155814743114
-0.03646068703988079 -0.22216846365975826
-0.04728689519568794 -0.20304536917208538
-0.03646068703988079 -0.16479918019673964
-0.014808270728266496 -0.08830680224604816
0.028496561894962094 -0.10742989673372103
0.03932277005076924 -0.06918370775837528
0.05014897820657639 -0.08830680224604816
0.05014897820657639 -0.1265529912213939
0.03932277005076924 -0.16479918019673964
0.017670353739154945 -0.16479918019673964
-0.025634478884073643 -0.22216846365975826
-0.003982062572459349 -0.20304536917208538
0.006844145583347798 -0.18392227468441252
0.05014897820657639 -0.14567608570906676
0.060975186362383534 -0.08830680224604816
0.07180139451819069 -0.06918370775837528
0.12593243529722642 -0.05006061327070241
0.13675864345303357 -0.011814424295356661
0.14758485160884072 -0.05006061327070241
0.14758485160884072 -0.06918370775837528
0.13675864345303357 -0.08830680224604816
0.11510622714141927 -0.10742989673372103
0.10428001898561212 -0.10742989673372103
0.07180139451819069 -0.10742989673372103
0.08262760267399782 -0.10742989673372103
0.03932277005076924 -0.1265529912213939
0.03932277005076924 -0.08830680224604816
0.028496561894962094 -0.10742989673372103
0.060975186362383534 -0.08830680224604816
0.09345381082980497 -0.05006061327070241
0.09345381082980497 -0.06918370775837528
0.10428001898561212 -0.011814424295356661
0.11510622714141927 -0.08830680224604816
0.11510622714141927 -0.1265529912213939
0.10428001898561212 -0.1265529912213939
0.10428001898561212 -0.14567608570906676
0.10428001898561212 -0.14567608570906676
0.060975186362383534 -0.06918370775837528
0.03932277005076924 -0.10742989673372103
0.05014897820657639 -0.10742989673372103
0.08262760267399782 -0.05006061327070241
0.10428001898561212 0.0073086701923162104
0.13675864345303357 0.026431764679989082
0.12593243529722642 -0.011814424295356661
0.09345381082980497 0.0073086701923162104
0.10428001898561212 -0.030937518783029534
0.08262760267399782 -0.06918370775837528
0.060975186362383534 -0.08830680224604816
0.08262760267399782 -0.08830680224604816
0.07180139451819069 -0.05006061327070241
0.10428001898561212 -0.06918370775837528
0.11510622714141927 -0.08830680224604816
0.13675864345303357 -0.06918370775837528
0.12593243529722642 -0.05006061327070241
0.12593243529722642 -0.06918370775837528
0.15841105976464787 -0.06918370775837528
0.14758485160884072 -0.05006061327070241
0.12593243529722642 -0.06918370775837528
0.11510622714141927 -0.08830680224604816
0.09345381082980497 -0.1265529912213939
0.08262760267399782 -0.1265529912213939
0.03932277005076924 -0.16479918019673964
0.028496561894962094 -0.18392227468441252
0.05014897820657639 -0.16479918019673964
0.08262760267399782 -0.06918370775837528
0.10428001898561212 -0.011814424295356661
0.12593243529722642 0.0073086701923162104
0.15841105976464787 0.0073086701923162104
0.12593243529722642 -0.030937518783029534
0.11510622714141927 -0.1265529912213939
0.12593243529722642 -0.14567608570906676
0.12593243529722642 -0.20304536917208538
0.10428001898561212 -0.20304536917208538
0.10428001898561212 -0.24129155814743114
0.07180139451819069 -0.16479918019673964
0.10428001898561212 -0.1265529912213939
0.08262760267399782 -0.1265529912213939
0.10428001898561212 -0.06918370775837528
0.13675864345303357 -0.06918370775837528
0.10428001898561212 -0.08830680224604816
0.11510622714141927 -0.1265529912213939
0.13675864345303357 -0.20304536917208538
0.11510622714141927 -0.260414652635104
0.09345381082980497 -0.27953774712277685
0.08262760267399782 -0.24129155814743114
0.10428001898561212 -0.22216846365975826
0.10428001898561212 -0.16479918019673964
0.12593243529722642 -0.18392227468441252
0.11510622714141927 -0.16479918019673964
0.13675864345303357 -0.16479918019673964
0.12593243529722642 -0.18392227468441252
0.10428001898561212 -0.260414652635104
0.060975186362383534 -0.33690703058579546
0.060975186362383534 -0.29866084161044976
0.07180139451819069 -0.33690703058579546
0.08262760267399782 -0.29866084161044976
0.08262760267399782 -0.3177839360981226
0.07180139451819069 -0.260414652635104
0.07180139451819069 -0.27953774712277685
0.08262760267399782 -0.22216846365975826
0.10428001898561212 -0.16479918019673964
0.08262760267399782 -0.16479918019673964
0.09345381082980497 -0.1265529912213939
0.11510622714141927 -0.18392227468441252
0.09345381082980497 -0.22216846365975826
0.10428001898561212 -0.24129155814743114
0.09345381082980497 -0.27953774712277685
0.10428001898561212 -0.260414652635104
0.07180139451819069 -0.24129155814743114
0.07180139451819069 -0.22216846365975826
0.07180139451819069 -0.18392227468441252
0.08262760267399782 -0.14567608570906676
0.11510622714141927 -0.14567608570906676
0.11510622714141927 -0.1265529912213939
0.14758485160884072 -0.1265529912213939
0.13675864345303357 -0.18392227468441252
0.14758485160884072 -0.20304536917208538
0.13675864345303357 -0.20304536917208538
0.13675864345303357 -0.22216846365975826
0.16923726792045501 -0.260414652635104
0.13675864345303357 -0.27953774712277685
0.13675864345303357 -0.260414652635104
0.14758485160884072 -0.22216846365975826
0.16923726792045501 -0.22216846365975826
0.15841105976464787 -0.18392227468441252
0.14758485160884072 -0.24129155814743114
0.15841105976464787 -0.24129155814743114
0.13675864345303357 -0.22216846365975826
0.13675864345303357 -0.20304536917208538
0.14758485160884072 -0.22216846365975826
0.16923726792045501 -0.20304536917208538
0.22336830869949076 -0.20304536917208538
0.22336830869949076 -0.20304536917208538
0.24502072501110506 -0.260414652635104
0.2341945168552979 -0.24129155814743114
0.26667314132271935 -0.20304536917208538
0.30997797394594795 -0.18392227468441252
0.30997797394594795 -0.1265529912213939
0.3208041821017551 -0.14567608570906676
0.2774993494785265 -0.14567608570906676
0.28832555763433365 -0.14567608570906676
0.22336830869949076 -0.22216846365975826
0.16923726792045501 -0.24129155814743114
0.16923726792045501 -0.20304536917208538
0.15841105976464787 -0.22216846365975826
0.15841105976464787 -0.22216846365975826
0.20171589238787646 -0.10742989673372103
0.22336830869949076 -0.06918370775837528
0.2341945168552979 0.0073086701923162104
0.2558469331669122 0.026431764679989082
0.28832555763433365 0.0838010481430077
0.28832555763433365 0.04555485916766196
0.28832555763433365 0.04555485916766196
0.30997797394594795 0.026431764679989082
0.28832555763433365 -0.06918370775837528
0.2558469331669122 -0.10742989673372103
0.2125421005436836 -0.14567608570906676
0.16923726792045501 -0.18392227468441252
0.08262760267399782 -0.18392227468441252
0.060975186362383534 -0.16479918019673964
0.028496561894962094 -0.18392227468441252
-0.014808270728266496 -0.18392227468441252
0.028496561894962094 -0.16479918019673964
0.028496561894962094 -0.24129155814743114
0.03932277005076924 -0.24129155814743114
0.017670353739154945 -0.3177839360981226
0.028496561894962094 -0.3177839360981226
0.028496561894962094 -0.3560301250734684
-0.003982062572459349 -0.3751532195611412
-0.03646068703988079 -0.43252250302415984
-0.03646068703988079 -0.4707686919995056
-0.014808270728266496 -0.4707686919995056
-0.025634478884073643 -0.6046303534132157
0.006844145583347798 -0.5855072589255428
0.05014897820657639 -0.3751532195611412
0.18006347607626216 -0.1265529912213939
0.33163039025756225 0.2941550875074093
0.461544888127248 0.791355544186904
0.5806331778411267 1.09732505598967
0.7105476757108123 1.2885560008663988
0.7755049246456552 1.250309811891053
0.7863311328014624 0.8487248276499226
0.7538525083340409 0.06467795365533482
0.6347642186201623 -1.025338432142019
0.5156759289062838 -1.9432469675503168
0.4831973044388623 -2.4213243297421387
0.6564166349317766 -2.2492164793530827
0.9812028796059911 -1.5607850777968593
1.425077413994084 -0.5472610699501971
1.9555616136286345 0.5810015048225023
2.4968720214189917 1.537156229206146
3.0490086373651564 2.3785723866637523
3.5686666288438995 2.9522652212939384
4.055845995855221 3.3729733000227418
4.521372946554928 3.640696622850162
4.911116440163986 3.6980659063131807
5.149293019591743 3.5833273393871434
5.203424060370779 3.2391116386090317
5.1276406032801285 2.8184035598802284
4.900290232008178 2.282956914225388
4.532199154710735 1.7666333630582205
4.055845995855221 1.2694329063787257
3.4928831717532494 0.8487248276499226
2.9082679313396635 0.40889365443344655
2.3236526909260773 0.16029342609369918
1.78234228313572 0.026431764679989082
1.273510499812784 -0.08830680224604816
0.8079835491130767 -0.24129155814743114
0.38576143103659793 -0.3560301250734684
0.017670353739154945 -0.5472610699501971
-0.3071158909350595 -0.7193689203392529
-0.5344662622070095 -0.8723536762406359
-0.6860331763883096 -1.0062153376543461
-0.7185118008557311 -1.025338432142019
-0.7509904253231525 -1.0062153376543461
-0.7618166334789597 -0.9297229597036545
-0.7076855926999239 -0.8149843927776173
-0.6968593845441168 -0.6811227313639072
-0.6210759274534667 -0.5472610699501971
-0.5344662622070095 -0.33690703058579546
-0.45868280511635956 -0.27953774712277685
-0.41537797249313096 -0.10742989673372103
-0.4045517643373238 -0.06918370775837528
-0.3612469317140952 -0.030937518783029534
-0.35042072355828807 -0.06918370775837528
-0.37207313986990237 -0.08830680224604816
-0.37207313986990237 -0.1265529912213939
-0.39372555618151667 -0.1265529912213939
-0.39372555618151667 -0.16479918019673964
-0.41537797249313096 -0.1265529912213939
-0.4045517643373238 -0.06918370775837528
-0.3612469317140952 -0.05006061327070241
-0.35042072355828807 0.026431764679989082
-0.3395945154024809 0.026431764679989082
-0.3287683072466738 0.04555485916766196
-0.3395945154024809 0.04555485916766196
-0.39372555618151667 0.06467795365533482
-0.3828993480257095 0.04555485916766196
-0.4045517643373238 -0.030937518783029534
-0.41537797249313096 -0.011814424295356661
-0.4262041806489381 -0.011814424295356661
-0.43703038880474526 -0.011814424295356661
-0.4262041806489381 -0.011814424295356661
-0.41537797249313096 0.0073086701923162104
-0.39372555618151667 0.0073086701923162104
-0.39372555618151667 0.026431764679989082
-0.3828993480257095 0.026431764679989082
-0.3828993480257095 0.026431764679989082
-0.4045517643373238 0.0073086701923162104
-0.41537797249313096 -0.05006061327070241
-0.41537797249313096 -0.05006061327070241
-0.43703038880474526 -0.08830680224604816
-0.4478565969605524 -0.08830680224604816
-0.4695090132721667 -0.05006061327070241
-0.4695090132721667 -0.06918370775837528
-0.4695090132721667 -0.06918370775837528
-0.4478565969605524 -0.05006061327070241
-0.4478565969605524 -0.05006061327070241
-0.43703038880474526 -0.030937518783029534
-0.4695090132721667 -0.05006061327070241
-0.45868280511635956 -0.10742989673372103
-0.48033522142797386 -0.14567608570906676
-0.5019876377395881 -0.20304536917208538
-0.491161429583781 -0.260414652635104
-0.5128138458953952 -0.260414652635104
-0.5128138458953952 -0.24129155814743114
-0.5344662622070095 -0.27953774712277685
-0.5236400540512024 -0.27953774712277685
-0.5128138458953952 -0.20304536917208538
-0.5128138458953952 -0.24129155814743114
-0.5128138458953952 -0.20304536917208538
-0.5128138458953952 -0.27953774712277685
-0.5452924703628167 -0.27953774712277685
-0.5561186785186238 -0.33690703058579546
-0.5777710948302381 -0.39427631404881414
-0.566944886674431 -0.43252250302415984
-0.5885973029860453 -0.45164559751183275
-0.5777710948302381 -0.43252250302415984
-0.5994235111418524 -0.43252250302415984
-0.5777710948302381 -0.45164559751183275
-0.566944886674431 -0.4707686919995056
-0.5561186785186238 -0.43252250302415984
-0.5452924703628167 -0.45164559751183275
-0.566944886674431 -0.5281379754625242
-0.5777710948302381 -0.5281379754625242
-0.5885973029860453 -0.6237534479008886
-0.6319021356092739 -0.6619996368762343
-0.6210759274534667 -0.70024582585158
-0.6210759274534667 -0.7767382038022715
-0.642728343765081 -0.7576151093145986
-0.6319021356092739 -0.7576151093145986
-0.6643807600766953 -0.7384920148269258
-0.6210759274534667 -0.6811227313639072
-0.6102497192976596 -0.70024582585158
-0.5994235111418524 -0.70024582585158
-0.5777710948302381 -0.7384920148269258
-0.5561186785186238 -0.8149843927776173
-0.5561186785186238 -0.9297229597036545
-0.5561186785186238 -0.9297229597036545
-0.5019876377395881 -0.9105998652159817
-0.5128138458953952 -0.9297229597036545
-0.491161429583781 -0.8914767707283088
-0.5128138458953952 -0.8914767707283088
-0.491161429583781 -0.8914767707283088
-0.45868280511635956 -0.8914767707283088
-0.4262041806489381 -0.8914767707283088
-0.37207313986990237 -0.8914767707283088
-0.3179420990908666 -0.8723536762406359
-0.3179420990908666 -0.8723536762406359
-0.2638110583118309 -0.9105998652159817
-0.27463726646763803 -0.8914767707283088
-0.25298485015602373 -0.8723536762406359
-0.2205062256886023 -0.7767382038022715
-0.2205062256886023 -0.7767382038022715
-0.17720139306537372 -0.70024582585158
-0.12307035228633798 -0.6428765423885614
-0.12307035228633798 -0.6237534479008886
-0.06893931150730223 -0.6046303534132157
-0.003982062572459349 -0.56638416443787
0.017670353739154945 -0.56638416443787
0.060975186362383534 -0.56638416443787
0.09345381082980497 -0.5281379754625242
0.12593243529722642 -0.5281379754625242
0.12593243529722642 -0.5281379754625242
0.12593243529722642 -0.5090148809748514
0.14758485160884072 -0.5281379754625242
0.16923726792045501 -0.48989178648717846
0.16923726792045501 -0.45164559751183275
0.1908896842320693 -0.43252250302415984
0.2125421005436836 -0.413399408536487
0.22336830869949076 -0.3560301250734684
0.22336830869949076 -0.3751532195611412
0.1908896842320693 -0.413399408536487
0.20171589238787646 -0.39427631404881414
0.16923726792045501 -0.45164559751183275
0.16923726792045501 -0.4707686919995056
0.14758485160884072 -0.5090148809748514
0.12593243529722642 -0.5472610699501971
0.09345381082980497 -0.5281379754625242
0.060975186362383534 -0.48989178648717846
0.05014897820657639 -0.5090148809748514
0.03932277005076924 -0.4707686919995056
0.028496561894962094 -0.43252250302415984
0.006844145583347798 -0.43252250302415984
0.006844145583347798 -0.43252250302415984
-0.03646068703988079 -0.48989178648717846
-0.05811310335149509 -0.56638416443787
-0.09059172781891653 -0.6046303534132157
-0.13389656044214512 -0.6619996368762343
-0.19885380937698802 -0.6619996368762343
-0.2205062256886023 -0.6428765423885614
-0.2638110583118309 -0.5855072589255428
-0.23133243384440944 -0.4707686919995056
-0.20968001753279517 -0.5090148809748514
-0.17720139306537372 -0.48989178648717846
-0.18802760122118087 -0.45164559751183275
-0.20968001753279517 -0.56638416443787
-0.23133243384440944 -0.56638416443787
-0.2638110583118309 -0.6046303534132157
-0.27463726646763803 -0.6237534479008886
-0.2854634746234452 -0.6428765423885614
-0.3071158909350595 -0.6046303534132157
-0.3071158909350595 -0.56638416443787
-0.29628968277925233 -0.56638416443787
-0.3071158909350595 -0.48989178648717846
-0.2854634746234452 -0.5090148809748514
-0.3071158909350595 -0.45164559751183275
-0.2854634746234452 -0.45164559751183275
-0.2854634746234452 -0.5090148809748514
-0.3179420990908666 -0.56638416443787
-0.2854634746234452 -0.5472610699501971
-0.29628968277925233 -0.56638416443787
-0.3071158909350595 -0.56638416443787
-0.29628968277925233 -0.5281379754625242
-0.27463726646763803 -0.5090148809748514
-0.2854634746234452 -0.4707686919995056
-0.2638110583118309 -0.43252250302415984
-0.20968001753279517 -0.413399408536487
-0.19885380937698802 -0.413399408536487
-0.15554897675375942 -0.39427631404881414
-0.19885380937698802 -0.43252250302415984
-0.17720139306537372 -0.413399408536487
-0.18802760122118087 -0.45164559751183275
-0.20968001753279517 -0.4707686919995056
-0.23133243384440944 -0.45164559751183275
-0.23133243384440944 -0.43252250302415984
-0.23133243384440944 -0.3560301250734684
-0.20968001753279517 -0.27953774712277685
-0.19885380937698802 -0.260414652635104
-0.18802760122118087 -0.27953774712277685
