-0.2205062256886023 0.16029342609369918
-0.24215864200021658 0.14117033160602632
-0.3071158909350595 0.12204723711835344
-0.3287683072466738 0.10292414263068057
-0.3287683072466738 0.04555485916766196
-0.3612469317140952 0.026431764679989082
-0.39372555618151667 0.04555485916766196
-0.41537797249313096 0.06467795365533482
-0.41537797249313096 0.0838010481430077
-0.41537797249313096 0.17941652058137206
-0.41537797249313096 0.23678580404439067
-0.41537797249313096 0.2176627095567178
-0.4262041806489381 0.19853961506904494
-0.43703038880474526 0.19853961506904494
-0.45868280511635956 0.16029342609369918
-0.48033522142797386 0.10292414263068057
-0.4695090132721667 0.04555485916766196
-0.4695090132721667 0.06467795365533482
-0.5019876377395881 0.14117033160602632
-0.491161429583781 0.14117033160602632
-0.4695090132721667 0.23678580404439067
-0.491161429583781 0.2176627095567178
-0.43703038880474526 0.23678580404439067
-0.45868280511635956 0.2941550875074093
-0.4262041806489381 0.2750319930197364
-0.4262041806489381 0.25590889853206356
-0.4478565969605524 0.16029342609369918
-0.4695090132721667 0.14117033160602632
-0.45868280511635956 0.16029342609369918
-0.43703038880474526 0.12204723711835344
-0.4262041806489381 0.14117033160602632
-0.43703038880474526 0.23678580404439067
-0.41537797249313096 0.25590889853206356
-0.39372555618151667 0.2750319930197364
-0.3828993480257095 0.31327818199508217
-0.37207313986990237 0.35152437097042794
-0.3395945154024809 0.332401276482755
-0.3612469317140952 0.2941550875074093
-0.37207313986990237 0.2750319930197364
-0.3612469317140952 0.25590889853206356
-0.3828993480257095 0.25590889853206356
-0.3828993480257095 0.2941550875074093
-0.3828993480257095 0.25590889853206356
-0.37207313986990237 0.332401276482755
-0.37207313986990237 0.31327818199508217
-0.3612469317140952 0.332401276482755
-0.35042072355828807 0.3706474654581008
-0.3612469317140952 0.38977055994577364
-0.3287683072466738 0.38977055994577364
-0.3395945154024809 0.38977055994577364
-0.3395945154024809 0.38977055994577364
-0.3395945154024809 0.332401276482755
-0.35042072355828807 0.2941550875074093
-0.3395945154024809 0.35152437097042794
-0.3612469317140952 0.38977055994577364
-0.35042072355828807 0.3706474654581008
-0.3287683072466738 0.40889365443344655
-0.29628968277925233 0.38977055994577364
-0.3071158909350595 0.38977055994577364
-0.2854634746234452 0.44713984340879226
-0.27463726646763803 0.4280167489211194
-0.29628968277925233 0.40889365443344655
-0.27463726646763803 0.44713984340879226
-0.3179420990908666 0.38977055994577364
-0.29628968277925233 0.3706474654581008
-0.29628968277925233 0.3706474654581008
-0.2854634746234452 0.35152437097042794
-0.29628968277925233 0.35152437097042794
-0.2854634746234452 0.40889365443344655
-0.27463726646763803 0.40889365443344655
-0.2638110583118309 0.485386032384138
-0.2638110583118309 0.5045091268718109
-0.24215864200021658 0.485386032384138
-0.25298485015602373 0.5427553158471566
-0.24215864200021658 0.485386032384138
-0.27463726646763803 0.46626293789646517
-0.2638110583118309 0.4280167489211194
-0.29628968277925233 0.40889365443344655
-0.3071158909350595 0.38977055994577364
-0.2854634746234452 0.40889365443344655
-0.27463726646763803 0.44713984340879226
-0.2638110583118309 0.44713984340879226
-0.25298485015602373 0.5236322213594837
-0.24215864200021658 0.5810015048225023
-0.2205062256886023 0.5045091268718109
-0.2205062256886023 0.5236322213594837
-0.25298485015602373 0.4280167489211194
-0.2854634746234452 0.4280167489211194
-0.27463726646763803 0.3706474654581008
-0.2854634746234452 0.35152437097042794
-0.29628968277925233 0.35152437097042794
-0.2854634746234452 0.3706474654581008
-0.27463726646763803 0.3706474654581008
-0.25298485015602373 0.44713984340879226
-0.2638110583118309 0.5045091268718109
-0.24215864200021658 0.5045091268718109
-0.25298485015602373 0.5045091268718109
-0.24215864200021658 0.4280167489211194
-0.2638110583118309 0.3706474654581008
-0.23133243384440944 0.3706474654581008
-0.25298485015602373 0.3706474654581008
-0.2638110583118309 0.332401276482755
-0.2638110583118309 0.332401276482755
-0.25298485015602373 0.38977055994577364
-0.2638110583118309 0.4280167489211194
-0.25298485015602373 0.46626293789646517
-0.24215864200021658 0.46626293789646517
-0.24215864200021658 0.46626293789646517
-0.20968001753279517 0.44713984340879226
-0.23133243384440944 0.3706474654581008
-0.24215864200021658 0.3706474654581008
-0.25298485015602373 0.38977055994577364
-0.2638110583118309 0.3706474654581008
-0.24215864200021658 0.3706474654581008
-0.25298485015602373 0.44713984340879226
-0.25298485015602373 0.40889365443344655
-0.27463726646763803 0.40889365443344655
-0.23133243384440944 0.38977055994577364
-0.23133243384440944 0.38977055994577364
-0.2205062256886023 0.4280167489211194
-0.20968001753279517 0.4280167489211194
-0.2205062256886023 0.40889365443344655
-0.23133243384440944 0.3706474654581008
-0.24215864200021658 0.35152437097042794
-0.25298485015602373 0.38977055994577364
-0.23133243384440944 0.38977055994577364
-0.25298485015602373 0.31327818199508217
-0.2638110583118309 0.2941550875074093
-0.27463726646763803 0.332401276482755
-0.27463726646763803 0.3706474654581008
-0.25298485015602373 0.4280167489211194
-0.2205062256886023 0.485386032384138
-0.2205062256886023 0.4280167489211194
-0.20968001753279517 0.40889365443344655
-0.20968001753279517 0.44713984340879226
-0.20968001753279517 0.3706474654581008
-0.2205062256886023 0.38977055994577364
-0.23133243384440944 0.2941550875074093
-0.24215864200021658 0.2941550875074093
-0.23133243384440944 0.35152437097042794
-0.25298485015602373 0.38977055994577364
-0.23133243384440944 0.44713984340879226
-0.25298485015602373 0.485386032384138
-0.2205062256886023 0.5045091268718109
-0.20968001753279517 0.46626293789646517
-0.20968001753279517 0.44713984340879226
-0.2205062256886023 0.38977055994577364
-0.25298485015602373 0.35152437097042794
-0.2638110583118309 0.2941550875074093
-0.23133243384440944 0.2941550875074093
-0.25298485015602373 0.31327818199508217
-0.24215864200021658 0.35152437097042794
-0.25298485015602373 0.4280167489211194
-0.25298485015602373 0.46626293789646517
-0.23133243384440944 0.46626293789646517
-0.20968001753279517 0.485386032384138
-0.20968001753279517 0.44713984340879226
-0.20968001753279517 0.38977055994577364
-0.19885380937698802 0.35152437097042794
-0.2205062256886023 0.35152437097042794
-0.24215864200021658 0.35152437097042794
-0.2638110583118309 0.3706474654581008
-0.25298485015602373 0.332401276482755
-0.27463726646763803 0.35152437097042794
-0.2638110583118309 0.44713984340879226
-0.2205062256886023 0.44713984340879226
-0.20968001753279517 0.40889365443344655
-0.20968001753279517 0.46626293789646517
-0.18802760122118087 0.4280167489211194
-0.18802760122118087 0.38977055994577364
-0.20968001753279517 0.40889365443344655
-0.18802760122118087 0.38977055994577364
-0.20968001753279517 0.40889365443344655
-0.23133243384440944 0.3706474654581008
-0.2205062256886023 0.38977055994577364
-0.19885380937698802 0.38977055994577364
-0.20968001753279517 0.38977055994577364
-0.17720139306537372 0.40889365443344655
-0.15554897675375942 0.40889365443344655
-0.16637518490956657 0.4280167489211194
-0.11224414413053083 0.44713984340879226
-0.15554897675375942 0.4280167489211194
-0.17720139306537372 0.4280167489211194
-0.17720139306537372 0.38977055994577364
-0.15554897675375942 0.44713984340879226
-0.11224414413053083 0.485386032384138
-0.10141793597472368 0.44713984340879226
-0.09059172781891653 0.44713984340879226
-0.09059172781891653 0.46626293789646517
-0.05811310335149509 0.485386032384138
-0.04728689519568794 0.46626293789646517
-0.03646068703988079 0.5427553158471566
-0.03646068703988079 0.5618784103348295
-0.04728689519568794 0.5236322213594837
-0.05811310335149509 0.485386032384138
-0.10141793597472368 0.44713984340879226
-0.11224414413053083 0.3706474654581008
-0.14472276859795227 0.40889365443344655
-0.17720139306537372 0.3706474654581008
-0.16637518490956657 0.40889365443344655
-0.16637518490956657 0.40889365443344655
-0.14472276859795227 0.485386032384138
-0.11224414413053083 0.5236322213594837
-0.06893931150730223 0.6001245993101753
-0.04728689519568794 0.6574938827731939
-0.014808270728266496 0.6574938827731939
0.017670353739154945 0.6766169772608668
0.006844145583347798 0.6574938827731939
-0.025634478884073643 0.5810015048225023
-0.025634478884073643 0.5427553158471566
-0.06893931150730223 0.5236322213594837
-0.11224414413053083 0.5236322213594837
-0.12307035228633798 0.5045091268718109
-0.14472276859795227 0.5427553158471566
-0.16637518490956657 0.5045091268718109
-0.19885380937698802 0.5427553158471566
-0.20968001753279517 0.46626293789646517
-0.24215864200021658 0.5045091268718109
-0.25298485015602373 0.38977055994577364
-0.27463726646763803 0.35152437097042794
-0.27463726646763803 0.332401276482755
-0.27463726646763803 0.25590889853206356
-0.29628968277925233 0.2750319930197364
-0.29628968277925233 0.31327818199508217
-0.29628968277925233 0.31327818199508217
-0.2638110583118309 0.35152437097042794
-0.24215864200021658 0.332401276482755
-0.25298485015602373 0.35152437097042794
-0.24215864200021658 0.31327818199508217
-0.2854634746234452 0.16029342609369918
-0.3179420990908666 0.026431764679989082
-0.3395945154024809 -0.011814424295356661
-0.3071158909350595 0.0838010481430077
-0.2205062256886023 0.332401276482755
-0.03646068703988079 0.6574938827731939
0.18006347607626216 1.059078867014324
0.3749352228807908 1.384171473304763
0.5265021370620909 1.537156229206146
0.6564166349317766 1.5945255126691646
0.7213738838666195 1.403294567792436
0.7213738838666195 0.944340300088287
0.5481545533737052 0.2176627095567178
0.22336830869949076 -0.7576151093145986
-0.10141793597472368 -1.7520160226735881
-0.3287683072466738 -2.4595705187174843
-0.3287683072466738 -2.689047652569559
-0.09059172781891653 -2.4213243297421387
0.40741384734821223 -1.7520160226735881
1.035333920385027 -0.9105998652159817
1.7390374505124915 -0.1265529912213939
2.3994361480167274 0.6192476937978482
3.0706610536767704 1.078201961501997
3.676928710401971 1.2694329063787257
4.218239118192328 1.2694329063787257
4.662113652580421 1.1355712449650157
4.889464023852371 0.9060941111129412
4.954421272787214 0.5236322213594837
4.846159191229143 0.25590889853206356
4.532199154710735 0.04555485916766196
4.153281869257485 -0.06918370775837528
3.611971461467128 -0.030937518783029534
3.038182429209349 0.0838010481430077
2.4860458132631846 0.16029342609369918
1.9663878217844415 0.2750319930197364
1.4359036221498913 0.38977055994577364
0.9270718388269553 0.44713984340879226
0.40741384734821223 0.4280167489211194
-0.11224414413053083 0.31327818199508217
-0.4695090132721667 0.17941652058137206
-0.7726428416347668 0.06467795365533482
-0.9566883802834883 -0.030937518783029534
-0.9891670047509098 -0.06918370775837528
-0.9675145884392955 0.026431764679989082
-0.9025573395044526 0.16029342609369918
-0.8267738824138026 0.35152437097042794
-0.7726428416347668 0.44713984340879226
-0.7076855926999239 0.5618784103348295
-0.642728343765081 0.5810015048225023
-0.6210759274534667 0.6957400717485396
-0.5561186785186238 0.6957400717485396
-0.5452924703628167 0.791355544186904
-0.5128138458953952 0.791355544186904
-0.5019876377395881 0.791355544186904
-0.5019876377395881 0.8487248276499226
-0.5019876377395881 0.8487248276499226
-0.5128138458953952 0.925217205600614
-0.491161429583781 0.925217205600614
-0.48033522142797386 0.944340300088287
-0.48033522142797386 0.9634633945759599
-0.45868280511635956 0.944340300088287
-0.491161429583781 1.0017095835513055
-0.5128138458953952 0.944340300088287
-0.5019876377395881 0.944340300088287
-0.5344662622070095 0.9060941111129412
-0.5452924703628167 0.944340300088287
-0.5452924703628167 0.9634633945759599
-0.5344662622070095 0.9825864890636327
-0.5019876377395881 0.9825864890636327
-0.5236400540512024 1.0017095835513055
-0.48033522142797386 1.0208326780389785
-0.491161429583781 1.078201961501997
-0.48033522142797386 1.059078867014324
-0.48033522142797386 1.0399557725266513
-0.5019876377395881 1.0208326780389785
-0.5452924703628167 1.059078867014324
-0.566944886674431 1.0208326780389785
-0.5777710948302381 1.0208326780389785
-0.5452924703628167 1.0208326780389785
-0.5344662622070095 1.0399557725266513
-0.5344662622070095 1.059078867014324
-0.5128138458953952 1.0017095835513055
-0.491161429583781 1.0208326780389785
-0.5019876377395881 1.0208326780389785
-0.5019876377395881 1.0208326780389785
-0.5128138458953952 1.0208326780389785
-0.5236400540512024 0.9825864890636327
-0.5561186785186238 0.9825864890636327
-0.5777710948302381 0.944340300088287
-0.5994235111418524 0.9634633945759599
-0.5994235111418524 0.944340300088287
-0.5994235111418524 1.0017095835513055
-0.5885973029860453 0.9825864890636327
-0.6102497192976596 0.9060941111129412
-0.5885973029860453 0.9825864890636327
-0.5885973029860453 0.9634633945759599
-0.6102497192976596 0.9634633945759599
-0.6102497192976596 0.944340300088287
-0.6210759274534667 0.8678479221375954
-0.6535545519208882 0.8678479221375954
-0.6860331763883096 0.8296017331622497
-0.7185118008557311 0.7148631662362125
-0.7293380090115382 0.7339862607238854
-0.7293380090115382 0.7531093552115582
-0.7185118008557311 0.7339862607238854
-0.7076855926999239 0.8104786386745768
-0.6968593845441168 0.791355544186904
-0.6752069682325025 0.8104786386745768
-0.7076855926999239 0.7531093552115582
-0.7401642171673454 0.6957400717485396
-0.7509904253231525 0.6766169772608668
-0.7726428416347668 0.638370788285521
-0.7726428416347668 0.5618784103348295
-0.8051214661021883 0.5236322213594837
-0.8376000905696097 0.5236322213594837
-0.8484262987254169 0.5045091268718109
-0.8376000905696097 0.5618784103348295
-0.8159476742579954 0.5427553158471566
-0.8051214661021883 0.5618784103348295
-0.8267738824138026 0.5427553158471566
-0.8376000905696097 0.46626293789646517
-0.8376000905696097 0.3706474654581008
-0.8484262987254169 0.31327818199508217
-0.859252506881224 0.16029342609369918
-0.8809049231928383 0.19853961506904494
-0.8700787150370312 0.16029342609369918
-0.8700787150370312 0.2176627095567178
-0.859252506881224 0.23678580404439067
-0.8484262987254169 0.23678580404439067
-0.8267738824138026 0.23678580404439067
-0.8051214661021883 0.25590889853206356
-0.783469049790574 0.19853961506904494
-0.7726428416347668 0.12204723711835344
-0.7618166334789597 0.04555485916766196
-0.7509904253231525 0.026431764679989082
-0.7293380090115382 0.0073086701923162104
-0.7185118008557311 -0.06918370775837528
-0.7076855926999239 -0.030937518783029534
-0.6968593845441168 -0.030937518783029534
-0.6643807600766953 -0.030937518783029534
-0.6102497192976596 0.06467795365533482
-0.566944886674431 0.026431764679989082
-0.5344662622070095 0.026431764679989082
-0.491161429583781 0.0073086701923162104
-0.4478565969605524 -0.011814424295356661
-0.4262041806489381 -0.011814424295356661
-0.3828993480257095 -0.05006061327070241
-0.3612469317140952 -0.10742989673372103
-0.3287683072466738 -0.1265529912213939
-0.3179420990908666 -0.14567608570906676
-0.3287683072466738 -0.05006061327070241
-0.29628968277925233 0.0073086701923162104
-0.24215864200021658 0.0073086701923162104
-0.18802760122118087 0.026431764679989082
-0.15554897675375942 0.04555485916766196
-0.10141793597472368 0.04555485916766196
-0.11224414413053083 -0.011814424295356661
-0.06893931150730223 0.026431764679989082
-0.03646068703988079 0.026431764679989082
-0.06893931150730223 0.0073086701923162104
-0.03646068703988079 -0.011814424295356661
-0.03646068703988079 0.026431764679989082
-0.04728689519568794 0.04555485916766196
-0.05811310335149509 0.04555485916766196
-0.03646068703988079 0.06467795365533482
-0.025634478884073643 0.06467795365533482
-0.003982062572459349 0.0838010481430077
0.006844145583347798 0.06467795365533482
-0.025634478884073643 0.04555485916766196
-0.025634478884073643 0.026431764679989082
-0.04728689519568794 0.04555485916766196
-0.05811310335149509 0.04555485916766196
-0.11224414413053083 0.06467795365533482
-0.16637518490956657 0.0073086701923162104
-0.20968001753279517 0.06467795365533482
-0.23133243384440944 0.0073086701923162104
-0.2638110583118309 0.026431764679989082
-0.29628968277925233 0.04555485916766196
-0.3071158909350595 0.0838010481430077
-0.3179420990908666 0.12204723711835344
-0.35042072355828807 0.12204723711835344
-0.3612469317140952 0.10292414263068057
-0.39372555618151667 0.04555485916766196
-0.43703038880474526 0.026431764679989082
-0.5019876377395881 -0.030937518783029534
-0.5236400540512024 -0.030937518783029534
-0.5344662622070095 -0.011814424295356661
-0.5452924703628167 0.04555485916766196
-0.5344662622070095 0.0073086701923162104
-0.5561186785186238 0.10292414263068057
-0.5344662622070095 0.14117033160602632
-0.5452924703628167 0.12204723711835344
-0.5452924703628167 0.0073086701923162104
-0.5561186785186238 -0.030937518783029534
-0.5561186785186238 -0.011814424295356661
-0.5885973029860453 -0.06918370775837528
-0.5885973029860453 -0.06918370775837528
-0.6319021356092739 -0.05006061327070241
-0.5885973029860453 0.0073086701923162104
-0.5885973029860453 0.04555485916766196
-0.566944886674431 0.04555485916766196
-0.5452924703628167 0.14117033160602632
-0.5344662622070095 0.19853961506904494
-0.5236400540512024 0.19853961506904494
-0.5128138458953952 0.12204723711835344
-0.5128138458953952 0.10292414263068057
-0.5128138458953952 0.0073086701923162104
-0.5019876377395881 0.026431764679989082
-0.5236400540512024 0.0073086701923162104
-0.5128138458953952 -0.011814424295356661
-0.5019876377395881 0.0838010481430077
-0.5019876377395881 0.14117033160602632
-0.491161429583781 0.16029342609369918
-0.4695090132721667 0.14117033160602632
-0.45868280511635956 0.17941652058137206
-0.41537797249313096 0.16029342609369918
-0.41537797249313096 0.14117033160602632
-0.39372555618151667 0.12204723711835344
-0.39372555618151667 0.0838010481430077
-0.39372555618151667 0.12204723711835344
-0.4045517643373238 0.14117033160602632
-0.4045517643373238 0.16029342609369918
-0.4045517643373238 0.2176627095567178
-0.3828993480257095 0.2176627095567178
-0.39372555618151667 0.2750319930197364
-0.37207313986990237 0.25590889853206356
-0.3612469317140952 0.2941550875074093
-0.3179420990908666 0.2750319930197364
-0.3179420990908666 0.2176627095567178
-0.3287683072466738 0.2176627095567178
-0.3395945154024809 0.2176627095567178
-0.3612469317140952 0.2176627095567178
-0.35042072355828807 0.2176627095567178
-0.35042072355828807 0.25590889853206356
-0.35042072355828807 0.2750319930197364
-0.35042072355828807 0.2941550875074093
-0.3395945154024809 0.31327818199508217
-0.35042072355828807 0.31327818199508217
-0.35042072355828807 0.31327818199508217
-0.3287683072466738 0.2941550875074093
-0.3179420990908666 0.2941550875074093
-0.3071158909350595 0.25590889853206356
-0.29628968277925233 0.25590889853206356
-0.3179420990908666 0.25590889853206356
-0.3179420990908666 0.25590889853206356
-0.3287683072466738 0.25590889853206356
-0.3395945154024809 0.2176627095567178
-0.3287683072466738 0.2750319930197364
-0.3395945154024809 0.2750319930197364
-0.3287683072466738 0.332401276482755
-0.3071158909350595 0.3706474654581008
-0.3071158909350595 0.3706474654581008
-0.27463726646763803 0.38977055994577364
-0.2854634746234452 0.332401276482755
-0.29628968277925233 0.2941550875074093
-0.29628968277925233 0.23678580404439067
-0.3179420990908666 0.23678580404439067
-0.3071158909350595 0.25590889853206356
-0.3179420990908666 0.2750319930197364
-0.29628968277925233 0.332401276482755
-0.29628968277925233 0.332401276482755
-0.2638110583118309 0.40889365443344655
-0.24215864200021658 0.38977055994577364
-0.23133243384440944 0.40889365443344655
-0.24215864200021658 0.332401276482755
-0.25298485015602373 0.332401276482755
-0.25298485015602373 0.31327818199508217
-0.25298485015602373 0.332401276482755
-0.27463726646763803 0.25590889853206356
-0.2854634746234452 0.2750319930197364
-0.2854634746234452 0.332401276482755
-0.27463726646763803 0.3706474654581008
-0.2854634746234452 0.44713984340879226
-0.25298485015602373 0.38977055994577364
-0.24215864200021658 0.38977055994577364
-0.20968001753279517 0.40889365443344655
-0.19885380937698802 0.3706474654581008
-0.19885380937698802 0.332401276482755
-0.20968001753279517 0.332401276482755
-0.19885380937698802 0.31327818199508217
-0.23133243384440944 0.2941550875074093
-0.25298485015602373 0.31327818199508217
-0.27463726646763803 0.31327818199508217
-0.25298485015602373 0.38977055994577364
-0.24215864200021658 0.40889365443344655
-0.2205062256886023 0.4280167489211194
-0.2205062256886023 0.40889365443344655
-0.20968001753279517 0.4280167489211194
-0.23133243384440944 0.35152437097042794
-0.25298485015602373 0.2941550875074093
-0.19885380937698802 0.332401276482755
-0.23133243384440944 0.2941550875074093
-0.25298485015602373 0.2941550875074093
-0.25298485015602373 0.2750319930197364
-0.25298485015602373 0.31327818199508217
-0.23133243384440944 0.35152437097042794
-0.20968001753279517 0.40889365443344655
-0.20968001753279517 0.3706474654581008
-0.19885380937698802 0.35152437097042794
-0.19885380937698802 0.31327818199508217
-0.19885380937698802 0.332401276482755
-0.19885380937698802 0.31327818199508217
-0.20968001753279517 0.2750319930197364
-0.20968001753279517 0.2941550875074093
-0.24215864200021658 0.23678580404439067
-0.23133243384440944 0.25590889853206356
-0.23133243384440944 0.35152437097042794
-0.20968001753279517 0.3706474654581008
-0.23133243384440944 0.3706474654581008
-0.23133243384440944 0.3706474654581008
-0.2205062256886023 0.3706474654581008
-0.19885380937698802 0.3706474654581008
-0.19885380937698802 0.332401276482755
-0.2205062256886023 0.35152437097042794
-0.2205062256886023 0.35152437097042794
-0.24215864200021658 0.2941550875074093
-0.2205062256886023 0.2941550875074093
-0.23133243384440944 0.35152437097042794
-0.23133243384440944 0.332401276482755
-0.2205062256886023 0.2941550875074093
-0.18802760122118087 0.35152437097042794
-0.20968001753279517 0.3706474654581008
-0.19885380937698802 0.40889365443344655
-0.17720139306537372 0.38977055994577364
-0.16637518490956657 0.3706474654581008
-0.17720139306537372 0.35152437097042794
-0.2205062256886023 0.332401276482755
-0.23133243384440944 0.332401276482755
-0.23133243384440944 0.31327818199508217
-0.23133243384440944 0.2941550875074093
-0.20968001753279517 0.2750319930197364
-0.20968001753279517 0.2941550875074093
-0.2205062256886023 0.332401276482755
-0.20968001753279517 0.35152437097042794
-0.18802760122118087 0.38977055994577364
-0.17720139306537372 0.44713984340879226
-0.17720139306537372 0.4280167489211194
-0.16637518490956657 0.38977055994577364
-0.19885380937698802 0.332401276482755
-0.18802760122118087 0.31327818199508217
-0.20968001753279517 0.25590889853206356
-0.24215864200021658 0.2176627095567178
-0.20968001753279517 0.2941550875074093
-0.20968001753279517 0.332401276482755
-0.18802760122118087 0.38977055994577364
-0.17720139306537372 0.4280167489211194
-0.14472276859795227 0.44713984340879226
-0.15554897675375942 0.40889365443344655
-0.12307035228633798 0.40889365443344655
-0.13389656044214512 0.38977055994577364
-0.13389656044214512 0.2750319930197364
-0.13389656044214512 0.23678580404439067
-0.14472276859795227 0.2176627095567178
-0.15554897675375942 0.2941550875074093
-0.15554897675375942 0.25590889853206356
-0.17720139306537372 0.35152437097042794
-0.17720139306537372 0.3706474654581008
-0.15554897675375942 0.46626293789646517
-0.13389656044214512 0.485386032384138
-0.09059172781891653 0.4280167489211194
-0.06893931150730223 0.35152437097042794
-0.05811310335149509 0.35152437097042794
-0.03646068703988079 0.31327818199508217
-0.04728689519568794 0.2750319930197364
-0.03646068703988079 0.35152437097042794
-0.03646068703988079 0.38977055994577364
-0.04728689519568794 0.4280167489211194
-0.04728689519568794 0.40889365443344655
-0.06893931150730223 0.46626293789646517
-0.07976551966310938 0.44713984340879226
-0.07976551966310938 0.46626293789646517
-0.05811310335149509 0.46626293789646517
-0.05811310335149509 0.4280167489211194
-0.07976551966310938 0.4280167489211194
-0.10141793597472368 0.4280167489211194
-0.09059172781891653 0.44713984340879226
-0.10141793597472368 0.44713984340879226
-0.10141793597472368 0.485386032384138
-0.04728689519568794 0.5236322213594837
-0.014808270728266496 0.5810015048225023
0.006844145583347798 0.6574938827731939
0.006844145583347798 0.638370788285521
0.017670353739154945 0.6766169772608668
-0.003982062572459349 0.6001245993101753
-0.014808270728266496 0.5236322213594837
-0.05811310335149509 0.46626293789646517
-0.11224414413053083 0.44713984340879226
-0.14472276859795227 0.40889365443344655
-0.17720139306537372 0.4280167489211194
-0.19885380937698802 0.38977055994577364
-0.20968001753279517 0.38977055994577364
-0.23133243384440944 0.38977055994577364
-0.2205062256886023 0.4280167489211194
-0.20968001753279517 0.40889365443344655
-0.16637518490956657 0.44713984340879226
-0.15554897675375942 0.44713984340879226
-0.15554897675375942 0.38977055994577364
-0.16637518490956657 0.35152437097042794
-0.17720139306537372 0.2941550875074093
-0.2205062256886023 0.2176627095567178
-0.27463726646763803 0.12204723711835344
-0.29628968277925233 0.06467795365533482
-0.2638110583118309 0.10292414263068057
-0.18802760122118087 0.35152437097042794
0.006844145583347798 0.7339862607238854
0.24502072501110506 1.2694329063787257
0.4940235125946694 1.6518947961321833
0.7213738838666195 1.8048795520335663
0.8729407980479196 1.7475102685705477
0.905419422515341 1.384171473304763
0.7430263001782338 0.6574938827731939
0.461544888127248 -0.413399408536487
0.05014897820657639 -1.5416619833091865
-0.2854634746234452 -2.4022012352544655
-0.43703038880474526 -2.8611555029586144
-0.25298485015602373 -2.7846631250079232
0.15841105976464787 -2.2492164793530827
0.7863311328014624 -1.5607850777968593
1.4359036221498913 -0.7958612982899445
2.0421712788750916 -0.24129155814743114
2.583481686665449 0.23678580404439067
3.0814872618325775 0.46626293789646517
3.5037093799090564 0.5810015048225023
3.9367577061413424 0.6192476937978482
4.294022575282979 0.5810015048225023
4.510546738399121 0.5045091268718109
4.618808819957192 0.485386032384138
4.607982611801385 0.38977055994577364
4.499720530243314 0.23678580404439067
4.294022575282979 0.12204723711835344
4.045019787699414 0.12204723711835344
3.6661025022461637 0.16029342609369918
3.189749343390649 0.23678580404439067
2.6917437682235206 0.2941550875074093
2.215390609368006 0.35152437097042794
1.70655882604507 0.40889365443344655
1.2302056671895554 0.4280167489211194
0.7105476757108123 0.44713984340879226
0.1908896842320693 0.38977055994577364
-0.23133243384440944 0.3706474654581008
-0.5561186785186238 0.31327818199508217
-0.7293380090115382 0.2176627095567178
-0.8051214661021883 0.23678580404439067
-0.7942952579463811 0.332401276482755
-0.7401642171673454 0.38977055994577364
-0.6535545519208882 0.44713984340879226
-0.5885973029860453 0.5427553158471566
-0.5452924703628167 0.5618784103348295
-0.5019876377395881 0.638370788285521
-0.5019876377395881 0.7339862607238854
-0.4478565969605524 0.8487248276499226
-0.43703038880474526 0.9634633945759599
-0.41537797249313096 1.0017095835513055
-0.3828993480257095 0.9825864890636327
-0.35042072355828807 1.0399557725266513
-0.3395945154024809 1.078201961501997
-0.3395945154024809 1.0208326780389785
-0.35042072355828807 1.0017095835513055
-0.35042072355828807 0.9825864890636327
-0.3612469317140952 0.9825864890636327
-0.3828993480257095 1.0017095835513055
-0.39372555618151667 1.0399557725266513
-0.3612469317140952 1.078201961501997
-0.37207313986990237 1.078201961501997
-0.3612469317140952 1.078201961501997
-0.37207313986990237 1.059078867014324
-0.3287683072466738 1.059078867014324
-0.35042072355828807 1.059078867014324
-0.3287683072466738 1.078201961501997
-0.3395945154024809 1.078201961501997
-0.3612469317140952 1.078201961501997
-0.37207313986990237 1.059078867014324
-0.3828993480257095 1.078201961501997
-0.39372555618151667 1.0399557725266513
-0.3828993480257095 1.09732505598967
-0.3828993480257095 1.1355712449650157
-0.3828993480257095 1.09732505598967
-0.3612469317140952 1.078201961501997
-0.3828993480257095 1.09732505598967
-0.35042072355828807 1.1546943394526885
-0.39372555618151667 1.1929405284280343
-0.39372555618151667 1.1929405284280343
-0.39372555618151667 1.1164481504773427
-0.4045517643373238 1.09732505598967
-0.43703038880474526 1.09732505598967
-0.45868280511635956 1.09732505598967
-0.4478565969605524 1.0208326780389785
-0.491161429583781 1.0399557725266513
-0.45868280511635956 1.0208326780389785
-0.4695090132721667 1.0399557725266513
-0.45868280511635956 1.078201961501997
-0.4478565969605524 1.078201961501997
-0.4695090132721667 1.1164481504773427
-0.4695090132721667 1.059078867014324
-0.5019876377395881 1.078201961501997
-0.5128138458953952 1.0208326780389785
-0.5561186785186238 0.9825864890636327
-0.5561186785186238 0.9634633945759599
-0.566944886674431 0.9825864890636327
-0.5885973029860453 0.8869710166252683
-0.566944886674431 0.925217205600614
-0.566944886674431 0.944340300088287
-0.5777710948302381 0.9825864890636327
-0.5777710948302381 1.0017095835513055
-0.5885973029860453 0.925217205600614
-0.5777710948302381 0.925217205600614
-0.6319021356092739 0.9060941111129412
-0.642728343765081 0.7722324496992311
-0.7076855926999239 0.6957400717485396
-0.6968593845441168 0.6957400717485396
-0.7076855926999239 0.638370788285521
-0.7076855926999239 0.6574938827731939
-0.7076855926999239 0.6574938827731939
-0.6860331763883096 0.6574938827731939
-0.6643807600766953 0.638370788285521
-0.6752069682325025 0.6192476937978482
-0.6968593845441168 0.5618784103348295
-0.6968593845441168 0.5045091268718109
-0.7401642171673454 0.46626293789646517
-0.7618166334789597 0.40889365443344655
-0.7942952579463811 0.35152437097042794
-0.8159476742579954 0.2941550875074093
-0.8051214661021883 0.2176627095567178
-0.8159476742579954 0.2176627095567178
-0.7726428416347668 0.2750319930197364
-0.7726428416347668 0.2941550875074093
-0.7509904253231525 0.2750319930197364
-0.7509904253231525 0.2176627095567178
-0.7509904253231525 0.19853961506904494
-0.7509904253231525 0.14117033160602632
-0.7509904253231525 0.06467795365533482
-0.7293380090115382 0.026431764679989082
-0.7293380090115382 -0.08830680224604816
-0.7185118008557311 -0.08830680224604816
-0.7076855926999239 -0.06918370775837528
-0.6968593845441168 -0.06918370775837528
-0.6643807600766953 -0.06918370775837528
-0.6319021356092739 -0.05006061327070241
-0.5777710948302381 -0.10742989673372103
-0.5236400540512024 -0.06918370775837528
-0.48033522142797386 -0.16479918019673964
-0.4478565969605524 -0.24129155814743114
-0.4045517643373238 -0.24129155814743114
-0.39372555618151667 -0.27953774712277685
-0.37207313986990237 -0.24129155814743114
-0.3612469317140952 -0.22216846365975826
-0.3179420990908666 -0.20304536917208538
-0.2854634746234452 -0.14567608570906676
-0.20968001753279517 -0.10742989673372103
-0.16637518490956657 -0.08830680224604816
-0.11224414413053083 -0.05006061327070241
-0.05811310335149509 -0.05006061327070241
-0.03646068703988079 -0.05006061327070241
-0.014808270728266496 -0.10742989673372103
-0.003982062572459349 -0.16479918019673964
0.006844145583347798 -0.18392227468441252
0.017670353739154945 -0.20304536917208538
0.017670353739154945 -0.20304536917208538
0.017670353739154945 -0.08830680224604816
0.028496561894962094 0.0073086701923162104
0.03932277005076924 0.026431764679989082
0.07180139451819069 0.0073086701923162104
0.08262760267399782 0.026431764679989082
0.11510622714141927 0.0073086701923162104
0.10428001898561212 0.026431764679989082
0.10428001898561212 -0.030937518783029534
0.09345381082980497 0.0073086701923162104
0.07180139451819069 -0.030937518783029534
0.03932277005076924 0.0073086701923162104
0.028496561894962094 0.04555485916766196
-0.003982062572459349 0.14117033160602632
-0.025634478884073643 0.16029342609369918
-0.025634478884073643 0.19853961506904494
-0.014808270728266496 0.2750319930197364
-0.03646068703988079 0.25590889853206356
-0.025634478884073643 0.2176627095567178
-0.05811310335149509 0.19853961506904494
-0.07976551966310938 0.19853961506904494
-0.10141793597472368 0.17941652058137206
-0.13389656044214512 0.16029342609369918
-0.15554897675375942 0.19853961506904494
-0.18802760122118087 0.17941652058137206
-0.20968001753279517 0.14117033160602632
-0.19885380937698802 0.25590889853206356
-0.2205062256886023 0.23678580404439067
-0.23133243384440944 0.31327818199508217
-0.24215864200021658 0.25590889853206356
-0.24215864200021658 0.25590889853206356
-0.24215864200021658 0.25590889853206356
-0.25298485015602373 0.23678580404439067
-0.2854634746234452 0.25590889853206356
-0.29628968277925233 0.2941550875074093
-0.3287683072466738 0.23678580404439067
-0.3179420990908666 0.19853961506904494
-0.3612469317140952 0.25590889853206356
-0.3612469317140952 0.19853961506904494
-0.35042072355828807 0.17941652058137206
-0.3395945154024809 0.23678580404439067
-0.3071158909350595 0.23678580404439067
-0.29628968277925233 0.2750319930197364
-0.29628968277925233 0.25590889853206356
-0.3287683072466738 0.19853961506904494
-0.2854634746234452 0.2176627095567178
-0.3179420990908666 0.19853961506904494
-0.3287683072466738 0.19853961506904494
-0.3287683072466738 0.19853961506904494
-0.3179420990908666 0.2941550875074093
-0.3071158909350595 0.2941550875074093
-0.3395945154024809 0.332401276482755
-0.3071158909350595 0.2941550875074093
-0.2854634746234452 0.2750319930197364
-0.2854634746234452 0.31327818199508217
-0.25298485015602373 0.2941550875074093
-0.27463726646763803 0.332401276482755
-0.2638110583118309 0.2941550875074093
-0.25298485015602373 0.2941550875074093
-0.2638110583118309 0.2941550875074093
-0.25298485015602373 0.23678580404439067
-0.2638110583118309 0.2176627095567178
-0.27463726646763803 0.23678580404439067
-0.24215864200021658 0.31327818199508217
-0.23133243384440944 0.40889365443344655
-0.23133243384440944 0.38977055994577364
-0.18802760122118087 0.5236322213594837
-0.17720139306537372 0.40889365443344655
-0.19885380937698802 0.40889365443344655
-0.20968001753279517 0.31327818199508217
-0.20968001753279517 0.23678580404439067
-0.20968001753279517 0.25590889853206356
-0.18802760122118087 0.23678580404439067
-0.20968001753279517 0.2750319930197364
-0.17720139306537372 0.31327818199508217
-0.17720139306537372 0.35152437097042794
-0.14472276859795227 0.3706474654581008
-0.15554897675375942 0.3706474654581008
-0.14472276859795227 0.35152437097042794
-0.13389656044214512 0.31327818199508217
-0.15554897675375942 0.2941550875074093
-0.14472276859795227 0.2941550875074093
-0.16637518490956657 0.17941652058137206
-0.16637518490956657 0.19853961506904494
-0.16637518490956657 0.2176627095567178
-0.16637518490956657 0.2176627095567178
-0.15554897675375942 0.2941550875074093
-0.14472276859795227 0.332401276482755
-0.13389656044214512 0.332401276482755
-0.12307035228633798 0.38977055994577364
-0.11224414413053083 0.38977055994577364
-0.11224414413053083 0.31327818199508217
-0.14472276859795227 0.31327818199508217
-0.13389656044214512 0.25590889853206356
-0.13389656044214512 0.25590889853206356
-0.13389656044214512 0.16029342609369918
-0.14472276859795227 0.19853961506904494
-0.13389656044214512 0.19853961506904494
-0.15554897675375942 0.2750319930197364
-0.13389656044214512 0.332401276482755
-0.13389656044214512 0.38977055994577364
-0.13389656044214512 0.4280167489211194
-0.12307035228633798 0.40889365443344655
-0.12307035228633798 0.35152437097042794
-0.13389656044214512 0.2750319930197364
-0.17720139306537372 0.2176627095567178
-0.17720139306537372 0.17941652058137206
-0.17720139306537372 0.19853961506904494
-0.17720139306537372 0.2176627095567178
-0.16637518490956657 0.23678580404439067
-0.14472276859795227 0.2750319930197364
-0.15554897675375942 0.31327818199508217
-0.13389656044214512 0.35152437097042794
-0.13389656044214512 0.35152437097042794
-0.11224414413053083 0.31327818199508217
-0.12307035228633798 0.2941550875074093
-0.12307035228633798 0.25590889853206356
-0.12307035228633798 0.14117033160602632
-0.14472276859795227 0.12204723711835344
-0.14472276859795227 0.14117033160602632
-0.14472276859795227 0.14117033160602632
-0.13389656044214512 0.16029342609369918
-0.13389656044214512 0.2176627095567178
-0.12307035228633798 0.2176627095567178
-0.09059172781891653 0.2941550875074093
-0.10141793597472368 0.2750319930197364
-0.06893931150730223 0.2750319930197364
-0.07976551966310938 0.17941652058137206
-0.06893931150730223 0.19853961506904494
-0.10141793597472368 0.14117033160602632
-0.12307035228633798 0.17941652058137206
-0.13389656044214512 0.06467795365533482
-0.12307035228633798 0.12204723711835344
-0.14472276859795227 0.16029342609369918
-0.11224414413053083 0.17941652058137206
-0.11224414413053083 0.19853961506904494
-0.10141793597472368 0.2176627095567178
-0.09059172781891653 0.2176627095567178
-0.05811310335149509 0.2176627095567178
-0.06893931150730223 0.17941652058137206
-0.07976551966310938 0.16029342609369918
-0.10141793597472368 0.14117033160602632
-0.14472276859795227 0.10292414263068057
-0.16637518490956657 0.10292414263068057
-0.16637518490956657 0.14117033160602632
-0.14472276859795227 0.06467795365533482
-0.13389656044214512 0.16029342609369918
-0.11224414413053083 0.14117033160602632
-0.12307035228633798 0.10292414263068057
-0.10141793597472368 0.14117033160602632
-0.06893931150730223 0.10292414263068057
-0.06893931150730223 0.0838010481430077
-0.07976551966310938 0.10292414263068057
-0.09059172781891653 0.0838010481430077
-0.10141793597472368 0.0838010481430077
-0.12307035228633798 0.06467795365533482
-0.13389656044214512 0.06467795365533482
-0.14472276859795227 0.10292414263068057
-0.15554897675375942 0.14117033160602632
-0.10141793597472368 0.14117033160602632
-0.12307035228633798 0.10292414263068057
-0.12307035228633798 0.10292414263068057
-0.10141793597472368 0.12204723711835344
-0.07976551966310938 0.10292414263068057
-0.11224414413053083 0.0838010481430077
-0.11224414413053083 0.14117033160602632
-0.12307035228633798 0.12204723711835344
-0.12307035228633798 0.0838010481430077
-0.13389656044214512 0.06467795365533482
-0.12307035228633798 0.10292414263068057
-0.15554897675375942 0.10292414263068057
-0.14472276859795227 0.10292414263068057
-0.12307035228633798 0.12204723711835344
-0.10141793597472368 0.12204723711835344
-0.09059172781891653 0.12204723711835344
-0.10141793597472368 0.12204723711835344
-0.12307035228633798 0.04555485916766196
-0.13389656044214512 0.04555485916766196
-0.13389656044214512 0.06467795365533482
-0.16637518490956657 0.026431764679989082
-0.14472276859795227 0.06467795365533482
-0.15554897675375942 0.0838010481430077
-0.15554897675375942 0.0838010481430077
-0.11224414413053083 0.026431764679989082
-0.10141793597472368 0.0838010481430077
-0.09059172781891653 0.0838010481430077
-0.07976551966310938 0.10292414263068057
-0.07976551966310938 0.04555485916766196
-0.07976551966310938 0.04555485916766196
-0.09059172781891653 0.026431764679989082
-0.09059172781891653 0.04555485916766196
-0.10141793597472368 0.026431764679989082
-0.12307035228633798 0.06467795365533482
-0.10141793597472368 0.04555485916766196
-0.12307035228633798 0.06467795365533482
-0.13389656044214512 0.06467795365533482
-0.10141793597472368 0.06467795365533482
-0.10141793597472368 0.06467795365533482
-0.10141793597472368 0.12204723711835344
-0.06893931150730223 0.10292414263068057
-0.09059172781891653 0.06467795365533482
-0.06893931150730223 0.0838010481430077
-0.07976551966310938 0.06467795365533482
-0.09059172781891653 0.0073086701923162104
-0.07976551966310938 -0.011814424295356661
-0.07976551966310938 -0.05006061327070241
-0.10141793597472368 -0.05006061327070241
-0.06893931150730223 -0.05006061327070241
-0.04728689519568794 -0.011814424295356661
-0.03646068703988079 0.04555485916766196
-0.014808270728266496 0.06467795365533482
-0.003982062572459349 0.04555485916766196
-0.014808270728266496 0.04555485916766196
0.006844145583347798 -0.011814424295356661
-0.03646068703988079 -0.05006061327070241
-0.05811310335149509 -0.08830680224604816
-0.05811310335149509 -0.06918370775837528
-0.04728689519568794 -0.06918370775837528
-0.03646068703988079 -0.011814424295356661
-0.025634478884073643 0.0073086701923162104
0.028496561894962094 0.04555485916766196
0.03932277005076924 0.10292414263068057
0.060975186362383534 0.0838010481430077
0.08262760267399782 0.04555485916766196
0.060975186362383534 0.026431764679989082
0.07180139451819069 0.026431764679989082
0.060975186362383534 -0.030937518783029534
0.017670353739154945 -0.05006061327070241
0.006844145583347798 -0.08830680224604816
-0.014808270728266496 -0.030937518783029534
-0.04728689519568794 -0.05006061327070241
-0.05811310335149509 0.04555485916766196
-0.03646068703988079 0.04555485916766196
-0.03646068703988079 0.12204723711835344
-0.025634478884073643 0.12204723711835344
-0.025634478884073643 0.12204723711835344
-0.014808270728266496 0.12204723711835344
-0.025634478884073643 0.0838010481430077
-0.03646068703988079 0.10292414263068057
0.028496561894962094 0.06467795365533482
0.060975186362383534 0.12204723711835344
0.07180139451819069 0.12204723711835344
0.060975186362383534 0.17941652058137206
0.07180139451819069 0.19853961506904494
0.060975186362383534 0.2176627095567178
0.08262760267399782 0.23678580404439067
0.060975186362383534 0.25590889853206356
0.028496561894962094 0.17941652058137206
-0.014808270728266496 0.10292414263068057
-0.09059172781891653 0.0073086701923162104
-0.14472276859795227 -0.05006061327070241
-0.16637518490956657 -0.10742989673372103
-0.19885380937698802 -0.14567608570906676
-0.23133243384440944 -0.1265529912213939
-0.23133243384440944 -0.08830680224604816
-0.20968001753279517 -0.06918370775837528
-0.16637518490956657 0.0073086701923162104
-0.18802760122118087 0.0073086701923162104
-0.14472276859795227 0.0073086701923162104
-0.15554897675375942 -0.05006061327070241
-0.16637518490956657 -0.10742989673372103
-0.17720139306537372 -0.1265529912213939
-0.23133243384440944 -0.27953774712277685
-0.23133243384440944 -0.413399408536487
-0.2854634746234452 -0.4707686919995056
-0.3071158909350595 -0.4707686919995056
-0.3071158909350595 -0.3751532195611412
-0.20968001753279517 -0.18392227468441252
-0.04728689519568794 0.17941652058137206
0.16923726792045501 0.6001245993101753
0.4182400555040194 0.944340300088287
0.602285594152741 1.1164481504773427
0.7538525083340409 1.09732505598967
0.7971573409572695 0.7722324496992311
0.7105476757108123 0.0073086701923162104
0.4182400555040194 -1.0635846211173647
0.03932277005076924 -2.23009338486541
-0.23133243384440944 -3.071509542323016
-0.23133243384440944 -3.2244942982243994
0.11510622714141927 -2.746416936032577
0.6780690512433909 -1.9623700620379896
1.3709463732150484 -1.0827077156050375
2.1179547359657414 -0.29866084161044976
2.8324844742490134 0.23678580404439067
3.4495783391300208 0.5045091268718109
3.990888746920378 0.485386032384138
4.445589489464278 0.38977055994577364
4.7270709015152645 0.14117033160602632
4.85698539938495 -0.030937518783029534
4.867811607540757 -0.24129155814743114
4.770375734138493 -0.39427631404881414
4.597156403645578 -0.4707686919995056
4.304848783438786 -0.48989178648717846
3.8934528735181138 -0.3560301250734684
3.4387521309742137 -0.20304536917208538
2.864963098716435 -0.16479918019673964
2.2803478583028487 -0.030937518783029534
1.6091229526428057 -0.030937518783029534
0.9595504632943768 -0.011814424295356661
0.33163039025756225 -0.06918370775837528
-0.20968001753279517 -0.260414652635104
-0.5994235111418524 -0.39427631404881414
-0.859252506881224 -0.48989178648717846
-0.9675145884392955 -0.5281379754625242
-0.9242097558160669 -0.43252250302415984
-0.859252506881224 -0.27953774712277685
-0.7509904253231525 -0.1265529912213939
-0.6643807600766953 -0.011814424295356661
-0.6210759274534667 0.10292414263068057
-0.6102497192976596 0.14117033160602632
-0.5994235111418524 0.14117033160602632
-0.566944886674431 0.16029342609369918
-0.5561186785186238 0.16029342609369918
-0.5128138458953952 0.2750319930197364
-0.48033522142797386 0.2941550875074093
-0.4695090132721667 0.3706474654581008
-0.45868280511635956 0.38977055994577364
-0.4262041806489381 0.4280167489211194
-0.4695090132721667 0.46626293789646517
-0.41537797249313096 0.4280167489211194
-0.4478565969605524 0.3706474654581008
-0.45868280511635956 0.35152437097042794
-0.4695090132721667 0.3706474654581008
-0.491161429583781 0.2941550875074093
-0.5128138458953952 0.332401276482755
-0.491161429583781 0.332401276482755
-0.5344662622070095 0.4280167489211194
-0.491161429583781 0.485386032384138
-0.4695090132721667 0.5045091268718109
-0.45868280511635956 0.5618784103348295
-0.4262041806489381 0.485386032384138
-0.43703038880474526 0.5427553158471566
-0.43703038880474526 0.485386032384138
-0.4478565969605524 0.4280167489211194
-0.4695090132721667 0.44713984340879226
-0.4695090132721667 0.40889365443344655
-0.48033522142797386 0.38977055994577364
-0.491161429583781 0.40889365443344655
-0.491161429583781 0.485386032384138
-0.48033522142797386 0.46626293789646517
-0.4695090132721667 0.5045091268718109
-0.48033522142797386 0.5045091268718109
-0.4478565969605524 0.5236322213594837
-0.491161429583781 0.46626293789646517
-0.48033522142797386 0.4280167489211194
-0.491161429583781 0.38977055994577364
-0.5561186785186238 0.3706474654581008
-0.5452924703628167 0.35152437097042794
-0.5885973029860453 0.3706474654581008
-0.6102497192976596 0.40889365443344655
-0.566944886674431 0.40889365443344655
-0.5777710948302381 0.44713984340879226
-0.5885973029860453 0.44713984340879226
-0.5994235111418524 0.46626293789646517
-0.566944886674431 0.3706474654581008
-0.5885973029860453 0.3706474654581008
-0.5885973029860453 0.332401276482755
-0.6102497192976596 0.2750319930197364
-0.6535545519208882 0.2941550875074093
-0.6643807600766953 0.2750319930197364
-0.6752069682325025 0.23678580404439067
-0.6860331763883096 0.25590889853206356
-0.6860331763883096 0.25590889853206356
-0.6860331763883096 0.23678580404439067
-0.6860331763883096 0.23678580404439067
-0.6752069682325025 0.17941652058137206
-0.6860331763883096 0.23678580404439067
-0.7185118008557311 0.16029342609369918
-0.7076855926999239 0.16029342609369918
-0.7401642171673454 0.06467795365533482
-0.7726428416347668 0.04555485916766196
-0.783469049790574 -0.030937518783029534
-0.7942952579463811 -0.05006061327070241
-0.8051214661021883 -0.10742989673372103
-0.8051214661021883 -0.06918370775837528
-0.783469049790574 -0.05006061327070241
-0.7942952579463811 -0.08830680224604816
-0.8051214661021883 -0.06918370775837528
-0.7942952579463811 -0.05006061327070241
-0.783469049790574 -0.10742989673372103
-0.8159476742579954 -0.16479918019673964
-0.8376000905696097 -0.20304536917208538
-0.8267738824138026 -0.260414652635104
-0.859252506881224 -0.3560301250734684
-0.8267738824138026 -0.3751532195611412
-0.859252506881224 -0.3560301250734684
-0.8376000905696097 -0.413399408536487
-0.8159476742579954 -0.45164559751183275
-0.783469049790574 -0.43252250302415984
-0.7509904253231525 -0.413399408536487
-0.6968593845441168 -0.39427631404881414
-0.6968593845441168 -0.39427631404881414
-0.6968593845441168 -0.5281379754625242
-0.6860331763883096 -0.5090148809748514
-0.7185118008557311 -0.5281379754625242
-0.6968593845441168 -0.5855072589255428
-0.6535545519208882 -0.6237534479008886
-0.642728343765081 -0.6428765423885614
-0.6210759274534667 -0.6619996368762343
-0.5561186785186238 -0.6237534479008886
-0.5344662622070095 -0.6428765423885614
-0.48033522142797386 -0.5855072589255428
-0.45868280511635956 -0.5855072589255428
-0.4478565969605524 -0.5472610699501971
-0.3828993480257095 -0.6046303534132157
-0.3612469317140952 -0.6428765423885614
-0.3395945154024809 -0.70024582585158
-0.3287683072466738 -0.7384920148269258
-0.3179420990908666 -0.7193689203392529
-0.2854634746234452 -0.7384920148269258
-0.27463726646763803 -0.7767382038022715
-0.20968001753279517 -0.6619996368762343
-0.17720139306537372 -0.6046303534132157
-0.12307035228633798 -0.5472610699501971
-0.11224414413053083 -0.48989178648717846
-0.04728689519568794 -0.48989178648717846
-0.06893931150730223 -0.4707686919995056
-0.014808270728266496 -0.5090148809748514
-0.03646068703988079 -0.5855072589255428
-0.025634478884073643 -0.6237534479008886
-0.03646068703988079 -0.6619996368762343
-0.025634478884073643 -0.6811227313639072
-0.03646068703988079 -0.6237534479008886
-0.025634478884073643 -0.5472610699501971
-0.03646068703988079 -0.5281379754625242
-0.03646068703988079 -0.48989178648717846
-0.003982062572459349 -0.4707686919995056
0.006844145583347798 -0.4707686919995056
-0.025634478884073643 -0.5090148809748514
-0.07976551966310938 -0.56638416443787
-0.12307035228633798 -0.5855072589255428
-0.14472276859795227 -0.56638416443787
-0.18802760122118087 -0.6046303534132157
-0.23133243384440944 -0.6046303534132157
-0.2205062256886023 -0.48989178648717846
-0.25298485015602373 -0.43252250302415984
-0.2638110583118309 -0.39427631404881414
-0.27463726646763803 -0.3751532195611412
-0.27463726646763803 -0.413399408536487
-0.3287683072466738 -0.45164559751183275
-0.3395945154024809 -0.48989178648717846
-0.3612469317140952 -0.5472610699501971
-0.41537797249313096 -0.5855072589255428
-0.4478565969605524 -0.5281379754625242
-0.45868280511635956 -0.56638416443787
-0.4695090132721667 -0.48989178648717846
-0.491161429583781 -0.4707686919995056
-0.491161429583781 -0.43252250302415984
-0.5019876377395881 -0.4707686919995056
-0.491161429583781 -0.413399408536487
-0.48033522142797386 -0.48989178648717846
-0.491161429583781 -0.5090148809748514
-0.5128138458953952 -0.5281379754625242
-0.5236400540512024 -0.4707686919995056
-0.5344662622070095 -0.5281379754625242
-0.5452924703628167 -0.48989178648717846
-0.5561186785186238 -0.5090148809748514
-0.566944886674431 -0.5090148809748514
-0.566944886674431 -0.48989178648717846
-0.5452924703628167 -0.4707686919995056
-0.5452924703628167 -0.413399408536487
-0.5236400540512024 -0.413399408536487
-0.5019876377395881 -0.45164559751183275
-0.5019876377395881 -0.43252250302415984
-0.5128138458953952 -0.4707686919995056
-0.5019876377395881 -0.5090148809748514
-0.5128138458953952 -0.413399408536487
-0.5128138458953952 -0.45164559751183275
-0.5236400540512024 -0.43252250302415984
-0.5019876377395881 -0.3751532195611412
-0.5236400540512024 -0.43252250302415984
-0.48033522142797386 -0.413399408536487
-0.45868280511635956 -0.3751532195611412
-0.491161429583781 -0.3177839360981226
-0.4262041806489381 -0.33690703058579546
-0.4262041806489381 -0.33690703058579546
-0.4045517643373238 -0.3177839360981226
-0.41537797249313096 -0.3560301250734684
-0.41537797249313096 -0.3560301250734684
-0.4262041806489381 -0.3560301250734684
-0.43703038880474526 -0.3177839360981226
-0.4262041806489381 -0.3177839360981226
-0.4262041806489381 -0.3177839360981226
-0.4262041806489381 -0.3177839360981226
-0.3828993480257095 -0.29866084161044976
-0.4045517643373238 -0.27953774712277685
-0.37207313986990237 -0.260414652635104
-0.35042072355828807 -0.260414652635104
-0.3612469317140952 -0.260414652635104
-0.35042072355828807 -0.27953774712277685
-0.37207313986990237 -0.29866084161044976
-0.37207313986990237 -0.3751532195611412
-0.3612469317140952 -0.39427631404881414
-0.37207313986990237 -0.39427631404881414
-0.35042072355828807 -0.413399408536487
-0.3395945154024809 -0.3560301250734684
-0.3395945154024809 -0.3177839360981226
-0.3287683072466738 -0.22216846365975826
-0.3179420990908666 -0.20304536917208538
-0.3071158909350595 -0.22216846365975826
-0.3071158909350595 -0.260414652635104
-0.29628968277925233 -0.29866084161044976
-0.3071158909350595 -0.27953774712277685
-0.3071158909350595 -0.33690703058579546
-0.3179420990908666 -0.3751532195611412
-0.3395945154024809 -0.3560301250734684
-0.3071158909350595 -0.33690703058579546
-0.3179420990908666 -0.260414652635104
-0.3071158909350595 -0.24129155814743114
-0.29628968277925233 -0.24129155814743114
-0.2854634746234452 -0.14567608570906676
-0.2638110583118309 -0.20304536917208538
-0.2638110583118309 -0.20304536917208538
-0.2638110583118309 -0.24129155814743114
-0.2854634746234452 -0.29866084161044976
-0.3287683072466738 -0.33690703058579546
-0.3395945154024809 -0.3560301250734684
-0.3612469317140952 -0.260414652635104
-0.3071158909350595 -0.29866084161044976
-0.29628968277925233 -0.24129155814743114
-0.2854634746234452 -0.18392227468441252
-0.27463726646763803 -0.14567608570906676
-0.24215864200021658 -0.10742989673372103
-0.24215864200021658 -0.18392227468441252
-0.24215864200021658 -0.24129155814743114
-0.24215864200021658 -0.27953774712277685
-0.2854634746234452 -0.29866084161044976
-0.2854634746234452 -0.29866084161044976
-0.2854634746234452 -0.260414652635104
-0.29628968277925233 -0.24129155814743114
-0.2854634746234452 -0.16479918019673964
-0.27463726646763803 -0.20304536917208538
-0.25298485015602373 -0.14567608570906676
-0.24215864200021658 -0.10742989673372103
-0.24215864200021658 -0.1265529912213939
-0.23133243384440944 -0.10742989673372103
-0.23133243384440944 -0.16479918019673964
-0.24215864200021658 -0.18392227468441252
-0.2638110583118309 -0.22216846365975826
-0.29628968277925233 -0.22216846365975826
-0.25298485015602373 -0.22216846365975826
-0.27463726646763803 -0.20304536917208538
-0.25298485015602373 -0.16479918019673964
-0.2638110583118309 -0.14567608570906676
-0.2638110583118309 -0.10742989673372103
-0.25298485015602373 -0.06918370775837528
-0.23133243384440944 -0.08830680224604816
-0.25298485015602373 -0.1265529912213939
-0.2205062256886023 -0.14567608570906676
-0.23133243384440944 -0.18392227468441252
-0.25298485015602373 -0.16479918019673964
-0.2638110583118309 -0.18392227468441252
-0.2638110583118309 -0.18392227468441252
-0.27463726646763803 -0.16479918019673964
-0.27463726646763803 -0.1265529912213939
-0.2638110583118309 -0.14567608570906676
-0.25298485015602373 -0.1265529912213939
-0.20968001753279517 -0.14567608570906676
-0.20968001753279517 -0.10742989673372103
-0.19885380937698802 -0.14567608570906676
-0.24215864200021658 -0.16479918019673964
-0.23133243384440944 -0.18392227468441252
-0.2205062256886023 -0.20304536917208538
-0.25298485015602373 -0.20304536917208538
-0.25298485015602373 -0.16479918019673964
-0.2638110583118309 -0.18392227468441252
-0.25298485015602373 -0.14567608570906676
-0.23133243384440944 -0.14567608570906676
-0.2205062256886023 -0.1265529912213939
-0.20968001753279517 -0.06918370775837528
-0.19885380937698802 -0.10742989673372103
-0.19885380937698802 -0.06918370775837528
-0.19885380937698802 -0.14567608570906676
-0.2205062256886023 -0.1265529912213939
-0.23133243384440944 -0.16479918019673964
-0.2205062256886023 -0.16479918019673964
-0.24215864200021658 -0.18392227468441252
-0.2638110583118309 -0.260414652635104
-0.25298485015602373 -0.22216846365975826
-0.25298485015602373 -0.16479918019673964
-0.2205062256886023 -0.1265529912213939
-0.2205062256886023 -0.08830680224604816
-0.20968001753279517 -0.10742989673372103
-0.18802760122118087 -0.08830680224604816
-0.19885380937698802 -0.08830680224604816
-0.20968001753279517 -0.1265529912213939
-0.2205062256886023 -0.16479918019673964
-0.24215864200021658 -0.18392227468441252
-0.23133243384440944 -0.22216846365975826
-0.24215864200021658 -0.24129155814743114
-0.24215864200021658 -0.18392227468441252
-0.24215864200021658 -0.1265529912213939
-0.19885380937698802 -0.08830680224604816
-0.17720139306537372 -0.06918370775837528
-0.17720139306537372 0.0073086701923162104
-0.16637518490956657 -0.05006061327070241
-0.18802760122118087 -0.05006061327070241
-0.19885380937698802 -0.1265529912213939
-0.20968001753279517 -0.18392227468441252
-0.2205062256886023 -0.20304536917208538
-0.2205062256886023 -0.24129155814743114
-0.19885380937698802 -0.22216846365975826
-0.16637518490956657 -0.20304536917208538
-0.16637518490956657 -0.16479918019673964
-0.14472276859795227 -0.1265529912213939
-0.16637518490956657 -0.06918370775837528
-0.17720139306537372 -0.05006061327070241
-0.18802760122118087 -0.10742989673372103
-0.16637518490956657 -0.16479918019673964
-0.18802760122118087 -0.24129155814743114
-0.17720139306537372 -0.22216846365975826
-0.14472276859795227 -0.27953774712277685
-0.12307035228633798 -0.3177839360981226
-0.10141793597472368 -0.260414652635104
-0.05811310335149509 -0.20304536917208538
-0.09059172781891653 -0.1265529912213939
-0.05811310335149509 -0.030937518783029534
-0.06893931150730223 -0.06918370775837528
-0.04728689519568794 -0.05006061327070241
-0.04728689519568794 -0.08830680224604816
-0.07976551966310938 -0.14567608570906676
-0.07976551966310938 -0.16479918019673964
-0.11224414413053083 -0.18392227468441252
-0.12307035228633798 -0.14567608570906676
-0.12307035228633798 -0.18392227468441252
-0.15554897675375942 -0.1265529912213939
-0.15554897675375942 -0.08830680224604816
-0.15554897675375942 -0.06918370775837528
-0.16637518490956657 -0.030937518783029534
-0.11224414413053083 0.026431764679989082
-0.07976551966310938 0.04555485916766196
-0.03646068703988079 0.06467795365533482
-0.014808270728266496 0.06467795365533482
-0.014808270728266496 0.026431764679989082
-0.025634478884073643 0.026431764679989082
-0.05811310335149509 -0.011814424295356661
-0.07976551966310938 -0.011814424295356661
-0.10141793597472368 -0.08830680224604816
-0.11224414413053083 -0.06918370775837528
-0.15554897675375942 -0.06918370775837528
-0.18802760122118087 -0.08830680224604816
-0.17720139306537372 -0.14567608570906676
-0.2205062256886023 -0.10742989673372103
-0.2205062256886023 -0.14567608570906676
-0.2205062256886023 -0.20304536917208538
-0.23133243384440944 -0.18392227468441252
-0.2854634746234452 -0.18392227468441252
-0.27463726646763803 -0.20304536917208538
-0.2638110583118309 -0.24129155814743114
-0.2638110583118309 -0.260414652635104
-0.27463726646763803 -0.33690703058579546
-0.2854634746234452 -0.39427631404881414
-0.3179420990908666 -0.43252250302415984
-0.3179420990908666 -0.413399408536487
-0.2638110583118309 -0.33690703058579546
-0.16637518490956657 -0.05006061327070241
0.017670353739154945 0.3706474654581008
0.24502072501110506 0.791355544186904
0.4831973044388623 1.0399557725266513
0.6455904267759695 1.1355712449650157
0.7430263001782338 0.9825864890636327
0.7755049246456552 0.5045091268718109
0.602285594152741 -0.29866084161044976
0.2991517657901408 -1.3504310384324578
-0.09059172781891653 -2.344831951791447
-0.3071158909350595 -3.0332633533476705
-0.23133243384440944 -3.1671250147613805
0.07180139451819069 -2.7655400305202504
0.6239380104643552 -2.1153548179393726
1.2302056671895554 -1.3504310384324578
1.9014305728495986 -0.7193689203392529
2.4968720214189917 -0.18392227468441252
3.092313469988385 0.16029342609369918
3.5794928369997066 0.2941550875074093
4.012541163231992 0.3706474654581008
4.358979824217821 0.38977055994577364
4.629635028112999 0.35152437097042794
4.748723317826879 0.2941550875074093
4.7270709015152645 0.06467795365533482
4.586330195489771 -0.18392227468441252
4.315674991594593 -0.3751532195611412
3.980062538764571 -0.48989178648717846
3.547014212532285 -0.5090148809748514
3.0057038047419278 -0.45164559751183275
2.4968720214189917 -0.413399408536487
2.00969265440767 -0.24129155814743114
1.5116870792405412 -0.14567608570906676
0.9920290877617982 -0.05006061327070241
0.4831973044388623 0.026431764679989082
-0.003982062572459349 -0.06918370775837528
-0.3828993480257095 -0.1265529912213939
-0.6210759274534667 -0.3177839360981226
-0.7618166334789597 -0.43252250302415984
-0.7942952579463811 -0.48989178648717846
-0.7726428416347668 -0.43252250302415984
-0.7185118008557311 -0.260414652635104
-0.642728343765081 -0.18392227468441252
-0.5994235111418524 -0.030937518783029534
-0.5344662622070095 0.10292414263068057
-0.491161429583781 0.19853961506904494
-0.45868280511635956 0.25590889853206356
-0.4262041806489381 0.35152437097042794
-0.3828993480257095 0.40889365443344655
-0.35042072355828807 0.46626293789646517
-0.35042072355828807 0.40889365443344655
-0.3395945154024809 0.46626293789646517
-0.35042072355828807 0.38977055994577364
-0.3612469317140952 0.3706474654581008
-0.3828993480257095 0.332401276482755
-0.39372555618151667 0.38977055994577364
-0.37207313986990237 0.44713984340879226
-0.35042072355828807 0.44713984340879226
-0.35042072355828807 0.485386032384138
-0.3395945154024809 0.485386032384138
-0.3071158909350595 0.5045091268718109
-0.3287683072466738 0.5236322213594837
-0.29628968277925233 0.485386032384138
-0.3287683072466738 0.46626293789646517
-0.35042072355828807 0.46626293789646517
-0.3612469317140952 0.4280167489211194
-0.3828993480257095 0.4280167489211194
-0.3612469317140952 0.40889365443344655
-0.35042072355828807 0.40889365443344655
-0.35042072355828807 0.44713984340879226
-0.3395945154024809 0.44713984340879226
-0.3179420990908666 0.46626293789646517
-0.29628968277925233 0.5427553158471566
-0.29628968277925233 0.5236322213594837
-0.3071158909350595 0.5236322213594837
-0.35042072355828807 0.5045091268718109
-0.35042072355828807 0.5427553158471566
-0.37207313986990237 0.44713984340879226
-0.3828993480257095 0.46626293789646517
-0.37207313986990237 0.40889365443344655
-0.3828993480257095 0.3706474654581008
-0.3828993480257095 0.40889365443344655
-0.37207313986990237 0.46626293789646517
-0.35042072355828807 0.46626293789646517
-0.3287683072466738 0.5236322213594837
-0.35042072355828807 0.5045091268718109
-0.3395945154024809 0.5236322213594837
-0.39372555618151667 0.485386032384138
-0.39372555618151667 0.5045091268718109
-0.4045517643373238 0.40889365443344655
-0.4262041806489381 0.2941550875074093
-0.4478565969605524 0.31327818199508217
-0.4262041806489381 0.332401276482755
-0.41537797249313096 0.38977055994577364
-0.43703038880474526 0.40889365443344655
-0.4478565969605524 0.44713984340879226
-0.4262041806489381 0.46626293789646517
-0.4045517643373238 0.40889365443344655
-0.43703038880474526 0.4280167489211194
-0.43703038880474526 0.38977055994577364
-0.45868280511635956 0.35152437097042794
-0.4695090132721667 0.2750319930197364
-0.5128138458953952 0.23678580404439067
-0.491161429583781 0.23678580404439067
-0.5019876377395881 0.17941652058137206
-0.5128138458953952 0.2176627095567178
-0.491161429583781 0.17941652058137206
-0.48033522142797386 0.2176627095567178
-0.5019876377395881 0.2176627095567178
-0.491161429583781 0.2176627095567178
-0.5019876377395881 0.19853961506904494
-0.5236400540512024 0.12204723711835344
-0.5452924703628167 0.0838010481430077
-0.566944886674431 -0.06918370775837528
-0.566944886674431 -0.011814424295356661
-0.6319021356092739 -0.06918370775837528
-0.5994235111418524 -0.08830680224604816
-0.5994235111418524 -0.08830680224604816
-0.5777710948302381 -0.10742989673372103
-0.566944886674431 -0.10742989673372103
-0.5777710948302381 -0.10742989673372103
-0.5777710948302381 -0.14567608570906676
-0.566944886674431 -0.16479918019673964
-0.566944886674431 -0.24129155814743114
-0.566944886674431 -0.24129155814743114
-0.566944886674431 -0.3177839360981226
-0.5777710948302381 -0.3751532195611412
-0.5777710948302381 -0.39427631404881414
-0.5777710948302381 -0.4707686919995056
-0.5561186785186238 -0.39427631404881414
-0.5019876377395881 -0.3751532195611412
-0.48033522142797386 -0.3751532195611412
-0.4262041806489381 -0.3751532195611412
-0.4045517643373238 -0.43252250302415984
-0.4045517643373238 -0.43252250302415984
-0.3395945154024809 -0.45164559751183275
-0.29628968277925233 -0.5281379754625242
-0.29628968277925233 -0.5472610699501971
-0.2638110583118309 -0.5281379754625242
-0.23133243384440944 -0.5281379754625242
-0.19885380937698802 -0.4707686919995056
-0.16637518490956657 -0.48989178648717846
-0.12307035228633798 -0.45164559751183275
-0.07976551966310938 -0.39427631404881414
-0.003982062572459349 -0.413399408536487
0.017670353739154945 -0.45164559751183275
0.07180139451819069 -0.4707686919995056
0.07180139451819069 -0.5281379754625242
0.11510622714141927 -0.56638416443787
0.13675864345303357 -0.5855072589255428
0.14758485160884072 -0.5855072589255428
0.15841105976464787 -0.5281379754625242
0.22336830869949076 -0.43252250302415984
0.2774993494785265 -0.3751532195611412
0.2991517657901408 -0.3751532195611412
0.3424565984133694 -0.260414652635104
0.38576143103659793 -0.260414652635104
0.38576143103659793 -0.29866084161044976
0.4182400555040194 -0.3177839360981226
0.461544888127248 -0.27953774712277685
0.4182400555040194 -0.3177839360981226
0.42906626365982653 -0.39427631404881414
0.4182400555040194 -0.33690703058579546
0.4182400555040194 -0.29866084161044976
0.4182400555040194 -0.29866084161044976
0.4182400555040194 -0.24129155814743114
0.42906626365982653 -0.16479918019673964
0.4182400555040194 -0.20304536917208538
0.4182400555040194 -0.10742989673372103
0.42906626365982653 -0.14567608570906676
0.3965876391924051 -0.16479918019673964
0.38576143103659793 -0.18392227468441252
0.3641090147249837 -0.22216846365975826
0.35328280656917654 -0.20304536917208538
0.33163039025756225 -0.20304536917208538
0.30997797394594795 -0.18392227468441252
0.2991517657901408 -0.10742989673372103
0.28832555763433365 -0.08830680224604816
0.2774993494785265 0.026431764679989082
0.28832555763433365 0.026431764679989082
0.2774993494785265 0.026431764679989082
0.24502072501110506 0.0073086701923162104
0.2125421005436836 0.04555485916766196
0.1908896842320693 -0.011814424295356661
0.16923726792045501 -0.08830680224604816
0.13675864345303357 -0.1265529912213939
0.09345381082980497 -0.1265529912213939
0.10428001898561212 -0.08830680224604816
0.09345381082980497 -0.05006061327070241
0.10428001898561212 0.026431764679989082
0.10428001898561212 0.0838010481430077
0.13675864345303357 0.0838010481430077
0.14758485160884072 0.026431764679989082
0.12593243529722642 0.0073086701923162104
0.10428001898561212 -0.030937518783029534
0.11510622714141927 -0.08830680224604816
0.08262760267399782 -0.08830680224604816
0.08262760267399782 -0.1265529912213939
0.060975186362383534 -0.06918370775837528
0.05014897820657639 -0.05006061327070241
0.07180139451819069 -0.011814424295356661
0.09345381082980497 0.06467795365533482
0.11510622714141927 0.12204723711835344
0.15841105976464787 0.14117033160602632
0.16923726792045501 0.14117033160602632
0.1908896842320693 0.06467795365533482
0.18006347607626216 0.0838010481430077
0.20171589238787646 0.10292414263068057
0.18006347607626216 0.04555485916766196
0.16923726792045501 0.026431764679989082
0.15841105976464787 0.04555485916766196
0.18006347607626216 0.10292414263068057
0.18006347607626216 0.10292414263068057
0.1908896842320693 0.10292414263068057
0.2125421005436836 0.12204723711835344
0.16923726792045501 0.12204723711835344
0.2341945168552979 0.12204723711835344
0.26667314132271935 0.12204723711835344
0.2558469331669122 0.0838010481430077
0.2774993494785265 0.14117033160602632
0.2558469331669122 0.0838010481430077
0.24502072501110506 0.10292414263068057
0.24502072501110506 0.14117033160602632
0.2558469331669122 0.16029342609369918
0.26667314132271935 0.12204723711835344
0.2991517657901408 0.17941652058137206
0.33163039025756225 0.19853961506904494
0.33163039025756225 0.2176627095567178
0.3641090147249837 0.2750319930197364
0.3424565984133694 0.2750319930197364
0.33163039025756225 0.23678580404439067
0.3641090147249837 0.2176627095567178
0.3641090147249837 0.2176627095567178
0.3424565984133694 0.23678580404439067
0.33163039025756225 0.23678580404439067
0.3641090147249837 0.2750319930197364
0.35328280656917654 0.23678580404439067
0.35328280656917654 0.2750319930197364
0.38576143103659793 0.2941550875074093
0.38576143103659793 0.2941550875074093
0.3965876391924051 0.332401276482755
0.4182400555040194 0.31327818199508217
0.4182400555040194 0.31327818199508217
0.4398924718156337 0.3706474654581008
0.4182400555040194 0.35152437097042794
0.40741384734821223 0.2941550875074093
0.40741384734821223 0.2941550875074093
0.38576143103659793 0.2941550875074093
0.40741384734821223 0.2750319930197364
0.40741384734821223 0.2941550875074093
0.4182400555040194 0.35152437097042794
0.461544888127248 0.4280167489211194
0.4507186799714408 0.4280167489211194
0.4940235125946694 0.3706474654581008
0.4940235125946694 0.38977055994577364
0.5048497207504766 0.38977055994577364
0.4398924718156337 0.3706474654581008
0.461544888127248 0.38977055994577364
0.4723710962830551 0.3706474654581008
0.4831973044388623 0.35152437097042794
0.4831973044388623 0.38977055994577364
0.4831973044388623 0.44713984340879226
0.5048497207504766 0.4280167489211194
0.4940235125946694 0.44713984340879226
0.4940235125946694 0.46626293789646517
0.5265021370620909 0.485386032384138
0.5373283452178981 0.5045091268718109
0.5481545533737052 0.44713984340879226
0.5156759289062838 0.4280167489211194
0.5048497207504766 0.40889365443344655
0.4940235125946694 0.40889365443344655
0.4831973044388623 0.35152437097042794
0.4723710962830551 0.2941550875074093
0.4940235125946694 0.31327818199508217
0.4940235125946694 0.35152437097042794
0.5373283452178981 0.46626293789646517
0.5481545533737052 0.5045091268718109
0.5698069696853195 0.485386032384138
0.5698069696853195 0.46626293789646517
0.5806331778411267 0.44713984340879226
0.5698069696853195 0.4280167489211194
0.5698069696853195 0.3706474654581008
0.5481545533737052 0.40889365443344655
0.5589807615295124 0.40889365443344655
0.5481545533737052 0.40889365443344655
0.5265021370620909 0.4280167489211194
0.5698069696853195 0.485386032384138
0.5806331778411267 0.5427553158471566
0.5806331778411267 0.5236322213594837
0.602285594152741 0.5236322213594837
0.602285594152741 0.485386032384138
0.613111802308548 0.4280167489211194
0.602285594152741 0.38977055994577364
0.5698069696853195 0.3706474654581008
0.5589807615295124 0.3706474654581008
0.5589807615295124 0.40889365443344655
0.5589807615295124 0.44713984340879226
0.5589807615295124 0.485386032384138
0.602285594152741 0.5045091268718109
0.602285594152741 0.5427553158471566
0.6239380104643552 0.5045091268718109
0.6347642186201623 0.5427553158471566
0.6347642186201623 0.44713984340879226
0.6455904267759695 0.44713984340879226
0.6239380104643552 0.46626293789646517
0.6239380104643552 0.4280167489211194
0.6239380104643552 0.4280167489211194
0.613111802308548 0.46626293789646517
0.613111802308548 0.5045091268718109
0.6347642186201623 0.5618784103348295
0.6455904267759695 0.5810015048225023
0.6455904267759695 0.6192476937978482
0.6347642186201623 0.6192476937978482
0.6564166349317766 0.6001245993101753
0.6672428430875837 0.5810015048225023
0.6672428430875837 0.5618784103348295
0.6455904267759695 0.5236322213594837
0.6239380104643552 0.5045091268718109
0.6239380104643552 0.5045091268718109
0.6239380104643552 0.5427553158471566
0.6347642186201623 0.5236322213594837
0.6347642186201623 0.6192476937978482
0.6455904267759695 0.6192476937978482
0.6455904267759695 0.638370788285521
0.6672428430875837 0.6192476937978482
0.688895259399198 0.6001245993101753
0.688895259399198 0.5427553158471566
0.688895259399198 0.6001245993101753
0.6672428430875837 0.5236322213594837
0.6672428430875837 0.5427553158471566
0.6564166349317766 0.5427553158471566
0.6347642186201623 0.5427553158471566
0.6239380104643552 0.6001245993101753
0.6347642186201623 0.6192476937978482
0.6455904267759695 0.6192476937978482
0.688895259399198 0.6192476937978482
0.688895259399198 0.638370788285521
0.688895259399198 0.638370788285521
0.6997214675550052 0.638370788285521
0.6780690512433909 0.6192476937978482
0.6564166349317766 0.6001245993101753
0.6672428430875837 0.6001245993101753
0.6455904267759695 0.6001245993101753
0.6239380104643552 0.5810015048225023
0.6455904267759695 0.6001245993101753
0.6672428430875837 0.6001245993101753
0.6564166349317766 0.6192476937978482
0.688895259399198 0.6574938827731939
0.6997214675550052 0.638370788285521
0.7105476757108123 0.6574938827731939
0.6780690512433909 0.6574938827731939
0.6997214675550052 0.6192476937978482
0.688895259399198 0.638370788285521
0.688895259399198 0.5810015048225023
0.6672428430875837 0.5618784103348295
0.6780690512433909 0.5427553158471566
0.688895259399198 0.5427553158471566
0.7213738838666195 0.5618784103348295
0.7322000920224266 0.6001245993101753
0.7430263001782338 0.5810015048225023
0.7646787164898481 0.6574938827731939
0.7755049246456552 0.6192476937978482
0.7322000920224266 0.638370788285521
0.7430263001782338 0.6001245993101753
0.7430263001782338 0.5045091268718109
0.7322000920224266 0.5236322213594837
0.6997214675550052 0.5427553158471566
0.6997214675550052 0.5236322213594837
0.7213738838666195 0.5236322213594837
0.7755049246456552 0.6001245993101753
0.7646787164898481 0.638370788285521
0.7971573409572695 0.6192476937978482
0.8404621735804981 0.6957400717485396
0.8512883817363053 0.6766169772608668
0.8621145898921124 0.638370788285521
0.8729407980479196 0.6192476937978482
0.8404621735804981 0.5618784103348295
0.8188097572688838 0.5427553158471566
0.7971573409572695 0.5236322213594837
0.7755049246456552 0.5810015048225023
0.7646787164898481 0.5810015048225023
0.7646787164898481 0.638370788285521
0.7755049246456552 0.638370788285521
0.7646787164898481 0.7148631662362125
0.7646787164898481 0.7531093552115582
0.7538525083340409 0.7148631662362125
0.7646787164898481 0.6766169772608668
0.7863311328014624 0.6957400717485396
0.829635965424691 0.7531093552115582
0.8404621735804981 0.7148631662362125
0.8621145898921124 0.7339862607238854
0.8729407980479196 0.7531093552115582
0.8621145898921124 0.7339862607238854
0.8512883817363053 0.791355544186904
0.8404621735804981 0.791355544186904
0.7971573409572695 0.7339862607238854
0.8188097572688838 0.7531093552115582
0.7863311328014624 0.6766169772608668
0.7322000920224266 0.6001245993101753
0.688895259399198 0.5618784103348295
0.6564166349317766 0.5045091268718109
0.6239380104643552 0.5236322213594837
0.613111802308548 0.485386032384138
0.602285594152741 0.5045091268718109
0.6239380104643552 0.5618784103348295
0.613111802308548 0.5236322213594837
0.6564166349317766 0.5427553158471566
0.6455904267759695 0.46626293789646517
0.6780690512433909 0.5045091268718109
0.6564166349317766 0.44713984340879226
0.6564166349317766 0.46626293789646517
0.6347642186201623 0.332401276482755
0.5698069696853195 0.25590889853206356
0.5373283452178981 0.16029342609369918
0.5265021370620909 0.16029342609369918
0.5481545533737052 0.31327818199508217
0.688895259399198 0.6192476937978482
0.8729407980479196 1.0017095835513055
1.0678125448524483 1.4224176622801088
1.2843367079685912 1.8048795520335663
1.490034662928927 1.996110496910295
1.6199491607986127 1.862248835496585
1.641601577110227 1.4797869457431274
1.5116870792405412 0.791355544186904
1.2193794590337483 -0.27953774712277685
0.7971573409572695 -1.446046510870822
0.42906626365982653 -2.3830781407667927
0.3208041821017551 -2.822909313983269
0.5156759289062838 -2.650801463594213
0.9487242551385696 -2.057985534476354
1.5116870792405412 -1.2165693770187476
2.128780944121549 -0.3751532195611412
2.7783534334699778 0.2941550875074093
3.341316257571949 0.7339862607238854
3.839321832739078 0.9634633945759599
4.272370158971364 0.9634633945759599
4.640461236268807 0.8487248276499226
4.921942648319793 0.6574938827731939
5.095161978812707 0.5236322213594837
5.16011922774755 0.38977055994577364
5.1384668114359355 0.2176627095567178
5.051857146189478 0.19853961506904494
4.911116440163986 0.2750319930197364
4.651287444424614 0.3706474654581008
4.261543950815557 0.485386032384138
3.828495624583271 0.6192476937978482
3.341316257571949 0.6766169772608668
2.800005849781592 0.7531093552115582
2.1829119849005845 0.7148631662362125
1.5766443281753841 0.6766169772608668
1.046160128540834 0.46626293789646517
0.5914593859969338 0.40889365443344655
0.2341945168552979 0.2750319930197364
0.05014897820657639 0.17941652058137206
-0.05811310335149509 0.2176627095567178
0.006844145583347798 0.2941550875074093
0.07180139451819069 0.44713984340879226
0.13675864345303357 0.5045091268718109
0.1908896842320693 0.5427553158471566
0.2341945168552979 0.6766169772608668
0.26667314132271935 0.6766169772608668
0.2991517657901408 0.7531093552115582
0.3208041821017551 0.8104786386745768
0.3424565984133694 0.8869710166252683
0.38576143103659793 0.944340300088287
0.40741384734821223 1.0399557725266513
0.4182400555040194 1.09732505598967
0.40741384734821223 1.1164481504773427
0.4182400555040194 1.1164481504773427
0.461544888127248 1.1355712449650157
0.4398924718156337 1.078201961501997
0.42906626365982653 1.078201961501997
0.3965876391924051 1.059078867014324
0.38576143103659793 1.0208326780389785
0.3641090147249837 1.0208326780389785
0.3749352228807908 1.0399557725266513
0.3749352228807908 1.059078867014324
0.3641090147249837 1.1164481504773427
0.3965876391924051 1.1355712449650157
0.4182400555040194 1.2120636229157071
0.3965876391924051 1.1929405284280343
0.42906626365982653 1.1738174339403615
0.40741384734821223 1.1929405284280343
0.38576143103659793 1.1355712449650157
0.3641090147249837 1.059078867014324
0.3641090147249837 1.078201961501997
0.3424565984133694 0.9825864890636327
0.3208041821017551 1.059078867014324
0.3208041821017551 1.078201961501997
0.3424565984133694 1.1355712449650157
0.33163039025756225 1.1929405284280343
0.3424565984133694 1.1738174339403615
0.35328280656917654 1.2311867174033801
0.3749352228807908 1.1738174339403615
0.3424565984133694 1.1355712449650157
0.3208041821017551 1.078201961501997
0.33163039025756225 1.078201961501997
0.2991517657901408 1.0399557725266513
0.26667314132271935 1.0399557725266513
0.24502072501110506 1.059078867014324
0.24502072501110506 1.078201961501997
0.20171589238787646 1.1355712449650157
0.22336830869949076 1.09732505598967
0.2341945168552979 1.1546943394526885
0.2125421005436836 1.078201961501997
0.22336830869949076 1.078201961501997
0.20171589238787646 1.0399557725266513
0.22336830869949076 1.0017095835513055
0.1908896842320693 0.9825864890636327
0.16923726792045501 0.9634633945759599
0.13675864345303357 0.925217205600614
0.12593243529722642 0.944340300088287
0.10428001898561212 0.925217205600614
0.12593243529722642 0.9634633945759599
0.10428001898561212 0.944340300088287
0.09345381082980497 0.8869710166252683
0.12593243529722642 0.9060941111129412
0.11510622714141927 0.9060941111129412
0.08262760267399782 0.8104786386745768
0.09345381082980497 0.8487248276499226
0.060975186362383534 0.8487248276499226
0.07180139451819069 0.791355544186904
0.028496561894962094 0.7531093552115582
0.006844145583347798 0.6957400717485396
-0.014808270728266496 0.7148631662362125
-0.025634478884073643 0.6957400717485396
-0.014808270728266496 0.6574938827731939
-0.03646068703988079 0.6001245993101753
-0.003982062572459349 0.6192476937978482
-0.014808270728266496 0.5427553158471566
-0.03646068703988079 0.5045091268718109
-0.04728689519568794 0.5236322213594837
-0.04728689519568794 0.4280167489211194
-0.06893931150730223 0.40889365443344655
-0.10141793597472368 0.35152437097042794
-0.11224414413053083 0.332401276482755
-0.13389656044214512 0.31327818199508217
-0.14472276859795227 0.2941550875074093
-0.11224414413053083 0.332401276482755
-0.12307035228633798 0.31327818199508217
-0.06893931150730223 0.2941550875074093
-0.03646068703988079 0.2176627095567178
-0.05811310335149509 0.17941652058137206
-0.04728689519568794 0.19853961506904494
-0.025634478884073643 0.10292414263068057
-0.025634478884073643 0.10292414263068057
-0.025634478884073643 0.04555485916766196
-0.025634478884073643 0.026431764679989082
-0.014808270728266496 -0.011814424295356661
0.03932277005076924 -0.011814424295356661
0.05014897820657639 -0.030937518783029534
0.07180139451819069 -0.011814424295356661
0.11510622714141927 -0.030937518783029534
0.15841105976464787 -0.030937518783029534
0.1908896842320693 -0.05006061327070241
0.1908896842320693 -0.08830680224604816
0.2125421005436836 -0.16479918019673964
0.2341945168552979 -0.1265529912213939
0.24502072501110506 -0.20304536917208538
0.2558469331669122 -0.22216846365975826
0.2991517657901408 -0.16479918019673964
0.3424565984133694 -0.14567608570906676
0.3965876391924051 -0.1265529912213939
0.4398924718156337 -0.06918370775837528
0.4723710962830551 -0.05006061327070241
0.5265021370620909 -0.05006061327070241
0.5481545533737052 -0.06918370775837528
0.5373283452178981 -0.08830680224604816
0.5806331778411267 -0.14567608570906676
0.613111802308548 -0.18392227468441252
0.602285594152741 -0.20304536917208538
0.6239380104643552 -0.20304536917208538
0.613111802308548 -0.16479918019673964
0.613111802308548 -0.1265529912213939
0.6455904267759695 -0.030937518783029534
0.6780690512433909 0.0073086701923162104
0.6455904267759695 0.026431764679989082
0.688895259399198 0.04555485916766196
0.6672428430875837 0.0073086701923162104
0.688895259399198 0.0073086701923162104
0.6347642186201623 -0.06918370775837528
0.602285594152741 -0.05006061327070241
0.602285594152741 -0.06918370775837528
0.5373283452178981 -0.08830680224604816
0.5265021370620909 -0.011814424295356661
0.4831973044388623 0.026431764679989082
0.5048497207504766 0.04555485916766196
0.4940235125946694 0.0838010481430077
0.4398924718156337 0.10292414263068057
0.4398924718156337 0.10292414263068057
0.4398924718156337 0.04555485916766196
0.3965876391924051 0.04555485916766196
0.3424565984133694 0.026431764679989082
0.2991517657901408 0.0073086701923162104
0.26667314132271935 -0.030937518783029534
0.22336830869949076 -0.011814424295356661
0.1908896842320693 -0.030937518783029534
0.16923726792045501 0.026431764679989082
0.16923726792045501 0.06467795365533482
0.14758485160884072 0.026431764679989082
0.15841105976464787 0.0838010481430077
0.15841105976464787 0.04555485916766196
0.12593243529722642 -0.011814424295356661
0.10428001898561212 -0.011814424295356661
0.10428001898561212 -0.06918370775837528
0.060975186362383534 -0.06918370775837528
0.07180139451819069 -0.05006061327070241
0.060975186362383534 -0.06918370775837528
0.03932277005076924 0.0073086701923162104
0.060975186362383534 0.026431764679989082
0.060975186362383534 0.04555485916766196
0.060975186362383534 0.0073086701923162104
0.07180139451819069 0.026431764679989082
0.12593243529722642 0.026431764679989082
0.09345381082980497 -0.030937518783029534
0.08262760267399782 -0.030937518783029534
0.08262760267399782 -0.011814424295356661
0.09345381082980497 -0.05006061327070241
0.09345381082980497 0.0073086701923162104
0.05014897820657639 0.0073086701923162104
0.060975186362383534 0.026431764679989082
0.09345381082980497 0.0073086701923162104
0.12593243529722642 0.0073086701923162104
0.12593243529722642 0.026431764679989082
0.13675864345303357 0.0073086701923162104
0.15841105976464787 0.04555485916766196
0.14758485160884072 0.04555485916766196
0.14758485160884072 0.06467795365533482
0.15841105976464787 0.0073086701923162104
0.13675864345303357 0.04555485916766196
0.14758485160884072 -0.011814424295356661
0.13675864345303357 0.04555485916766196
0.14758485160884072 0.0073086701923162104
0.15841105976464787 0.04555485916766196
0.18006347607626216 0.04555485916766196
0.18006347607626216 0.04555485916766196
0.2125421005436836 0.12204723711835344
0.22336830869949076 0.12204723711835344
0.20171589238787646 0.12204723711835344
0.2341945168552979 0.12204723711835344
0.22336830869949076 0.0838010481430077
0.2125421005436836 0.026431764679989082
0.18006347607626216 -0.030937518783029534
0.18006347607626216 -0.011814424295356661
0.18006347607626216 0.0073086701923162104
0.20171589238787646 0.0073086701923162104
0.1908896842320693 0.06467795365533482
0.2341945168552979 0.0838010481430077
0.22336830869949076 0.0838010481430077
0.22336830869949076 0.10292414263068057
0.22336830869949076 0.10292414263068057
0.16923726792045501 0.0073086701923162104
0.18006347607626216 0.026431764679989082
0.18006347607626216 -0.030937518783029534
0.20171589238787646 0.0073086701923162104
0.20171589238787646 -0.011814424295356661
0.18006347607626216 0.04555485916766196
0.22336830869949076 0.0838010481430077
0.2125421005436836 0.10292414263068057
0.22336830869949076 0.0838010481430077
0.24502072501110506 0.10292414263068057
0.24502072501110506 0.0838010481430077
0.24502072501110506 0.0073086701923162104
0.2341945168552979 0.0073086701923162104
0.2341945168552979 -0.011814424295356661
0.2125421005436836 -0.06918370775837528
0.20171589238787646 -0.08830680224604816
0.18006347607626216 -0.06918370775837528
0.1908896842320693 -0.030937518783029534
0.1908896842320693 -0.06918370775837528
0.20171589238787646 0.0073086701923162104
0.22336830869949076 0.0073086701923162104
0.2341945168552979 0.026431764679989082
0.2558469331669122 -0.030937518783029534
0.2774993494785265 -0.011814424295356661
0.26667314132271935 -0.030937518783029534
0.2558469331669122 -0.08830680224604816
0.2125421005436836 -0.06918370775837528
0.2125421005436836 -0.06918370775837528
0.2125421005436836 -0.06918370775837528
0.1908896842320693 -0.030937518783029534
0.1908896842320693 -0.030937518783029534
0.1908896842320693 -0.030937518783029534
0.1908896842320693 -0.011814424295356661
0.1908896842320693 0.026431764679989082
0.2341945168552979 0.0073086701923162104
0.24502072501110506 0.0073086701923162104
0.2125421005436836 -0.011814424295356661
0.2125421005436836 0.0073086701923162104
0.1908896842320693 -0.030937518783029534
0.20171589238787646 0.0073086701923162104
0.1908896842320693 -0.06918370775837528
0.2125421005436836 -0.030937518783029534
0.20171589238787646 -0.030937518783029534
0.1908896842320693 -0.011814424295356661
0.20171589238787646 -0.030937518783029534
0.2125421005436836 0.06467795365533482
0.1908896842320693 0.04555485916766196
0.20171589238787646 0.04555485916766196
0.20171589238787646 0.026431764679989082
0.1908896842320693 -0.05006061327070241
0.18006347607626216 -0.06918370775837528
0.15841105976464787 -0.10742989673372103
0.13675864345303357 -0.16479918019673964
0.14758485160884072 -0.030937518783029534
0.14758485160884072 -0.05006061327070241
0.16923726792045501 0.0073086701923162104
0.16923726792045501 0.04555485916766196
0.22336830869949076 0.04555485916766196
0.22336830869949076 0.0073086701923162104
0.2125421005436836 -0.011814424295356661
0.2341945168552979 -0.030937518783029534
0.1908896842320693 -0.10742989673372103
0.1908896842320693 -0.1265529912213939
0.18006347607626216 -0.08830680224604816
0.14758485160884072 -0.16479918019673964
0.14758485160884072 -0.1265529912213939
0.16923726792045501 -0.08830680224604816
0.16923726792045501 -0.06918370775837528
0.16923726792045501 -0.030937518783029534
0.1908896842320693 -0.011814424295356661
0.20171589238787646 -0.030937518783029534
0.20171589238787646 -0.08830680224604816
0.1908896842320693 -0.06918370775837528
0.18006347607626216 -0.1265529912213939
0.15841105976464787 -0.10742989673372103
0.13675864345303357 -0.1265529912213939
0.11510622714141927 -0.06918370775837528
0.13675864345303357 -0.05006061327070241
0.13675864345303357 -0.06918370775837528
0.12593243529722642 -0.030937518783029534
0.14758485160884072 -0.06918370775837528
0.16923726792045501 -0.030937518783029534
0.1908896842320693 -0.030937518783029534
0.16923726792045501 -0.10742989673372103
0.18006347607626216 -0.08830680224604816
0.15841105976464787 -0.08830680224604816
0.14758485160884072 -0.06918370775837528
0.13675864345303357 -0.10742989673372103
0.14758485160884072 -0.1265529912213939
0.14758485160884072 -0.14567608570906676
0.15841105976464787 -0.08830680224604816
0.18006347607626216 -0.10742989673372103
0.1908896842320693 -0.08830680224604816
0.20171589238787646 -0.06918370775837528
0.2125421005436836 -0.10742989673372103
0.20171589238787646 -0.1265529912213939
0.1908896842320693 -0.14567608570906676
0.14758485160884072 -0.14567608570906676
0.14758485160884072 -0.16479918019673964
0.15841105976464787 -0.18392227468441252
0.15841105976464787 -0.16479918019673964
0.15841105976464787 -0.1265529912213939
0.20171589238787646 -0.10742989673372103
0.2341945168552979 -0.08830680224604816
0.24502072501110506 -0.05006061327070241
0.26667314132271935 -0.030937518783029534
0.2774993494785265 -0.030937518783029534
0.2774993494785265 -0.011814424295356661
0.2774993494785265 -0.030937518783029534
0.2774993494785265 -0.030937518783029534
0.26667314132271935 -0.05006061327070241
0.28832555763433365 -0.1265529912213939
0.22336830869949076 -0.10742989673372103
0.2341945168552979 -0.08830680224604816
0.20171589238787646 -0.06918370775837528
0.20171589238787646 -0.05006061327070241
0.18006347607626216 -0.05006061327070241
0.20171589238787646 0.0073086701923162104
0.18006347607626216 0.0073086701923162104
0.18006347607626216 0.026431764679989082
0.16923726792045501 -0.011814424295356661
0.15841105976464787 0.0073086701923162104
0.16923726792045501 -0.011814424295356661
0.18006347607626216 0.0073086701923162104
0.1908896842320693 0.0073086701923162104
0.2125421005436836 0.04555485916766196
0.24502072501110506 0.06467795365533482
0.24502072501110506 0.16029342609369918
0.28832555763433365 0.0838010481430077
0.2774993494785265 0.10292414263068057
0.2774993494785265 0.04555485916766196
0.2341945168552979 0.04555485916766196
0.20171589238787646 -0.011814424295356661
0.12593243529722642 -0.08830680224604816
0.08262760267399782 -0.1265529912213939
0.05014897820657639 -0.22216846365975826
-0.014808270728266496 -0.260414652635104
-0.025634478884073643 -0.24129155814743114
-0.025634478884073643 -0.27953774712277685
0.006844145583347798 -0.20304536917208538
0.017670353739154945 -0.22216846365975826
0.017670353739154945 -0.10742989673372103
0.028496561894962094 -0.14567608570906676
0.028496561894962094 -0.16479918019673964
-0.014808270728266496 -0.20304536917208538
-0.03646068703988079 -0.29866084161044976
-0.07976551966310938 -0.43252250302415984
-0.10141793597472368 -0.5472610699501971
-0.14472276859795227 -0.5472610699501971
-0.10141793597472368 -0.39427631404881414
0.03932277005076924 -0.030937518783029534
0.24502072501110506 0.40889365443344655
0.4398924718156337 0.791355544186904
0.6455904267759695 1.078201961501997
0.8079835491130767 1.1355712449650157
0.9162456306711482 0.9825864890636327
0.9270718388269553 0.6766169772608668
0.8079835491130767 -0.011814424295356661
0.5914593859969338 -0.8723536762406359
0.26667314132271935 -1.924123873062644
-0.05811310335149509 -2.7655400305202504
-0.24215864200021658 -3.243617392712072
-0.13389656044214512 -3.1671250147613805
0.20171589238787646 -2.669924558081886
0.7322000920224266 -2.019739345501008
1.3059891242802055 -1.2739386604817662
1.85812574022637 -0.6811227313639072
2.356131315393499 -0.16479918019673964
2.8541368905606275 0.16029342609369918
3.2655328004812993 0.3706474654581008
3.676928710401971 0.44713984340879226
4.034193579543607 0.5427553158471566
4.380632240529436 0.5236322213594837
4.618808819957192 0.5427553158471566
4.737897109671072 0.485386032384138
4.759549525982686 0.2941550875074093
4.640461236268807 -0.030937518783029534
4.423937073152664 -0.3177839360981226
4.120803244790064 -0.45164559751183275
3.7202335430251994 -0.5855072589255428
3.2005755515464562 -0.6237534479008886
2.670091351911906 -0.5281379754625242
2.1829119849005845 -0.43252250302415984
1.6632539934218413 -0.3560301250734684
1.208553250877941 -0.24129155814743114
0.6997214675550052 -0.16479918019673964
0.24502072501110506 -0.16479918019673964
-0.14472276859795227 -0.260414652635104
-0.43703038880474526 -0.39427631404881414
-0.642728343765081 -0.45164559751183275
-0.7293380090115382 -0.5281379754625242
-0.7509904253231525 -0.4707686919995056
-0.7401642171673454 -0.39427631404881414
-0.7185118008557311 -0.29866084161044976
-0.6860331763883096 -0.22216846365975826
-0.642728343765081 -0.1265529912213939
-0.6319021356092739 -0.05006061327070241
-0.566944886674431 0.0073086701923162104
-0.5019876377395881 0.12204723711835344
-0.45868280511635956 0.19853961506904494
-0.41537797249313096 0.2941550875074093
-0.37207313986990237 0.35152437097042794
-0.3287683072466738 0.35152437097042794
-0.3395945154024809 0.3706474654581008
-0.3612469317140952 0.332401276482755
-0.3612469317140952 0.31327818199508217
-0.41537797249313096 0.31327818199508217
-0.41537797249313096 0.332401276482755
-0.4262041806489381 0.31327818199508217
-0.45868280511635956 0.35152437097042794
-0.4695090132721667 0.38977055994577364
-0.4478565969605524 0.44713984340879226
-0.45868280511635956 0.40889365443344655
-0.4045517643373238 0.4280167489211194
-0.37207313986990237 0.38977055994577364
-0.3828993480257095 0.35152437097042794
-0.37207313986990237 0.3706474654581008
-0.41537797249313096 0.38977055994577364
-0.4262041806489381 0.38977055994577364
-0.45868280511635956 0.3706474654581008
-0.5019876377395881 0.40889365443344655
-0.48033522142797386 0.38977055994577364
-0.4478565969605524 0.4280167489211194
-0.45868280511635956 0.4280167489211194
-0.45868280511635956 0.38977055994577364
-0.45868280511635956 0.4280167489211194
-0.4262041806489381 0.38977055994577364
-0.45868280511635956 0.40889365443344655
-0.4478565969605524 0.38977055994577364
-0.45868280511635956 0.3706474654581008
-0.5019876377395881 0.38977055994577364
-0.5344662622070095 0.3706474654581008
-0.5561186785186238 0.332401276482755
-0.566944886674431 0.25590889853206356
-0.5561186785186238 0.2941550875074093
-0.5777710948302381 0.2941550875074093
-0.5885973029860453 0.332401276482755
-0.566944886674431 0.35152437097042794
-0.566944886674431 0.35152437097042794
-0.5561186785186238 0.31327818199508217
-0.5561186785186238 0.31327818199508217
-0.5885973029860453 0.2750319930197364
-0.6210759274534667 0.23678580404439067
-0.6319021356092739 0.23678580404439067
-0.6643807600766953 0.19853961506904494
-0.6752069682325025 0.17941652058137206
-0.6968593845441168 0.17941652058137206
-0.6860331763883096 0.2176627095567178
-0.6752069682325025 0.17941652058137206
-0.6643807600766953 0.23678580404439067
-0.6643807600766953 0.23678580404439067
-0.642728343765081 0.17941652058137206
-0.6860331763883096 0.2176627095567178
-0.7293380090115382 0.06467795365533482
-0.7726428416347668 0.026431764679989082
-0.8051214661021883 -0.011814424295356661
-0.8376000905696097 -0.05006061327070241
-0.8376000905696097 -0.06918370775837528
-0.8376000905696097 -0.08830680224604816
-0.8051214661021883 -0.011814424295356661
-0.8051214661021883 0.026431764679989082
-0.7942952579463811 -0.011814424295356661
-0.8159476742579954 -0.06918370775837528
-0.8159476742579954 -0.14567608570906676
-0.8376000905696097 -0.16479918019673964
-0.8809049231928383 -0.27953774712277685
-0.8917311313486455 -0.29866084161044976
-0.9025573395044526 -0.33690703058579546
-0.9025573395044526 -0.33690703058579546
-0.9242097558160669 -0.39427631404881414
-0.9458621721276812 -0.39427631404881414
-0.9242097558160669 -0.413399408536487
-0.9025573395044526 -0.43252250302415984
-0.8917311313486455 -0.39427631404881414
-0.859252506881224 -0.43252250302415984
-0.8917311313486455 -0.5281379754625242
-0.9025573395044526 -0.5855072589255428
-0.9133835476602598 -0.70024582585158
-0.8809049231928383 -0.7576151093145986
-0.8809049231928383 -0.7576151093145986
-0.859252506881224 -0.7767382038022715
-0.8484262987254169 -0.7958612982899445
-0.8159476742579954 -0.7384920148269258
-0.783469049790574 -0.7193689203392529
-0.7509904253231525 -0.7193689203392529
-0.7185118008557311 -0.70024582585158
-0.6752069682325025 -0.7384920148269258
-0.6535545519208882 -0.7576151093145986
-0.5885973029860453 -0.7767382038022715
-0.5777710948302381 -0.8723536762406359
-0.5452924703628167 -0.8149843927776173
-0.5128138458953952 -0.7958612982899445
-0.4695090132721667 -0.8149843927776173
-0.43703038880474526 -0.7576151093145986
-0.4045517643373238 -0.7767382038022715
-0.35042072355828807 -0.7767382038022715
-0.3071158909350595 -0.7767382038022715
-0.24215864200021658 -0.7958612982899445
-0.23133243384440944 -0.7576151093145986
-0.19885380937698802 -0.7767382038022715
-0.14472276859795227 -0.7576151093145986
-0.12307035228633798 -0.7384920148269258
-0.09059172781891653 -0.7193689203392529
-0.10141793597472368 -0.7767382038022715
-0.10141793597472368 -0.7384920148269258
-0.11224414413053083 -0.7576151093145986
-0.10141793597472368 -0.7767382038022715
-0.10141793597472368 -0.7384920148269258
-0.06893931150730223 -0.6428765423885614
-0.05811310335149509 -0.6237534479008886
-0.05811310335149509 -0.6237534479008886
-0.06893931150730223 -0.6046303534132157
-0.06893931150730223 -0.6619996368762343
-0.10141793597472368 -0.6619996368762343
-0.09059172781891653 -0.70024582585158
-0.13389656044214512 -0.7576151093145986
-0.16637518490956657 -0.7958612982899445
-0.19885380937698802 -0.7958612982899445
-0.19885380937698802 -0.7576151093145986
-0.23133243384440944 -0.7193689203392529
-0.25298485015602373 -0.6619996368762343
-0.27463726646763803 -0.6237534479008886
-0.2854634746234452 -0.6046303534132157
-0.3179420990908666 -0.6237534479008886
-0.35042072355828807 -0.6619996368762343
-0.3612469317140952 -0.70024582585158
-0.4045517643373238 -0.7384920148269258
-0.43703038880474526 -0.7576151093145986
-0.4695090132721667 -0.7384920148269258
-0.48033522142797386 -0.7384920148269258
-0.5019876377395881 -0.7193689203392529
-0.5236400540512024 -0.6619996368762343
-0.5344662622070095 -0.6811227313639072
-0.5452924703628167 -0.6046303534132157
-0.5452924703628167 -0.6237534479008886
-0.5344662622070095 -0.6428765423885614
-0.566944886674431 -0.6619996368762343
-0.5777710948302381 -0.70024582585158
-0.6102497192976596 -0.7576151093145986
-0.5994235111418524 -0.7958612982899445
-0.6102497192976596 -0.7767382038022715
-0.5994235111418524 -0.7193689203392529
-0.6102497192976596 -0.6619996368762343
-0.5777710948302381 -0.6428765423885614
-0.5777710948302381 -0.6237534479008886
-0.5561186785186238 -0.5855072589255428
-0.5344662622070095 -0.56638416443787
-0.5452924703628167 -0.6237534479008886
-0.5344662622070095 -0.6237534479008886
-0.5344662622070095 -0.56638416443787
-0.5344662622070095 -0.6237534479008886
-0.566944886674431 -0.6237534479008886
-0.5452924703628167 -0.5855072589255428
-0.566944886674431 -0.56638416443787
-0.566944886674431 -0.5281379754625242
-0.5236400540512024 -0.5090148809748514
-0.5128138458953952 -0.48989178648717846
-0.4695090132721667 -0.48989178648717846
-0.4695090132721667 -0.4707686919995056
-0.45868280511635956 -0.5472610699501971
-0.4478565969605524 -0.5472610699501971
-0.45868280511635956 -0.56638416443787
-0.45868280511635956 -0.4707686919995056
-0.4695090132721667 -0.48989178648717846
-0.491161429583781 -0.5090148809748514
-0.491161429583781 -0.5090148809748514
-0.5019876377395881 -0.48989178648717846
-0.4695090132721667 -0.45164559751183275
-0.45868280511635956 -0.3560301250734684
-0.41537797249313096 -0.39427631404881414
-0.41537797249313096 -0.3751532195611412
-0.4045517643373238 -0.43252250302415984
-0.4262041806489381 -0.48989178648717846
-0.4262041806489381 -0.5090148809748514
-0.4478565969605524 -0.5090148809748514
-0.43703038880474526 -0.5472610699501971
-0.43703038880474526 -0.5281379754625242
-0.43703038880474526 -0.5090148809748514
-0.4262041806489381 -0.5281379754625242
-0.41537797249313096 -0.5090148809748514
-0.4045517643373238 -0.45164559751183275
-0.39372555618151667 -0.413399408536487
-0.39372555618151667 -0.39427631404881414
-0.3828993480257095 -0.413399408536487
-0.3828993480257095 -0.43252250302415984
-0.37207313986990237 -0.413399408536487
-0.39372555618151667 -0.45164559751183275
-0.41537797249313096 -0.45164559751183275
-0.43703038880474526 -0.43252250302415984
-0.39372555618151667 -0.43252250302415984
-0.39372555618151667 -0.43252250302415984
-0.3828993480257095 -0.413399408536487
-0.39372555618151667 -0.413399408536487
-0.3828993480257095 -0.3560301250734684
-0.35042072355828807 -0.3751532195611412
-0.3612469317140952 -0.39427631404881414
-0.37207313986990237 -0.39427631404881414
-0.39372555618151667 -0.39427631404881414
-0.37207313986990237 -0.413399408536487
-0.4045517643373238 -0.45164559751183275
-0.41537797249313096 -0.4707686919995056
-0.39372555618151667 -0.4707686919995056
-0.4262041806489381 -0.5090148809748514
-0.37207313986990237 -0.5090148809748514
-0.37207313986990237 -0.4707686919995056
-0.3828993480257095 -0.45164559751183275
-0.37207313986990237 -0.48989178648717846
-0.39372555618151667 -0.4707686919995056
-0.3612469317140952 -0.45164559751183275
-0.3828993480257095 -0.43252250302415984
-0.39372555618151667 -0.48989178648717846
-0.4045517643373238 -0.4707686919995056
-0.41537797249313096 -0.56638416443787
-0.3828993480257095 -0.5090148809748514
-0.39372555618151667 -0.5472610699501971
-0.4262041806489381 -0.5281379754625242
-0.3828993480257095 -0.48989178648717846
-0.35042072355828807 -0.43252250302415984
-0.35042072355828807 -0.413399408536487
-0.3395945154024809 -0.3751532195611412
-0.3612469317140952 -0.4707686919995056
-0.3828993480257095 -0.5090148809748514
-0.37207313986990237 -0.56638416443787
-0.3612469317140952 -0.56638416443787
-0.37207313986990237 -0.5855072589255428
-0.3828993480257095 -0.5855072589255428
-0.37207313986990237 -0.5281379754625242
-0.35042072355828807 -0.43252250302415984
-0.3395945154024809 -0.45164559751183275
-0.3179420990908666 -0.3751532195611412
-0.3395945154024809 -0.39427631404881414
-0.3287683072466738 -0.48989178648717846
-0.3395945154024809 -0.5281379754625242
-0.3179420990908666 -0.5281379754625242
-0.35042072355828807 -0.5090148809748514
-0.35042072355828807 -0.48989178648717846
-0.37207313986990237 -0.5090148809748514
-0.35042072355828807 -0.4707686919995056
-0.37207313986990237 -0.48989178648717846
-0.3395945154024809 -0.43252250302415984
-0.35042072355828807 -0.45164559751183275
-0.35042072355828807 -0.4707686919995056
-0.3287683072466738 -0.4707686919995056
-0.3287683072466738 -0.5090148809748514
-0.3287683072466738 -0.5090148809748514
-0.3612469317140952 -0.48989178648717846
-0.3612469317140952 -0.5090148809748514
-0.37207313986990237 -0.56638416443787
-0.3287683072466738 -0.5090148809748514
-0.35042072355828807 -0.5090148809748514
-0.3395945154024809 -0.48989178648717846
-0.3395945154024809 -0.4707686919995056
-0.3287683072466738 -0.413399408536487
-0.3287683072466738 -0.45164559751183275
-0.3071158909350595 -0.4707686919995056
-0.3179420990908666 -0.5472610699501971
-0.35042072355828807 -0.5472610699501971
-0.3287683072466738 -0.5281379754625242
-0.3612469317140952 -0.5855072589255428
-0.3612469317140952 -0.5472610699501971
-0.37207313986990237 -0.5472610699501971
-0.3612469317140952 -0.5472610699501971
-0.3612469317140952 -0.5472610699501971
-0.37207313986990237 -0.5472610699501971
-0.3395945154024809 -0.5090148809748514
-0.3287683072466738 -0.5281379754625242
-0.3071158909350595 -0.5281379754625242
-0.3179420990908666 -0.48989178648717846
-0.3071158909350595 -0.5281379754625242
-0.3179420990908666 -0.48989178648717846
-0.3395945154024809 -0.5090148809748514
-0.39372555618151667 -0.5090148809748514
-0.37207313986990237 -0.5281379754625242
-0.3828993480257095 -0.5472610699501971
-0.37207313986990237 -0.5472610699501971
-0.3828993480257095 -0.5090148809748514
-0.3395945154024809 -0.5090148809748514
-0.35042072355828807 -0.43252250302415984
-0.35042072355828807 -0.413399408536487
-0.3287683072466738 -0.413399408536487
-0.3395945154024809 -0.413399408536487
-0.3395945154024809 -0.48989178648717846
-0.35042072355828807 -0.5090148809748514
-0.37207313986990237 -0.5472610699501971
-0.37207313986990237 -0.5472610699501971
-0.3612469317140952 -0.56638416443787
-0.3612469317140952 -0.5472610699501971
-0.35042072355828807 -0.5090148809748514
-0.3395945154024809 -0.5090148809748514
-0.3179420990908666 -0.4707686919995056
-0.29628968277925233 -0.413399408536487
-0.3179420990908666 -0.45164559751183275
-0.3395945154024809 -0.4707686919995056
-0.3612469317140952 -0.45164559751183275
-0.35042072355828807 -0.48989178648717846
-0.35042072355828807 -0.5281379754625242
-0.3612469317140952 -0.56638416443787
-0.3395945154024809 -0.5090148809748514
-0.3179420990908666 -0.56638416443787
-0.3179420990908666 -0.5281379754625242
-0.2638110583118309 -0.5281379754625242
-0.24215864200021658 -0.4707686919995056
-0.27463726646763803 -0.45164559751183275
-0.2854634746234452 -0.43252250302415984
-0.2854634746234452 -0.5090148809748514
-0.3179420990908666 -0.5472610699501971
-0.29628968277925233 -0.5090148809748514
-0.2854634746234452 -0.6237534479008886
-0.2854634746234452 -0.48989178648717846
-0.25298485015602373 -0.5281379754625242
-0.23133243384440944 -0.48989178648717846
-0.20968001753279517 -0.45164559751183275
-0.15554897675375942 -0.45164559751183275
-0.15554897675375942 -0.3560301250734684
-0.16637518490956657 -0.3751532195611412
-0.20968001753279517 -0.413399408536487
-0.20968001753279517 -0.48989178648717846
-0.23133243384440944 -0.5281379754625242
-0.27463726646763803 -0.5090148809748514
-0.2854634746234452 -0.5472610699501971
-0.29628968277925233 -0.56638416443787
-0.29628968277925233 -0.5281379754625242
-0.3071158909350595 -0.4707686919995056
-0.3071158909350595 -0.413399408536487
-0.25298485015602373 -0.33690703058579546
-0.19885380937698802 -0.27953774712277685
-0.15554897675375942 -0.24129155814743114
-0.14472276859795227 -0.27953774712277685
-0.12307035228633798 -0.27953774712277685
-0.14472276859795227 -0.3751532195611412
-0.19885380937698802 -0.3560301250734684
-0.2638110583118309 -0.39427631404881414
-0.2854634746234452 -0.43252250302415984
-0.3179420990908666 -0.4707686919995056
-0.3395945154024809 -0.43252250302415984
-0.3612469317140952 -0.4707686919995056
-0.37207313986990237 -0.43252250302415984
-0.35042072355828807 -0.45164559751183275
-0.3828993480257095 -0.4707686919995056
-0.3828993480257095 -0.5281379754625242
-0.4045517643373238 -0.56638416443787
-0.4262041806489381 -0.56638416443787
-0.4262041806489381 -0.5855072589255428
-0.4262041806489381 -0.5855072589255428
-0.4478565969605524 -0.6428765423885614
-0.48033522142797386 -0.6428765423885614
-0.4478565969605524 -0.5855072589255428
-0.4478565969605524 -0.6237534479008886
-0.43703038880474526 -0.6619996368762343
-0.4478565969605524 -0.70024582585158
-0.4478565969605524 -0.7767382038022715
-0.48033522142797386 -0.8723536762406359
-0.491161429583781 -0.8723536762406359
-0.43703038880474526 -0.6619996368762343
-0.2638110583118309 -0.27953774712277685
-0.05811310335149509 0.19853961506904494
0.15841105976464787 0.5618784103348295
0.38576143103659793 0.8104786386745768
0.5265021370620909 0.8296017331622497
0.5914593859969338 0.6192476937978482
0.5698069696853195 0.0838010481430077
0.3641090147249837 -0.7193689203392529
0.060975186362383534 -1.771139117161261
-0.3179420990908666 -2.8611555029586144
-0.5994235111418524 -3.6452023769532023
-0.6535545519208882 -3.8938026052929495
-0.43703038880474526 -3.6069561879778567
-0.014808270728266496 -3.0332633533476705
0.602285594152741 -2.2874626683284283
1.208553250877941 -1.5225388888215137
1.8364733239147557 -0.9105998652159817
2.431914772484149 -0.4707686919995056
2.9948775965861203 -0.29866084161044976
3.5037093799090564 -0.24129155814743114
3.9367577061413424 -0.3751532195611412
4.2507177426597496 -0.4707686919995056
4.391458448685243 -0.6046303534132157
4.423937073152664 -0.7767382038022715
4.380632240529436 -0.8914767707283088
4.174934285569099 -0.8532305817529631
3.8068432082716566 -0.7958612982899445
3.308837633104528 -0.70024582585158
2.7242223926909417 -0.5472610699501971
2.1179547359657414 -0.413399408536487
1.4467298303056983 -0.3177839360981226
0.7863311328014624 -0.3560301250734684
0.18006347607626216 -0.39427631404881414
-0.37207313986990237 -0.56638416443787
-0.783469049790574 -0.7576151093145986
-1.0541242536857527 -0.9297229597036545
-1.1623863352438242 -1.025338432142019
-1.1732125433996312 -0.9488460541913274
-1.1299077107764026 -0.9105998652159817
-1.0324718373741384 -0.7193689203392529
-0.9458621721276812 -0.5472610699501971
-0.859252506881224 -0.413399408536487
-0.8267738824138026 -0.3177839360981226
-0.7618166334789597 -0.20304536917208538
-0.7185118008557311 -0.14567608570906676
-0.6968593845441168 -0.10742989673372103
-0.6968593845441168 -0.16479918019673964
-0.7185118008557311 -0.14567608570906676
-0.7401642171673454 -0.16479918019673964
-0.7726428416347668 -0.22216846365975826
-0.7509904253231525 -0.16479918019673964
-0.7618166334789597 -0.1265529912213939
-0.783469049790574 -0.06918370775837528
-0.783469049790574 -0.05006061327070241
-0.7401642171673454 -0.06918370775837528
-0.7185118008557311 0.0073086701923162104
-0.7076855926999239 -0.030937518783029534
-0.7076855926999239 -0.030937518783029534
-0.7293380090115382 -0.10742989673372103
-0.7185118008557311 -0.14567608570906676
-0.7509904253231525 -0.10742989673372103
-0.7618166334789597 -0.1265529912213939
-0.7726428416347668 -0.14567608570906676
-0.7726428416347668 -0.05006061327070241
-0.7942952579463811 -0.030937518783029534
-0.7618166334789597 0.026431764679989082
-0.7726428416347668 0.06467795365533482
-0.7726428416347668 0.0838010481430077
-0.7293380090115382 0.0838010481430077
-0.7401642171673454 0.0073086701923162104
-0.7509904253231525 0.04555485916766196
-0.7618166334789597 -0.030937518783029534
-0.7726428416347668 0.0073086701923162104
-0.7726428416347668 -0.05006061327070241
-0.783469049790574 -0.030937518783029534
-0.8051214661021883 0.0073086701923162104
-0.8051214661021883 0.06467795365533482
-0.8159476742579954 0.06467795365533482
-0.8051214661021883 0.0838010481430077
-0.7726428416347668 0.10292414263068057
-0.7618166334789597 0.0838010481430077
-0.7726428416347668 0.06467795365533482
-0.783469049790574 0.0073086701923162104
-0.8159476742579954 -0.030937518783029534
-0.8267738824138026 0.0073086701923162104
-0.8484262987254169 -0.05006061327070241
-0.8809049231928383 -0.05006061327070241
-0.9133835476602598 -0.06918370775837528
-0.9025573395044526 -0.011814424295356661
-0.9133835476602598 -0.011814424295356661
-0.9025573395044526 0.026431764679989082
-0.9025573395044526 -0.011814424295356661
-0.8809049231928383 0.0073086701923162104
-0.8917311313486455 -0.08830680224604816
-0.9025573395044526 -0.08830680224604816
-0.9242097558160669 -0.10742989673372103
-0.9458621721276812 -0.16479918019673964
-0.9675145884392955 -0.14567608570906676
-1.010819421062524 -0.24129155814743114
-1.0216456292183311 -0.18392227468441252
-1.0541242536857527 -0.24129155814743114
-1.0649504618415597 -0.22216846365975826
-1.0541242536857527 -0.29866084161044976
-1.0216456292183311 -0.24129155814743114
-1.0216456292183311 -0.27953774712277685
-1.0541242536857527 -0.33690703058579546
-1.0541242536857527 -0.3751532195611412
-1.0541242536857527 -0.39427631404881414
-1.1299077107764026 -0.45164559751183275
-1.1299077107764026 -0.5090148809748514
-1.1407339189322099 -0.5472610699501971
-1.1732125433996312 -0.6237534479008886
-1.1732125433996312 -0.5855072589255428
-1.151560127088017 -0.5855072589255428
-1.151560127088017 -0.6046303534132157
-1.1407339189322099 -0.6237534479008886
-1.1407339189322099 -0.6046303534132157
-1.151560127088017 -0.6428765423885614
-1.151560127088017 -0.6811227313639072
-1.1407339189322099 -0.7384920148269258
-1.1299077107764026 -0.8149843927776173
-1.151560127088017 -0.8914767707283088
-1.1299077107764026 -0.9297229597036545
-1.1407339189322099 -0.9679691486790003
-1.1082552944647883 -0.9488460541913274
-1.1082552944647883 -0.8914767707283088
-1.086602878153174 -0.8723536762406359
-1.0324718373741384 -0.8914767707283088
-0.9999932129067169 -0.8723536762406359
-0.9675145884392955 -0.8914767707283088
-0.9458621721276812 -0.9679691486790003
-0.9675145884392955 -1.0635846211173647
-0.935035963971874 -1.0827077156050375
-0.935035963971874 -1.1018308100927103
-0.8917311313486455 -1.1400769990680562
-0.8917311313486455 -1.159200093555729
-0.859252506881224 -1.0827077156050375
-0.8159476742579954 -1.0444615266296917
-0.7618166334789597 -1.0062153376543461
-0.7185118008557311 -1.0062153376543461
-0.6860331763883096 -1.0444615266296917
-0.642728343765081 -1.0444615266296917
-0.6319021356092739 -1.025338432142019
-0.5777710948302381 -1.0827077156050375
-0.5777710948302381 -1.0635846211173647
-0.566944886674431 -1.1209539045803834
-0.5344662622070095 -1.1400769990680562
-0.5128138458953952 -1.1018308100927103
-0.48033522142797386 -1.0827077156050375
-0.4695090132721667 -1.025338432142019
-0.45868280511635956 -0.9870922431666731
-0.4262041806489381 -0.9488460541913274
-0.4045517643373238 -0.9105998652159817
-0.3828993480257095 -0.9488460541913274
-0.3612469317140952 -0.9679691486790003
-0.3612469317140952 -1.025338432142019
-0.37207313986990237 -1.0635846211173647
-0.3828993480257095 -1.1018308100927103
-0.4262041806489381 -1.0827077156050375
-0.4262041806489381 -1.0827077156050375
-0.43703038880474526 -1.025338432142019
-0.43703038880474526 -0.9679691486790003
-0.45868280511635956 -0.9105998652159817
-0.45868280511635956 -0.8341074872652902
-0.43703038880474526 -0.8723536762406359
-0.45868280511635956 -0.8532305817529631
-0.5128138458953952 -0.8914767707283088
-0.5128138458953952 -0.9297229597036545
-0.5344662622070095 -0.9105998652159817
-0.5561186785186238 -0.9297229597036545
-0.5994235111418524 -0.8723536762406359
-0.642728343765081 -0.8341074872652902
-0.6535545519208882 -0.7767382038022715
-0.7076855926999239 -0.8149843927776173
-0.7076855926999239 -0.8149843927776173
-0.7185118008557311 -0.8149843927776173
-0.7726428416347668 -0.8149843927776173
-0.7942952579463811 -0.9105998652159817
-0.8051214661021883 -0.9105998652159817
-0.8051214661021883 -0.9297229597036545
-0.8484262987254169 -0.8914767707283088
-0.8700787150370312 -0.8532305817529631
-0.8809049231928383 -0.8914767707283088
-0.9025573395044526 -0.8914767707283088
-0.9133835476602598 -0.8532305817529631
-0.9133835476602598 -0.8532305817529631
-0.935035963971874 -0.8532305817529631
-0.9458621721276812 -0.8532305817529631
-0.935035963971874 -0.8341074872652902
-0.9025573395044526 -0.8532305817529631
-0.935035963971874 -0.8149843927776173
-0.9133835476602598 -0.8532305817529631
-0.9242097558160669 -0.8532305817529631
-0.9675145884392955 -0.8914767707283088
-0.9458621721276812 -0.8532305817529631
-0.9242097558160669 -0.8723536762406359
-0.935035963971874 -0.8532305817529631
-0.9133835476602598 -0.8341074872652902
-0.9025573395044526 -0.8149843927776173
-0.9133835476602598 -0.8149843927776173
-0.8700787150370312 -0.7576151093145986
-0.8700787150370312 -0.7384920148269258
-0.8700787150370312 -0.7767382038022715
-0.8484262987254169 -0.7384920148269258
-0.8484262987254169 -0.8149843927776173
-0.8484262987254169 -0.7958612982899445
-0.859252506881224 -0.7958612982899445
-0.8700787150370312 -0.7958612982899445
-0.859252506881224 -0.7958612982899445
-0.8267738824138026 -0.8149843927776173
-0.8159476742579954 -0.7576151093145986
-0.7942952579463811 -0.7193689203392529
-0.8051214661021883 -0.70024582585158
-0.7726428416347668 -0.70024582585158
-0.7726428416347668 -0.70024582585158
-0.783469049790574 -0.70024582585158
-0.7942952579463811 -0.7384920148269258
-0.8051214661021883 -0.7576151093145986
-0.7726428416347668 -0.7576151093145986
-0.7726428416347668 -0.7576151093145986
-0.783469049790574 -0.7767382038022715
-0.7726428416347668 -0.7384920148269258
-0.7726428416347668 -0.7193689203392529
-0.7509904253231525 -0.6237534479008886
-0.7293380090115382 -0.6619996368762343
-0.7401642171673454 -0.6619996368762343
-0.7401642171673454 -0.6811227313639072
-0.7185118008557311 -0.70024582585158
-0.7401642171673454 -0.7958612982899445
-0.7726428416347668 -0.7958612982899445
-0.7401642171673454 -0.8341074872652902
-0.7509904253231525 -0.8149843927776173
-0.7618166334789597 -0.7767382038022715
-0.7401642171673454 -0.7384920148269258
-0.7293380090115382 -0.70024582585158
-0.7185118008557311 -0.6428765423885614
-0.7293380090115382 -0.6046303534132157
-0.6968593845441168 -0.6237534479008886
-0.7185118008557311 -0.6619996368762343
-0.7185118008557311 -0.70024582585158
-0.7076855926999239 -0.70024582585158
-0.7293380090115382 -0.7958612982899445
-0.7185118008557311 -0.7958612982899445
-0.7293380090115382 -0.7576151093145986
-0.7293380090115382 -0.70024582585158
-0.7293380090115382 -0.6619996368762343
-0.7076855926999239 -0.5472610699501971
-0.6860331763883096 -0.5472610699501971
-0.6860331763883096 -0.5855072589255428
-0.6643807600766953 -0.6046303534132157
-0.7076855926999239 -0.6811227313639072
-0.6752069682325025 -0.6811227313639072
-0.7293380090115382 -0.6619996368762343
-0.6968593845441168 -0.7384920148269258
-0.7401642171673454 -0.7193689203392529
-0.7185118008557311 -0.70024582585158
-0.6968593845441168 -0.6619996368762343
-0.6860331763883096 -0.6046303534132157
-0.6860331763883096 -0.5472610699501971
-0.6860331763883096 -0.56638416443787
-0.6752069682325025 -0.6046303534132157
-0.6860331763883096 -0.5855072589255428
-0.6860331763883096 -0.6237534479008886
-0.6968593845441168 -0.6428765423885614
-0.7185118008557311 -0.6811227313639072
-0.7185118008557311 -0.6811227313639072
-0.7185118008557311 -0.6428765423885614
-0.6968593845441168 -0.6237534479008886
-0.7076855926999239 -0.6046303534132157
-0.6968593845441168 -0.5472610699501971
-0.6860331763883096 -0.5855072589255428
-0.6752069682325025 -0.56638416443787
-0.6535545519208882 -0.56638416443787
-0.642728343765081 -0.6237534479008886
-0.6752069682325025 -0.6237534479008886
-0.6860331763883096 -0.6046303534132157
-0.6860331763883096 -0.6237534479008886
-0.7076855926999239 -0.6619996368762343
-0.7076855926999239 -0.6428765423885614
-0.7185118008557311 -0.6046303534132157
-0.7076855926999239 -0.5855072589255428
-0.6860331763883096 -0.56638416443787
-0.6643807600766953 -0.56638416443787
-0.6643807600766953 -0.56638416443787
-0.6535545519208882 -0.5472610699501971
-0.642728343765081 -0.5472610699501971
-0.6102497192976596 -0.6046303534132157
-0.6643807600766953 -0.5855072589255428
-0.6752069682325025 -0.6811227313639072
-0.6752069682325025 -0.6428765423885614
-0.6968593845441168 -0.6428765423885614
-0.6860331763883096 -0.6046303534132157
-0.7401642171673454 -0.5472610699501971
-0.7293380090115382 -0.5281379754625242
-0.6968593845441168 -0.5281379754625242
-0.6968593845441168 -0.5090148809748514
-0.6535545519208882 -0.5472610699501971
-0.642728343765081 -0.5472610699501971
-0.642728343765081 -0.5281379754625242
-0.642728343765081 -0.56638416443787
-0.6752069682325025 -0.5855072589255428
-0.6752069682325025 -0.5855072589255428
-0.6968593845441168 -0.56638416443787
-0.7076855926999239 -0.56638416443787
-0.7076855926999239 -0.5472610699501971
-0.7293380090115382 -0.5472610699501971
-0.6752069682325025 -0.5281379754625242
-0.6535545519208882 -0.48989178648717846
-0.6535545519208882 -0.5090148809748514
-0.6643807600766953 -0.5472610699501971
-0.6535545519208882 -0.5281379754625242
-0.6752069682325025 -0.6046303534132157
-0.6860331763883096 -0.6046303534132157
-0.6752069682325025 -0.6237534479008886
-0.6860331763883096 -0.5855072589255428
-0.7293380090115382 -0.5855072589255428
-0.7401642171673454 -0.5281379754625242
-0.6968593845441168 -0.5090148809748514
-0.6752069682325025 -0.5090148809748514
-0.6643807600766953 -0.5281379754625242
-0.642728343765081 -0.5090148809748514
-0.6968593845441168 -0.4707686919995056
-0.6643807600766953 -0.5090148809748514
-0.6752069682325025 -0.5281379754625242
-0.6860331763883096 -0.5472610699501971
-0.6968593845441168 -0.6046303534132157
-0.6860331763883096 -0.6046303534132157
-0.6968593845441168 -0.6237534479008886
-0.6968593845441168 -0.6046303534132157
-0.6752069682325025 -0.56638416443787
-0.7185118008557311 -0.5281379754625242
-0.6752069682325025 -0.5090148809748514
-0.642728343765081 -0.48989178648717846
-0.642728343765081 -0.48989178648717846
-0.642728343765081 -0.5090148809748514
-0.6535545519208882 -0.5281379754625242
-0.642728343765081 -0.56638416443787
-0.6643807600766953 -0.5281379754625242
-0.6643807600766953 -0.56638416443787
-0.6968593845441168 -0.6046303534132157
-0.6535545519208882 -0.56638416443787
-0.642728343765081 -0.5472610699501971
-0.6210759274534667 -0.5472610699501971
-0.5994235111418524 -0.48989178648717846
-0.566944886674431 -0.4707686919995056
-0.5777710948302381 -0.43252250302415984
-0.5777710948302381 -0.4707686919995056
-0.5885973029860453 -0.5090148809748514
-0.6210759274534667 -0.5472610699501971
-0.6319021356092739 -0.6237534479008886
-0.6752069682325025 -0.6619996368762343
-0.6643807600766953 -0.6046303534132157
-0.642728343765081 -0.56638416443787
