-1.1722106270118613 -0.2717310600379819
-1.1722106270118613 -0.23593838013227247
-1.122838303902558 -0.3791090997551103
-1.1722106270118613 -0.5580724992836575
-1.1598675462345356 -0.3791090997551103
-1.1104952231252323 -0.1822493602737083
-1.0240936576839514 -0.2538347200851272
-1.0240936576839514 -0.665450539000786
-0.9870644153519741 -0.7728285787179143
-0.9500351730199966 -0.593865179189367
-0.925349011465345 -0.4685907995193839
-0.9130059306880192 -0.48648713947223865
-0.8389474460240642 -0.5759688392365123
-0.7772320421374351 -0.5043834794250934
-0.7525458805827835 -0.593865179189367
-0.8019182036920868 -0.862310278482188
-0.8512905268013901 -0.987584658152171
-0.8759766883560417 -0.8802066184350427
-0.8019182036920868 -0.7549322387650595
-0.6908304766961544 -0.5401761593308029
-0.6167719920321995 -0.4506944595665292
-0.6044289112548736 -0.39700543970796504
-0.6044289112548736 -0.5043834794250934
-0.6044289112548736 -0.665450539000786
-0.5427135073682446 -0.6833468789536407
-0.443968861149638 -0.665450539000786
-0.36991037648568315 -0.6117615191422218
-0.3328811341537057 -0.6117615191422218
-0.3575672957083573 -0.6117615191422218
-0.30819497259905404 -0.7012432189064954
-0.20945032638044747 -0.6475541990479312
-0.1477349224938184 -0.5759688392365123
-0.07367643782986348 -0.4685907995193839
-0.01196103394323438 -0.3612127598022556
-0.01196103394323438 -0.28962739999083664
-0.03664719549788602 -0.28962739999083664
0.049754369943394716 -0.48648713947223865
0.13615593538467544 -0.8802066184350427
0.21021442004863036 -1.1307553777750088
0.21021442004863036 -1.0949626978692995
0.22255750082595618 -1.0233773380578806
0.27192982393525944 -0.987584658152171
0.3583313893765402 -0.987584658152171
0.45707603559514676 -0.862310278482188
0.50644835870445 -0.8265175985764784
0.50644835870445 -0.7370358988122049
0.45707603559514676 -0.5580724992836575
0.4200467932631693 -0.5580724992836575
0.4077037124858435 -0.8444139385293332
0.38301755093119183 -1.3992004770678297
0.34598830859921437 -1.7571272761249244
0.3213021470445627 -1.8108162959834886
0.24724366238060783 -1.7392309361720697
0.18552825849397872 -1.7392309361720697
0.14849901616200126 -1.7392309361720697
0.11146977383002381 -1.7929199560306337
0.049754369943394716 -1.9002979957477621
0.06209745072072053 -1.9181943357006168
0.025068208388743077 -1.775023616077779
-0.01196103394323438 -1.6676455763606508
-0.04899027627521184 -1.8287126359363433
-0.11070568016184093 -2.1329504151348737
-0.07367643782986348 -2.4550845342862586
-0.09836259938451511 -2.4550845342862586
-0.07367643782986348 -2.3656028345219853
-0.09836259938451511 -2.34770649456913
-0.12304876093916675 -2.34770649456913
-0.12304876093916675 -2.3656028345219853
-0.17242108404847004 -2.311913814663421
-0.2958518918217282 -2.3656028345219853
-0.36991037648568315 -2.4908772141919684
-0.3945965380403348 -2.5982552539090964
-0.41928269959498643 -2.5803589139562417
-0.41928269959498643 -2.634047933814806
-0.4809981034816155 -2.5803589139562417
-0.5056842650362672 -2.634047933814806
-0.5056842650362672 -2.705633293626225
-0.5303704265909188 -2.8130113333433533
-0.5427135073682446 -2.830907673296208
-0.5427135073682446 -2.830907673296208
-0.4809981034816155 -2.8845966931547724
-0.5056842650362672 -2.902493033107627
-0.5673996689228963 -2.956182052966191
-0.6414581535868511 -2.956182052966191
-0.6414581535868511 -2.8845966931547724
-0.6044289112548736 -2.8667003532019173
-0.5920858304775478 -2.8488040132490626
-0.5920858304775478 -2.902493033107627
-0.6784873959188286 -2.9203893730604817
-0.715516638250806 -2.9740783929190457
-0.7031735574734802 -3.009871072824755
-0.6661443151415027 -2.9740783929190457
-0.6908304766961544 -2.9919747328719004
-0.6784873959188286 -2.9919747328719004
-0.7031735574734802 -3.099352772589029
-0.7031735574734802 -3.1172491125418835
-0.7278597190281318 -3.0635600926833195
-0.715516638250806 -2.9740783929190457
-0.6784873959188286 -3.02776741277761
-0.6291150728095253 -3.081456432636174
-0.6538012343641769 -3.135145452494738
-0.6538012343641769 -3.135145452494738
-0.6538012343641769 -3.02776741277761
-0.6538012343641769 -2.9919747328719004
-0.6414581535868511 -2.9919747328719004
-0.6414581535868511 -3.009871072824755
-0.6538012343641769 -3.1172491125418835
-0.6661443151415027 -3.045663752730465
-0.6661443151415027 -3.009871072824755
-0.6414581535868511 -2.9382857130133364
-0.6291150728095253 -2.902493033107627
-0.6044289112548736 -2.956182052966191
-0.6167719920321995 -2.956182052966191
-0.5550565881455705 -2.9919747328719004
-0.518027345813593 -2.8845966931547724
-0.5056842650362672 -2.8130113333433533
-0.4933411842589413 -2.7235296335790795
-0.46865502270428966 -2.7235296335790795
-0.46865502270428966 -2.777218653437644
-0.45631194192696384 -2.7235296335790795
-0.4069396188176606 -2.68773695367337
-0.3945965380403348 -2.634047933814806
-0.3945965380403348 -2.5803589139562417
-0.4069396188176606 -2.508773554144823
-0.4069396188176606 -2.4550845342862586
-0.4069396188176606 -2.4192918543805493
-0.3452242149310315 -2.294017474710566
-0.2835088110444024 -2.2045357749462924
-0.20945032638044747 -2.1866394349934377
-0.18476416482579586 -2.1329504151348737
-0.13539184171649257 -2.0792613952763093
-0.18476416482579586 -2.0255723754177453
-0.20945032638044747 -1.9897796955120357
-0.18476416482579586 -1.971883355559181
-0.11070568016184093 -2.0255723754177453
-0.07367643782986348 -1.9897796955120357
-0.12304876093916675 -1.9539870156063264
-0.13539184171649257 -1.9181943357006168
-0.13539184171649257 -1.9360906756534717
-0.12304876093916675 -1.8287126359363433
-0.12304876093916675 -1.8287126359363433
-0.13539184171649257 -1.846608975889198
-0.13539184171649257 -1.9002979957477621
-0.16007800327114421 -1.9181943357006168
-0.17242108404847004 -1.8287126359363433
-0.16007800327114421 -1.8287126359363433
-0.2217934071577733 -1.8287126359363433
-0.2217934071577733 -1.9181943357006168
-0.24647956871242493 -2.0792613952763093
-0.2958518918217282 -2.168743095040583
-0.30819497259905404 -2.2761211347577115
-0.38225345726300897 -2.240328454852002
-0.41928269959498643 -2.168743095040583
-0.4809981034816155 -2.168743095040583
-0.5056842650362672 -2.2761211347577115
-0.5056842650362672 -2.38349917447484
-0.4809981034816155 -2.4192918543805493
-0.518027345813593 -2.5445662340505324
-0.5303704265909188 -2.616151593861951
-0.5673996689228963 -2.651944273767661
-0.6167719920321995 -2.68773695367337
-0.6414581535868511 -2.7951149933904986
-0.6784873959188286 -2.8130113333433533
-0.6908304766961544 -2.8488040132490626
-0.7278597190281318 -2.8667003532019173
-0.8142612844694126 -2.902493033107627
-0.8883197691333675 -2.956182052966191
-0.925349011465345 -2.9203893730604817
-0.925349011465345 -2.9382857130133364
-0.9130059306880192 -2.8845966931547724
-0.8512905268013901 -2.8667003532019173
-0.8512905268013901 -2.902493033107627
-0.8266043652467384 -2.902493033107627
-0.8142612844694126 -2.8667003532019173
-0.7772320421374351 -2.830907673296208
-0.7031735574734802 -2.68773695367337
-0.5920858304775478 -2.7235296335790795
-0.4809981034816155 -2.705633293626225
-0.4316257803723122 -2.7951149933904986
-0.3452242149310315 -2.8488040132490626
-0.2711657302670766 -2.830907673296208
-0.2341364879350991 -2.741425973531934
-0.2341364879350991 -2.68773695367337
-0.19710724560312165 -2.68773695367337
-0.17242108404847004 -2.651944273767661
-0.13539184171649257 -2.705633293626225
0.09912669305269799 -2.7593223134847893
0.4077037124858435 -2.8130113333433533
0.8397115396922471 -2.9740783929190457
1.259376286121325 -3.170938132400448
1.7530995172143577 -3.4572795716461235
2.2591658290847163 -3.5825539513161067
2.8022613832870524 -3.5109685915046875
3.22192612971613 -3.296212512070431
3.431758502930669 -3.099352772589029
3.505816987594624 -3.009871072824755
3.493473906817298 -3.081456432636174
3.2589553720481077 -3.170938132400448
2.901006029505659 -3.0635600926833195
2.6294582524044907 -2.9203893730604817
2.4566551215219294 -2.8845966931547724
2.2838519906393677 -2.777218653437644
2.0369903750928517 -2.830907673296208
1.6913841133277285 -2.7235296335790795
1.3087486092306282 -2.651944273767661
1.049543912906786 -2.6698406137205155
0.9014269435788762 -2.634047933814806
0.7162807319189889 -2.634047933814806
0.4694191163724726 -2.616151593861951
0.234900581603282 -2.5445662340505324
0.07444053149804636 -2.4013955144276946
-0.01196103394323438 -2.311913814663421
-0.13539184171649257 -2.294017474710566
-0.2835088110444024 -2.294017474710566
-0.4316257803723122 -2.2761211347577115
-0.518027345813593 -2.240328454852002
-0.518027345813593 -2.258224794804857
-0.5550565881455705 -2.2045357749462924
-0.579742749700222 -2.2761211347577115
-0.6167719920321995 -2.294017474710566
-0.6661443151415027 -2.311913814663421
-0.7031735574734802 -2.222432114899147
-0.6784873959188286 -2.168743095040583
-0.6661443151415027 -2.0971577352291644
-0.6414581535868511 -2.0792613952763093
-0.6784873959188286 -2.0613650553234546
-0.7031735574734802 -2.0434687153706
-0.7278597190281318 -2.0076760354648906
-0.6784873959188286 -1.971883355559181
-0.6661443151415027 -1.9181943357006168
-0.6291150728095253 -1.9539870156063264
-0.6291150728095253 -1.9897796955120357
-0.6661443151415027 -2.0255723754177453
-0.6908304766961544 -1.971883355559181
-0.6661443151415027 -1.9002979957477621
-0.6661443151415027 -1.8645053158420528
-0.6414581535868511 -1.9181943357006168
-0.6538012343641769 -1.9181943357006168
-0.6908304766961544 -2.0076760354648906
-0.7278597190281318 -2.0255723754177453
-0.715516638250806 -1.971883355559181
-0.7402027998054577 -1.8824016557949075
-0.715516638250806 -1.8108162959834886
-0.7031735574734802 -1.8108162959834886
-0.7278597190281318 -1.8824016557949075
-0.7525458805827835 -1.9181943357006168
-0.715516638250806 -1.8824016557949075
-0.7031735574734802 -1.846608975889198
-0.7031735574734802 -1.8645053158420528
-0.7031735574734802 -1.8824016557949075
-0.7278597190281318 -1.9002979957477621
-0.7772320421374351 -1.8824016557949075
-0.7648889613601093 -1.846608975889198
-0.7278597190281318 -1.775023616077779
-0.7031735574734802 -1.7929199560306337
-0.7278597190281318 -1.7929199560306337
-0.7278597190281318 -1.8108162959834886
-0.7525458805827835 -1.8108162959834886
-0.7031735574734802 -1.8108162959834886
-0.6661443151415027 -1.7213345962192148
-0.6661443151415027 -1.7213345962192148
-0.6167719920321995 -1.6855419163135055
-0.6291150728095253 -1.775023616077779
-0.6044289112548736 -1.7571272761249244
-0.5673996689228963 -1.7571272761249244
-0.5673996689228963 -1.7034382562663601
-0.5550565881455705 -1.649749236407796
-0.5303704265909188 -1.7034382562663601
-0.5303704265909188 -1.6855419163135055
-0.4933411842589413 -1.6855419163135055
-0.46865502270428966 -1.6676455763606508
-0.4316257803723122 -1.6676455763606508
-0.4316257803723122 -1.6855419163135055
-0.3945965380403348 -1.6855419163135055
-0.36991037648568315 -1.6855419163135055
-0.38225345726300897 -1.6855419163135055
-0.3328811341537057 -1.578163876596377
-0.2341364879350991 -1.5423711966906677
-0.16007800327114421 -1.5423711966906677
-0.12304876093916675 -1.5602675366435224
-0.11070568016184093 -1.5960602165492317
-0.12304876093916675 -1.578163876596377
-0.09836259938451511 -1.5602675366435224
0.00038204683409143886 -1.5065785167849581
0.049754369943394716 -1.5244748567378128
0.07444053149804636 -1.5423711966906677
0.09912669305269799 -1.5602675366435224
0.11146977383002381 -1.5423711966906677
0.14849901616200126 -1.4886821768321035
0.22255750082595618 -1.5065785167849581
0.234900581603282 -1.5602675366435224
0.234900581603282 -1.5602675366435224
0.234900581603282 -1.5960602165492317
0.1731851777166529 -1.5602675366435224
0.18552825849397872 -1.5423711966906677
0.1731851777166529 -1.5244748567378128
0.18552825849397872 -1.578163876596377
0.1731851777166529 -1.5960602165492317
0.13615593538467544 -1.6676455763606508
0.09912669305269799 -1.6318528964549412
0.06209745072072053 -1.6139565565020866
0.06209745072072053 -1.5602675366435224
0.08678361227537217 -1.5960602165492317
0.037411289166068895 -1.578163876596377
-0.01196103394323438 -1.6318528964549412
-0.07367643782986348 -1.6139565565020866
-0.07367643782986348 -1.5423711966906677
-0.03664719549788602 -1.5244748567378128
-0.03664719549788602 -1.5423711966906677
-0.03664719549788602 -1.578163876596377
-0.07367643782986348 -1.578163876596377
-0.09836259938451511 -1.6318528964549412
-0.11070568016184093 -1.5960602165492317
-0.09836259938451511 -1.5602675366435224
-0.13539184171649257 -1.578163876596377
-0.13539184171649257 -1.578163876596377
-0.16007800327114421 -1.5602675366435224
-0.19710724560312165 -1.5602675366435224
-0.17242108404847004 -1.5423711966906677
-0.17242108404847004 -1.5423711966906677
-0.17242108404847004 -1.5423711966906677
-0.19710724560312165 -1.5423711966906677
-0.19710724560312165 -1.5602675366435224
-0.2341364879350991 -1.5423711966906677
-0.20945032638044747 -1.4707858368792488
-0.2217934071577733 -1.4707858368792488
-0.20945032638044747 -1.4707858368792488
-0.2341364879350991 -1.5244748567378128
-0.24647956871242493 -1.6318528964549412
-0.25882264948975076 -1.6139565565020866
-0.2711657302670766 -1.6139565565020866
-0.2711657302670766 -1.5960602165492317
-0.25882264948975076 -1.5960602165492317
-0.24647956871242493 -1.6139565565020866
-0.2835088110444024 -1.6318528964549412
-0.2958518918217282 -1.6676455763606508
-0.2958518918217282 -1.6139565565020866
-0.2958518918217282 -1.578163876596377
-0.2835088110444024 -1.6139565565020866
-0.30819497259905404 -1.6139565565020866
-0.32053805337637986 -1.6676455763606508
-0.3328811341537057 -1.649749236407796
-0.2958518918217282 -1.5960602165492317
-0.25882264948975076 -1.5960602165492317
-0.2341364879350991 -1.578163876596377
-0.25882264948975076 -1.649749236407796
-0.25882264948975076 -1.7034382562663601
-0.2835088110444024 -1.6676455763606508
-0.2958518918217282 -1.5960602165492317
-0.24647956871242493 -1.5423711966906677
-0.2217934071577733 -1.5602675366435224
-0.20945032638044747 -1.6318528964549412
-0.24647956871242493 -1.6676455763606508
-0.24647956871242493 -1.6676455763606508
-0.25882264948975076 -1.6318528964549412
-0.2217934071577733 -1.6139565565020866
-0.20945032638044747 -1.6318528964549412
-0.2217934071577733 -1.649749236407796
-0.2341364879350991 -1.649749236407796
-0.24647956871242493 -1.6318528964549412
-0.2341364879350991 -1.5960602165492317
-0.20945032638044747 -1.5960602165492317
-0.18476416482579586 -1.6318528964549412
-0.17242108404847004 -1.6139565565020866
-0.2217934071577733 -1.6139565565020866
-0.2341364879350991 -1.6676455763606508
-0.25882264948975076 -1.6318528964549412
-0.25882264948975076 -1.6139565565020866
-0.2341364879350991 -1.6855419163135055
-0.24647956871242493 -1.6855419163135055
-0.25882264948975076 -1.7034382562663601
-0.2958518918217282 -1.6676455763606508
-0.25882264948975076 -1.4886821768321035
-0.20945032638044747 -1.4349931569735392
-0.16007800327114421 -1.4170968170206846
-0.1477349224938184 -1.381304137114975
-0.09836259938451511 -1.3992004770678297
-0.06133335705253765 -1.4349931569735392
0.00038204683409143886 -1.4349931569735392
0.06209745072072053 -1.3634077971621203
0.049754369943394716 -1.381304137114975
-0.0243041147205602 -1.3634077971621203
-0.04899027627521184 -1.3634077971621203
-0.06133335705253765 -1.381304137114975
0.00038204683409143886 -1.4170968170206846
0.12381285460734963 -1.3992004770678297
0.19787133927130454 -1.4170968170206846
0.22255750082595618 -1.3992004770678297
0.21021442004863036 -1.4349931569735392
0.1731851777166529 -1.4707858368792488
0.234900581603282 -1.5065785167849581
0.234900581603282 -1.5423711966906677
0.28427290471258526 -1.5423711966906677
0.234900581603282 -1.5960602165492317
0.16084209693932708 -1.5960602165492317
0.08678361227537217 -1.578163876596377
0.09912669305269799 -1.5423711966906677
0.07444053149804636 -1.5423711966906677
0.012725127611417258 -1.649749236407796
-0.06133335705253765 -1.7571272761249244
-0.17242108404847004 -1.775023616077779
-0.32053805337637986 -1.7034382562663601
-0.3575672957083573 -1.6855419163135055
-0.4069396188176606 -1.6318528964549412
-0.443968861149638 -1.6318528964549412
-0.443968861149638 -1.7213345962192148
-0.5056842650362672 -1.7571272761249244
-0.5550565881455705 -1.7571272761249244
-0.5303704265909188 -1.7213345962192148
-0.5303704265909188 -1.7034382562663601
-0.4809981034816155 -1.6855419163135055
-0.46865502270428966 -1.7392309361720697
-0.45631194192696384 -1.775023616077779
-0.46865502270428966 -1.775023616077779
-0.4809981034816155 -1.775023616077779
-0.443968861149638 -1.7392309361720697
-0.4316257803723122 -1.7213345962192148
-0.3945965380403348 -1.7392309361720697
-0.41928269959498643 -1.775023616077779
-0.443968861149638 -1.775023616077779
-0.41928269959498643 -1.7571272761249244
-0.36991037648568315 -1.7034382562663601
-0.32053805337637986 -1.7392309361720697
-0.30819497259905404 -1.7213345962192148
-0.3452242149310315 -1.8108162959834886
-0.3575672957083573 -1.775023616077779
-0.3452242149310315 -1.7929199560306337
-0.2958518918217282 -1.775023616077779
-0.2835088110444024 -1.8645053158420528
-0.25882264948975076 -1.846608975889198
-0.2835088110444024 -1.7929199560306337
-0.2835088110444024 -1.7929199560306337
-0.2217934071577733 -1.7392309361720697
-0.09836259938451511 -1.846608975889198
0.13615593538467544 -1.9539870156063264
0.39536063170851765 -2.0971577352291644
0.7533099742509664 -2.311913814663421
1.0989162360160893 -2.5266698940976777
1.543267143999819 -2.7593223134847893
2.061676536647503 -2.8667003532019173
2.5677428485178617 -2.9382857130133364
2.9874075949469394 -2.7951149933904986
3.2589553720481077 -2.741425973531934
3.4070723413760176 -2.5803589139562417
3.4441015837079947 -2.5445662340505324
3.2959846143800853 -2.5266698940976777
2.962721433392288 -2.4013955144276946
2.5924290100725136 -2.34770649456913
2.3208812329713453 -2.258224794804857
2.074019617424829 -2.1866394349934377
1.8271580018783127 -2.115054075182019
1.456865578558538 -1.9539870156063264
1.0865731552387634 -1.9897796955120357
0.777996135805618 -1.9181943357006168
0.6051930049230566 -1.9539870156063264
0.44473295481782094 -1.9181943357006168
0.2595867431579336 -1.846608975889198
0.025068208388743077 -1.8108162959834886
-0.12304876093916675 -1.7213345962192148
-0.2958518918217282 -1.6676455763606508
-0.443968861149638 -1.5602675366435224
-0.5673996689228963 -1.5602675366435224
-0.6538012343641769 -1.5423711966906677
-0.715516638250806 -1.5244748567378128
-0.7525458805827835 -1.5602675366435224
-0.7525458805827835 -1.5602675366435224
-0.789575122914761 -1.5602675366435224
-0.8512905268013901 -1.5244748567378128
-0.9130059306880192 -1.5065785167849581
-0.8883197691333675 -1.5244748567378128
-0.8759766883560417 -1.5423711966906677
-0.8512905268013901 -1.5423711966906677
-0.8883197691333675 -1.5602675366435224
-0.925349011465345 -1.5423711966906677
-0.9006628499106933 -1.5065785167849581
-0.8759766883560417 -1.5065785167849581
-0.8389474460240642 -1.5065785167849581
-0.8389474460240642 -1.452889496926394
-0.8512905268013901 -1.4707858368792488
-0.8389474460240642 -1.452889496926394
-0.8389474460240642 -1.4349931569735392
-0.8019182036920868 -1.4707858368792488
-0.789575122914761 -1.4707858368792488
-0.8019182036920868 -1.4349931569735392
-0.8512905268013901 -1.4170968170206846
-0.8636336075787159 -1.4349931569735392
-0.8512905268013901 -1.381304137114975
-0.8019182036920868 -1.3097187773035561
-0.7648889613601093 -1.3634077971621203
-0.7648889613601093 -1.4170968170206846
-0.8142612844694126 -1.4170968170206846
-0.8636336075787159 -1.4349931569735392
-0.8883197691333675 -1.3992004770678297
-0.8266043652467384 -1.3634077971621203
-0.8019182036920868 -1.3455114572092657
-0.789575122914761 -1.3276151172564108
-0.8019182036920868 -1.4170968170206846
-0.8512905268013901 -1.381304137114975
-0.8266043652467384 -1.3455114572092657
-0.789575122914761 -1.3097187773035561
-0.8389474460240642 -1.3276151172564108
-0.8142612844694126 -1.3276151172564108
-0.8142612844694126 -1.3276151172564108
-0.8266043652467384 -1.3276151172564108
-0.8266043652467384 -1.2381334174921372
-0.8019182036920868 -1.2739260973978468
-0.8019182036920868 -1.256029757444992
-0.7772320421374351 -1.2918224373507015
-0.7772320421374351 -1.2918224373507015
-0.8019182036920868 -1.3455114572092657
-0.789575122914761 -1.3097187773035561
-0.7525458805827835 -1.2202370775392826
-0.7278597190281318 -1.2023407375864277
-0.7278597190281318 -1.2381334174921372
-0.6908304766961544 -1.256029757444992
-0.6908304766961544 -1.2918224373507015
-0.6784873959188286 -1.256029757444992
-0.6044289112548736 -1.184444397633573
-0.5673996689228963 -1.184444397633573
-0.5550565881455705 -1.2023407375864277
-0.5427135073682446 -1.2202370775392826
-0.5550565881455705 -1.2202370775392826
-0.518027345813593 -1.2023407375864277
-0.45631194192696384 -1.1486517177278637
-0.443968861149638 -1.184444397633573
-0.4069396188176606 -1.2023407375864277
-0.4069396188176606 -1.2202370775392826
-0.4069396188176606 -1.2202370775392826
-0.3575672957083573 -1.2023407375864277
-0.2835088110444024 -1.1486517177278637
-0.24647956871242493 -1.1307553777750088
-0.18476416482579586 -1.1128590378221541
-0.16007800327114421 -1.1486517177278637
-0.16007800327114421 -1.184444397633573
-0.13539184171649257 -1.1665480576807183
-0.09836259938451511 -1.1128590378221541
-0.03664719549788602 -1.1128590378221541
0.00038204683409143886 -1.1307553777750088
0.049754369943394716 -1.184444397633573
0.025068208388743077 -1.2023407375864277
0.07444053149804636 -1.1486517177278637
0.12381285460734963 -1.1307553777750088
0.1731851777166529 -1.1665480576807183
0.16084209693932708 -1.2023407375864277
0.12381285460734963 -1.256029757444992
0.049754369943394716 -1.2739260973978468
0.06209745072072053 -1.2023407375864277
0.049754369943394716 -1.1486517177278637
0.09912669305269799 -1.0949626978692995
0.08678361227537217 -1.1665480576807183
0.049754369943394716 -1.2202370775392826
0.049754369943394716 -1.184444397633573
0.037411289166068895 -1.1665480576807183
0.037411289166068895 -1.2023407375864277
0.049754369943394716 -1.184444397633573
0.00038204683409143886 -1.1665480576807183
-0.04899027627521184 -1.184444397633573
-0.08601951860718929 -1.1665480576807183
-0.09836259938451511 -1.1486517177278637
-0.08601951860718929 -1.1128590378221541
-0.08601951860718929 -1.1665480576807183
-0.11070568016184093 -1.2202370775392826
-0.1477349224938184 -1.2202370775392826
-0.18476416482579586 -1.256029757444992
-0.19710724560312165 -1.1128590378221541
-0.17242108404847004 -1.0770663579164448
-0.16007800327114421 -1.1128590378221541
-0.18476416482579586 -1.1307553777750088
-0.19710724560312165 -1.1665480576807183
-0.2341364879350991 -1.0770663579164448
-0.2341364879350991 -1.1128590378221541
-0.20945032638044747 -1.0949626978692995
-0.25882264948975076 -1.05917001796359
-0.24647956871242493 -1.1307553777750088
-0.24647956871242493 -1.0949626978692995
-0.2835088110444024 -1.1128590378221541
-0.30819497259905404 -1.0770663579164448
-0.25882264948975076 -1.1128590378221541
-0.2217934071577733 -1.1307553777750088
-0.2217934071577733 -1.1128590378221541
-0.25882264948975076 -1.1486517177278637
-0.2958518918217282 -1.1307553777750088
-0.2835088110444024 -1.05917001796359
-0.25882264948975076 -1.05917001796359
-0.2711657302670766 -1.0949626978692995
-0.32053805337637986 -1.0949626978692995
-0.3452242149310315 -1.0949626978692995
-0.3945965380403348 -1.184444397633573
-0.3452242149310315 -1.1128590378221541
-0.30819497259905404 -1.1128590378221541
-0.2958518918217282 -1.1128590378221541
-0.32053805337637986 -1.1307553777750088
-0.38225345726300897 -1.1486517177278637
-0.4069396188176606 -1.0770663579164448
-0.3575672957083573 -1.0770663579164448
-0.3452242149310315 -1.0233773380578806
-0.2958518918217282 -1.05917001796359
-0.2835088110444024 -1.1307553777750088
-0.30819497259905404 -1.1665480576807183
-0.3328811341537057 -1.0949626978692995
-0.3452242149310315 -1.0949626978692995
-0.30819497259905404 -1.05917001796359
-0.2958518918217282 -1.0412736780107352
-0.2835088110444024 -1.1128590378221541
-0.32053805337637986 -1.1307553777750088
-0.36991037648568315 -1.1307553777750088
-0.30819497259905404 -1.0770663579164448
-0.2958518918217282 -1.0949626978692995
-0.2835088110444024 -1.1128590378221541
-0.2835088110444024 -1.05917001796359
-0.2835088110444024 -1.0949626978692995
-0.30819497259905404 -1.1307553777750088
-0.2711657302670766 -1.1128590378221541
-0.2711657302670766 -1.1128590378221541
-0.25882264948975076 -1.1665480576807183
-0.2711657302670766 -1.1486517177278637
-0.2835088110444024 -1.1486517177278637
-0.30819497259905404 -1.1307553777750088
-0.30819497259905404 -1.0770663579164448
-0.2711657302670766 -1.0054809981050257
-0.2217934071577733 -1.0233773380578806
-0.24647956871242493 -1.0770663579164448
-0.2835088110444024 -1.1307553777750088
-0.30819497259905404 -1.1486517177278637
-0.2711657302670766 -1.0949626978692995
-0.24647956871242493 -1.0412736780107352
-0.24647956871242493 -1.0770663579164448
-0.25882264948975076 -1.0949626978692995
-0.24647956871242493 -1.0770663579164448
-0.2835088110444024 -1.0233773380578806
-0.2835088110444024 -1.0412736780107352
-0.24647956871242493 -1.05917001796359
-0.20945032638044747 -1.0412736780107352
-0.18476416482579586 -0.987584658152171
-0.18476416482579586 -0.8981029583878974
-0.20945032638044747 -0.862310278482188
-0.17242108404847004 -0.7728285787179143
-0.12304876093916675 -0.7549322387650595
-0.06133335705253765 -0.8444139385293332
-0.04899027627521184 -0.8086212586236238
-0.06133335705253765 -0.8265175985764784
-0.11070568016184093 -0.790724918670769
-0.08601951860718929 -0.8086212586236238
-0.04899027627521184 -0.8265175985764784
0.025068208388743077 -0.862310278482188
0.09912669305269799 -0.8981029583878974
0.11146977383002381 -0.8981029583878974
0.09912669305269799 -0.9159992983407521
0.13615593538467544 -0.862310278482188
0.1731851777166529 -0.8265175985764784
0.234900581603282 -0.8444139385293332
0.27192982393525944 -0.9338956382936069
0.27192982393525944 -0.987584658152171
0.234900581603282 -0.9517919782464616
0.19787133927130454 -0.9696883181993163
0.16084209693932708 -0.8981029583878974
0.16084209693932708 -0.8981029583878974
0.12381285460734963 -0.9696883181993163
0.06209745072072053 -1.0233773380578806
0.07444053149804636 -1.05917001796359
0.025068208388743077 -1.0412736780107352
-0.06133335705253765 -1.0054809981050257
-0.16007800327114421 -1.05917001796359
-0.2835088110444024 -1.05917001796359
-0.38225345726300897 -1.1128590378221541
-0.45631194192696384 -1.1128590378221541
-0.4069396188176606 -1.0949626978692995
-0.443968861149638 -1.05917001796359
-0.41928269959498643 -1.0412736780107352
-0.4316257803723122 -1.0770663579164448
-0.4316257803723122 -1.0770663579164448
-0.46865502270428966 -1.0949626978692995
-0.4933411842589413 -1.0412736780107352
-0.443968861149638 -1.0412736780107352
-0.4069396188176606 -1.0412736780107352
-0.3945965380403348 -1.0233773380578806
-0.3945965380403348 -1.0770663579164448
-0.3945965380403348 -1.0770663579164448
-0.3945965380403348 -1.0412736780107352
-0.36991037648568315 -1.0412736780107352
-0.3452242149310315 -1.0054809981050257
-0.3575672957083573 -1.0412736780107352
-0.38225345726300897 -1.0233773380578806
-0.36991037648568315 -1.0233773380578806
-0.3452242149310315 -1.0054809981050257
-0.32053805337637986 -0.987584658152171
-0.32053805337637986 -0.9696883181993163
-0.30819497259905404 -1.0054809981050257
-0.32053805337637986 -1.05917001796359
-0.3328811341537057 -1.0949626978692995
-0.2711657302670766 -1.0770663579164448
-0.25882264948975076 -1.0412736780107352
-0.25882264948975076 -1.0233773380578806
-0.2711657302670766 -1.0412736780107352
-0.2958518918217282 -1.0054809981050257
-0.2711657302670766 -0.8981029583878974
-0.17242108404847004 -0.862310278482188
0.00038204683409143886 -0.8444139385293332
0.27192982393525944 -0.9338956382936069
0.5928499241457308 -1.0949626978692995
0.9261131051335278 -1.256029757444992
1.3087486092306282 -1.4886821768321035
1.7037271941050545 -1.6139565565020866
2.209793505975413 -1.7392309361720697
2.6294582524044907 -1.7571272761249244
3.0120937565015913 -1.7213345962192148
3.22192612971613 -1.578163876596377
3.3206707759347367 -1.5423711966906677
3.3206707759347367 -1.5602675366435224
3.1478676450521754 -1.5602675366435224
2.7775752217324006 -1.5065785167849581
2.3949397176353004 -1.381304137114975
2.1604211828661097 -1.381304137114975
1.9752749712062225 -1.3455114572092657
1.7407564364370318 -1.256029757444992
1.4321794170038864 -1.1128590378221541
1.0372008321294601 -1.0412736780107352
0.6915945703643372 -1.0412736780107352
0.50644835870445 -1.0770663579164448
0.44473295481782094 -1.0412736780107352
0.3089590662672369 -0.9696883181993163
0.11146977383002381 -0.9159992983407521
-0.09836259938451511 -0.8981029583878974
-0.20945032638044747 -0.8444139385293332
-0.3328811341537057 -0.7549322387650595
-0.45631194192696384 -0.7370358988122049
-0.5427135073682446 -0.6833468789536407
-0.6044289112548736 -0.5759688392365123
-0.6167719920321995 -0.5580724992836575
-0.6167719920321995 -0.6117615191422218
-0.6414581535868511 -0.665450539000786
-0.6661443151415027 -0.6475541990479312
-0.6908304766961544 -0.6296578590950765
-0.6908304766961544 -0.5759688392365123
-0.7031735574734802 -0.6117615191422218
-0.6908304766961544 -0.6833468789536407
-0.715516638250806 -0.7012432189064954
-0.7402027998054577 -0.665450539000786
-0.6784873959188286 -0.6117615191422218
-0.6538012343641769 -0.5222798193779481
-0.6167719920321995 -0.5580724992836575
-0.6538012343641769 -0.5759688392365123
-0.6784873959188286 -0.6475541990479312
-0.6908304766961544 -0.6117615191422218
-0.6661443151415027 -0.5759688392365123
-0.6414581535868511 -0.5580724992836575
-0.6291150728095253 -0.593865179189367
-0.6291150728095253 -0.6117615191422218
-0.6167719920321995 -0.593865179189367
-0.6661443151415027 -0.6117615191422218
-0.6414581535868511 -0.5401761593308029
-0.6291150728095253 -0.5401761593308029
-0.6044289112548736 -0.5580724992836575
-0.6414581535868511 -0.5401761593308029
-0.6661443151415027 -0.5401761593308029
-0.6784873959188286 -0.5580724992836575
-0.7031735574734802 -0.5043834794250934
-0.6538012343641769 -0.4685907995193839
-0.6291150728095253 -0.5222798193779481
-0.6291150728095253 -0.5401761593308029
-0.6414581535868511 -0.5580724992836575
-0.6414581535868511 -0.5222798193779481
-0.6538012343641769 -0.48648713947223865
-0.6661443151415027 -0.4685907995193839
-0.6414581535868511 -0.4506944595665292
-0.6661443151415027 -0.4506944595665292
-0.6784873959188286 -0.5043834794250934
-0.7031735574734802 -0.5222798193779481
-0.6661443151415027 -0.4506944595665292
-0.6538012343641769 -0.4685907995193839
-0.6538012343641769 -0.4685907995193839
-0.6784873959188286 -0.4327981196136745
-0.7031735574734802 -0.4327981196136745
-0.7525458805827835 -0.4506944595665292
-0.7031735574734802 -0.3791090997551103
-0.6538012343641769 -0.3612127598022556
-0.6291150728095253 -0.3612127598022556
-0.6044289112548736 -0.3612127598022556
-0.6291150728095253 -0.3791090997551103
-0.6414581535868511 -0.39700543970796504
-0.6167719920321995 -0.3791090997551103
-0.6044289112548736 -0.3254200798965461
-0.579742749700222 -0.3254200798965461
-0.5673996689228963 -0.30752373994369137
-0.5303704265909188 -0.34331641984940087
-0.5550565881455705 -0.34331641984940087
-0.5303704265909188 -0.3254200798965461
-0.4809981034816155 -0.30752373994369137
-0.443968861149638 -0.28962739999083664
-0.41928269959498643 -0.2538347200851272
-0.41928269959498643 -0.30752373994369137
-0.4069396188176606 -0.2538347200851272
-0.3328811341537057 -0.21804204017941775
-0.2958518918217282 -0.20014570022656303
-0.25882264948975076 -0.20014570022656303
-0.24647956871242493 -0.21804204017941775
-0.2341364879350991 -0.21804204017941775
-0.2217934071577733 -0.23593838013227247
-0.13539184171649257 -0.1822493602737083
-0.07367643782986348 -0.20014570022656303
-0.04899027627521184 -0.23593838013227247
-0.03664719549788602 -0.21804204017941775
-0.0243041147205602 -0.21804204017941775
0.012725127611417258 -0.23593838013227247
0.037411289166068895 -0.28962739999083664
0.12381285460734963 -0.1822493602737083
0.14849901616200126 -0.23593838013227247
0.14849901616200126 -0.2717310600379819
0.13615593538467544 -0.28962739999083664
0.11146977383002381 -0.28962739999083664
0.11146977383002381 -0.21804204017941775
0.14849901616200126 -0.1822493602737083
0.1731851777166529 -0.1822493602737083
0.14849901616200126 -0.2717310600379819
0.13615593538467544 -0.30752373994369137
0.09912669305269799 -0.34331641984940087
0.13615593538467544 -0.34331641984940087
0.11146977383002381 -0.30752373994369137
0.08678361227537217 -0.2717310600379819
0.037411289166068895 -0.28962739999083664
0.00038204683409143886 -0.34331641984940087
-0.04899027627521184 -0.3254200798965461
-0.0243041147205602 -0.34331641984940087
-0.03664719549788602 -0.2717310600379819
-0.04899027627521184 -0.23593838013227247
-0.09836259938451511 -0.30752373994369137
-0.08601951860718929 -0.30752373994369137
-0.11070568016184093 -0.30752373994369137
-0.11070568016184093 -0.30752373994369137
-0.11070568016184093 -0.2538347200851272
-0.11070568016184093 -0.2717310600379819
-0.13539184171649257 -0.28962739999083664
-0.12304876093916675 -0.30752373994369137
-0.18476416482579586 -0.3612127598022556
-0.16007800327114421 -0.28962739999083664
-0.1477349224938184 -0.23593838013227247
-0.1477349224938184 -0.2538347200851272
-0.16007800327114421 -0.2538347200851272
-0.16007800327114421 -0.2538347200851272
-0.18476416482579586 -0.2717310600379819
-0.20945032638044747 -0.21804204017941775
-0.18476416482579586 -0.1822493602737083
-0.18476416482579586 -0.2538347200851272
-0.17242108404847004 -0.2538347200851272
-0.13539184171649257 -0.28962739999083664
-0.18476416482579586 -0.2717310600379819
-0.13539184171649257 -0.23593838013227247
-0.12304876093916675 -0.16435302032085355
-0.11070568016184093 -0.20014570022656303
-0.13539184171649257 -0.21804204017941775
-0.17242108404847004 -0.2538347200851272
-0.16007800327114421 -0.2538347200851272
-0.09836259938451511 -0.21804204017941775
-0.04899027627521184 -0.1822493602737083
-0.03664719549788602 -0.20014570022656303
-0.08601951860718929 -0.1822493602737083
-0.1477349224938184 -0.23593838013227247
-0.13539184171649257 -0.2717310600379819
-0.13539184171649257 -0.2538347200851272
-0.11070568016184093 -0.20014570022656303
-0.09836259938451511 -0.23593838013227247
-0.09836259938451511 -0.23593838013227247
-0.09836259938451511 -0.23593838013227247
-0.13539184171649257 -0.2538347200851272
-0.11070568016184093 -0.20014570022656303
-0.08601951860718929 -0.14645668036799883
-0.07367643782986348 -0.1822493602737083
-0.07367643782986348 -0.23593838013227247
-0.07367643782986348 -0.2717310600379819
-0.09836259938451511 -0.28962739999083664
-0.11070568016184093 -0.2717310600379819
-0.09836259938451511 -0.20014570022656303
-0.08601951860718929 -0.16435302032085355
-0.07367643782986348 -0.20014570022656303
-0.07367643782986348 -0.23593838013227247
-0.06133335705253765 -0.2538347200851272
0.012725127611417258 -0.1822493602737083
0.049754369943394716 -0.20014570022656303
0.08678361227537217 -0.21804204017941775
0.11146977383002381 -0.2717310600379819
0.037411289166068895 -0.2538347200851272
-0.01196103394323438 -0.21804204017941775
0.012725127611417258 -0.23593838013227247
0.07444053149804636 -0.1822493602737083
0.12381285460734963 -0.1822493602737083
0.13615593538467544 -0.23593838013227247
0.09912669305269799 -0.23593838013227247
0.025068208388743077 -0.2717310600379819
0.012725127611417258 -0.2717310600379819
0.049754369943394716 -0.16435302032085355
0.06209745072072053 -0.16435302032085355
0.049754369943394716 -0.20014570022656303
0.037411289166068895 -0.23593838013227247
-0.01196103394323438 -0.2538347200851272
-0.0243041147205602 -0.2538347200851272
0.012725127611417258 -0.16435302032085355
0.037411289166068895 -0.21804204017941775
0.012725127611417258 -0.2717310600379819
-0.01196103394323438 -0.30752373994369137
-0.04899027627521184 -0.28962739999083664
-0.01196103394323438 -0.23593838013227247
0.00038204683409143886 -0.1822493602737083
0.012725127611417258 -0.1822493602737083
-0.01196103394323438 -0.1822493602737083
0.025068208388743077 -0.16435302032085355
0.00038204683409143886 -0.09276766050943465
0.025068208388743077 -0.02118230069801574
0.06209745072072053 0.05040305911340317
0.13615593538467544 0.0682993990662579
0.14849901616200126 0.05040305911340317
0.16084209693932708 0.05040305911340317
0.1731851777166529 0.05040305911340317
0.18552825849397872 0.0682993990662579
0.16084209693932708 0.13988475887767682
0.18552825849397872 0.12198841892482208
0.1731851777166529 0.05040305911340317
0.1731851777166529 -0.0032859607451610137
0.19787133927130454 -0.0032859607451610137
0.24724366238060783 -0.02118230069801574
0.33364522782188855 0.014610379207693714
0.3583313893765402 0.03250671916054844
0.34598830859921437 0.014610379207693714
0.28427290471258526 -0.056974980603725196
0.2595867431579336 -0.1285603404151441
0.33364522782188855 -0.14645668036799883
0.39536063170851765 -0.11066400046228939
0.4200467932631693 -0.1285603404151441
0.3583313893765402 -0.16435302032085355
0.2966159854899111 -0.16435302032085355
0.234900581603282 -0.1285603404151441
0.21021442004863036 -0.14645668036799883
0.24724366238060783 -0.16435302032085355
0.22255750082595618 -0.1822493602737083
0.13615593538467544 -0.2717310600379819
0.049754369943394716 -0.3254200798965461
-0.08601951860718929 -0.34331641984940087
-0.20945032638044747 -0.28962739999083664
-0.2711657302670766 -0.23593838013227247
-0.32053805337637986 -0.2538347200851272
-0.3575672957083573 -0.30752373994369137
-0.36991037648568315 -0.34331641984940087
-0.3945965380403348 -0.3612127598022556
-0.3945965380403348 -0.28962739999083664
-0.3945965380403348 -0.2717310600379819
-0.4069396188176606 -0.28962739999083664
-0.41928269959498643 -0.28962739999083664
-0.4316257803723122 -0.3612127598022556
-0.443968861149638 -0.39700543970796504
-0.4316257803723122 -0.3612127598022556
-0.443968861149638 -0.3254200798965461
-0.4316257803723122 -0.34331641984940087
-0.4069396188176606 -0.3791090997551103
-0.3452242149310315 -0.34331641984940087
-0.36991037648568315 -0.34331641984940087
-0.3575672957083573 -0.34331641984940087
-0.36991037648568315 -0.2717310600379819
-0.36991037648568315 -0.28962739999083664
-0.36991037648568315 -0.3254200798965461
-0.3945965380403348 -0.3612127598022556
-0.41928269959498643 -0.3791090997551103
-0.3945965380403348 -0.3612127598022556
-0.36991037648568315 -0.3254200798965461
-0.30819497259905404 -0.34331641984940087
-0.32053805337637986 -0.39700543970796504
-0.3328811341537057 -0.39700543970796504
-0.3452242149310315 -0.41490177966081976
-0.3452242149310315 -0.4327981196136745
-0.3452242149310315 -0.3612127598022556
-0.30819497259905404 -0.39700543970796504
-0.32053805337637986 -0.4506944595665292
-0.24647956871242493 -0.5222798193779481
-0.11070568016184093 -0.6475541990479312
0.19787133927130454 -0.7370358988122049
0.5928499241457308 -0.8802066184350427
1.0372008321294601 -1.1486517177278637
1.4938948208905156 -1.4349931569735392
1.9752749712062225 -1.6318528964549412
2.419625879189952 -1.649749236407796
2.876319867951007 -1.4886821768321035
3.1972399681614787 -1.2739260973978468
3.3577000182667143 -1.1486517177278637
3.4070723413760176 -1.1486517177278637
3.2712984528254334 -1.2023407375864277
2.888662948728333 -1.0770663579164448
2.493684363853907 -0.8802066184350427
2.2221365867527387 -0.7191395588593501
1.9505888096515709 -0.6296578590950765
1.6543548709957512 -0.593865179189367
1.2717193668986508 -0.5222798193779481
0.9014269435788762 -0.5222798193779481
0.6915945703643372 -0.3791090997551103
0.6545653280323598 -0.30752373994369137
0.5311345202591017 -0.2717310600379819
0.33364522782188855 -0.23593838013227247
0.11146977383002381 -0.1822493602737083
-0.08601951860718929 -0.14645668036799883
-0.20945032638044747 -0.11066400046228939
-0.30819497259905404 -0.039078640650870466
-0.41928269959498643 0.03250671916054844
-0.5303704265909188 -0.0032859607451610137
-0.6661443151415027 -0.039078640650870466
-0.6908304766961544 -0.02118230069801574
-0.7031735574734802 -0.02118230069801574
-0.6784873959188286 0.014610379207693714
-0.7031735574734802 0.014610379207693714
-0.7402027998054577 0.014610379207693714
-0.7402027998054577 -0.0032859607451610137
-0.7772320421374351 0.05040305911340317
-0.7772320421374351 0.0682993990662579
-0.715516638250806 0.08619573901911262
-0.6661443151415027 0.0682993990662579
-0.6414581535868511 0.03250671916054844
-0.6661443151415027 -0.02118230069801574
-0.715516638250806 -0.02118230069801574
-0.715516638250806 0.08619573901911262
-0.6908304766961544 0.15778109883053154
-0.6661443151415027 0.13988475887767682
-0.6538012343641769 0.12198841892482208
-0.6661443151415027 0.08619573901911262
-0.6661443151415027 0.03250671916054844
-0.6661443151415027 0.05040305911340317
-0.6784873959188286 0.10409207897196736
-0.6784873959188286 0.17567743878338626
-0.7031735574734802 0.17567743878338626
-0.715516638250806 0.15778109883053154
-0.7278597190281318 0.12198841892482208
-0.7402027998054577 0.13988475887767682
-0.7031735574734802 0.22936645864195046
-0.6908304766961544 0.24726279859480518
-0.715516638250806 0.22936645864195046
-0.7525458805827835 0.193573778736241
-0.7648889613601093 0.17567743878338626
-0.7648889613601093 0.17567743878338626
-0.7402027998054577 0.22936645864195046
-0.7278597190281318 0.28305547850051466
-0.7402027998054577 0.22936645864195046
-0.7772320421374351 0.193573778736241
-0.8266043652467384 0.193573778736241
-0.789575122914761 0.28305547850051466
-0.789575122914761 0.3009518184533694
-0.7525458805827835 0.3009518184533694
-0.789575122914761 0.28305547850051466
-0.789575122914761 0.2114701186890957
-0.8389474460240642 0.22936645864195046
-0.8142612844694126 0.28305547850051466
-0.8019182036920868 0.3367444983590788
-0.7525458805827835 0.3367444983590788
-0.7402027998054577 0.390433518217643
-0.7402027998054577 0.35464083831193355
-0.7648889613601093 0.35464083831193355
-0.789575122914761 0.37253717826478827
-0.7648889613601093 0.35464083831193355
-0.7278597190281318 0.390433518217643
-0.7031735574734802 0.390433518217643
-0.7031735574734802 0.3188481584062241
-0.715516638250806 0.3188481584062241
-0.6538012343641769 0.3367444983590788
-0.6167719920321995 0.390433518217643
-0.5550565881455705 0.37253717826478827
-0.5427135073682446 0.3367444983590788
-0.518027345813593 0.28305547850051466
-0.518027345813593 0.37253717826478827
-0.518027345813593 0.44412253807620716
-0.45631194192696384 0.47991521798191666
-0.36991037648568315 0.4620188780290619
-0.32053805337637986 0.44412253807620716
-0.2958518918217282 0.37253717826478827
-0.30819497259905404 0.4083298581704977
-0.2835088110444024 0.44412253807620716
-0.2341364879350991 0.4978115579347714
-0.16007800327114421 0.44412253807620716
-0.1477349224938184 0.44412253807620716
-0.12304876093916675 0.4083298581704977
-0.11070568016184093 0.390433518217643
-0.07367643782986348 0.390433518217643
-0.01196103394323438 0.42622619812335244
0.025068208388743077 0.4083298581704977
0.025068208388743077 0.35464083831193355
-0.01196103394323438 0.3009518184533694
-0.07367643782986348 0.3009518184533694
-0.04899027627521184 0.3367444983590788
-0.03664719549788602 0.3367444983590788
-0.01196103394323438 0.37253717826478827
-0.0243041147205602 0.35464083831193355
-0.07367643782986348 0.28305547850051466
-0.11070568016184093 0.28305547850051466
-0.13539184171649257 0.3009518184533694
-0.11070568016184093 0.28305547850051466
-0.13539184171649257 0.24726279859480518
-0.18476416482579586 0.2651591385476599
-0.20945032638044747 0.3009518184533694
-0.30819497259905404 0.28305547850051466
-0.2958518918217282 0.3188481584062241
-0.25882264948975076 0.28305547850051466
-0.2711657302670766 0.3009518184533694
-0.30819497259905404 0.24726279859480518
-0.36991037648568315 0.22936645864195046
-0.36991037648568315 0.24726279859480518
-0.3452242149310315 0.2651591385476599
-0.36991037648568315 0.3367444983590788
-0.3452242149310315 0.3367444983590788
-0.4069396188176606 0.3009518184533694
-0.4316257803723122 0.193573778736241
-0.45631194192696384 0.2651591385476599
-0.4316257803723122 0.28305547850051466
-0.3945965380403348 0.3367444983590788
-0.36991037648568315 0.35464083831193355
-0.4069396188176606 0.3367444983590788
-0.45631194192696384 0.2651591385476599
-0.443968861149638 0.2114701186890957
-0.443968861149638 0.24726279859480518
-0.4316257803723122 0.3009518184533694
-0.4316257803723122 0.3009518184533694
-0.41928269959498643 0.2651591385476599
-0.46865502270428966 0.22936645864195046
-0.45631194192696384 0.3009518184533694
-0.46865502270428966 0.3188481584062241
-0.443968861149638 0.35464083831193355
-0.41928269959498643 0.35464083831193355
-0.3945965380403348 0.3009518184533694
-0.4069396188176606 0.2651591385476599
-0.41928269959498643 0.24726279859480518
-0.45631194192696384 0.3009518184533694
-0.4316257803723122 0.3009518184533694
-0.36991037648568315 0.2651591385476599
-0.38225345726300897 0.24726279859480518
-0.38225345726300897 0.22936645864195046
-0.4316257803723122 0.193573778736241
-0.3945965380403348 0.22936645864195046
-0.3945965380403348 0.24726279859480518
-0.3575672957083573 0.2114701186890957
-0.3328811341537057 0.24726279859480518
-0.3328811341537057 0.2114701186890957
-0.36991037648568315 0.24726279859480518
-0.3328811341537057 0.24726279859480518
-0.30819497259905404 0.22936645864195046
-0.30819497259905404 0.22936645864195046
-0.30819497259905404 0.2114701186890957
-0.2958518918217282 0.2114701186890957
-0.3328811341537057 0.17567743878338626
-0.2958518918217282 0.2114701186890957
-0.2711657302670766 0.24726279859480518
-0.24647956871242493 0.22936645864195046
-0.25882264948975076 0.24726279859480518
-0.24647956871242493 0.2114701186890957
-0.2711657302670766 0.17567743878338626
-0.2217934071577733 0.2651591385476599
-0.2217934071577733 0.2651591385476599
-0.20945032638044747 0.3009518184533694
-0.19710724560312165 0.28305547850051466
-0.24647956871242493 0.22936645864195046
-0.2217934071577733 0.24726279859480518
-0.19710724560312165 0.22936645864195046
-0.20945032638044747 0.3367444983590788
-0.17242108404847004 0.3367444983590788
-0.19710724560312165 0.3367444983590788
-0.18476416482579586 0.28305547850051466
-0.19710724560312165 0.3009518184533694
-0.17242108404847004 0.3009518184533694
-0.16007800327114421 0.35464083831193355
-0.09836259938451511 0.3367444983590788
-0.09836259938451511 0.3009518184533694
-0.11070568016184093 0.22936645864195046
-0.1477349224938184 0.28305547850051466
-0.16007800327114421 0.3367444983590788
-0.11070568016184093 0.42622619812335244
-0.06133335705253765 0.4978115579347714
-0.07367643782986348 0.515707897887626
-0.03664719549788602 0.5336042378404808
0.00038204683409143886 0.5872932576990451
0.07444053149804636 0.6230859376047545
0.13615593538467544 0.6409822775576092
0.16084209693932708 0.5872932576990451
0.14849901616200126 0.6051895976518997
0.12381285460734963 0.5693969177461903
0.06209745072072053 0.5693969177461903
0.12381285460734963 0.5336042378404808
0.18552825849397872 0.47991521798191666
0.234900581603282 0.4620188780290619
0.28427290471258526 0.4083298581704977
0.3213021470445627 0.47991521798191666
0.3089590662672369 0.515707897887626
0.3089590662672369 0.5336042378404808
0.3583313893765402 0.4978115579347714
0.45707603559514676 0.4620188780290619
0.4323898740404951 0.37253717826478827
0.4077037124858435 0.3188481584062241
0.3583313893765402 0.3009518184533694
0.370674470153866 0.3367444983590788
0.34598830859921437 0.390433518217643
0.33364522782188855 0.4083298581704977
0.3089590662672369 0.3188481584062241
0.234900581603282 0.2114701186890957
0.13615593538467544 0.15778109883053154
0.06209745072072053 0.17567743878338626
-0.03664719549788602 0.2114701186890957
-0.11070568016184093 0.24726279859480518
-0.19710724560312165 0.22936645864195046
-0.2835088110444024 0.17567743878338626
-0.3328811341537057 0.15778109883053154
-0.2958518918217282 0.15778109883053154
-0.2958518918217282 0.2114701186890957
-0.2958518918217282 0.193573778736241
-0.2958518918217282 0.15778109883053154
-0.32053805337637986 0.08619573901911262
-0.30819497259905404 0.08619573901911262
-0.30819497259905404 0.13988475887767682
-0.30819497259905404 0.24726279859480518
-0.2958518918217282 0.22936645864195046
-0.2835088110444024 0.15778109883053154
-0.2958518918217282 0.17567743878338626
-0.3452242149310315 0.13988475887767682
-0.3452242149310315 0.15778109883053154
-0.3328811341537057 0.193573778736241
-0.30819497259905404 0.2114701186890957
-0.3328811341537057 0.193573778736241
-0.32053805337637986 0.2114701186890957
-0.36991037648568315 0.24726279859480518
-0.32053805337637986 0.28305547850051466
-0.2835088110444024 0.2651591385476599
-0.2835088110444024 0.193573778736241
-0.25882264948975076 0.15778109883053154
-0.2958518918217282 0.10409207897196736
-0.32053805337637986 0.05040305911340317
-0.2835088110444024 0.12198841892482208
-0.2958518918217282 0.15778109883053154
-0.2711657302670766 0.193573778736241
-0.2835088110444024 0.15778109883053154
-0.2835088110444024 0.10409207897196736
-0.2341364879350991 0.03250671916054844
-0.17242108404847004 -0.02118230069801574
0.06209745072072053 -0.09276766050943465
0.370674470153866 -0.2717310600379819
0.777996135805618 -0.41490177966081976
1.197660882234696 -0.665450539000786
1.666697951773077 -0.9159992983407521
2.1604211828661097 -0.987584658152171
2.641801333181817 -0.987584658152171
2.9750645141696137 -0.8802066184350427
3.1848968873841526 -0.790724918670769
3.2959846143800853 -0.7012432189064954
3.3206707759347367 -0.593865179189367
3.2095830489388044 -0.5401761593308029
2.901006029505659 -0.5222798193779481
2.6047720908498393 -0.41490177966081976
2.357910475303323 -0.3254200798965461
2.1357350213114583 -0.30752373994369137
1.9135595673195933 -0.23593838013227247
1.6790410325504028 -0.09276766050943465
1.3704640131172574 0.0682993990662579
1.0125146705748085 0.10409207897196736
0.7533099742509664 0.08619573901911262
0.5928499241457308 0.12198841892482208
0.4323898740404951 0.13988475887767682
0.2595867431579336 0.17567743878338626
0.07444053149804636 0.28305547850051466
-0.07367643782986348 0.3009518184533694
-0.2341364879350991 0.2651591385476599
-0.3452242149310315 0.3188481584062241
-0.5056842650362672 0.390433518217643
-0.5920858304775478 0.42622619812335244
-0.6538012343641769 0.5693969177461903
-0.6908304766961544 0.5693969177461903
-0.7031735574734802 0.4978115579347714
-0.7525458805827835 0.42622619812335244
-0.789575122914761 0.37253717826478827
-0.8266043652467384 0.37253717826478827
-0.8266043652467384 0.44412253807620716
-0.8266043652467384 0.44412253807620716
-0.8389474460240642 0.44412253807620716
-0.8389474460240642 0.44412253807620716
-0.8142612844694126 0.4620188780290619
-0.789575122914761 0.5693969177461903
-0.7648889613601093 0.5693969177461903
-0.7278597190281318 0.5693969177461903
-0.7278597190281318 0.515707897887626
-0.7278597190281318 0.515707897887626
-0.7772320421374351 0.44412253807620716
-0.7402027998054577 0.515707897887626
-0.715516638250806 0.5872932576990451
-0.6661443151415027 0.5693969177461903
-0.6784873959188286 0.5515005777933355
-0.715516638250806 0.5336042378404808
-0.789575122914761 0.5336042378404808
-0.7402027998054577 0.515707897887626
-0.7031735574734802 0.5693969177461903
-0.6784873959188286 0.5515005777933355
-0.7031735574734802 0.5336042378404808
-0.7278597190281318 0.5872932576990451
-0.789575122914761 0.5515005777933355
-0.8019182036920868 0.5872932576990451
-0.7525458805827835 0.6051895976518997
-0.7402027998054577 0.5872932576990451
-0.7278597190281318 0.5872932576990451
-0.7525458805827835 0.5515005777933355
-0.7525458805827835 0.5336042378404808
-0.7402027998054577 0.6051895976518997
-0.7402027998054577 0.6230859376047545
-0.715516638250806 0.5872932576990451
-0.7031735574734802 0.6230859376047545
-0.7278597190281318 0.5336042378404808
-0.715516638250806 0.515707897887626
-0.715516638250806 0.6051895976518997
-0.6908304766961544 0.658878617510464
-0.6908304766961544 0.7125676373690281
-0.7031735574734802 0.6230859376047545
-0.715516638250806 0.6230859376047545
-0.7278597190281318 0.5872932576990451
-0.6784873959188286 0.6051895976518997
-0.6167719920321995 0.5872932576990451
-0.6167719920321995 0.6409822775576092
-0.6414581535868511 0.6051895976518997
-0.6538012343641769 0.5693969177461903
-0.6661443151415027 0.6051895976518997
-0.6167719920321995 0.658878617510464
-0.5920858304775478 0.6409822775576092
-0.5056842650362672 0.658878617510464
-0.5056842650362672 0.6946712974161734
-0.5303704265909188 0.6946712974161734
-0.518027345813593 0.658878617510464
-0.4809981034816155 0.658878617510464
-0.4069396188176606 0.6946712974161734
-0.36991037648568315 0.6946712974161734
-0.3452242149310315 0.658878617510464
-0.32053805337637986 0.6409822775576092
-0.30819497259905404 0.6230859376047545
-0.2835088110444024 0.6409822775576092
-0.24647956871242493 0.7662566572275923
-0.18476416482579586 0.6946712974161734
-0.13539184171649257 0.7125676373690281
-0.11070568016184093 0.6230859376047545
-0.12304876093916675 0.6230859376047545
-0.09836259938451511 0.6946712974161734
-0.07367643782986348 0.7662566572275923
-0.06133335705253765 0.7662566572275923
-0.01196103394323438 0.7304639773218828
0.012725127611417258 0.6946712974161734
0.06209745072072053 0.6409822775576092
0.049754369943394716 0.6946712974161734
0.07444053149804636 0.7125676373690281
0.06209745072072053 0.6767749574633186
0.049754369943394716 0.6409822775576092
0.025068208388743077 0.6051895976518997
-0.01196103394323438 0.6051895976518997
0.012725127611417258 0.658878617510464
0.00038204683409143886 0.6767749574633186
-0.0243041147205602 0.6767749574633186
-0.06133335705253765 0.6409822775576092
-0.08601951860718929 0.6051895976518997
-0.1477349224938184 0.6051895976518997
-0.16007800327114421 0.6230859376047545
-0.16007800327114421 0.658878617510464
-0.16007800327114421 0.6409822775576092
-0.1477349224938184 0.6230859376047545
-0.19710724560312165 0.6409822775576092
-0.20945032638044747 0.658878617510464
-0.25882264948975076 0.6767749574633186
-0.24647956871242493 0.6767749574633186
-0.25882264948975076 0.6946712974161734
-0.20945032638044747 0.6409822775576092
-0.2341364879350991 0.5872932576990451
-0.2835088110444024 0.6051895976518997
-0.2711657302670766 0.658878617510464
-0.25882264948975076 0.658878617510464
-0.2835088110444024 0.6051895976518997
-0.2835088110444024 0.5693969177461903
-0.32053805337637986 0.6230859376047545
-0.3452242149310315 0.5693969177461903
-0.30819497259905404 0.7125676373690281
-0.2835088110444024 0.7304639773218828
-0.2711657302670766 0.7125676373690281
-0.2958518918217282 0.658878617510464
-0.3328811341537057 0.6946712974161734
-0.3328811341537057 0.6230859376047545
-0.30819497259905404 0.6409822775576092
-0.2711657302670766 0.6767749574633186
-0.2711657302670766 0.6946712974161734
-0.2958518918217282 0.6230859376047545
-0.32053805337637986 0.6230859376047545
-0.3575672957083573 0.6230859376047545
-0.30819497259905404 0.6409822775576092
-0.2835088110444024 0.6946712974161734
-0.2711657302670766 0.6767749574633186
-0.2835088110444024 0.6051895976518997
-0.30819497259905404 0.6051895976518997
-0.3328811341537057 0.5872932576990451
-0.30819497259905404 0.6051895976518997
-0.2958518918217282 0.6409822775576092
-0.2835088110444024 0.6230859376047545
-0.2711657302670766 0.5693969177461903
-0.3328811341537057 0.4978115579347714
-0.3452242149310315 0.5515005777933355
-0.3328811341537057 0.5872932576990451
-0.30819497259905404 0.6230859376047545
-0.2835088110444024 0.6230859376047545
-0.2711657302670766 0.5872932576990451
-0.2835088110444024 0.5693969177461903
-0.30819497259905404 0.5336042378404808
-0.2835088110444024 0.5872932576990451
-0.25882264948975076 0.6230859376047545
-0.2341364879350991 0.5872932576990451
-0.2958518918217282 0.6230859376047545
-0.2958518918217282 0.5872932576990451
-0.3452242149310315 0.5515005777933355
-0.30819497259905404 0.6051895976518997
-0.2958518918217282 0.6051895976518997
-0.2711657302670766 0.5693969177461903
-0.2711657302670766 0.5515005777933355
-0.2958518918217282 0.515707897887626
-0.32053805337637986 0.5515005777933355
-0.2958518918217282 0.5872932576990451
-0.25882264948975076 0.6409822775576092
-0.2835088110444024 0.5872932576990451
-0.2958518918217282 0.5872932576990451
-0.30819497259905404 0.5693969177461903
-0.2958518918217282 0.5872932576990451
-0.25882264948975076 0.6051895976518997
-0.2835088110444024 0.6230859376047545
-0.30819497259905404 0.6230859376047545
-0.30819497259905404 0.6230859376047545
-0.2711657302670766 0.5515005777933355
-0.2711657302670766 0.5693969177461903
-0.25882264948975076 0.5693969177461903
-0.25882264948975076 0.6946712974161734
-0.20945032638044747 0.6946712974161734
-0.2341364879350991 0.7125676373690281
-0.2711657302670766 0.7304639773218828
-0.24647956871242493 0.8020493371333017
-0.20945032638044747 0.8736346969447206
-0.09836259938451511 0.9094273768504301
-0.04899027627521184 0.8915310368975754
-0.01196103394323438 0.8378420170390112
-0.04899027627521184 0.8736346969447206
-0.08601951860718929 0.8736346969447206
-0.08601951860718929 0.8736346969447206
-0.01196103394323438 0.8736346969447206
0.08678361227537217 0.7841529971804471
0.14849901616200126 0.7662566572275923
0.18552825849397872 0.7662566572275923
0.1731851777166529 0.7304639773218828
0.21021442004863036 0.8199456770861565
0.19787133927130454 0.855738356991866
0.24724366238060783 0.8020493371333017
0.28427290471258526 0.7483603172747375
0.24724366238060783 0.6767749574633186
0.24724366238060783 0.6767749574633186
0.234900581603282 0.6946712974161734
0.21021442004863036 0.7662566572275923
0.21021442004863036 0.6946712974161734
0.18552825849397872 0.5872932576990451
0.14849901616200126 0.515707897887626
0.07444053149804636 0.4978115579347714
0.00038204683409143886 0.5515005777933355
-0.13539184171649257 0.6230859376047545
-0.2711657302670766 0.5336042378404808
-0.38225345726300897 0.4978115579347714
-0.4069396188176606 0.47991521798191666
-0.4316257803723122 0.4620188780290619
-0.41928269959498643 0.515707897887626
-0.41928269959498643 0.5872932576990451
-0.4069396188176606 0.5515005777933355
-0.3945965380403348 0.5693969177461903
-0.4316257803723122 0.4978115579347714
-0.4316257803723122 0.47991521798191666
-0.4316257803723122 0.44412253807620716
-0.4069396188176606 0.47991521798191666
-0.3945965380403348 0.4978115579347714
-0.38225345726300897 0.44412253807620716
-0.4069396188176606 0.42622619812335244
-0.41928269959498643 0.4978115579347714
-0.4069396188176606 0.47991521798191666
-0.36991037648568315 0.4978115579347714
-0.32053805337637986 0.47991521798191666
-0.30819497259905404 0.4620188780290619
-0.3328811341537057 0.42622619812335244
-0.36991037648568315 0.42622619812335244
-0.3328811341537057 0.4978115579347714
-0.2711657302670766 0.4978115579347714
-0.2835088110444024 0.4978115579347714
-0.25882264948975076 0.390433518217643
-0.2711657302670766 0.3188481584062241
-0.2835088110444024 0.35464083831193355
-0.2341364879350991 0.37253717826478827
-0.25882264948975076 0.42622619812335244
-0.2711657302670766 0.47991521798191666
-0.2711657302670766 0.47991521798191666
-0.16007800327114421 0.4083298581704977
0.012725127611417258 0.35464083831193355
0.33364522782188855 0.24726279859480518
0.7162807319189889 0.10409207897196736
1.1729747206800443 -0.1285603404151441
1.6790410325504028 -0.34331641984940087
2.1727642636434354 -0.48648713947223865
2.617115171627165 -0.48648713947223865
3.0367799180562427 -0.30752373994369137
3.283641533602759 -0.20014570022656303
3.3577000182667143 -0.14645668036799883
3.172553806606827 -0.2717310600379819
2.814604464064378 -0.23593838013227247
2.4443120407446037 -0.09276766050943465
2.209793505975413 0.05040305911340317
2.0493334558701775 0.12198841892482208
1.8518441634329643 0.13988475887767682
1.530924063222493 0.2114701186890957
1.0742300744614377 0.2651591385476599
0.7039376511416631 0.3367444983590788
0.4817621971497984 0.390433518217643
0.370674470153866 0.4978115579347714
0.19787133927130454 0.5336042378404808
-0.04899027627521184 0.5872932576990451
-0.2341364879350991 0.5693969177461903
-0.3945965380403348 0.658878617510464
-0.46865502270428966 0.7125676373690281
-0.518027345813593 0.7662566572275923
-0.5550565881455705 0.8020493371333017
-0.6167719920321995 0.7841529971804471
-0.6538012343641769 0.7304639773218828
-0.6908304766961544 0.658878617510464
-0.7278597190281318 0.7304639773218828
-0.7402027998054577 0.6946712974161734
-0.7525458805827835 0.6946712974161734
-0.7525458805827835 0.6409822775576092
-0.715516638250806 0.658878617510464
-0.7402027998054577 0.6409822775576092
-0.7525458805827835 0.6767749574633186
-0.7031735574734802 0.7304639773218828
-0.6908304766961544 0.7304639773218828
-0.6908304766961544 0.6767749574633186
-0.7031735574734802 0.6767749574633186
-0.715516638250806 0.6767749574633186
-0.715516638250806 0.6946712974161734
-0.7031735574734802 0.7483603172747375
-0.6661443151415027 0.6946712974161734
-0.6661443151415027 0.6767749574633186
-0.6784873959188286 0.6409822775576092
-0.7402027998054577 0.6230859376047545
-0.7278597190281318 0.7304639773218828
-0.715516638250806 0.7483603172747375
-0.6784873959188286 0.7304639773218828
-0.715516638250806 0.6767749574633186
-0.7402027998054577 0.658878617510464
-0.7402027998054577 0.6946712974161734
-0.715516638250806 0.7304639773218828
-0.7031735574734802 0.7662566572275923
-0.6784873959188286 0.7662566572275923
-0.7525458805827835 0.6946712974161734
-0.7648889613601093 0.6767749574633186
-0.7648889613601093 0.7125676373690281
-0.7525458805827835 0.7662566572275923
-0.715516638250806 0.7841529971804471
-0.6908304766961544 0.8020493371333017
-0.6661443151415027 0.7662566572275923
-0.6784873959188286 0.7125676373690281
-0.7031735574734802 0.7125676373690281
-0.715516638250806 0.7483603172747375
-0.6784873959188286 0.8020493371333017
-0.6414581535868511 0.8020493371333017
-0.6044289112548736 0.7841529971804471
-0.6167719920321995 0.8020493371333017
-0.6291150728095253 0.7841529971804471
-0.6538012343641769 0.8020493371333017
-0.6414581535868511 0.7483603172747375
-0.6414581535868511 0.8020493371333017
-0.6167719920321995 0.7841529971804471
-0.6291150728095253 0.8378420170390112
-0.6167719920321995 0.7662566572275923
-0.5920858304775478 0.8020493371333017
-0.5427135073682446 0.8199456770861565
-0.5056842650362672 0.8378420170390112
-0.4933411842589413 0.8199456770861565
-0.4933411842589413 0.8020493371333017
-0.5056842650362672 0.7483603172747375
-0.443968861149638 0.7841529971804471
-0.38225345726300897 0.8736346969447206
-0.32053805337637986 0.8378420170390112
-0.32053805337637986 0.8199456770861565
-0.2835088110444024 0.7841529971804471
-0.2711657302670766 0.8020493371333017
-0.24647956871242493 0.8199456770861565
-0.18476416482579586 0.8915310368975754
-0.1477349224938184 0.8020493371333017
-0.08601951860718929 0.8736346969447206
-0.08601951860718929 0.8199456770861565
-0.07367643782986348 0.8020493371333017
-0.01196103394323438 0.8378420170390112
0.049754369943394716 0.8378420170390112
0.06209745072072053 0.8199456770861565
0.11146977383002381 0.7662566572275923
0.12381285460734963 0.7662566572275923
0.11146977383002381 0.7841529971804471
0.09912669305269799 0.8020493371333017
0.12381285460734963 0.855738356991866
0.13615593538467544 0.7841529971804471
0.12381285460734963 0.7483603172747375
0.11146977383002381 0.6946712974161734
0.07444053149804636 0.7483603172747375
0.08678361227537217 0.7483603172747375
0.07444053149804636 0.7662566572275923
0.049754369943394716 0.7483603172747375
0.037411289166068895 0.7125676373690281
0.00038204683409143886 0.6946712974161734
-0.0243041147205602 0.6946712974161734
-0.03664719549788602 0.7125676373690281
-0.0243041147205602 0.7304639773218828
-0.06133335705253765 0.7304639773218828
-0.08601951860718929 0.6946712974161734
-0.11070568016184093 0.6767749574633186
-0.1477349224938184 0.6767749574633186
-0.13539184171649257 0.7483603172747375
-0.12304876093916675 0.8020493371333017
-0.1477349224938184 0.7483603172747375
-0.13539184171649257 0.6946712974161734
-0.18476416482579586 0.6409822775576092
-0.20945032638044747 0.6409822775576092
-0.20945032638044747 0.6946712974161734
-0.20945032638044747 0.7304639773218828
-0.18476416482579586 0.7304639773218828
-0.17242108404847004 0.7304639773218828
-0.20945032638044747 0.6946712974161734
-0.24647956871242493 0.6409822775576092
-0.25882264948975076 0.6946712974161734
-0.24647956871242493 0.7483603172747375
-0.20945032638044747 0.7662566572275923
-0.18476416482579586 0.7125676373690281
-0.2217934071577733 0.6767749574633186
-0.2711657302670766 0.6767749574633186
-0.24647956871242493 0.6946712974161734
-0.2341364879350991 0.7662566572275923
-0.20945032638044747 0.6767749574633186
-0.2341364879350991 0.6230859376047545
-0.25882264948975076 0.5872932576990451
-0.25882264948975076 0.6051895976518997
-0.25882264948975076 0.6409822775576092
-0.25882264948975076 0.7304639773218828
-0.2341364879350991 0.6946712974161734
-0.2217934071577733 0.6230859376047545
-0.24647956871242493 0.6051895976518997
-0.2835088110444024 0.515707897887626
-0.2341364879350991 0.6230859376047545
-0.24647956871242493 0.6767749574633186
-0.2217934071577733 0.6409822775576092
-0.24647956871242493 0.6230859376047545
-0.24647956871242493 0.5693969177461903
-0.2711657302670766 0.5872932576990451
-0.24647956871242493 0.6051895976518997
-0.2217934071577733 0.6051895976518997
-0.2341364879350991 0.6230859376047545
-0.2217934071577733 0.6230859376047545
-0.20945032638044747 0.5515005777933355
-0.20945032638044747 0.5693969177461903
-0.20945032638044747 0.6230859376047545
-0.19710724560312165 0.5872932576990451
-0.20945032638044747 0.6051895976518997
-0.2217934071577733 0.5872932576990451
-0.2341364879350991 0.5693969177461903
-0.2711657302670766 0.5336042378404808
-0.24647956871242493 0.5693969177461903
-0.18476416482579586 0.6051895976518997
-0.18476416482579586 0.5693969177461903
-0.20945032638044747 0.5515005777933355
-0.2341364879350991 0.4978115579347714
-0.2711657302670766 0.5336042378404808
-0.2341364879350991 0.5693969177461903
-0.20945032638044747 0.5872932576990451
-0.18476416482579586 0.658878617510464
-0.19710724560312165 0.5693969177461903
-0.2217934071577733 0.5693969177461903
-0.24647956871242493 0.5515005777933355
-0.2217934071577733 0.5336042378404808
-0.18476416482579586 0.6051895976518997
-0.19710724560312165 0.5872932576990451
-0.19710724560312165 0.515707897887626
-0.2217934071577733 0.515707897887626
-0.24647956871242493 0.515707897887626
-0.2217934071577733 0.6051895976518997
-0.2217934071577733 0.6409822775576092
-0.18476416482579586 0.658878617510464
-0.2217934071577733 0.6051895976518997
-0.18476416482579586 0.6230859376047545
-0.16007800327114421 0.658878617510464
-0.17242108404847004 0.7304639773218828
-0.11070568016184093 0.8199456770861565
-0.06133335705253765 0.9094273768504301
0.00038204683409143886 0.8915310368975754
0.037411289166068895 0.855738356991866
0.049754369943394716 0.8378420170390112
0.06209745072072053 0.8915310368975754
0.049754369943394716 0.9631163967089943
0.037411289166068895 0.9452200567561395
0.07444053149804636 0.8378420170390112
0.12381285460734963 0.7662566572275923
0.14849901616200126 0.7125676373690281
0.18552825849397872 0.7483603172747375
0.22255750082595618 0.7483603172747375
0.24724366238060783 0.7662566572275923
0.28427290471258526 0.7304639773218828
0.3213021470445627 0.6767749574633186
0.3213021470445627 0.6230859376047545
0.2966159854899111 0.6767749574633186
0.3213021470445627 0.6409822775576092
0.2966159854899111 0.6946712974161734
0.2595867431579336 0.6409822775576092
0.1731851777166529 0.5693969177461903
0.18552825849397872 0.5336042378404808
0.19787133927130454 0.5336042378404808
0.13615593538467544 0.5336042378404808
0.09912669305269799 0.4978115579347714
-0.03664719549788602 0.44412253807620716
-0.18476416482579586 0.4083298581704977
-0.2835088110444024 0.390433518217643
-0.3452242149310315 0.4083298581704977
-0.32053805337637986 0.4083298581704977
-0.3328811341537057 0.44412253807620716
-0.3575672957083573 0.4083298581704977
-0.3945965380403348 0.42622619812335244
-0.3945965380403348 0.4083298581704977
-0.3945965380403348 0.42622619812335244
-0.3452242149310315 0.42622619812335244
-0.3452242149310315 0.390433518217643
-0.3452242149310315 0.390433518217643
-0.3328811341537057 0.37253717826478827
-0.38225345726300897 0.37253717826478827
-0.38225345726300897 0.390433518217643
-0.3328811341537057 0.47991521798191666
-0.30819497259905404 0.4083298581704977
-0.30819497259905404 0.37253717826478827
-0.3575672957083573 0.37253717826478827
-0.36991037648568315 0.37253717826478827
-0.3328811341537057 0.4083298581704977
-0.32053805337637986 0.47991521798191666
-0.2835088110444024 0.4620188780290619
-0.2835088110444024 0.47991521798191666
-0.2711657302670766 0.390433518217643
-0.2835088110444024 0.3188481584062241
-0.24647956871242493 0.3367444983590788
-0.19710724560312165 0.3367444983590788
-0.18476416482579586 0.3188481584062241
-0.2217934071577733 0.28305547850051466
-0.2711657302670766 0.3009518184533694
-0.24647956871242493 0.28305547850051466
-0.17242108404847004 0.24726279859480518
0.00038204683409143886 0.17567743878338626
0.24724366238060783 0.05040305911340317
0.5928499241457308 -0.2538347200851272
1.049543912906786 -0.5580724992836575
1.5062379016678413 -0.7549322387650595
2.074019617424829 -0.9159992983407521
2.617115171627165 -0.9159992983407521
3.0367799180562427 -0.790724918670769
3.283641533602759 -0.6475541990479312
3.3823861798213657 -0.5043834794250934
3.4194154221533433 -0.4685907995193839
3.2712984528254334 -0.4685907995193839
2.962721433392288 -0.4327981196136745
2.6294582524044907 -0.3612127598022556
2.345567394525997 -0.20014570022656303
2.1604211828661097 -0.16435302032085355
1.9752749712062225 -0.056974980603725196
1.6790410325504028 0.10409207897196736
1.2717193668986508 0.28305547850051466
0.9261131051335278 0.3188481584062241
0.6669084088096856 0.3188481584062241
0.4941052779271242 0.3367444983590788
0.3089590662672369 0.35464083831193355
0.09912669305269799 0.44412253807620716
-0.07367643782986348 0.515707897887626
-0.20945032638044747 0.5336042378404808
-0.3328811341537057 0.6230859376047545
-0.5056842650362672 0.658878617510464
-0.6291150728095253 0.6767749574633186
-0.6414581535868511 0.7125676373690281
-0.6291150728095253 0.7841529971804471
-0.6538012343641769 0.7483603172747375
-0.7031735574734802 0.6946712974161734
-0.7525458805827835 0.6767749574633186
-0.8019182036920868 0.6409822775576092
-0.8019182036920868 0.7483603172747375
-0.8019182036920868 0.7483603172747375
-0.7772320421374351 0.7304639773218828
-0.7648889613601093 0.7304639773218828
-0.7648889613601093 0.7483603172747375
-0.789575122914761 0.6946712974161734
-0.7525458805827835 0.6946712974161734
-0.715516638250806 0.7304639773218828
-0.7031735574734802 0.7662566572275923
-0.6908304766961544 0.6946712974161734
-0.715516638250806 0.6409822775576092
-0.7278597190281318 0.6946712974161734
-0.7031735574734802 0.7841529971804471
-0.6908304766961544 0.8199456770861565
-0.6908304766961544 0.855738356991866
-0.6784873959188286 0.8020493371333017
-0.6908304766961544 0.7304639773218828
-0.7278597190281318 0.6946712974161734
-0.6908304766961544 0.7304639773218828
-0.6908304766961544 0.7841529971804471
-0.715516638250806 0.8378420170390112
-0.7402027998054577 0.8378420170390112
-0.7648889613601093 0.8199456770861565
-0.7648889613601093 0.8199456770861565
-0.6908304766961544 0.7841529971804471
-0.6908304766961544 0.8378420170390112
-0.7031735574734802 0.855738356991866
-0.715516638250806 0.8378420170390112
-0.7525458805827835 0.855738356991866
-0.7772320421374351 0.855738356991866
-0.7402027998054577 0.9094273768504301
-0.6908304766961544 0.9452200567561395
-0.715516638250806 0.8378420170390112
-0.715516638250806 0.855738356991866
-0.7402027998054577 0.8199456770861565
-0.7772320421374351 0.8199456770861565
-0.7402027998054577 0.855738356991866
-0.7031735574734802 0.8915310368975754
-0.6661443151415027 0.8736346969447206
-0.715516638250806 0.8915310368975754
-0.715516638250806 0.8020493371333017
-0.7402027998054577 0.8378420170390112
-0.6784873959188286 0.8199456770861565
-0.6538012343641769 0.8736346969447206
-0.6414581535868511 0.8736346969447206
-0.6291150728095253 0.855738356991866
-0.6291150728095253 0.9810127366618491
-0.6291150728095253 0.9094273768504301
-0.5920858304775478 0.9094273768504301
-0.5673996689228963 0.9631163967089943
-0.518027345813593 0.9273237168032848
-0.4933411842589413 0.9631163967089943
-0.443968861149638 0.9094273768504301
-0.443968861149638 0.9273237168032848
-0.3945965380403348 0.9452200567561395
-0.3452242149310315 0.9810127366618491
-0.2958518918217282 0.9631163967089943
-0.2958518918217282 0.855738356991866
-0.2835088110444024 0.855738356991866
-0.2711657302670766 0.8199456770861565
-0.18476416482579586 0.855738356991866
-0.13539184171649257 0.9094273768504301
-0.08601951860718929 0.9452200567561395
-0.03664719549788602 0.9631163967089943
-0.03664719549788602 0.9631163967089943
0.00038204683409143886 0.9452200567561395
0.025068208388743077 0.9810127366618491
0.09912669305269799 0.9452200567561395
0.09912669305269799 0.9452200567561395
0.11146977383002381 0.9094273768504301
0.08678361227537217 0.9094273768504301
0.11146977383002381 0.9810127366618491
0.12381285460734963 0.9631163967089943
0.13615593538467544 0.9273237168032848
0.13615593538467544 0.855738356991866
0.14849901616200126 0.8378420170390112
0.09912669305269799 0.8020493371333017
0.049754369943394716 0.8020493371333017
0.06209745072072053 0.8199456770861565
0.06209745072072053 0.855738356991866
0.06209745072072053 0.8378420170390112
0.037411289166068895 0.855738356991866
0.012725127611417258 0.7841529971804471
0.00038204683409143886 0.7841529971804471
-0.04899027627521184 0.8020493371333017
-0.07367643782986348 0.8199456770861565
-0.08601951860718929 0.8736346969447206
-0.07367643782986348 0.8199456770861565
-0.08601951860718929 0.7483603172747375
-0.13539184171649257 0.7483603172747375
-0.1477349224938184 0.7662566572275923
-0.12304876093916675 0.7841529971804471
-0.1477349224938184 0.7483603172747375
-0.17242108404847004 0.7662566572275923
-0.2217934071577733 0.7483603172747375
-0.24647956871242493 0.7483603172747375
-0.24647956871242493 0.7483603172747375
-0.18476416482579586 0.7841529971804471
-0.19710724560312165 0.855738356991866
-0.2217934071577733 0.9273237168032848
-0.25882264948975076 0.9094273768504301
-0.24647956871242493 0.855738356991866
-0.24647956871242493 0.8199456770861565
-0.20945032638044747 0.8020493371333017
-0.2217934071577733 0.8378420170390112
-0.2341364879350991 0.855738356991866
-0.2835088110444024 0.7483603172747375
-0.25882264948975076 0.7662566572275923
-0.2341364879350991 0.7662566572275923
-0.2217934071577733 0.7304639773218828
-0.20945032638044747 0.7662566572275923
-0.2217934071577733 0.7841529971804471
-0.25882264948975076 0.7841529971804471
-0.2958518918217282 0.8020493371333017
-0.2341364879350991 0.8378420170390112
-0.2217934071577733 0.8199456770861565
-0.20945032638044747 0.8020493371333017
-0.2217934071577733 0.7483603172747375
-0.24647956871242493 0.7125676373690281
-0.24647956871242493 0.7483603172747375
-0.2341364879350991 0.7483603172747375
-0.20945032638044747 0.7662566572275923
-0.18476416482579586 0.7662566572275923
-0.16007800327114421 0.7483603172747375
-0.20945032638044747 0.7125676373690281
-0.2711657302670766 0.7483603172747375
-0.25882264948975076 0.658878617510464
-0.24647956871242493 0.7125676373690281
-0.19710724560312165 0.658878617510464
-0.16007800327114421 0.6767749574633186
-0.17242108404847004 0.6767749574633186
-0.17242108404847004 0.658878617510464
-0.2217934071577733 0.7125676373690281
-0.20945032638044747 0.7125676373690281
-0.17242108404847004 0.6767749574633186
-0.18476416482579586 0.658878617510464
-0.19710724560312165 0.6230859376047545
-0.20945032638044747 0.6409822775576092
-0.19710724560312165 0.6767749574633186
-0.18476416482579586 0.6946712974161734
-0.16007800327114421 0.6767749574633186
-0.17242108404847004 0.658878617510464
-0.20945032638044747 0.6409822775576092
-0.20945032638044747 0.6230859376047545
-0.17242108404847004 0.6767749574633186
-0.13539184171649257 0.6767749574633186
-0.13539184171649257 0.6767749574633186
-0.1477349224938184 0.6767749574633186
-0.2217934071577733 0.658878617510464
-0.2341364879350991 0.6409822775576092
-0.19710724560312165 0.658878617510464
-0.1477349224938184 0.6946712974161734
-0.13539184171649257 0.658878617510464
-0.17242108404847004 0.6051895976518997
-0.19710724560312165 0.6051895976518997
-0.19710724560312165 0.6409822775576092
-0.18476416482579586 0.6767749574633186
-0.12304876093916675 0.7125676373690281
-0.11070568016184093 0.658878617510464
-0.09836259938451511 0.658878617510464
-0.13539184171649257 0.6946712974161734
-0.1477349224938184 0.7662566572275923
-0.12304876093916675 0.8736346969447206
-0.07367643782986348 0.9631163967089943
0.012725127611417258 0.9989090766147037
0.049754369943394716 0.9989090766147037
0.11146977383002381 0.9273237168032848
0.09912669305269799 0.9273237168032848
0.12381285460734963 1.0168054165675584
0.08678361227537217 1.052598096473268
0.11146977383002381 1.0883907763789773
0.13615593538467544 0.9989090766147037
0.18552825849397872 0.9273237168032848
0.19787133927130454 0.9273237168032848
0.28427290471258526 0.9273237168032848
0.34598830859921437 0.9452200567561395
0.370674470153866 0.9452200567561395
0.3583313893765402 0.9452200567561395
0.33364522782188855 0.8736346969447206
0.34598830859921437 0.7841529971804471
0.38301755093119183 0.7662566572275923
0.39536063170851765 0.8199456770861565
0.38301755093119183 0.855738356991866
0.33364522782188855 0.7841529971804471
0.2966159854899111 0.7304639773218828
0.2595867431579336 0.658878617510464
0.2595867431579336 0.6409822775576092
0.18552825849397872 0.6409822775576092
0.11146977383002381 0.6051895976518997
-0.03664719549788602 0.5515005777933355
-0.1477349224938184 0.42622619812335244
-0.25882264948975076 0.4978115579347714
-0.2958518918217282 0.5336042378404808
-0.2835088110444024 0.6051895976518997
-0.2835088110444024 0.5336042378404808
-0.2958518918217282 0.4978115579347714
-0.3452242149310315 0.42622619812335244
-0.36991037648568315 0.4083298581704977
-0.3452242149310315 0.44412253807620716
-0.30819497259905404 0.4620188780290619
-0.3328811341537057 0.5336042378404808
-0.3452242149310315 0.4978115579347714
-0.3945965380403348 0.515707897887626
-0.38225345726300897 0.4083298581704977
-0.3328811341537057 0.4620188780290619
-0.3328811341537057 0.4978115579347714
-0.2958518918217282 0.4978115579347714
-0.30819497259905404 0.515707897887626
-0.3452242149310315 0.5336042378404808
-0.32053805337637986 0.47991521798191666
-0.2958518918217282 0.47991521798191666
-0.2341364879350991 0.4978115579347714
-0.24647956871242493 0.4620188780290619
-0.20945032638044747 0.47991521798191666
-0.24647956871242493 0.42622619812335244
-0.2341364879350991 0.44412253807620716
-0.2341364879350991 0.390433518217643
-0.17242108404847004 0.4083298581704977
-0.17242108404847004 0.390433518217643
-0.19710724560312165 0.35464083831193355
-0.24647956871242493 0.3367444983590788
-0.19710724560312165 0.3188481584062241
-0.1477349224938184 0.3367444983590788
0.025068208388743077 0.2651591385476599
0.24724366238060783 0.08619573901911262
0.5928499241457308 -0.11066400046228939
1.0125146705748085 -0.39700543970796504
1.4938948208905156 -0.6117615191422218
1.9752749712062225 -0.8265175985764784
2.468998202299255 -0.8265175985764784
2.888662948728333 -0.8444139385293332
3.1355245642748493 -0.6833468789536407
3.3206707759347367 -0.5401761593308029
3.431758502930669 -0.48648713947223865
3.4441015837079947 -0.4506944595665292
3.246612291270782 -0.3254200798965461
2.8392906256190296 -0.21804204017941775
2.4566551215219294 -0.1285603404151441
2.1727642636434354 -0.09276766050943465
1.8518441634329643 0.03250671916054844
1.5062379016678413 0.15778109883053154
1.1359454783480667 0.2114701186890957
0.913770024356202 0.28305547850051466
0.7162807319189889 0.35464083831193355
0.4694191163724726 0.37253717826478827
0.22255750082595618 0.4083298581704977
0.07444053149804636 0.515707897887626
-0.01196103394323438 0.6051895976518997
-0.09836259938451511 0.6409822775576092
-0.24647956871242493 0.6767749574633186
-0.38225345726300897 0.6051895976518997
-0.518027345813593 0.6409822775576092
-0.579742749700222 0.658878617510464
-0.6291150728095253 0.7483603172747375
-0.5920858304775478 0.6767749574633186
-0.6538012343641769 0.6409822775576092
-0.7278597190281318 0.5872932576990451
-0.7278597190281318 0.5872932576990451
-0.7031735574734802 0.6409822775576092
-0.7031735574734802 0.6946712974161734
-0.6538012343641769 0.6409822775576092
-0.6538012343641769 0.6230859376047545
-0.6538012343641769 0.5872932576990451
-0.6661443151415027 0.5872932576990451
-0.6538012343641769 0.6230859376047545
-0.6414581535868511 0.6409822775576092
-0.6661443151415027 0.6230859376047545
-0.6167719920321995 0.6409822775576092
-0.6291150728095253 0.6767749574633186
-0.6661443151415027 0.658878617510464
-0.6538012343641769 0.6409822775576092
-0.6414581535868511 0.6946712974161734
-0.6167719920321995 0.6409822775576092
-0.5920858304775478 0.6051895976518997
-0.6784873959188286 0.5515005777933355
-0.6784873959188286 0.5336042378404808
-0.6661443151415027 0.658878617510464
-0.6291150728095253 0.7483603172747375
-0.6414581535868511 0.7662566572275923
-0.6908304766961544 0.7125676373690281
-0.6908304766961544 0.6409822775576092
-0.6908304766961544 0.5693969177461903
-0.7031735574734802 0.6230859376047545
-0.6661443151415027 0.6946712974161734
-0.6661443151415027 0.7304639773218828
-0.6784873959188286 0.7483603172747375
-0.7031735574734802 0.6767749574633186
-0.7402027998054577 0.6051895976518997
-0.7402027998054577 0.6051895976518997
-0.7031735574734802 0.6767749574633186
-0.6784873959188286 0.7483603172747375
-0.6784873959188286 0.6767749574633186
-0.7648889613601093 0.7125676373690281
-0.7772320421374351 0.6946712974161734
-0.715516638250806 0.7483603172747375
-0.6908304766961544 0.7125676373690281
-0.6661443151415027 0.6946712974161734
-0.6538012343641769 0.658878617510464
-0.6414581535868511 0.6409822775576092
-0.6414581535868511 0.6409822775576092
-0.6167719920321995 0.6767749574633186
-0.6167719920321995 0.7125676373690281
-0.5550565881455705 0.7125676373690281
-0.5550565881455705 0.6946712974161734
-0.518027345813593 0.6230859376047545
-0.5056842650362672 0.6767749574633186
-0.4809981034816155 0.7304639773218828
-0.4316257803723122 0.7483603172747375
-0.38225345726300897 0.7304639773218828
-0.30819497259905404 0.7304639773218828
-0.2711657302670766 0.6767749574633186
-0.24647956871242493 0.6946712974161734
-0.20945032638044747 0.6946712974161734
-0.16007800327114421 0.7662566572275923
-0.13539184171649257 0.6946712974161734
-0.09836259938451511 0.7125676373690281
-0.0243041147205602 0.7125676373690281
0.037411289166068895 0.6767749574633186
0.06209745072072053 0.6767749574633186
0.09912669305269799 0.658878617510464
0.12381285460734963 0.6230859376047545
0.12381285460734963 0.6767749574633186
0.14849901616200126 0.6409822775576092
0.16084209693932708 0.6230859376047545
0.19787133927130454 0.6409822775576092
0.234900581603282 0.658878617510464
0.21021442004863036 0.6767749574633186
0.1731851777166529 0.5872932576990451
0.12381285460734963 0.5515005777933355
0.09912669305269799 0.5872932576990451
0.11146977383002381 0.6051895976518997
0.13615593538467544 0.6409822775576092
0.11146977383002381 0.6051895976518997
0.07444053149804636 0.6051895976518997
0.037411289166068895 0.5872932576990451
0.025068208388743077 0.515707897887626
0.012725127611417258 0.5336042378404808
0.00038204683409143886 0.5872932576990451
0.00038204683409143886 0.5693969177461903
-0.06133335705253765 0.5693969177461903
-0.09836259938451511 0.515707897887626
-0.13539184171649257 0.5693969177461903
-0.09836259938451511 0.5336042378404808
-0.08601951860718929 0.5336042378404808
-0.08601951860718929 0.5872932576990451
-0.13539184171649257 0.4978115579347714
-0.16007800327114421 0.47991521798191666
-0.19710724560312165 0.4978115579347714
-0.17242108404847004 0.5515005777933355
-0.12304876093916675 0.6409822775576092
-0.11070568016184093 0.5693969177461903
-0.12304876093916675 0.5336042378404808
-0.1477349224938184 0.5336042378404808
-0.20945032638044747 0.515707897887626
-0.2217934071577733 0.5872932576990451
-0.16007800327114421 0.6409822775576092
-0.16007800327114421 0.6051895976518997
-0.17242108404847004 0.6051895976518997
-0.19710724560312165 0.5693969177461903
-0.2217934071577733 0.5336042378404808
-0.19710724560312165 0.515707897887626
-0.2217934071577733 0.5336042378404808
-0.18476416482579586 0.4978115579347714
-0.19710724560312165 0.5336042378404808
-0.18476416482579586 0.515707897887626
-0.2217934071577733 0.5336042378404808
-0.19710724560312165 0.5693969177461903
-0.18476416482579586 0.515707897887626
-0.16007800327114421 0.515707897887626
-0.17242108404847004 0.4620188780290619
-0.18476416482579586 0.44412253807620716
-0.20945032638044747 0.390433518217643
-0.2217934071577733 0.44412253807620716
-0.18476416482579586 0.47991521798191666
-0.16007800327114421 0.47991521798191666
-0.17242108404847004 0.44412253807620716
-0.18476416482579586 0.4083298581704977
-0.19710724560312165 0.3188481584062241
-0.16007800327114421 0.37253717826478827
-0.1477349224938184 0.42622619812335244
-0.12304876093916675 0.4083298581704977
-0.1477349224938184 0.42622619812335244
-0.18476416482579586 0.4083298581704977
-0.18476416482579586 0.4083298581704977
-0.16007800327114421 0.42622619812335244
-0.11070568016184093 0.42622619812335244
-0.12304876093916675 0.35464083831193355
-0.09836259938451511 0.37253717826478827
-0.12304876093916675 0.37253717826478827
-0.1477349224938184 0.3367444983590788
-0.1477349224938184 0.390433518217643
-0.11070568016184093 0.4083298581704977
-0.11070568016184093 0.3367444983590788
-0.12304876093916675 0.3188481584062241
-0.16007800327114421 0.3188481584062241
-0.18476416482579586 0.3367444983590788
-0.1477349224938184 0.390433518217643
-0.11070568016184093 0.42622619812335244
-0.09836259938451511 0.4083298581704977
-0.13539184171649257 0.3188481584062241
-0.1477349224938184 0.3009518184533694
-0.18476416482579586 0.3009518184533694
-0.2217934071577733 0.35464083831193355
-0.18476416482579586 0.42622619812335244
-0.17242108404847004 0.37253717826478827
-0.1477349224938184 0.35464083831193355
-0.12304876093916675 0.35464083831193355
-0.1477349224938184 0.37253717826478827
-0.16007800327114421 0.4620188780290619
-0.13539184171649257 0.47991521798191666
-0.09836259938451511 0.47991521798191666
-0.07367643782986348 0.5336042378404808
-0.04899027627521184 0.5693969177461903
-0.03664719549788602 0.6230859376047545
0.025068208388743077 0.658878617510464
0.07444053149804636 0.6767749574633186
0.09912669305269799 0.6230859376047545
0.11146977383002381 0.6409822775576092
0.09912669305269799 0.658878617510464
0.07444053149804636 0.5872932576990451
0.08678361227537217 0.5693969177461903
0.1731851777166529 0.5872932576990451
0.234900581603282 0.5515005777933355
0.27192982393525944 0.4978115579347714
0.28427290471258526 0.4620188780290619
0.3089590662672369 0.5515005777933355
0.33364522782188855 0.5693969177461903
0.3583313893765402 0.5515005777933355
0.4077037124858435 0.5336042378404808
0.4200467932631693 0.42622619812335244
0.4200467932631693 0.4083298581704977
0.370674470153866 0.4083298581704977
0.3583313893765402 0.42622619812335244
0.34598830859921437 0.4620188780290619
0.34598830859921437 0.37253717826478827
0.2966159854899111 0.3009518184533694
0.22255750082595618 0.22936645864195046
0.11146977383002381 0.193573778736241
0.00038204683409143886 0.22936645864195046
-0.11070568016184093 0.2651591385476599
-0.19710724560312165 0.22936645864195046
-0.25882264948975076 0.22936645864195046
-0.30819497259905404 0.13988475887767682
-0.30819497259905404 0.12198841892482208
-0.30819497259905404 0.13988475887767682
-0.30819497259905404 0.15778109883053154
-0.2835088110444024 0.13988475887767682
-0.32053805337637986 0.15778109883053154
-0.30819497259905404 0.17567743878338626
-0.3328811341537057 0.12198841892482208
-0.2835088110444024 0.13988475887767682
-0.25882264948975076 0.17567743878338626
-0.25882264948975076 0.12198841892482208
-0.24647956871242493 0.08619573901911262
-0.2835088110444024 0.10409207897196736
-0.30819497259905404 0.10409207897196736
-0.25882264948975076 0.12198841892482208
-0.24647956871242493 0.17567743878338626
-0.24647956871242493 0.10409207897196736
-0.2341364879350991 0.12198841892482208
-0.2341364879350991 0.0682993990662579
-0.24647956871242493 0.12198841892482208
-0.19710724560312165 0.12198841892482208
-0.18476416482579586 0.12198841892482208
-0.16007800327114421 0.05040305911340317
-0.16007800327114421 -0.02118230069801574
-0.18476416482579586 -0.039078640650870466
-0.18476416482579586 -0.0032859607451610137
-0.19710724560312165 0.08619573901911262
-0.16007800327114421 0.15778109883053154
-0.06133335705253765 0.15778109883053154
0.049754369943394716 0.0682993990662579
0.27192982393525944 -0.039078640650870466
0.5311345202591017 -0.20014570022656303
0.913770024356202 -0.30752373994369137
1.3828070938945831 -0.5222798193779481
1.8888734057649417 -0.8086212586236238
2.419625879189952 -0.9517919782464616
2.9256921910603104 -0.9338956382936069
3.2712984528254334 -0.790724918670769
3.505816987594624 -0.593865179189367
3.6169047145905564 -0.5580724992836575
3.456444664485321 -0.6117615191422218
3.0614660796108946 -0.5580724992836575
2.6541444139591426 -0.48648713947223865
2.357910475303323 -0.41490177966081976
2.123391940534132 -0.3612127598022556
1.8395010826556384 -0.20014570022656303
1.456865578558538 -0.14645668036799883
1.0248577513521344 -0.09276766050943465
0.7286238126963147 -0.07487132055657993
0.6051930049230566 -0.0032859607451610137
0.5311345202591017 0.014610379207693714
0.370674470153866 0.10409207897196736
0.1731851777166529 0.10409207897196736
0.00038204683409143886 0.13988475887767682
-0.13539184171649257 0.15778109883053154
-0.2711657302670766 0.22936645864195046
-0.3328811341537057 0.3188481584062241
-0.41928269959498643 0.390433518217643
-0.46865502270428966 0.4083298581704977
-0.5056842650362672 0.4083298581704977
-0.5427135073682446 0.390433518217643
-0.5427135073682446 0.3367444983590788
-0.5920858304775478 0.3367444983590788
-0.6167719920321995 0.3009518184533694
-0.6414581535868511 0.3367444983590788
-0.6661443151415027 0.3009518184533694
-0.6661443151415027 0.3009518184533694
-0.6784873959188286 0.3188481584062241
-0.6291150728095253 0.35464083831193355
-0.6291150728095253 0.37253717826478827
-0.579742749700222 0.3188481584062241
-0.579742749700222 0.3188481584062241
-0.6044289112548736 0.28305547850051466
-0.5920858304775478 0.28305547850051466
-0.5920858304775478 0.3188481584062241
-0.5427135073682446 0.37253717826478827
-0.5427135073682446 0.35464083831193355
-0.5920858304775478 0.35464083831193355
-0.5920858304775478 0.3009518184533694
-0.6167719920321995 0.3009518184533694
-0.5550565881455705 0.37253717826478827
-0.5303704265909188 0.4083298581704977
-0.518027345813593 0.35464083831193355
-0.5427135073682446 0.35464083831193355
-0.579742749700222 0.35464083831193355
-0.6044289112548736 0.3367444983590788
-0.579742749700222 0.37253717826478827
-0.5427135073682446 0.4083298581704977
-0.518027345813593 0.3367444983590788
-0.5427135073682446 0.3188481584062241
-0.579742749700222 0.3188481584062241
-0.6414581535868511 0.2651591385476599
-0.6044289112548736 0.390433518217643
-0.5920858304775478 0.44412253807620716
-0.5673996689228963 0.4083298581704977
-0.579742749700222 0.35464083831193355
-0.6044289112548736 0.3367444983590788
-0.6044289112548736 0.3367444983590788
-0.6167719920321995 0.37253717826478827
-0.579742749700222 0.390433518217643
-0.5303704265909188 0.390433518217643
-0.5550565881455705 0.37253717826478827
-0.5920858304775478 0.35464083831193355
-0.579742749700222 0.35464083831193355
-0.5673996689228963 0.42622619812335244
-0.5427135073682446 0.44412253807620716
-0.518027345813593 0.4083298581704977
-0.518027345813593 0.390433518217643
-0.5550565881455705 0.35464083831193355
-0.5550565881455705 0.3188481584062241
-0.518027345813593 0.42622619812335244
-0.4933411842589413 0.44412253807620716
-0.45631194192696384 0.42622619812335244
-0.4069396188176606 0.42622619812335244
-0.41928269959498643 0.390433518217643
-0.4316257803723122 0.390433518217643
-0.4069396188176606 0.42622619812335244
-0.3328811341537057 0.4620188780290619
-0.2711657302670766 0.47991521798191666
-0.2217934071577733 0.42622619812335244
-0.19710724560312165 0.42622619812335244
-0.19710724560312165 0.44412253807620716
-0.18476416482579586 0.4620188780290619
-0.11070568016184093 0.4978115579347714
-0.08601951860718929 0.47991521798191666
-0.03664719549788602 0.4620188780290619
0.037411289166068895 0.44412253807620716
0.012725127611417258 0.42622619812335244
0.06209745072072053 0.5336042378404808
0.09912669305269799 0.515707897887626
0.11146977383002381 0.44412253807620716
0.13615593538467544 0.4083298581704977
0.18552825849397872 0.390433518217643
0.18552825849397872 0.35464083831193355
0.21021442004863036 0.42622619812335244
0.24724366238060783 0.4620188780290619
0.21021442004863036 0.4083298581704977
0.21021442004863036 0.4083298581704977
0.21021442004863036 0.35464083831193355
0.18552825849397872 0.3188481584062241
0.16084209693932708 0.35464083831193355
0.13615593538467544 0.37253717826478827
0.13615593538467544 0.37253717826478827
0.09912669305269799 0.390433518217643
0.049754369943394716 0.390433518217643
0.025068208388743077 0.3367444983590788
0.025068208388743077 0.37253717826478827
0.049754369943394716 0.4083298581704977
0.025068208388743077 0.390433518217643
0.00038204683409143886 0.3367444983590788
-0.04899027627521184 0.3188481584062241
-0.03664719549788602 0.3367444983590788
-0.03664719549788602 0.37253717826478827
-0.01196103394323438 0.37253717826478827
-0.0243041147205602 0.390433518217643
-0.04899027627521184 0.3367444983590788
-0.07367643782986348 0.28305547850051466
-0.08601951860718929 0.3188481584062241
-0.06133335705253765 0.3367444983590788
-0.09836259938451511 0.4083298581704977
-0.06133335705253765 0.4083298581704977
-0.08601951860718929 0.37253717826478827
-0.08601951860718929 0.3367444983590788
-0.09836259938451511 0.3188481584062241
-0.07367643782986348 0.3367444983590788
-0.06133335705253765 0.390433518217643
-0.04899027627521184 0.3367444983590788
-0.06133335705253765 0.3367444983590788
-0.07367643782986348 0.3009518184533694
-0.09836259938451511 0.3009518184533694
-0.08601951860718929 0.3367444983590788
-0.08601951860718929 0.37253717826478827
-0.08601951860718929 0.35464083831193355
-0.08601951860718929 0.3009518184533694
-0.11070568016184093 0.3009518184533694
-0.08601951860718929 0.3009518184533694
-0.07367643782986348 0.28305547850051466
-0.09836259938451511 0.3367444983590788
-0.04899027627521184 0.3188481584062241
-0.07367643782986348 0.2651591385476599
-0.07367643782986348 0.22936645864195046
-0.12304876093916675 0.22936645864195046
-0.09836259938451511 0.22936645864195046
-0.06133335705253765 0.2651591385476599
-0.03664719549788602 0.22936645864195046
-0.07367643782986348 0.24726279859480518
-0.08601951860718929 0.22936645864195046
-0.09836259938451511 0.17567743878338626
-0.07367643782986348 0.2114701186890957
-0.01196103394323438 0.2114701186890957
-0.01196103394323438 0.22936645864195046
0.00038204683409143886 0.193573778736241
-0.03664719549788602 0.2114701186890957
-0.07367643782986348 0.22936645864195046
-0.0243041147205602 0.2114701186890957
0.00038204683409143886 0.24726279859480518
0.012725127611417258 0.22936645864195046
-0.01196103394323438 0.17567743878338626
-0.03664719549788602 0.17567743878338626
-0.07367643782986348 0.17567743878338626
-0.06133335705253765 0.24726279859480518
0.012725127611417258 0.24726279859480518
0.00038204683409143886 0.24726279859480518
0.00038204683409143886 0.22936645864195046
0.012725127611417258 0.17567743878338626
0.012725127611417258 0.193573778736241
-0.01196103394323438 0.15778109883053154
0.00038204683409143886 0.2651591385476599
0.00038204683409143886 0.22936645864195046
-0.0243041147205602 0.24726279859480518
-0.0243041147205602 0.193573778736241
-0.03664719549788602 0.17567743878338626
0.00038204683409143886 0.2114701186890957
0.012725127611417258 0.24726279859480518
-0.01196103394323438 0.193573778736241
-0.0243041147205602 0.2114701186890957
-0.0243041147205602 0.2114701186890957
-0.01196103394323438 0.193573778736241
-0.0243041147205602 0.2114701186890957
-0.01196103394323438 0.28305547850051466
0.00038204683409143886 0.28305547850051466
0.012725127611417258 0.3009518184533694
0.00038204683409143886 0.3367444983590788
0.037411289166068895 0.42622619812335244
0.08678361227537217 0.515707897887626
0.16084209693932708 0.5872932576990451
0.21021442004863036 0.5872932576990451
0.22255750082595618 0.5336042378404808
0.22255750082595618 0.47991521798191666
0.22255750082595618 0.47991521798191666
0.21021442004863036 0.515707897887626
0.2595867431579336 0.47991521798191666
0.28427290471258526 0.47991521798191666
0.3089590662672369 0.35464083831193355
0.3583313893765402 0.3367444983590788
0.370674470153866 0.390433518217643
0.4077037124858435 0.44412253807620716
0.4694191163724726 0.44412253807620716
0.50644835870445 0.390433518217643
0.5187914394817759 0.3367444983590788
0.5187914394817759 0.22936645864195046
0.50644835870445 0.28305547850051466
0.4817621971497984 0.3367444983590788
0.4694191163724726 0.3009518184533694
0.4200467932631693 0.24726279859480518
0.39536063170851765 0.193573778736241
0.34598830859921437 0.12198841892482208
0.24724366238060783 0.08619573901911262
0.16084209693932708 0.12198841892482208
0.025068208388743077 0.17567743878338626
-0.06133335705253765 0.08619573901911262
-0.1477349224938184 0.10409207897196736
-0.16007800327114421 0.014610379207693714
-0.19710724560312165 -0.039078640650870466
-0.19710724560312165 0.05040305911340317
-0.17242108404847004 0.08619573901911262
-0.17242108404847004 0.05040305911340317
-0.17242108404847004 0.05040305911340317
-0.19710724560312165 0.03250671916054844
-0.2341364879350991 -0.02118230069801574
-0.20945032638044747 0.03250671916054844
-0.19710724560312165 0.05040305911340317
-0.16007800327114421 0.014610379207693714
-0.16007800327114421 -0.02118230069801574
-0.13539184171649257 -0.039078640650870466
-0.16007800327114421 -0.039078640650870466
-0.16007800327114421 0.014610379207693714
-0.1477349224938184 0.014610379207693714
-0.11070568016184093 -0.0032859607451610137
-0.12304876093916675 -0.056974980603725196
-0.12304876093916675 -0.0032859607451610137
-0.13539184171649257 -0.039078640650870466
-0.12304876093916675 -0.056974980603725196
-0.08601951860718929 -0.039078640650870466
-0.06133335705253765 -0.11066400046228939
-0.08601951860718929 -0.14645668036799883
-0.06133335705253765 -0.16435302032085355
-0.09836259938451511 -0.1285603404151441
-0.07367643782986348 -0.09276766050943465
-0.03664719549788602 -0.07487132055657993
0.025068208388743077 -0.09276766050943465
0.16084209693932708 -0.2717310600379819
0.38301755093119183 -0.4327981196136745
0.6915945703643372 -0.5759688392365123
1.1359454783480667 -0.8086212586236238
1.6913841133277285 -1.0412736780107352
2.2838519906393677 -1.2023407375864277
2.814604464064378 -1.2381334174921372
3.22192612971613 -1.1307553777750088
3.4811308260399723 -0.9517919782464616
3.6045616338132307 -0.8802066184350427
3.6045616338132307 -0.8802066184350427
3.2712984528254334 -0.8802066184350427
2.8516337063963557 -0.7728285787179143
2.468998202299255 -0.6296578590950765
2.2838519906393677 -0.5759688392365123
2.123391940534132 -0.5043834794250934
1.9135595673195933 -0.3254200798965461
1.592639467109122 -0.21804204017941775
1.1359454783480667 -0.16435302032085355
0.8643977012468987 -0.20014570022656303
0.6915945703643372 -0.1822493602737083
0.4941052779271242 -0.07487132055657993
0.2966159854899111 0.014610379207693714
0.08678361227537217 0.10409207897196736
-0.08601951860718929 0.12198841892482208
-0.2217934071577733 0.17567743878338626
-0.38225345726300897 0.22936645864195046
-0.45631194192696384 0.24726279859480518
-0.4809981034816155 0.2651591385476599
-0.46865502270428966 0.24726279859480518
-0.5303704265909188 0.22936645864195046
-0.5673996689228963 0.193573778736241
-0.6414581535868511 0.193573778736241
-0.6044289112548736 0.2114701186890957
-0.579742749700222 0.24726279859480518
-0.5427135073682446 0.2651591385476599
-0.5427135073682446 0.22936645864195046
-0.5673996689228963 0.24726279859480518
-0.6044289112548736 0.24726279859480518
-0.5427135073682446 0.2651591385476599
-0.5056842650362672 0.3367444983590788
-0.5303704265909188 0.28305547850051466
-0.5427135073682446 0.2114701186890957
-0.5427135073682446 0.24726279859480518
-0.5673996689228963 0.3188481584062241
-0.5303704265909188 0.3188481584062241
-0.5056842650362672 0.35464083831193355
-0.4933411842589413 0.3188481584062241
-0.4933411842589413 0.3009518184533694
-0.4933411842589413 0.28305547850051466
-0.518027345813593 0.28305547850051466
-0.5056842650362672 0.3009518184533694
-0.4933411842589413 0.3188481584062241
-0.5303704265909188 0.24726279859480518
-0.5427135073682446 0.2651591385476599
-0.5550565881455705 0.28305547850051466
-0.6044289112548736 0.35464083831193355
-0.5550565881455705 0.390433518217643
-0.5550565881455705 0.4083298581704977
-0.5303704265909188 0.37253717826478827
-0.5303704265909188 0.3367444983590788
-0.5673996689228963 0.3188481584062241
-0.579742749700222 0.3188481584062241
-0.5550565881455705 0.37253717826478827
-0.5673996689228963 0.390433518217643
-0.5427135073682446 0.37253717826478827
-0.5673996689228963 0.3188481584062241
-0.5920858304775478 0.28305547850051466
-0.579742749700222 0.3188481584062241
-0.5920858304775478 0.3367444983590788
-0.5550565881455705 0.4083298581704977
-0.5550565881455705 0.42622619812335244
-0.5303704265909188 0.4083298581704977
-0.5427135073682446 0.3367444983590788
-0.5550565881455705 0.3367444983590788
-0.5550565881455705 0.3188481584062241
-0.518027345813593 0.390433518217643
-0.46865502270428966 0.35464083831193355
-0.4809981034816155 0.4083298581704977
-0.4809981034816155 0.390433518217643
-0.46865502270428966 0.35464083831193355
-0.4316257803723122 0.42622619812335244
-0.41928269959498643 0.4978115579347714
-0.36991037648568315 0.4620188780290619
-0.3575672957083573 0.4620188780290619
-0.2835088110444024 0.4083298581704977
-0.24647956871242493 0.42622619812335244
-0.20945032638044747 0.42622619812335244
-0.16007800327114421 0.4978115579347714
-0.16007800327114421 0.4620188780290619
-0.16007800327114421 0.47991521798191666
-0.13539184171649257 0.4620188780290619
-0.11070568016184093 0.4083298581704977
-0.0243041147205602 0.47991521798191666
0.00038204683409143886 0.4620188780290619
0.06209745072072053 0.47991521798191666
0.12381285460734963 0.4620188780290619
0.14849901616200126 0.44412253807620716
0.14849901616200126 0.44412253807620716
0.18552825849397872 0.4083298581704977
0.2595867431579336 0.390433518217643
0.3089590662672369 0.4083298581704977
0.3213021470445627 0.37253717826478827
0.28427290471258526 0.390433518217643
0.27192982393525944 0.42622619812335244
0.28427290471258526 0.4083298581704977
0.34598830859921437 0.42622619812335244
0.3583313893765402 0.42622619812335244
0.33364522782188855 0.4083298581704977
0.2966159854899111 0.3188481584062241
0.24724366238060783 0.3188481584062241
0.234900581603282 0.3009518184533694
0.24724366238060783 0.37253717826478827
0.24724366238060783 0.35464083831193355
0.19787133927130454 0.3009518184533694
0.19787133927130454 0.28305547850051466
0.16084209693932708 0.2651591385476599
0.14849901616200126 0.24726279859480518
0.14849901616200126 0.3009518184533694
0.11146977383002381 0.3188481584062241
0.11146977383002381 0.3009518184533694
0.049754369943394716 0.28305547850051466
0.025068208388743077 0.3009518184533694
0.025068208388743077 0.3009518184533694
0.06209745072072053 0.3188481584062241
0.06209745072072053 0.2651591385476599
0.025068208388743077 0.2651591385476599
-0.01196103394323438 0.2114701186890957
-0.04899027627521184 0.2114701186890957
-0.03664719549788602 0.2651591385476599
-0.0243041147205602 0.3009518184533694
0.00038204683409143886 0.3188481584062241
-0.04899027627521184 0.28305547850051466
-0.07367643782986348 0.2651591385476599
-0.12304876093916675 0.2651591385476599
-0.09836259938451511 0.3009518184533694
-0.06133335705253765 0.3367444983590788
-0.03664719549788602 0.24726279859480518
-0.09836259938451511 0.24726279859480518
-0.07367643782986348 0.193573778736241
-0.08601951860718929 0.15778109883053154
-0.07367643782986348 0.193573778736241
-0.04899027627521184 0.2651591385476599
-0.06133335705253765 0.193573778736241
-0.07367643782986348 0.2114701186890957
-0.09836259938451511 0.2114701186890957
-0.11070568016184093 0.2114701186890957
-0.07367643782986348 0.24726279859480518
-0.06133335705253765 0.24726279859480518
-0.03664719549788602 0.24726279859480518
-0.04899027627521184 0.193573778736241
-0.06133335705253765 0.15778109883053154
-0.08601951860718929 0.15778109883053154
-0.08601951860718929 0.193573778736241
-0.07367643782986348 0.2114701186890957
-0.04899027627521184 0.17567743878338626
-0.01196103394323438 0.193573778736241
-0.01196103394323438 0.13988475887767682
-0.03664719549788602 0.15778109883053154
-0.03664719549788602 0.17567743878338626
-0.0243041147205602 0.193573778736241
-0.01196103394323438 0.12198841892482208
-0.04899027627521184 0.12198841892482208
-0.06133335705253765 0.0682993990662579
-0.04899027627521184 0.12198841892482208
-0.03664719549788602 0.13988475887767682
0.00038204683409143886 0.15778109883053154
-0.01196103394323438 0.17567743878338626
-0.01196103394323438 0.13988475887767682
-0.0243041147205602 0.12198841892482208
-0.01196103394323438 0.13988475887767682
-0.01196103394323438 0.15778109883053154
0.025068208388743077 0.13988475887767682
0.025068208388743077 0.13988475887767682
0.00038204683409143886 0.10409207897196736
-0.01196103394323438 0.05040305911340317
-0.0243041147205602 0.03250671916054844
0.012725127611417258 0.03250671916054844
0.00038204683409143886 0.08619573901911262
0.00038204683409143886 0.08619573901911262
-0.01196103394323438 0.0682993990662579
-0.04899027627521184 0.08619573901911262
-0.06133335705253765 0.03250671916054844
-0.03664719549788602 0.10409207897196736
0.00038204683409143886 0.15778109883053154
0.012725127611417258 0.08619573901911262
0.012725127611417258 0.05040305911340317
-0.01196103394323438 0.014610379207693714
-0.03664719549788602 0.014610379207693714
-0.01196103394323438 0.12198841892482208
-0.01196103394323438 0.10409207897196736
0.025068208388743077 0.10409207897196736
-0.01196103394323438 0.10409207897196736
-0.01196103394323438 0.12198841892482208
-0.0243041147205602 0.13988475887767682
0.00038204683409143886 0.24726279859480518
0.025068208388743077 0.42622619812335244
0.08678361227537217 0.44412253807620716
0.16084209693932708 0.4620188780290619
0.22255750082595618 0.47991521798191666
0.234900581603282 0.44412253807620716
0.2966159854899111 0.4620188780290619
0.3089590662672369 0.4978115579347714
0.2966159854899111 0.44412253807620716
0.24724366238060783 0.35464083831193355
0.19787133927130454 0.3188481584062241
0.234900581603282 0.3009518184533694
0.3213021470445627 0.3188481584062241
0.38301755093119183 0.37253717826478827
0.45707603559514676 0.35464083831193355
0.45707603559514676 0.3367444983590788
0.45707603559514676 0.3009518184533694
0.4817621971497984 0.193573778736241
0.5187914394817759 0.2114701186890957
0.5558206818137533 0.193573778736241
0.5187914394817759 0.17567743878338626
0.50644835870445 0.17567743878338626
0.44473295481782094 0.15778109883053154
0.4077037124858435 0.12198841892482208
0.4077037124858435 0.10409207897196736
0.34598830859921437 0.05040305911340317
0.3089590662672369 0.014610379207693714
0.1731851777166529 -0.056974980603725196
0.025068208388743077 -0.07487132055657993
-0.08601951860718929 -0.056974980603725196
-0.1477349224938184 -0.02118230069801574
-0.18476416482579586 -0.039078640650870466
-0.19710724560312165 -0.11066400046228939
-0.19710724560312165 -0.1285603404151441
-0.2217934071577733 -0.1285603404151441
-0.2217934071577733 -0.14645668036799883
-0.24647956871242493 -0.1285603404151441
-0.20945032638044747 -0.09276766050943465
-0.19710724560312165 -0.11066400046228939
-0.20945032638044747 -0.14645668036799883
-0.20945032638044747 -0.14645668036799883
-0.2341364879350991 -0.11066400046228939
-0.19710724560312165 -0.07487132055657993
-0.18476416482579586 -0.02118230069801574
-0.13539184171649257 -0.07487132055657993
-0.1477349224938184 -0.09276766050943465
-0.16007800327114421 -0.14645668036799883
-0.20945032638044747 -0.16435302032085355
-0.17242108404847004 -0.11066400046228939
-0.12304876093916675 -0.039078640650870466
-0.07367643782986348 -0.09276766050943465
-0.12304876093916675 -0.11066400046228939
-0.1477349224938184 -0.1285603404151441
-0.13539184171649257 -0.1285603404151441
-0.11070568016184093 -0.11066400046228939
-0.04899027627521184 -0.1285603404151441
0.00038204683409143886 -0.23593838013227247
-0.01196103394323438 -0.2538347200851272
-0.03664719549788602 -0.3254200798965461
-0.09836259938451511 -0.30752373994369137
-0.08601951860718929 -0.20014570022656303
-0.0243041147205602 -0.21804204017941775
0.09912669305269799 -0.3791090997551103
0.38301755093119183 -0.5580724992836575
0.7286238126963147 -0.8444139385293332
1.197660882234696 -1.0949626978692995
1.666697951773077 -1.2918224373507015
2.2221365867527387 -1.4170968170206846
2.7775752217324006 -1.4349931569735392
3.1972399681614787 -1.3097187773035561
3.456444664485321 -1.2023407375864277
3.5551893107039274 -1.0949626978692995
3.5305031491492755 -1.05917001796359
3.2712984528254334 -1.0412736780107352
2.901006029505659 -0.862310278482188
2.6047720908498393 -0.7370358988122049
2.419625879189952 -0.6475541990479312
2.1974504251980873 -0.5580724992836575
1.9752749712062225 -0.41490177966081976
1.6420117902184252 -0.2538347200851272
1.2964055284533025 -0.23593838013227247
1.0248577513521344 -0.2538347200851272
0.8520546204695729 -0.28962739999083664
0.6422222472550341 -0.2538347200851272
0.4323898740404951 -0.16435302032085355
0.2595867431579336 -0.039078640650870466
0.08678361227537217 0.03250671916054844
-0.06133335705253765 0.014610379207693714
-0.18476416482579586 0.08619573901911262
-0.3328811341537057 0.15778109883053154
-0.4316257803723122 0.13988475887767682
-0.4316257803723122 0.193573778736241
-0.46865502270428966 0.17567743878338626
-0.518027345813593 0.10409207897196736
-0.5550565881455705 0.0682993990662579
-0.6538012343641769 0.10409207897196736
-0.6784873959188286 0.15778109883053154
-0.6661443151415027 0.22936645864195046
-0.6044289112548736 0.193573778736241
-0.579742749700222 0.13988475887767682
-0.6044289112548736 0.08619573901911262
-0.6044289112548736 0.13988475887767682
-0.6044289112548736 0.15778109883053154
-0.5920858304775478 0.2651591385476599
-0.5550565881455705 0.193573778736241
-0.5303704265909188 0.15778109883053154
-0.5303704265909188 0.10409207897196736
-0.5673996689228963 0.15778109883053154
-0.5673996689228963 0.193573778736241
-0.5427135073682446 0.2114701186890957
-0.518027345813593 0.193573778736241
-0.5550565881455705 0.13988475887767682
-0.5303704265909188 0.12198841892482208
-0.5673996689228963 0.15778109883053154
-0.5673996689228963 0.2114701186890957
-0.5427135073682446 0.24726279859480518
-0.5550565881455705 0.17567743878338626
-0.5550565881455705 0.193573778736241
-0.5673996689228963 0.13988475887767682
-0.579742749700222 0.13988475887767682
-0.5303704265909188 0.15778109883053154
-0.518027345813593 0.24726279859480518
-0.5673996689228963 0.2651591385476599
-0.5427135073682446 0.2114701186890957
-0.5920858304775478 0.193573778736241
-0.6044289112548736 0.17567743878338626
-0.5920858304775478 0.2651591385476599
-0.5550565881455705 0.2651591385476599
-0.5673996689228963 0.24726279859480518
-0.5673996689228963 0.24726279859480518
-0.6291150728095253 0.15778109883053154
-0.6414581535868511 0.193573778736241
-0.6167719920321995 0.2114701186890957
-0.6044289112548736 0.2651591385476599
-0.5550565881455705 0.22936645864195046
-0.579742749700222 0.24726279859480518
-0.6044289112548736 0.2114701186890957
-0.6414581535868511 0.15778109883053154
-0.6044289112548736 0.28305547850051466
-0.5920858304775478 0.28305547850051466
-0.6044289112548736 0.3009518184533694
-0.5550565881455705 0.24726279859480518
-0.5550565881455705 0.2114701186890957
-0.579742749700222 0.193573778736241
-0.5427135073682446 0.2114701186890957
-0.5056842650362672 0.22936645864195046
-0.4809981034816155 0.22936645864195046
-0.45631194192696384 0.22936645864195046
-0.443968861149638 0.2114701186890957
-0.41928269959498643 0.13988475887767682
-0.36991037648568315 0.2114701186890957
-0.32053805337637986 0.24726279859480518
-0.2835088110444024 0.22936645864195046
-0.2835088110444024 0.24726279859480518
-0.25882264948975076 0.193573778736241
-0.2341364879350991 0.2114701186890957
-0.17242108404847004 0.22936645864195046
-0.12304876093916675 0.24726279859480518
-0.09836259938451511 0.2651591385476599
-0.08601951860718929 0.2114701186890957
-0.06133335705253765 0.17567743878338626
-0.03664719549788602 0.2114701186890957
0.037411289166068895 0.2114701186890957
0.08678361227537217 0.2651591385476599
0.12381285460734963 0.24726279859480518
0.12381285460734963 0.2651591385476599
0.13615593538467544 0.22936645864195046
0.09912669305269799 0.22936645864195046
0.19787133927130454 0.17567743878338626
0.22255750082595618 0.24726279859480518
0.24724366238060783 0.17567743878338626
0.24724366238060783 0.13988475887767682
0.22255750082595618 0.12198841892482208
0.21021442004863036 0.13988475887767682
0.19787133927130454 0.193573778736241
0.19787133927130454 0.24726279859480518
0.18552825849397872 0.17567743878338626
0.18552825849397872 0.13988475887767682
0.14849901616200126 0.10409207897196736
0.09912669305269799 0.08619573901911262
0.12381285460734963 0.193573778736241
0.12381285460734963 0.2114701186890957
0.07444053149804636 0.193573778736241
0.049754369943394716 0.12198841892482208
0.012725127611417258 0.08619573901911262
-0.01196103394323438 0.0682993990662579
0.012725127611417258 0.12198841892482208
-0.01196103394323438 0.13988475887767682
-0.01196103394323438 0.12198841892482208
-0.01196103394323438 0.08619573901911262
-0.03664719549788602 0.12198841892482208
-0.07367643782986348 0.12198841892482208
-0.07367643782986348 0.15778109883053154
-0.07367643782986348 0.17567743878338626
-0.06133335705253765 0.13988475887767682
-0.07367643782986348 0.05040305911340317
-0.12304876093916675 0.014610379207693714
-0.1477349224938184 0.014610379207693714
-0.16007800327114421 0.10409207897196736
-0.1477349224938184 0.13988475887767682
-0.1477349224938184 0.15778109883053154
-0.18476416482579586 0.13988475887767682
-0.1477349224938184 0.10409207897196736
-0.16007800327114421 0.08619573901911262
-0.12304876093916675 0.12198841892482208
-0.16007800327114421 0.08619573901911262
-0.17242108404847004 0.0682993990662579
-0.18476416482579586 0.0682993990662579
-0.17242108404847004 0.05040305911340317
-0.17242108404847004 0.03250671916054844
-0.1477349224938184 0.03250671916054844
-0.12304876093916675 0.0682993990662579
-0.12304876093916675 0.08619573901911262
-0.18476416482579586 0.0682993990662579
-0.2217934071577733 0.0682993990662579
-0.2341364879350991 0.05040305911340317
-0.19710724560312165 0.08619573901911262
-0.13539184171649257 0.0682993990662579
-0.09836259938451511 0.08619573901911262
-0.13539184171649257 0.014610379207693714
-0.16007800327114421 -0.0032859607451610137
-0.17242108404847004 -0.039078640650870466
-0.16007800327114421 0.05040305911340317
-0.17242108404847004 0.0682993990662579
-0.12304876093916675 0.05040305911340317
-0.17242108404847004 0.03250671916054844
-0.1477349224938184 -0.0032859607451610137
-0.19710724560312165 -0.02118230069801574
-0.16007800327114421 -0.02118230069801574
-0.16007800327114421 -0.0032859607451610137
-0.12304876093916675 -0.0032859607451610137
-0.13539184171649257 -0.056974980603725196
-0.16007800327114421 -0.039078640650870466
-0.17242108404847004 -0.07487132055657993
-0.1477349224938184 -0.056974980603725196
-0.11070568016184093 -0.02118230069801574
-0.12304876093916675 -0.0032859607451610137
-0.13539184171649257 -0.056974980603725196
-0.11070568016184093 -0.07487132055657993
-0.17242108404847004 -0.07487132055657993
-0.1477349224938184 -0.09276766050943465
-0.13539184171649257 -0.039078640650870466
-0.1477349224938184 -0.039078640650870466
-0.17242108404847004 -0.07487132055657993
-0.17242108404847004 -0.1285603404151441
-0.16007800327114421 -0.1285603404151441
-0.11070568016184093 -0.09276766050943465
-0.12304876093916675 -0.07487132055657993
-0.11070568016184093 -0.056974980603725196
-0.13539184171649257 -0.07487132055657993
-0.18476416482579586 -0.14645668036799883
-0.19710724560312165 -0.09276766050943465
-0.18476416482579586 -0.09276766050943465
-0.12304876093916675 -0.039078640650870466
-0.11070568016184093 -0.056974980603725196
-0.13539184171649257 -0.07487132055657993
-0.17242108404847004 -0.11066400046228939
-0.19710724560312165 -0.11066400046228939
-0.16007800327114421 -0.039078640650870466
-0.11070568016184093 -0.0032859607451610137
-0.11070568016184093 -0.056974980603725196
-0.1477349224938184 -0.09276766050943465
-0.17242108404847004 -0.1285603404151441
-0.17242108404847004 -0.14645668036799883
-0.1477349224938184 -0.07487132055657993
-0.16007800327114421 0.014610379207693714
-0.12304876093916675 0.03250671916054844
-0.12304876093916675 0.0682993990662579
-0.09836259938451511 0.13988475887767682
-0.07367643782986348 0.24726279859480518
0.00038204683409143886 0.3009518184533694
0.06209745072072053 0.24726279859480518
0.12381285460734963 0.22936645864195046
0.12381285460734963 0.193573778736241
0.09912669305269799 0.15778109883053154
0.049754369943394716 0.13988475887767682
0.07444053149804636 0.17567743878338626
0.11146977383002381 0.193573778736241
0.21021442004863036 0.12198841892482208
0.24724366238060783 0.08619573901911262
0.24724366238060783 0.05040305911340317
0.2595867431579336 0.12198841892482208
0.33364522782188855 0.13988475887767682
0.3583313893765402 0.12198841892482208
0.370674470153866 0.10409207897196736
0.4323898740404951 0.014610379207693714
0.3583313893765402 -0.056974980603725196
0.33364522782188855 -0.039078640650870466
0.3089590662672369 -0.02118230069801574
0.28427290471258526 0.014610379207693714
0.27192982393525944 0.014610379207693714
0.2966159854899111 -0.07487132055657993
0.234900581603282 -0.1822493602737083
0.16084209693932708 -0.21804204017941775
0.08678361227537217 -0.1822493602737083
0.00038204683409143886 -0.16435302032085355
-0.11070568016184093 -0.1822493602737083
-0.2341364879350991 -0.23593838013227247
-0.32053805337637986 -0.30752373994369137
-0.3575672957083573 -0.28962739999083664
-0.3452242149310315 -0.28962739999083664
-0.3575672957083573 -0.28962739999083664
-0.36991037648568315 -0.23593838013227247
-0.3452242149310315 -0.2717310600379819
-0.4069396188176606 -0.2538347200851272
-0.4316257803723122 -0.2538347200851272
-0.4069396188176606 -0.2538347200851272
-0.36991037648568315 -0.2717310600379819
-0.36991037648568315 -0.2538347200851272
-0.3575672957083573 -0.30752373994369137
-0.36991037648568315 -0.34331641984940087
-0.3945965380403348 -0.3254200798965461
-0.38225345726300897 -0.30752373994369137
-0.3575672957083573 -0.2538347200851272
-0.3328811341537057 -0.23593838013227247
-0.3452242149310315 -0.28962739999083664
-0.36991037648568315 -0.30752373994369137
-0.36991037648568315 -0.30752373994369137
-0.3452242149310315 -0.2717310600379819
-0.30819497259905404 -0.23593838013227247
