-0.23407061278816058 0.36410575937612377
-0.24976715392749546 0.22604772674737827
-0.24976715392749546 0.13400903832821462
-0.20267753050949078 0.13400903832821462
-0.23407061278816058 0.2720670709569601
-0.23407061278816058 0.4101251035857056
-0.2654636950668304 0.5942024804240329
-0.32824985962416997 0.824299201471942
-0.34394640076350486 0.8703185456815239
-0.34394640076350486 0.824299201471942
-0.34394640076350486 0.824299201471942
-0.3125533184848351 0.5942024804240329
-0.29685677734550014 0.6402218246336148
-0.29685677734550014 0.6402218246336148
-0.28116023620616526 0.6402218246336148
-0.23407061278816058 0.6402218246336148
-0.17128444823082098 0.6402218246336148
-0.06140866025547669 0.6862411688431965
0.09555675113787228 0.6862411688431965
0.29961178594922594 1.0083765783102694
0.6135426087359239 1.0543959225198511
1.068742301776636 1.4225506761965059
1.680907406210697 1.7446860856635786
2.4971275454561117 2.066821495130651
3.51740271951288 2.342937560388142
4.553374434708983 2.2508988719689786
5.526559985347747 1.7907054298731604
6.217207795478482 0.9163378898911057
6.436959371429171 -0.14210702692927635
5.997456219527794 -1.24657128795924
4.8045190929383415 -2.5351129258275313
2.8738445328001494 -3.685596531067077
0.8646872669652823 -4.51394472683955
-1.1444699988695846 -4.790060792097041
-3.1536272647044514 -4.375886694210805
-3.655916581163168 -3.8236545636958224
-3.2007168881224564 -2.99530636792335
-2.3844967488770417 -2.0749194837317133
-1.5996696919102966 -1.3846293205879856
-1.0345942108942403 -0.786377845863422
-0.7049668469682076 -0.32618440376760366
-0.6264841412715331 0.04197034990905096
-0.5950910589928632 0.2720670709569601
-0.5793945178535284 0.4561444477952874
-0.5323048944355236 0.5942024804240329
-0.48521527101751893 0.5942024804240329
-0.4381256475995142 0.824299201471942
-0.4381256475995142 0.7782798572623602
-0.42242910646017934 0.9623572341006875
-0.4381256475995142 0.9623572341006875
-0.46951872987818405 0.9623572341006875
-0.48521527101751893 0.8703185456815239
-0.48521527101751893 0.824299201471942
-0.48521527101751893 0.9623572341006875
-0.48521527101751893 1.0083765783102694
-0.45382218873884916 1.1464346109390149
-0.45382218873884916 1.2844926435677604
-0.40673256532084445 1.2384732993581784
-0.3753394830421746 1.3305119877773421
-0.34394640076350486 1.2384732993581784
-0.34394640076350486 1.2384732993581784
-0.3125533184848351 1.100415266729433
-0.32824985962416997 1.1464346109390149
-0.3125533184848351 1.0543959225198511
-0.34394640076350486 1.0543959225198511
-0.28116023620616526 1.2844926435677604
-0.3125533184848351 1.3305119877773421
-0.2654636950668304 1.376531331986924
-0.20267753050949078 1.2844926435677604
-0.18698098937015586 1.4225506761965059
-0.13989136595215118 1.4225506761965059
-0.13989136595215118 1.2384732993581784
-0.12419482481281628 1.376531331986924
-0.13989136595215118 1.376531331986924
-0.12419482481281628 1.376531331986924
-0.10849828367348138 1.3305119877773421
-0.0771052013948116 1.3305119877773421
-0.0771052013948116 1.2844926435677604
-0.12419482481281628 1.2844926435677604
-0.0771052013948116 1.376531331986924
-0.014319036837472002 1.4685700204060876
0.017074045441197793 1.5606087088252512
0.03277058658053269 1.652647397244415
0.07986020999853738 1.4685700204060876
0.11125329227720718 1.4225506761965059
0.14264637455587698 1.3305119877773421
0.11125329227720718 1.2384732993581784
0.1269498334165421 1.1924539551485966
0.14264637455587698 1.2844926435677604
0.11125329227720718 1.376531331986924
0.1583429156952119 1.4685700204060876
0.1583429156952119 1.4225506761965059
0.18973599797388166 1.5145893646156694
0.23682562139188637 1.4225506761965059
0.3153083270885609 1.4685700204060876
0.3780944916459004 1.5145893646156694
0.42518411506390513 1.5145893646156694
0.44088065620324 1.5606087088252512
0.42518411506390513 1.4685700204060876
0.42518411506390513 1.5145893646156694
0.44088065620324 1.3305119877773421
0.47227373848190984 1.4225506761965059
0.45657719734257496 1.2384732993581784
0.5350599030392494 1.4685700204060876
0.5193633618999145 1.6066280530348331
0.5821495264572542 1.652647397244415
0.6449356910145937 1.6986667414539967
0.6763287732932635 1.652647397244415
0.6763287732932635 1.652647397244415
0.6920253144325984 1.5606087088252512
0.6606322321539286 1.6066280530348331
0.6292391498752589 1.5145893646156694
0.6606322321539286 1.5606087088252512
0.6449356910145937 1.5606087088252512
0.6449356910145937 1.5606087088252512
0.6763287732932635 1.7446860856635786
0.7234183967112682 1.6986667414539967
0.7391149378506031 1.6066280530348331
0.7862045612686078 1.6066280530348331
0.7862045612686078 1.5606087088252512
0.8646872669652823 1.652647397244415
0.8646872669652823 1.7446860856635786
0.8332941846866125 1.652647397244415
0.8646872669652823 1.376531331986924
0.8489907258259474 1.376531331986924
0.911776890383287 1.3305119877773421
0.9431699726619568 1.376531331986924
0.9745630549406266 1.376531331986924
1.0216526783586313 1.4685700204060876
0.9902595960799615 1.376531331986924
0.9902595960799615 1.4685700204060876
0.9902595960799615 1.4225506761965059
0.9431699726619568 1.2384732993581784
0.911776890383287 1.100415266729433
0.7862045612686078 0.9623572341006875
0.6920253144325984 0.9163378898911057
0.6135426087359239 0.824299201471942
0.48797027962124473 1.0083765783102694
0.39379103278523536 0.9623572341006875
0.3780944916459004 0.9623572341006875
0.29961178594922594 1.0083765783102694
0.33100486822789577 0.9623572341006875
0.23682562139188637 0.9163378898911057
0.23682562139188637 0.9163378898911057
0.17403945683454677 0.9623572341006875
0.11125329227720718 0.824299201471942
0.0641636688592025 0.9623572341006875
-0.014319036837472002 0.8703185456815239
-0.0771052013948116 0.7322605130527784
-0.13989136595215118 0.7322605130527784
-0.18698098937015586 0.7782798572623602
-0.20267753050949078 0.6862411688431965
-0.21837407164882566 0.824299201471942
-0.18698098937015586 0.8703185456815239
-0.18698098937015586 1.0083765783102694
-0.20267753050949078 0.9623572341006875
-0.21837407164882566 0.8703185456815239
-0.20267753050949078 0.824299201471942
-0.24976715392749546 0.7322605130527784
-0.2654636950668304 0.6402218246336148
-0.3125533184848351 0.5942024804240329
-0.32824985962416997 0.7322605130527784
-0.32824985962416997 0.7322605130527784
-0.29685677734550014 0.824299201471942
-0.2654636950668304 0.824299201471942
-0.24976715392749546 0.7782798572623602
-0.18698098937015586 0.9163378898911057
-0.17128444823082098 0.7782798572623602
-0.1555879070914861 0.824299201471942
-0.18698098937015586 0.824299201471942
-0.20267753050949078 0.824299201471942
-0.21837407164882566 0.7322605130527784
-0.21837407164882566 0.7782798572623602
-0.20267753050949078 0.6862411688431965
-0.20267753050949078 0.7322605130527784
-0.17128444823082098 0.7322605130527784
-0.13989136595215118 0.7782798572623602
-0.10849828367348138 0.8703185456815239
-0.0457121191161418 1.0083765783102694
-0.0457121191161418 0.9163378898911057
-0.014319036837472002 1.0083765783102694
-0.014319036837472002 0.9163378898911057
-0.014319036837472002 0.7322605130527784
-0.0300155779768069 0.6862411688431965
-0.06140866025547669 0.7322605130527784
-0.0457121191161418 0.824299201471942
-0.06140866025547669 0.824299201471942
-0.0771052013948116 0.7782798572623602
-0.014319036837472002 0.9623572341006875
0.03277058658053269 1.0083765783102694
0.0641636688592025 0.824299201471942
0.09555675113787228 0.8703185456815239
0.11125329227720718 0.824299201471942
0.1269498334165421 0.7782798572623602
0.11125329227720718 0.6862411688431965
0.017074045441197793 0.7782798572623602
0.017074045441197793 0.7782798572623602
0.0013775043018628963 0.7322605130527784
0.0013775043018628963 0.7322605130527784
-0.014319036837472002 0.7322605130527784
0.0013775043018628963 0.7322605130527784
0.017074045441197793 0.7782798572623602
0.03277058658053269 0.7782798572623602
0.03277058658053269 0.6862411688431965
0.017074045441197793 0.824299201471942
0.0013775043018628963 0.824299201471942
-0.0300155779768069 0.7322605130527784
-0.0928017425341465 0.7322605130527784
-0.0771052013948116 0.6862411688431965
-0.0771052013948116 0.5942024804240329
-0.12419482481281628 0.6862411688431965
-0.12419482481281628 0.7322605130527784
-0.10849828367348138 0.7782798572623602
-0.10849828367348138 0.9163378898911057
-0.0928017425341465 0.824299201471942
-0.10849828367348138 0.824299201471942
-0.13989136595215118 0.7322605130527784
-0.12419482481281628 0.6402218246336148
-0.17128444823082098 0.5942024804240329
-0.20267753050949078 0.6402218246336148
-0.21837407164882566 0.5942024804240329
-0.28116023620616526 0.6402218246336148
-0.2654636950668304 0.7322605130527784
-0.28116023620616526 0.7322605130527784
-0.3125533184848351 0.7322605130527784
-0.28116023620616526 0.824299201471942
-0.2654636950668304 0.7782798572623602
-0.24976715392749546 0.548183136214451
-0.2654636950668304 0.7322605130527784
-0.24976715392749546 0.6402218246336148
-0.3125533184848351 0.5942024804240329
-0.29685677734550014 0.6402218246336148
-0.3125533184848351 0.5942024804240329
-0.32824985962416997 0.7322605130527784
-0.34394640076350486 0.6402218246336148
-0.32824985962416997 0.5942024804240329
-0.29685677734550014 0.8703185456815239
-0.3125533184848351 0.824299201471942
-0.32824985962416997 1.0083765783102694
-0.29685677734550014 0.9163378898911057
-0.32824985962416997 0.9163378898911057
-0.32824985962416997 0.824299201471942
-0.39103602418150957 0.6862411688431965
-0.3753394830421746 0.5942024804240329
-0.39103602418150957 0.5942024804240329
-0.39103602418150957 0.6862411688431965
-0.35964294190283974 0.6862411688431965
-0.34394640076350486 0.8703185456815239
-0.34394640076350486 0.9163378898911057
-0.3753394830421746 0.9163378898911057
-0.32824985962416997 0.9163378898911057
-0.35964294190283974 0.7782798572623602
-0.3753394830421746 0.7322605130527784
-0.42242910646017934 0.6402218246336148
-0.4381256475995142 0.5942024804240329
-0.48521527101751893 0.548183136214451
-0.46951872987818405 0.6862411688431965
-0.46951872987818405 0.6862411688431965
-0.4381256475995142 0.6402218246336148
-0.40673256532084445 0.6402218246336148
-0.39103602418150957 0.5942024804240329
-0.39103602418150957 0.824299201471942
-0.35964294190283974 0.7782798572623602
-0.3753394830421746 0.7322605130527784
-0.40673256532084445 0.7782798572623602
-0.40673256532084445 0.6402218246336148
-0.40673256532084445 0.7322605130527784
-0.42242910646017934 0.548183136214451
-0.42242910646017934 0.5021637920048693
-0.40673256532084445 0.6402218246336148
-0.42242910646017934 0.5021637920048693
-0.40673256532084445 0.5942024804240329
-0.40673256532084445 0.7322605130527784
-0.35964294190283974 0.7782798572623602
-0.32824985962416997 0.8703185456815239
-0.3753394830421746 0.8703185456815239
-0.34394640076350486 0.7322605130527784
-0.35964294190283974 0.548183136214451
-0.35964294190283974 0.548183136214451
-0.39103602418150957 0.4561444477952874
-0.4381256475995142 0.4561444477952874
-0.46951872987818405 0.6402218246336148
-0.45382218873884916 0.7322605130527784
-0.4381256475995142 0.6862411688431965
-0.42242910646017934 0.8703185456815239
-0.39103602418150957 0.7322605130527784
-0.34394640076350486 0.6862411688431965
-0.34394640076350486 0.6402218246336148
-0.35964294190283974 0.6402218246336148
-0.3753394830421746 0.548183136214451
-0.39103602418150957 0.6862411688431965
-0.40673256532084445 0.6862411688431965
-0.4381256475995142 0.5942024804240329
-0.42242910646017934 0.6862411688431965
-0.45382218873884916 0.6402218246336148
-0.4381256475995142 0.6402218246336148
-0.39103602418150957 0.6862411688431965
-0.35964294190283974 0.7322605130527784
-0.3125533184848351 0.824299201471942
-0.3125533184848351 0.6402218246336148
-0.28116023620616526 0.5942024804240329
-0.23407061278816058 0.548183136214451
-0.21837407164882566 0.4101251035857056
-0.18698098937015586 0.4101251035857056
-0.1555879070914861 0.4561444477952874
-0.17128444823082098 0.5942024804240329
-0.1555879070914861 0.6862411688431965
-0.12419482481281628 0.7782798572623602
-0.12419482481281628 0.7782798572623602
-0.0771052013948116 0.824299201471942
-0.06140866025547669 0.7322605130527784
-0.06140866025547669 0.6402218246336148
-0.10849828367348138 0.548183136214451
-0.1555879070914861 0.3180864151665419
-0.20267753050949078 0.3180864151665419
-0.21837407164882566 0.18002838253779643
-0.24976715392749546 0.13400903832821462
-0.2654636950668304 0.13400903832821462
-0.24976715392749546 0.22604772674737827
-0.28116023620616526 0.3180864151665419
-0.21837407164882566 0.4101251035857056
-0.2654636950668304 0.5021637920048693
-0.23407061278816058 0.6402218246336148
-0.21837407164882566 0.6862411688431965
-0.28116023620616526 0.6862411688431965
-0.2654636950668304 0.548183136214451
-0.3125533184848351 0.548183136214451
-0.32824985962416997 0.4561444477952874
-0.34394640076350486 0.4101251035857056
-0.3125533184848351 0.548183136214451
-0.29685677734550014 0.548183136214451
-0.24976715392749546 0.6402218246336148
-0.1555879070914861 0.6862411688431965
-0.06140866025547669 0.7322605130527784
0.1269498334165421 0.7322605130527784
0.23682562139188637 0.6862411688431965
0.5193633618999145 0.7782798572623602
0.911776890383287 1.0083765783102694
1.4454592891206735 1.2384732993581784
2.104714016972739 1.6066280530348331
2.9366306973574887 1.8367247740827422
3.956905871414257 2.066821495130651
4.945787963192355 1.9747828067114876
5.809097725855775 1.5145893646156694
6.311387042314492 0.7782798572623602
6.327083583453827 -0.14210702692927635
5.76200810243777 -1.016474566911331
4.443498646733639 -2.2589968605700403
2.434341380898772 -3.225403088971259
0.42518411506390513 -4.099770628953314
-1.5839731507709618 -4.421906038420386
-3.5774338754664936 -4.191809317372477
-3.9541508628105313 -3.6395771868574953
-3.4361650052124797 -2.8112289910850223
-2.5571587014097257 -1.9828807953125493
-1.7095454798856409 -1.2005519437496583
-1.1444699988695846 -0.5562811248155128
-0.8305391760828867 -0.14210702692927635
-0.7049668469682076 0.08798969411863278
-0.6892703058288726 0.08798969411863278
-0.6892703058288726 0.18002838253779643
-0.6578772235502028 0.22604772674737827
-0.5480014355748585 0.3180864151665419
-0.5009118121568539 0.4101251035857056
-0.42242910646017934 0.548183136214451
-0.45382218873884916 0.6402218246336148
-0.45382218873884916 0.6862411688431965
-0.4381256475995142 0.9163378898911057
-0.4381256475995142 0.824299201471942
-0.4381256475995142 0.824299201471942
-0.40673256532084445 0.9623572341006875
-0.40673256532084445 0.9623572341006875
-0.42242910646017934 0.9623572341006875
-0.40673256532084445 1.0083765783102694
-0.42242910646017934 0.9623572341006875
-0.39103602418150957 0.824299201471942
-0.40673256532084445 0.7782798572623602
-0.35964294190283974 0.8703185456815239
-0.34394640076350486 0.8703185456815239
-0.29685677734550014 0.9623572341006875
-0.28116023620616526 1.0543959225198511
-0.23407061278816058 1.2384732993581784
-0.21837407164882566 1.1924539551485966
-0.20267753050949078 1.1464346109390149
-0.18698098937015586 1.100415266729433
-0.17128444823082098 0.9623572341006875
-0.21837407164882566 0.9623572341006875
-0.21837407164882566 0.8703185456815239
-0.21837407164882566 0.9623572341006875
-0.21837407164882566 1.0083765783102694
-0.18698098937015586 1.100415266729433
-0.1555879070914861 1.2384732993581784
-0.0771052013948116 1.1464346109390149
-0.0457121191161418 1.2384732993581784
-0.014319036837472002 1.1924539551485966
0.017074045441197793 1.1924539551485966
0.04846712771986759 1.1924539551485966
0.0013775043018628963 1.100415266729433
-0.014319036837472002 1.1464346109390149
-0.014319036837472002 1.1924539551485966
-0.0300155779768069 1.0083765783102694
-0.0457121191161418 1.100415266729433
-0.0457121191161418 1.100415266729433
0.0013775043018628963 1.100415266729433
0.09555675113787228 1.1464346109390149
0.07986020999853738 1.1924539551485966
0.1583429156952119 1.2844926435677604
0.18973599797388166 1.1924539551485966
0.22112908025255146 1.2384732993581784
0.23682562139188637 1.100415266729433
0.18973599797388166 0.9623572341006875
0.23682562139188637 1.100415266729433
0.23682562139188637 0.8703185456815239
0.23682562139188637 1.100415266729433
0.2525221625312213 1.1924539551485966
0.29961178594922594 1.1924539551485966
0.3153083270885609 1.2844926435677604
0.3780944916459004 1.3305119877773421
0.40948757392457025 1.2844926435677604
0.47227373848190984 1.1924539551485966
0.5036668207605797 1.1924539551485966
0.48797027962124473 1.0543959225198511
0.47227373848190984 1.1464346109390149
0.5036668207605797 1.100415266729433
0.48797027962124473 1.1924539551485966
0.5193633618999145 1.1924539551485966
0.5036668207605797 1.2384732993581784
0.5507564441785843 1.2384732993581784
0.5507564441785843 1.2844926435677604
0.6135426087359239 1.2384732993581784
0.6135426087359239 1.5145893646156694
0.6449356910145937 1.3305119877773421
0.6606322321539286 1.3305119877773421
0.6920253144325984 1.376531331986924
0.6292391498752589 1.2384732993581784
0.597846067596589 1.0543959225198511
0.6606322321539286 1.0543959225198511
0.6449356910145937 1.1924539551485966
0.6920253144325984 1.2384732993581784
0.6763287732932635 1.2844926435677604
0.7705080201292729 1.3305119877773421
0.7705080201292729 1.4225506761965059
0.7705080201292729 1.376531331986924
0.8489907258259474 1.1924539551485966
0.8960803492439521 1.100415266729433
0.8803838081046171 0.9623572341006875
0.8960803492439521 1.100415266729433
0.9431699726619568 0.8703185456815239
0.9588665138012916 0.824299201471942
0.8960803492439521 0.8703185456815239
0.8332941846866125 0.7782798572623602
0.8019011024079427 0.7782798572623602
0.7862045612686078 0.7322605130527784
0.7077218555719333 0.6862411688431965
0.6920253144325984 0.7322605130527784
0.5821495264572542 0.6862411688431965
0.5350599030392494 0.6862411688431965
0.42518411506390513 0.5942024804240329
0.3780944916459004 0.5021637920048693
0.3153083270885609 0.36410575937612377
0.23682562139188637 0.2720670709569601
0.18973599797388166 0.36410575937612377
0.1269498334165421 0.4561444477952874
0.0641636688592025 0.4101251035857056
0.04846712771986759 0.5021637920048693
0.0013775043018628963 0.6402218246336148
0.0013775043018628963 0.5942024804240329
-0.0457121191161418 0.5942024804240329
-0.0771052013948116 0.4101251035857056
-0.18698098937015586 0.3180864151665419
-0.21837407164882566 0.2720670709569601
-0.23407061278816058 0.2720670709569601
-0.29685677734550014 0.3180864151665419
-0.32824985962416997 0.5021637920048693
-0.34394640076350486 0.5021637920048693
-0.32824985962416997 0.4561444477952874
-0.29685677734550014 0.4101251035857056
-0.29685677734550014 0.548183136214451
-0.28116023620616526 0.5942024804240329
-0.24976715392749546 0.5942024804240329
-0.3125533184848351 0.5021637920048693
-0.35964294190283974 0.4101251035857056
-0.3753394830421746 0.4101251035857056
-0.40673256532084445 0.36410575937612377
-0.3753394830421746 0.22604772674737827
-0.39103602418150957 0.18002838253779643
-0.3753394830421746 0.3180864151665419
-0.32824985962416997 0.36410575937612377
-0.29685677734550014 0.5021637920048693
-0.28116023620616526 0.6402218246336148
-0.24976715392749546 0.5942024804240329
-0.24976715392749546 0.5942024804240329
-0.24976715392749546 0.4561444477952874
-0.3125533184848351 0.3180864151665419
-0.28116023620616526 0.3180864151665419
-0.21837407164882566 0.2720670709569601
-0.24976715392749546 0.22604772674737827
-0.24976715392749546 0.2720670709569601
-0.23407061278816058 0.36410575937612377
-0.21837407164882566 0.4561444477952874
-0.17128444823082098 0.4101251035857056
-0.17128444823082098 0.5021637920048693
-0.10849828367348138 0.4101251035857056
-0.0928017425341465 0.4101251035857056
-0.0928017425341465 0.36410575937612377
-0.12419482481281628 0.3180864151665419
-0.06140866025547669 0.22604772674737827
-0.0771052013948116 0.3180864151665419
-0.10849828367348138 0.2720670709569601
-0.06140866025547669 0.3180864151665419
-0.0300155779768069 0.36410575937612377
-0.0300155779768069 0.2720670709569601
0.0013775043018628963 0.2720670709569601
0.0013775043018628963 0.36410575937612377
0.017074045441197793 0.36410575937612377
0.03277058658053269 0.2720670709569601
0.03277058658053269 0.4101251035857056
0.017074045441197793 0.3180864151665419
0.017074045441197793 0.3180864151665419
-0.0300155779768069 0.08798969411863278
-0.014319036837472002 0.04197034990905096
-0.0457121191161418 0.18002838253779643
-0.0928017425341465 0.18002838253779643
-0.10849828367348138 0.2720670709569601
-0.0771052013948116 0.36410575937612377
-0.06140866025547669 0.3180864151665419
-0.0300155779768069 0.3180864151665419
-0.06140866025547669 0.22604772674737827
-0.0457121191161418 0.22604772674737827
-0.06140866025547669 0.08798969411863278
-0.10849828367348138 0.08798969411863278
-0.12419482481281628 0.18002838253779643
-0.13989136595215118 0.22604772674737827
-0.21837407164882566 0.08798969411863278
-0.24976715392749546 0.18002838253779643
-0.24976715392749546 0.3180864151665419
-0.23407061278816058 0.3180864151665419
-0.18698098937015586 0.3180864151665419
-0.18698098937015586 0.4101251035857056
-0.21837407164882566 0.3180864151665419
-0.20267753050949078 0.36410575937612377
-0.21837407164882566 0.3180864151665419
-0.2654636950668304 0.08798969411863278
-0.28116023620616526 0.08798969411863278
-0.32824985962416997 -0.0500683385101127
-0.28116023620616526 0.04197034990905096
-0.3125533184848351 0.08798969411863278
-0.3125533184848351 0.22604772674737827
-0.29685677734550014 0.22604772674737827
-0.29685677734550014 0.3180864151665419
-0.29685677734550014 0.4561444477952874
-0.28116023620616526 0.4101251035857056
-0.28116023620616526 0.36410575937612377
-0.3125533184848351 0.18002838253779643
-0.32824985962416997 0.04197034990905096
-0.35964294190283974 -0.0500683385101127
-0.34394640076350486 -0.004048994300530871
-0.3753394830421746 0.04197034990905096
-0.39103602418150957 0.13400903832821462
-0.3753394830421746 0.22604772674737827
-0.3753394830421746 0.36410575937612377
-0.32824985962416997 0.4101251035857056
-0.35964294190283974 0.3180864151665419
-0.3125533184848351 0.2720670709569601
-0.34394640076350486 0.18002838253779643
-0.39103602418150957 0.04197034990905096
-0.42242910646017934 0.08798969411863278
-0.4381256475995142 0.13400903832821462
-0.40673256532084445 0.08798969411863278
-0.42242910646017934 0.08798969411863278
-0.4381256475995142 0.13400903832821462
-0.45382218873884916 0.18002838253779643
-0.42242910646017934 0.18002838253779643
-0.3753394830421746 0.2720670709569601
-0.3753394830421746 0.2720670709569601
-0.3753394830421746 0.3180864151665419
-0.3753394830421746 0.4561444477952874
-0.39103602418150957 0.36410575937612377
-0.42242910646017934 0.2720670709569601
-0.42242910646017934 0.22604772674737827
-0.42242910646017934 0.08798969411863278
-0.46951872987818405 0.13400903832821462
-0.45382218873884916 0.08798969411863278
-0.4381256475995142 0.2720670709569601
-0.45382218873884916 0.4561444477952874
-0.46951872987818405 0.4561444477952874
-0.35964294190283974 0.548183136214451
-0.4381256475995142 0.36410575937612377
-0.4381256475995142 0.36410575937612377
-0.42242910646017934 0.22604772674737827
-0.40673256532084445 0.13400903832821462
-0.46951872987818405 0.04197034990905096
-0.48521527101751893 0.08798969411863278
-0.48521527101751893 0.13400903832821462
-0.42242910646017934 0.18002838253779643
-0.42242910646017934 0.13400903832821462
-0.40673256532084445 0.36410575937612377
-0.42242910646017934 0.3180864151665419
-0.39103602418150957 0.36410575937612377
-0.40673256532084445 0.3180864151665419
-0.40673256532084445 0.2720670709569601
-0.42242910646017934 0.22604772674737827
-0.42242910646017934 0.22604772674737827
-0.46951872987818405 0.18002838253779643
-0.48521527101751893 -0.0500683385101127
-0.4381256475995142 0.04197034990905096
-0.4381256475995142 -0.004048994300530871
-0.45382218873884916 0.18002838253779643
-0.45382218873884916 0.22604772674737827
-0.40673256532084445 0.36410575937612377
-0.42242910646017934 0.3180864151665419
-0.40673256532084445 0.2720670709569601
-0.39103602418150957 0.22604772674737827
-0.39103602418150957 0.13400903832821462
-0.40673256532084445 -0.0500683385101127
-0.40673256532084445 -0.004048994300530871
-0.4381256475995142 0.13400903832821462
-0.4381256475995142 0.18002838253779643
-0.3753394830421746 0.08798969411863278
-0.34394640076350486 0.18002838253779643
-0.3125533184848351 0.3180864151665419
-0.2654636950668304 0.2720670709569601
-0.23407061278816058 0.3180864151665419
-0.1555879070914861 0.4101251035857056
-0.17128444823082098 0.548183136214451
-0.12419482481281628 0.5942024804240329
-0.0771052013948116 0.5942024804240329
-0.0300155779768069 0.4101251035857056
-0.06140866025547669 0.22604772674737827
-0.06140866025547669 0.08798969411863278
-0.0457121191161418 -0.0500683385101127
-0.0457121191161418 -0.004048994300530871
-0.0300155779768069 0.04197034990905096
-0.0928017425341465 -0.004048994300530871
-0.13989136595215118 0.13400903832821462
-0.18698098937015586 -0.0500683385101127
-0.18698098937015586 -0.004048994300530871
-0.1555879070914861 -0.14210702692927635
-0.17128444823082098 -0.14210702692927635
-0.20267753050949078 -0.23414571534844
-0.23407061278816058 -0.1881263711388582
-0.23407061278816058 0.08798969411863278
-0.28116023620616526 0.13400903832821462
-0.3125533184848351 0.3180864151665419
-0.32824985962416997 0.4101251035857056
-0.3125533184848351 0.3180864151665419
-0.3125533184848351 0.2720670709569601
-0.3125533184848351 0.22604772674737827
-0.32824985962416997 0.04197034990905096
-0.35964294190283974 0.04197034990905096
-0.35964294190283974 0.13400903832821462
-0.40673256532084445 -0.004048994300530871
-0.40673256532084445 -0.0500683385101127
-0.35964294190283974 -0.004048994300530871
-0.32824985962416997 -0.14210702692927635
-0.23407061278816058 -0.004048994300530871
-0.12419482481281628 0.18002838253779643
0.04846712771986759 0.36410575937612377
0.23682562139188637 0.6402218246336148
0.597846067596589 0.7322605130527784
1.1315284663339755 1.0083765783102694
1.837872817604046 1.1464346109390149
2.77966528596414 1.2384732993581784
3.9098162479962526 1.376531331986924
5.0556637511677 1.1464346109390149
5.88758043155245 0.6402218246336148
6.264297418896487 -0.09608768271969452
5.997456219527794 -1.2005519437496583
4.867305257495682 -2.351035548989204
2.905237615078819 -3.4094804658095863
0.8960803492439521 -4.283848005791641
-1.113076916590915 -4.744041447887459
-3.1222341824257818 -4.375886694210805
-3.969847403949866 -3.8236545636958224
-3.530344252048489 -3.0413257121329313
-2.6984275716637396 -2.351035548989204
-1.86651089127899 -1.798803418474222
-1.2700423279842639 -1.2005519437496583
-0.8776287995008913 -0.8784165342825856
-0.7991460938042169 -0.6023004690250946
-0.7677530115255471 -0.28016505955802185
-0.8148426349435518 -0.09608768271969452
-0.7363599292468773 0.13400903832821462
-0.6264841412715331 0.18002838253779643
-0.5323048944355236 0.18002838253779643
-0.45382218873884916 0.22604772674737827
-0.45382218873884916 0.13400903832821462
-0.46951872987818405 0.04197034990905096
-0.5009118121568539 0.04197034990905096
-0.5166083532961887 0.2720670709569601
-0.5480014355748585 0.3180864151665419
-0.5323048944355236 0.5021637920048693
-0.5009118121568539 0.548183136214451
-0.48521527101751893 0.5942024804240329
-0.45382218873884916 0.6402218246336148
-0.40673256532084445 0.6862411688431965
-0.45382218873884916 0.4561444477952874
-0.4381256475995142 0.5021637920048693
-0.45382218873884916 0.4561444477952874
-0.45382218873884916 0.4101251035857056
-0.45382218873884916 0.4561444477952874
-0.4381256475995142 0.548183136214451
-0.39103602418150957 0.5942024804240329
-0.40673256532084445 0.548183136214451
-0.39103602418150957 0.6862411688431965
-0.32824985962416997 0.7322605130527784
-0.29685677734550014 0.7322605130527784
-0.2654636950668304 0.8703185456815239
-0.28116023620616526 0.7322605130527784
-0.3125533184848351 0.824299201471942
-0.34394640076350486 0.7782798572623602
-0.35964294190283974 0.6402218246336148
-0.32824985962416997 0.5021637920048693
-0.34394640076350486 0.6862411688431965
-0.32824985962416997 0.5942024804240329
-0.29685677734550014 0.5942024804240329
-0.2654636950668304 0.7782798572623602
-0.2654636950668304 0.824299201471942
-0.18698098937015586 1.0083765783102694
-0.17128444823082098 0.9163378898911057
-0.17128444823082098 0.8703185456815239
-0.18698098937015586 0.8703185456815239
-0.17128444823082098 0.7782798572623602
-0.18698098937015586 0.5942024804240329
-0.18698098937015586 0.5942024804240329
-0.20267753050949078 0.548183136214451
-0.20267753050949078 0.6862411688431965
-0.0928017425341465 0.7322605130527784
-0.0457121191161418 0.9623572341006875
-0.014319036837472002 0.9163378898911057
0.03277058658053269 0.9163378898911057
0.0641636688592025 0.8703185456815239
0.0641636688592025 0.824299201471942
0.0641636688592025 0.7782798572623602
0.0641636688592025 0.6862411688431965
0.07986020999853738 0.7322605130527784
0.0641636688592025 0.6862411688431965
0.0641636688592025 0.7782798572623602
0.1269498334165421 0.7322605130527784
0.14264637455587698 0.7782798572623602
0.20543253911321657 0.7322605130527784
0.2525221625312213 0.7782798572623602
0.3153083270885609 1.0083765783102694
0.33100486822789577 0.824299201471942
0.34670140936723065 0.9623572341006875
0.28391524480989105 0.9163378898911057
0.3153083270885609 0.824299201471942
0.3153083270885609 0.6862411688431965
0.3153083270885609 0.6402218246336148
0.36239795050656554 0.6402218246336148
0.36239795050656554 0.6862411688431965
0.39379103278523536 0.7782798572623602
0.40948757392457025 0.9623572341006875
0.44088065620324 0.9623572341006875
0.5036668207605797 1.1924539551485966
0.5036668207605797 1.0543959225198511
0.5350599030392494 0.9623572341006875
0.5507564441785843 0.8703185456815239
0.5507564441785843 0.6862411688431965
0.5193633618999145 0.7322605130527784
0.5193633618999145 0.7322605130527784
0.5193633618999145 0.7782798572623602
0.5193633618999145 0.824299201471942
0.5821495264572542 0.9623572341006875
0.6135426087359239 0.9163378898911057
0.6606322321539286 1.0083765783102694
0.6763287732932635 0.9623572341006875
0.6920253144325984 0.9163378898911057
0.6920253144325984 0.824299201471942
0.7391149378506031 0.7782798572623602
0.7391149378506031 0.8703185456815239
0.7391149378506031 0.7782798572623602
0.7391149378506031 0.6402218246336148
0.754811478989938 0.6402218246336148
0.7705080201292729 0.5021637920048693
0.8019011024079427 0.5021637920048693
0.8175976435472776 0.548183136214451
0.8019011024079427 0.548183136214451
0.7862045612686078 0.5942024804240329
0.7077218555719333 0.5021637920048693
0.6763287732932635 0.5942024804240329
0.6135426087359239 0.4101251035857056
0.5350599030392494 0.22604772674737827
0.48797027962124473 0.04197034990905096
0.3780944916459004 -0.0500683385101127
0.3153083270885609 0.18002838253779643
0.2525221625312213 0.04197034990905096
0.18973599797388166 0.22604772674737827
0.1583429156952119 0.2720670709569601
0.11125329227720718 0.3180864151665419
0.07986020999853738 0.3180864151665419
0.07986020999853738 0.18002838253779643
0.0013775043018628963 0.13400903832821462
-0.0300155779768069 -0.004048994300530871
-0.10849828367348138 -0.004048994300530871
-0.18698098937015586 0.04197034990905096
-0.21837407164882566 -0.004048994300530871
-0.28116023620616526 0.04197034990905096
-0.32824985962416997 0.04197034990905096
-0.29685677734550014 0.04197034990905096
-0.28116023620616526 0.04197034990905096
-0.29685677734550014 0.13400903832821462
-0.2654636950668304 0.08798969411863278
-0.28116023620616526 0.13400903832821462
-0.29685677734550014 0.22604772674737827
-0.3125533184848351 0.04197034990905096
-0.3753394830421746 0.18002838253779643
-0.39103602418150957 -0.004048994300530871
-0.42242910646017934 -0.0500683385101127
-0.39103602418150957 -0.0500683385101127
-0.42242910646017934 -0.09608768271969452
-0.40673256532084445 0.04197034990905096
-0.35964294190283974 0.04197034990905096
-0.34394640076350486 0.22604772674737827
-0.3125533184848351 0.3180864151665419
-0.32824985962416997 0.2720670709569601
-0.32824985962416997 0.18002838253779643
-0.34394640076350486 0.18002838253779643
-0.35964294190283974 -0.004048994300530871
-0.3753394830421746 0.04197034990905096
-0.35964294190283974 -0.09608768271969452
-0.35964294190283974 -0.004048994300530871
-0.32824985962416997 0.04197034990905096
-0.32824985962416997 0.08798969411863278
-0.2654636950668304 0.18002838253779643
-0.24976715392749546 0.04197034990905096
-0.23407061278816058 0.13400903832821462
-0.20267753050949078 -0.004048994300530871
-0.18698098937015586 0.08798969411863278
-0.17128444823082098 0.13400903832821462
-0.21837407164882566 0.22604772674737827
-0.21837407164882566 0.08798969411863278
-0.24976715392749546 -0.0500683385101127
-0.24976715392749546 0.04197034990905096
-0.20267753050949078 -0.0500683385101127
-0.24976715392749546 0.04197034990905096
-0.13989136595215118 0.08798969411863278
-0.12419482481281628 0.08798969411863278
-0.0771052013948116 0.08798969411863278
-0.0928017425341465 0.18002838253779643
-0.10849828367348138 0.18002838253779643
-0.0771052013948116 0.04197034990905096
-0.13989136595215118 0.04197034990905096
-0.0928017425341465 -0.09608768271969452
-0.10849828367348138 -0.14210702692927635
-0.10849828367348138 -0.0500683385101127
-0.13989136595215118 -0.14210702692927635
-0.13989136595215118 -0.004048994300530871
-0.12419482481281628 0.13400903832821462
-0.0771052013948116 0.22604772674737827
-0.0928017425341465 0.2720670709569601
-0.06140866025547669 0.04197034990905096
-0.06140866025547669 -0.004048994300530871
-0.0928017425341465 -0.0500683385101127
-0.17128444823082098 -0.09608768271969452
-0.18698098937015586 -0.0500683385101127
-0.1555879070914861 -0.14210702692927635
-0.1555879070914861 0.04197034990905096
-0.18698098937015586 0.08798969411863278
-0.1555879070914861 0.13400903832821462
-0.1555879070914861 0.08798969411863278
-0.18698098937015586 0.08798969411863278
-0.20267753050949078 0.04197034990905096
-0.17128444823082098 0.04197034990905096
-0.23407061278816058 0.04197034990905096
-0.23407061278816058 -0.004048994300530871
-0.2654636950668304 -0.004048994300530871
-0.29685677734550014 0.08798969411863278
-0.32824985962416997 -0.0500683385101127
-0.3125533184848351 0.04197034990905096
-0.3125533184848351 0.04197034990905096
-0.3125533184848351 -0.004048994300530871
-0.29685677734550014 -0.004048994300530871
-0.29685677734550014 0.13400903832821462
-0.29685677734550014 0.18002838253779643
-0.28116023620616526 0.22604772674737827
-0.29685677734550014 0.13400903832821462
-0.34394640076350486 0.08798969411863278
-0.34394640076350486 -0.0500683385101127
-0.32824985962416997 -0.1881263711388582
-0.32824985962416997 -0.1881263711388582
-0.3753394830421746 -0.14210702692927635
-0.39103602418150957 0.04197034990905096
-0.3753394830421746 0.08798969411863278
-0.3753394830421746 0.13400903832821462
-0.40673256532084445 0.22604772674737827
-0.35964294190283974 0.2720670709569601
-0.35964294190283974 0.08798969411863278
-0.39103602418150957 0.13400903832821462
-0.3753394830421746 0.04197034990905096
-0.39103602418150957 -0.0500683385101127
-0.46951872987818405 -0.09608768271969452
-0.48521527101751893 -0.09608768271969452
-0.5166083532961887 0.04197034990905096
-0.4381256475995142 -0.004048994300530871
-0.45382218873884916 0.08798969411863278
-0.42242910646017934 0.18002838253779643
-0.40673256532084445 0.18002838253779643
-0.40673256532084445 0.22604772674737827
-0.35964294190283974 0.13400903832821462
-0.40673256532084445 0.22604772674737827
-0.40673256532084445 0.08798969411863278
-0.42242910646017934 0.04197034990905096
-0.42242910646017934 -0.0500683385101127
-0.42242910646017934 -0.14210702692927635
-0.40673256532084445 -0.09608768271969452
-0.4381256475995142 0.04197034990905096
-0.46951872987818405 0.18002838253779643
-0.4381256475995142 0.13400903832821462
-0.42242910646017934 0.2720670709569601
-0.39103602418150957 0.22604772674737827
-0.39103602418150957 0.22604772674737827
-0.39103602418150957 0.08798969411863278
-0.4381256475995142 0.08798969411863278
-0.40673256532084445 -0.0500683385101127
-0.45382218873884916 0.04197034990905096
-0.45382218873884916 -0.0500683385101127
-0.48521527101751893 0.04197034990905096
-0.48521527101751893 0.04197034990905096
-0.45382218873884916 0.08798969411863278
-0.45382218873884916 0.08798969411863278
-0.46951872987818405 0.04197034990905096
-0.42242910646017934 0.22604772674737827
-0.40673256532084445 0.22604772674737827
-0.42242910646017934 0.18002838253779643
-0.39103602418150957 0.22604772674737827
-0.39103602418150957 0.13400903832821462
-0.42242910646017934 0.04197034990905096
-0.42242910646017934 -0.0500683385101127
-0.4381256475995142 -0.004048994300530871
-0.4381256475995142 0.04197034990905096
-0.46951872987818405 0.04197034990905096
-0.45382218873884916 0.18002838253779643
-0.46951872987818405 0.2720670709569601
-0.45382218873884916 0.3180864151665419
-0.40673256532084445 0.18002838253779643
-0.39103602418150957 0.18002838253779643
-0.4381256475995142 0.13400903832821462
-0.42242910646017934 0.08798969411863278
-0.39103602418150957 -0.004048994300530871
-0.40673256532084445 -0.004048994300530871
-0.42242910646017934 0.13400903832821462
-0.40673256532084445 0.13400903832821462
-0.3753394830421746 0.2720670709569601
-0.3125533184848351 0.2720670709569601
-0.24976715392749546 0.3180864151665419
-0.20267753050949078 0.3180864151665419
-0.20267753050949078 0.3180864151665419
-0.20267753050949078 0.4101251035857056
-0.17128444823082098 0.4561444477952874
-0.13989136595215118 0.548183136214451
-0.10849828367348138 0.548183136214451
-0.06140866025547669 0.5021637920048693
-0.0457121191161418 0.36410575937612377
0.0013775043018628963 0.18002838253779643
0.0013775043018628963 0.13400903832821462
-0.014319036837472002 -0.14210702692927635
-0.0457121191161418 -0.14210702692927635
-0.06140866025547669 -0.1881263711388582
-0.0771052013948116 -0.23414571534844
-0.0928017425341465 -0.1881263711388582
-0.10849828367348138 -0.3722037479771855
-0.1555879070914861 -0.28016505955802185
-0.1555879070914861 -0.3722037479771855
-0.17128444823082098 -0.28016505955802185
-0.23407061278816058 -0.14210702692927635
-0.23407061278816058 -0.004048994300530871
-0.29685677734550014 0.13400903832821462
-0.28116023620616526 0.3180864151665419
-0.35964294190283974 0.3180864151665419
-0.34394640076350486 0.2720670709569601
-0.35964294190283974 0.18002838253779643
-0.3753394830421746 0.08798969411863278
-0.39103602418150957 0.04197034990905096
-0.40673256532084445 -0.004048994300530871
-0.39103602418150957 0.04197034990905096
-0.39103602418150957 -0.004048994300530871
-0.35964294190283974 0.04197034990905096
-0.34394640076350486 -0.0500683385101127
-0.3125533184848351 0.04197034990905096
-0.28116023620616526 0.04197034990905096
-0.2654636950668304 0.13400903832821462
-0.20267753050949078 0.2720670709569601
-0.0771052013948116 0.3180864151665419
0.07986020999853738 0.4561444477952874
0.3153083270885609 0.4561444477952874
0.6606322321539286 0.7322605130527784
1.194314630891315 0.824299201471942
1.8849624410220507 0.9623572341006875
2.74827220368547 1.2384732993581784
3.7685473777422382 1.376531331986924
4.773126010659672 1.376531331986924
5.636435773323091 1.0543959225198511
6.091635466363804 0.18002838253779643
6.091635466363804 -0.8323971900730037
5.432380738511737 -2.120938827941295
4.003995494832262 -3.4094804658095863
1.994838228997395 -4.744041447887459
-0.014319036837472002 -5.52637029945035
-2.023476302672339 -5.710447676288678
-3.389075381794475 -5.296273578402441
-3.5774338754664936 -4.421906038420386
-3.043751476729107 -3.5935578426479133
-2.2275313374836925 -2.673170958456277
-1.5054904450742872 -1.9368614511029676
-1.0188976697549055 -1.24657128795924
-0.783449552664882 -1.016474566911331
-0.7363599292468773 -0.6483198132346765
-0.7520564703862122 -0.5562811248155128
-0.7363599292468773 -0.32618440376760366
-0.7206633881075424 -0.23414571534844
-0.6735737646895377 -0.23414571534844
-0.6107876001321981 -0.09608768271969452
-0.5636979767141934 0.04197034990905096
-0.5950910589928632 0.08798969411863278
-0.5950910589928632 0.08798969411863278
-0.5950910589928632 0.2720670709569601
-0.6264841412715331 0.4561444477952874
-0.6107876001321981 0.548183136214451
-0.6107876001321981 0.5942024804240329
-0.6264841412715331 0.5942024804240329
-0.5636979767141934 0.5021637920048693
-0.5480014355748585 0.4101251035857056
-0.5323048944355236 0.3180864151665419
-0.5636979767141934 0.22604772674737827
-0.5009118121568539 0.36410575937612377
-0.5166083532961887 0.4561444477952874
-0.5166083532961887 0.5942024804240329
-0.46951872987818405 0.7782798572623602
-0.4381256475995142 0.7782798572623602
-0.40673256532084445 0.8703185456815239
-0.34394640076350486 0.7322605130527784
-0.39103602418150957 0.6862411688431965
-0.3753394830421746 0.548183136214451
-0.3753394830421746 0.5942024804240329
-0.39103602418150957 0.5942024804240329
-0.3753394830421746 0.5942024804240329
-0.35964294190283974 0.6402218246336148
-0.32824985962416997 0.6862411688431965
-0.32824985962416997 0.7782798572623602
-0.29685677734550014 0.7782798572623602
-0.21837407164882566 0.8703185456815239
-0.20267753050949078 0.8703185456815239
-0.18698098937015586 0.9623572341006875
-0.1555879070914861 0.8703185456815239
-0.1555879070914861 0.7782798572623602
-0.20267753050949078 0.6862411688431965
-0.1555879070914861 0.548183136214451
-0.17128444823082098 0.5942024804240329
-0.12419482481281628 0.6402218246336148
-0.12419482481281628 0.6862411688431965
-0.0928017425341465 0.7782798572623602
-0.06140866025547669 0.8703185456815239
-0.0457121191161418 1.0543959225198511
-0.014319036837472002 1.0543959225198511
0.04846712771986759 0.9623572341006875
0.07986020999853738 0.9163378898911057
0.07986020999853738 0.8703185456815239
0.0641636688592025 0.5942024804240329
0.07986020999853738 0.548183136214451
0.07986020999853738 0.4561444477952874
0.09555675113787228 0.6402218246336148
0.11125329227720718 0.6862411688431965
0.1583429156952119 0.7782798572623602
0.18973599797388166 0.9163378898911057
0.18973599797388166 0.9623572341006875
0.26821870367055617 0.9163378898911057
0.29961178594922594 0.9163378898911057
0.29961178594922594 0.9163378898911057
0.33100486822789577 0.9163378898911057
0.29961178594922594 0.8703185456815239
0.28391524480989105 0.7782798572623602
0.3780944916459004 0.7782798572623602
0.34670140936723065 0.6862411688431965
0.3780944916459004 0.7782798572623602
0.45657719734257496 0.824299201471942
0.5036668207605797 0.7782798572623602
0.5507564441785843 1.0543959225198511
0.6135426087359239 1.100415266729433
0.597846067596589 1.1464346109390149
0.6292391498752589 1.2384732993581784
0.5821495264572542 1.1464346109390149
0.6292391498752589 1.0083765783102694
0.6135426087359239 0.8703185456815239
0.6292391498752589 0.7322605130527784
0.6763287732932635 0.7782798572623602
0.6763287732932635 0.824299201471942
0.7077218555719333 1.0083765783102694
0.7391149378506031 1.0083765783102694
0.7862045612686078 1.1924539551485966
0.8489907258259474 1.1924539551485966
0.8646872669652823 1.100415266729433
0.9588665138012916 1.0543959225198511
0.9274734315226218 1.0543959225198511
0.9431699726619568 0.8703185456815239
0.8960803492439521 0.7782798572623602
0.9588665138012916 0.7782798572623602
0.9902595960799615 0.824299201471942
1.037349219497966 0.7322605130527784
1.0530457606373012 0.7782798572623602
1.068742301776636 0.7782798572623602
1.068742301776636 0.7322605130527784
1.1315284663339755 0.7782798572623602
1.037349219497966 0.7782798572623602
0.9902595960799615 0.6862411688431965
0.8960803492439521 0.6402218246336148
0.8489907258259474 0.4561444477952874
0.7862045612686078 0.36410575937612377
0.6606322321539286 0.22604772674737827
0.5664529853179192 0.22604772674737827
0.5350599030392494 0.13400903832821462
0.47227373848190984 0.2720670709569601
0.40948757392457025 0.2720670709569601
0.36239795050656554 0.36410575937612377
0.3153083270885609 0.5021637920048693
0.2525221625312213 0.4561444477952874
0.20543253911321657 0.3180864151665419
0.20543253911321657 0.22604772674737827
0.11125329227720718 -0.004048994300530871
0.03277058658053269 0.13400903832821462
-0.0771052013948116 0.04197034990905096
-0.10849828367348138 0.08798969411863278
-0.12419482481281628 0.13400903832821462
-0.1555879070914861 0.2720670709569601
-0.13989136595215118 0.36410575937612377
-0.12419482481281628 0.36410575937612377
-0.17128444823082098 0.3180864151665419
-0.17128444823082098 0.18002838253779643
-0.18698098937015586 0.2720670709569601
-0.20267753050949078 0.13400903832821462
-0.23407061278816058 0.13400903832821462
-0.2654636950668304 0.13400903832821462
-0.32824985962416997 0.08798969411863278
-0.34394640076350486 0.18002838253779643
-0.39103602418150957 0.08798969411863278
-0.35964294190283974 0.2720670709569601
-0.3125533184848351 0.2720670709569601
-0.32824985962416997 0.18002838253779643
-0.34394640076350486 0.3180864151665419
-0.29685677734550014 0.2720670709569601
-0.2654636950668304 0.3180864151665419
-0.3125533184848351 0.22604772674737827
-0.32824985962416997 0.13400903832821462
-0.34394640076350486 0.13400903832821462
-0.32824985962416997 0.08798969411863278
-0.29685677734550014 0.13400903832821462
-0.29685677734550014 -0.004048994300530871
-0.3125533184848351 0.13400903832821462
-0.29685677734550014 0.22604772674737827
-0.28116023620616526 0.3180864151665419
-0.23407061278816058 0.36410575937612377
-0.18698098937015586 0.3180864151665419
-0.17128444823082098 0.4101251035857056
-0.17128444823082098 0.13400903832821462
-0.17128444823082098 0.04197034990905096
-0.20267753050949078 0.04197034990905096
-0.18698098937015586 0.04197034990905096
-0.20267753050949078 0.13400903832821462
-0.20267753050949078 0.18002838253779643
-0.1555879070914861 0.18002838253779643
-0.0928017425341465 0.2720670709569601
-0.12419482481281628 0.3180864151665419
-0.0771052013948116 0.2720670709569601
-0.0300155779768069 0.22604772674737827
-0.06140866025547669 0.13400903832821462
-0.0457121191161418 0.08798969411863278
-0.0771052013948116 0.04197034990905096
-0.12419482481281628 0.13400903832821462
-0.1555879070914861 0.13400903832821462
-0.10849828367348138 0.22604772674737827
-0.12419482481281628 0.08798969411863278
-0.12419482481281628 0.13400903832821462
-0.10849828367348138 0.08798969411863278
-0.0771052013948116 0.2720670709569601
-0.0300155779768069 0.13400903832821462
-0.014319036837472002 0.2720670709569601
-0.06140866025547669 0.2720670709569601
-0.06140866025547669 0.2720670709569601
-0.0928017425341465 0.18002838253779643
-0.0928017425341465 0.04197034990905096
-0.10849828367348138 -0.09608768271969452
-0.13989136595215118 0.04197034990905096
-0.21837407164882566 0.04197034990905096
-0.20267753050949078 0.08798969411863278
-0.13989136595215118 0.22604772674737827
-0.17128444823082098 0.36410575937612377
-0.13989136595215118 0.22604772674737827
-0.12419482481281628 0.13400903832821462
-0.13989136595215118 0.08798969411863278
-0.1555879070914861 -0.004048994300530871
-0.21837407164882566 0.08798969411863278
-0.21837407164882566 0.08798969411863278
-0.24976715392749546 -0.004048994300530871
-0.24976715392749546 -0.004048994300530871
-0.2654636950668304 0.04197034990905096
-0.3125533184848351 -0.004048994300530871
-0.2654636950668304 -0.004048994300530871
-0.3125533184848351 0.18002838253779643
-0.28116023620616526 0.18002838253779643
-0.23407061278816058 0.18002838253779643
-0.2654636950668304 0.22604772674737827
-0.2654636950668304 0.18002838253779643
-0.34394640076350486 0.04197034990905096
-0.32824985962416997 0.04197034990905096
-0.3125533184848351 0.08798969411863278
-0.32824985962416997 -0.004048994300530871
-0.35964294190283974 -0.004048994300530871
-0.3753394830421746 0.08798969411863278
-0.34394640076350486 0.3180864151665419
-0.3125533184848351 0.22604772674737827
-0.34394640076350486 0.3180864151665419
-0.3125533184848351 0.13400903832821462
-0.34394640076350486 0.22604772674737827
-0.34394640076350486 0.04197034990905096
-0.3753394830421746 0.04197034990905096
-0.40673256532084445 -0.004048994300530871
-0.42242910646017934 0.04197034990905096
-0.4381256475995142 0.08798969411863278
-0.42242910646017934 0.18002838253779643
-0.46951872987818405 0.22604772674737827
-0.45382218873884916 0.18002838253779643
-0.4381256475995142 0.2720670709569601
-0.3753394830421746 0.18002838253779643
-0.40673256532084445 0.22604772674737827
-0.3753394830421746 0.18002838253779643
-0.40673256532084445 0.18002838253779643
-0.40673256532084445 0.13400903832821462
-0.39103602418150957 0.13400903832821462
-0.4381256475995142 0.04197034990905096
-0.4381256475995142 0.04197034990905096
-0.45382218873884916 0.04197034990905096
-0.4381256475995142 0.13400903832821462
-0.42242910646017934 0.13400903832821462
-0.42242910646017934 0.36410575937612377
-0.4381256475995142 0.36410575937612377
-0.4381256475995142 0.36410575937612377
-0.39103602418150957 0.22604772674737827
-0.40673256532084445 0.13400903832821462
-0.46951872987818405 0.04197034990905096
-0.48521527101751893 0.08798969411863278
-0.5009118121568539 0.08798969411863278
-0.48521527101751893 0.08798969411863278
-0.48521527101751893 0.22604772674737827
-0.5009118121568539 0.2720670709569601
-0.45382218873884916 0.2720670709569601
-0.4381256475995142 0.22604772674737827
-0.3753394830421746 0.18002838253779643
-0.3753394830421746 0.2720670709569601
-0.4381256475995142 0.18002838253779643
-0.45382218873884916 0.4561444477952874
-0.48521527101751893 0.22604772674737827
-0.45382218873884916 0.22604772674737827
-0.48521527101751893 -0.004048994300530871
-0.48521527101751893 -0.004048994300530871
-0.45382218873884916 -0.004048994300530871
-0.5009118121568539 0.18002838253779643
-0.4381256475995142 0.18002838253779643
-0.42242910646017934 0.3180864151665419
-0.39103602418150957 0.36410575937612377
-0.34394640076350486 0.3180864151665419
-0.35964294190283974 0.22604772674737827
-0.3753394830421746 0.13400903832821462
-0.35964294190283974 0.04197034990905096
-0.39103602418150957 0.04197034990905096
-0.45382218873884916 -0.004048994300530871
-0.45382218873884916 0.13400903832821462
-0.4381256475995142 0.18002838253779643
-0.3753394830421746 0.18002838253779643
-0.35964294190283974 0.18002838253779643
-0.29685677734550014 0.3180864151665419
-0.23407061278816058 0.36410575937612377
-0.20267753050949078 0.4101251035857056
-0.1555879070914861 0.5021637920048693
-0.13989136595215118 0.548183136214451
-0.12419482481281628 0.6402218246336148
-0.10849828367348138 0.6862411688431965
-0.0771052013948116 0.6862411688431965
-0.0771052013948116 0.5021637920048693
-0.014319036837472002 0.4561444477952874
0.03277058658053269 0.2720670709569601
0.07986020999853738 0.13400903832821462
0.03277058658053269 0.13400903832821462
0.017074045441197793 -0.004048994300530871
-0.0928017425341465 -0.09608768271969452
-0.0771052013948116 -0.09608768271969452
-0.12419482481281628 -0.23414571534844
-0.18698098937015586 -0.1881263711388582
-0.1555879070914861 -0.23414571534844
-0.17128444823082098 -0.09608768271969452
-0.18698098937015586 -0.0500683385101127
-0.21837407164882566 0.13400903832821462
-0.2654636950668304 0.2720670709569601
-0.2654636950668304 0.36410575937612377
-0.3125533184848351 0.3180864151665419
-0.29685677734550014 0.4101251035857056
-0.3125533184848351 0.3180864151665419
-0.34394640076350486 0.18002838253779643
-0.35964294190283974 0.08798969411863278
-0.39103602418150957 0.2720670709569601
-0.39103602418150957 0.18002838253779643
-0.35964294190283974 0.08798969411863278
-0.3753394830421746 0.13400903832821462
-0.3753394830421746 0.13400903832821462
-0.34394640076350486 0.08798969411863278
-0.28116023620616526 0.04197034990905096
-0.23407061278816058 0.18002838253779643
-0.17128444823082098 0.3180864151665419
-0.0771052013948116 0.3180864151665419
0.017074045441197793 0.4561444477952874
0.23682562139188637 0.4101251035857056
0.5350599030392494 0.5942024804240329
0.9902595960799615 0.824299201471942
1.6495143239320271 0.9623572341006875
2.4500379220381068 1.376531331986924
3.4546165549555403 1.4685700204060876
4.600464058126988 1.652647397244415
5.526559985347747 1.1464346109390149
6.138725089781808 0.3180864151665419
6.170118172060477 -0.8323971900730037
5.432380738511737 -2.351035548989204
3.831333542299578 -3.8236545636958224
1.8221762764647111 -4.928118824725787
-0.18698098937015586 -5.572389643659932
-2.196138255205023 -5.342292922612023
-3.4989511697698195 -4.744041447887459
-3.40477192293381 -3.8236545636958224
-2.6513379482457347 -2.8572483352946043
-1.8822074324183249 -1.9828807953125493
-1.2700423279842639 -1.3386099763784038
-0.8619322583615565 -0.8784165342825856
-0.7049668469682076 -0.5562811248155128
-0.6264841412715331 -0.28016505955802185
-0.6578772235502028 -0.14210702692927635
-0.6892703058288726 -0.0500683385101127
-0.6421806824108679 0.04197034990905096
-0.6107876001321981 0.04197034990905096
-0.6264841412715331 0.08798969411863278
-0.6107876001321981 0.08798969411863278
-0.6107876001321981 0.18002838253779643
-0.6264841412715331 0.22604772674737827
-0.6107876001321981 0.4561444477952874
-0.5950910589928632 0.548183136214451
-0.5793945178535284 0.6402218246336148
-0.5323048944355236 0.5942024804240329
-0.5166083532961887 0.548183136214451
-0.5480014355748585 0.548183136214451
-0.5323048944355236 0.548183136214451
-0.5636979767141934 0.5942024804240329
-0.5636979767141934 0.5021637920048693
-0.5793945178535284 0.6402218246336148
-0.5636979767141934 0.6402218246336148
-0.5636979767141934 0.7322605130527784
-0.48521527101751893 0.7322605130527784
-0.48521527101751893 0.7322605130527784
-0.42242910646017934 0.7782798572623602
-0.3753394830421746 0.7782798572623602
-0.39103602418150957 0.7782798572623602
-0.45382218873884916 0.7322605130527784
-0.3753394830421746 0.7782798572623602
-0.40673256532084445 0.7322605130527784
-0.35964294190283974 0.7322605130527784
-0.39103602418150957 0.6402218246336148
-0.34394640076350486 0.7782798572623602
-0.34394640076350486 0.7782798572623602
-0.3125533184848351 0.9163378898911057
-0.28116023620616526 0.9163378898911057
-0.23407061278816058 0.9623572341006875
-0.20267753050949078 1.0543959225198511
-0.17128444823082098 0.9623572341006875
-0.13989136595215118 0.824299201471942
-0.13989136595215118 0.824299201471942
-0.13989136595215118 0.6862411688431965
-0.1555879070914861 0.6862411688431965
-0.1555879070914861 0.7782798572623602
-0.0928017425341465 0.7322605130527784
-0.06140866025547669 0.9163378898911057
-0.06140866025547669 0.8703185456815239
0.0013775043018628963 0.8703185456815239
0.017074045441197793 0.9623572341006875
0.03277058658053269 0.7322605130527784
0.0641636688592025 0.8703185456815239
0.0641636688592025 0.7782798572623602
0.0641636688592025 0.9163378898911057
0.1269498334165421 0.7782798572623602
0.0641636688592025 0.7782798572623602
0.14264637455587698 0.824299201471942
0.18973599797388166 0.824299201471942
0.23682562139188637 0.824299201471942
0.26821870367055617 0.8703185456815239
0.28391524480989105 1.0083765783102694
0.33100486822789577 1.0543959225198511
0.36239795050656554 1.0543959225198511
0.36239795050656554 1.0543959225198511
0.42518411506390513 0.8703185456815239
0.44088065620324 0.9163378898911057
0.44088065620324 0.7322605130527784
0.44088065620324 0.824299201471942
0.45657719734257496 0.7782798572623602
0.45657719734257496 0.9163378898911057
0.47227373848190984 1.100415266729433
0.5507564441785843 1.0543959225198511
0.5821495264572542 1.100415266729433
0.6292391498752589 1.1464346109390149
0.6763287732932635 1.0083765783102694
0.6763287732932635 1.0543959225198511
0.7077218555719333 1.0083765783102694
0.6763287732932635 1.0083765783102694
0.7234183967112682 1.0083765783102694
0.6920253144325984 1.0083765783102694
0.6763287732932635 1.0083765783102694
0.7077218555719333 0.9163378898911057
0.7234183967112682 0.9623572341006875
0.7391149378506031 0.9163378898911057
0.8175976435472776 1.100415266729433
0.8489907258259474 1.1464346109390149
0.8960803492439521 1.100415266729433
0.8803838081046171 1.0543959225198511
0.9431699726619568 1.0543959225198511
0.9745630549406266 0.9163378898911057
0.9902595960799615 0.8703185456815239
0.9745630549406266 0.6862411688431965
0.9431699726619568 0.6402218246336148
0.9431699726619568 0.6862411688431965
0.8960803492439521 0.824299201471942
0.8332941846866125 0.7322605130527784
0.7705080201292729 0.7322605130527784
0.7234183967112682 0.824299201471942
0.7234183967112682 0.5942024804240329
0.6606322321539286 0.4561444477952874
0.6292391498752589 0.36410575937612377
0.5350599030392494 0.22604772674737827
0.44088065620324 0.13400903832821462
0.33100486822789577 0.22604772674737827
0.2525221625312213 0.3180864151665419
0.2525221625312213 0.2720670709569601
0.18973599797388166 0.4101251035857056
0.1269498334165421 0.3180864151665419
0.11125329227720718 0.36410575937612377
0.0641636688592025 0.36410575937612377
0.0641636688592025 0.3180864151665419
0.0013775043018628963 0.2720670709569601
-0.0300155779768069 0.18002838253779643
-0.0771052013948116 0.22604772674737827
-0.12419482481281628 0.18002838253779643
-0.17128444823082098 0.13400903832821462
-0.20267753050949078 0.13400903832821462
-0.21837407164882566 0.13400903832821462
-0.21837407164882566 0.22604772674737827
-0.24976715392749546 0.3180864151665419
-0.2654636950668304 0.3180864151665419
-0.28116023620616526 0.4561444477952874
-0.28116023620616526 0.4561444477952874
-0.28116023620616526 0.5021637920048693
-0.28116023620616526 0.3180864151665419
-0.28116023620616526 0.22604772674737827
-0.28116023620616526 0.13400903832821462
-0.29685677734550014 0.13400903832821462
-0.32824985962416997 0.08798969411863278
-0.28116023620616526 0.2720670709569601
-0.29685677734550014 0.36410575937612377
-0.29685677734550014 0.4561444477952874
-0.24976715392749546 0.5021637920048693
-0.24976715392749546 0.548183136214451
-0.24976715392749546 0.36410575937612377
-0.23407061278816058 0.3180864151665419
-0.23407061278816058 0.22604772674737827
-0.23407061278816058 0.22604772674737827
-0.20267753050949078 0.13400903832821462
-0.21837407164882566 0.2720670709569601
-0.18698098937015586 0.3180864151665419
-0.20267753050949078 0.3180864151665419
-0.10849828367348138 0.3180864151665419
-0.0928017425341465 0.4561444477952874
-0.06140866025547669 0.36410575937612377
-0.0457121191161418 0.4101251035857056
-0.06140866025547669 0.5021637920048693
-0.0771052013948116 0.4101251035857056
0.0013775043018628963 0.36410575937612377
-0.014319036837472002 0.2720670709569601
-0.014319036837472002 0.22604772674737827
-0.0300155779768069 0.13400903832821462
-0.0300155779768069 0.2720670709569601
-0.0300155779768069 0.3180864151665419
-0.014319036837472002 0.36410575937612377
-0.0300155779768069 0.5021637920048693
-0.014319036837472002 0.4561444477952874
0.04846712771986759 0.4561444477952874
0.09555675113787228 0.2720670709569601
0.09555675113787228 0.4101251035857056
0.07986020999853738 0.18002838253779643
0.03277058658053269 0.22604772674737827
-0.014319036837472002 0.2720670709569601
0.03277058658053269 0.2720670709569601
-0.014319036837472002 0.3180864151665419
-0.0457121191161418 0.36410575937612377
-0.014319036837472002 0.3180864151665419
-0.014319036837472002 0.3180864151665419
-0.014319036837472002 0.3180864151665419
-0.0300155779768069 0.4101251035857056
-0.014319036837472002 0.4101251035857056
-0.0771052013948116 0.4101251035857056
-0.10849828367348138 0.36410575937612377
-0.0771052013948116 0.22604772674737827
-0.0771052013948116 0.22604772674737827
-0.10849828367348138 0.08798969411863278
-0.12419482481281628 0.18002838253779643
-0.1555879070914861 0.22604772674737827
-0.1555879070914861 0.3180864151665419
-0.13989136595215118 0.4101251035857056
-0.12419482481281628 0.5021637920048693
-0.13989136595215118 0.4561444477952874
-0.1555879070914861 0.4101251035857056
-0.1555879070914861 0.3180864151665419
-0.21837407164882566 0.18002838253779643
-0.20267753050949078 0.13400903832821462
-0.21837407164882566 0.22604772674737827
-0.24976715392749546 0.22604772674737827
-0.24976715392749546 0.2720670709569601
-0.21837407164882566 0.2720670709569601
-0.21837407164882566 0.2720670709569601
-0.23407061278816058 0.3180864151665419
-0.23407061278816058 0.36410575937612377
-0.23407061278816058 0.36410575937612377
-0.2654636950668304 0.4101251035857056
-0.3125533184848351 0.36410575937612377
-0.35964294190283974 0.36410575937612377
-0.35964294190283974 0.2720670709569601
-0.3753394830421746 0.13400903832821462
-0.3753394830421746 0.13400903832821462
-0.45382218873884916 0.22604772674737827
-0.42242910646017934 0.22604772674737827
-0.39103602418150957 0.3180864151665419
-0.40673256532084445 0.36410575937612377
-0.4381256475995142 0.5021637920048693
-0.34394640076350486 0.548183136214451
-0.34394640076350486 0.4561444477952874
-0.35964294190283974 0.3180864151665419
-0.35964294190283974 0.22604772674737827
-0.3753394830421746 0.18002838253779643
-0.40673256532084445 0.18002838253779643
-0.40673256532084445 0.18002838253779643
-0.39103602418150957 0.18002838253779643
-0.40673256532084445 0.3180864151665419
-0.42242910646017934 0.3180864151665419
-0.3753394830421746 0.36410575937612377
-0.35964294190283974 0.3180864151665419
-0.32824985962416997 0.36410575937612377
-0.32824985962416997 0.4101251035857056
-0.34394640076350486 0.4101251035857056
-0.35964294190283974 0.36410575937612377
-0.35964294190283974 0.3180864151665419
-0.3753394830421746 0.18002838253779643
-0.40673256532084445 0.08798969411863278
-0.39103602418150957 0.18002838253779643
-0.39103602418150957 0.13400903832821462
-0.3753394830421746 0.22604772674737827
-0.3753394830421746 0.3180864151665419
-0.3753394830421746 0.5021637920048693
-0.3753394830421746 0.5942024804240329
-0.35964294190283974 0.5021637920048693
-0.35964294190283974 0.3180864151665419
-0.35964294190283974 0.36410575937612377
-0.42242910646017934 0.2720670709569601
-0.40673256532084445 0.18002838253779643
-0.42242910646017934 0.3180864151665419
-0.45382218873884916 0.2720670709569601
-0.4381256475995142 0.2720670709569601
-0.42242910646017934 0.4101251035857056
-0.40673256532084445 0.4101251035857056
-0.39103602418150957 0.4561444477952874
-0.32824985962416997 0.5021637920048693
-0.32824985962416997 0.36410575937612377
-0.35964294190283974 0.36410575937612377
-0.35964294190283974 0.36410575937612377
-0.42242910646017934 0.3180864151665419
-0.42242910646017934 0.22604772674737827
-0.45382218873884916 0.22604772674737827
-0.40673256532084445 0.18002838253779643
-0.39103602418150957 0.22604772674737827
-0.39103602418150957 0.18002838253779643
-0.34394640076350486 0.4101251035857056
-0.35964294190283974 0.4101251035857056
-0.3125533184848351 0.4561444477952874
-0.29685677734550014 0.4561444477952874
-0.3125533184848351 0.5021637920048693
-0.28116023620616526 0.4561444477952874
-0.24976715392749546 0.2720670709569601
-0.28116023620616526 0.22604772674737827
-0.28116023620616526 0.13400903832821462
-0.24976715392749546 0.3180864151665419
-0.23407061278816058 0.3180864151665419
-0.20267753050949078 0.5021637920048693
-0.13989136595215118 0.5942024804240329
-0.0771052013948116 0.8703185456815239
-0.0300155779768069 0.8703185456815239
0.0013775043018628963 0.9163378898911057
0.07986020999853738 0.8703185456815239
0.14264637455587698 0.7322605130527784
0.09555675113787228 0.548183136214451
0.11125329227720718 0.3180864151665419
0.09555675113787228 0.22604772674737827
0.0641636688592025 0.13400903832821462
-0.0457121191161418 0.04197034990905096
-0.0300155779768069 -0.004048994300530871
-0.0457121191161418 0.04197034990905096
-0.0457121191161418 -0.004048994300530871
-0.0300155779768069 0.18002838253779643
-0.0300155779768069 0.18002838253779643
-0.0457121191161418 0.3180864151665419
-0.0457121191161418 0.2720670709569601
-0.10849828367348138 0.18002838253779643
-0.1555879070914861 0.22604772674737827
-0.23407061278816058 0.3180864151665419
-0.29685677734550014 0.2720670709569601
-0.32824985962416997 0.22604772674737827
-0.35964294190283974 0.2720670709569601
-0.32824985962416997 0.36410575937612377
-0.32824985962416997 0.4101251035857056
-0.29685677734550014 0.4101251035857056
-0.23407061278816058 0.3180864151665419
-0.18698098937015586 0.22604772674737827
-0.17128444823082098 0.08798969411863278
-0.17128444823082098 0.13400903832821462
-0.0928017425341465 0.22604772674737827
-0.0300155779768069 0.22604772674737827
0.11125329227720718 0.4561444477952874
0.42518411506390513 0.4561444477952874
0.8332941846866125 0.6402218246336148
1.4297627479813386 0.9623572341006875
2.136107099251409 1.2844926435677604
3.0151134030541633 1.652647397244415
4.003995494832262 1.7446860856635786
4.977181045471026 1.652647397244415
5.809097725855775 1.100415266729433
6.201511254339148 0.36410575937612377
6.154421630921143 -0.6943391574442583
5.448077279651073 -1.7527840742646403
3.9882989536929268 -2.903267679504186
1.97914168785806 -3.777635219486241
-0.0300155779768069 -4.375886694210805
-2.0391728438116736 -4.283848005791641
-3.7971854514171826 -3.8696739079054043
-3.8128819925565174 -3.179383744761677
-3.2007168881224564 -2.443074237408368
-2.2589244197623626 -1.844822762683804
-1.4740973627956175 -1.24657128795924
-0.9090218817795612 -0.786377845863422
-0.7049668469682076 -0.5562811248155128
-0.6578772235502028 -0.3722037479771855
-0.6421806824108679 -0.28016505955802185
-0.6264841412715331 -0.004048994300530871
-0.5793945178535284 0.08798969411863278
-0.5166083532961887 0.3180864151665419
-0.42242910646017934 0.4101251035857056
-0.40673256532084445 0.548183136214451
-0.3753394830421746 0.5021637920048693
-0.39103602418150957 0.4561444477952874
-0.4381256475995142 0.5021637920048693
-0.46951872987818405 0.5021637920048693
-0.45382218873884916 0.5021637920048693
-0.46951872987818405 0.4561444477952874
-0.42242910646017934 0.4561444477952874
-0.39103602418150957 0.5021637920048693
-0.3753394830421746 0.548183136214451
-0.35964294190283974 0.7322605130527784
-0.34394640076350486 0.8703185456815239
-0.3125533184848351 0.9163378898911057
-0.28116023620616526 0.8703185456815239
-0.34394640076350486 0.9163378898911057
-0.32824985962416997 0.7782798572623602
-0.29685677734550014 0.5942024804240329
-0.29685677734550014 0.5021637920048693
-0.35964294190283974 0.5021637920048693
-0.3125533184848351 0.5942024804240329
-0.29685677734550014 0.5942024804240329
-0.32824985962416997 0.824299201471942
-0.23407061278816058 0.8703185456815239
-0.20267753050949078 1.0543959225198511
-0.13989136595215118 0.9163378898911057
-0.10849828367348138 0.9163378898911057
-0.10849828367348138 0.824299201471942
-0.12419482481281628 0.7322605130527784
-0.12419482481281628 0.6862411688431965
-0.13989136595215118 0.6862411688431965
-0.13989136595215118 0.7322605130527784
-0.12419482481281628 0.7322605130527784
-0.06140866025547669 0.7782798572623602
-0.0457121191161418 0.7782798572623602
0.0013775043018628963 0.9163378898911057
0.017074045441197793 0.824299201471942
0.0641636688592025 0.9163378898911057
0.017074045441197793 1.0083765783102694
0.04846712771986759 0.9623572341006875
0.0013775043018628963 0.824299201471942
0.03277058658053269 0.8703185456815239
0.03277058658053269 0.7782798572623602
0.03277058658053269 0.5942024804240329
0.04846712771986759 0.6402218246336148
0.0641636688592025 0.6402218246336148
0.09555675113787228 0.8703185456815239
0.14264637455587698 1.0083765783102694
0.18973599797388166 1.100415266729433
0.23682562139188637 1.100415266729433
0.29961178594922594 0.9623572341006875
0.36239795050656554 0.9163378898911057
0.36239795050656554 0.8703185456815239
0.36239795050656554 0.824299201471942
0.33100486822789577 0.7782798572623602
0.34670140936723065 0.7782798572623602
0.33100486822789577 0.9163378898911057
0.3153083270885609 0.9623572341006875
0.39379103278523536 0.9623572341006875
0.42518411506390513 1.100415266729433
0.47227373848190984 1.0083765783102694
0.5193633618999145 1.0083765783102694
0.5507564441785843 1.100415266729433
0.5821495264572542 1.0543959225198511
0.5350599030392494 1.0543959225198511
0.597846067596589 1.100415266729433
0.5821495264572542 0.9623572341006875
0.5507564441785843 0.8703185456815239
0.5507564441785843 0.8703185456815239
0.5821495264572542 1.0083765783102694
0.6292391498752589 1.100415266729433
0.597846067596589 1.0543959225198511
0.6292391498752589 1.1464346109390149
0.6606322321539286 1.2844926435677604
0.7077218555719333 1.2384732993581784
0.7391149378506031 1.1924539551485966
0.7391149378506031 1.1464346109390149
0.7077218555719333 0.9623572341006875
0.754811478989938 0.9163378898911057
0.7391149378506031 0.824299201471942
0.7391149378506031 0.824299201471942
0.7391149378506031 0.9623572341006875
0.754811478989938 1.0543959225198511
0.7705080201292729 1.100415266729433
0.8175976435472776 1.2844926435677604
0.8646872669652823 1.2384732993581784
0.9274734315226218 1.0083765783102694
0.9588665138012916 0.9163378898911057
0.9745630549406266 0.7782798572623602
0.9902595960799615 0.6862411688431965
0.9745630549406266 0.6402218246336148
0.9745630549406266 0.4561444477952874
0.8646872669652823 0.5021637920048693
0.8803838081046171 0.4561444477952874
0.8489907258259474 0.5942024804240329
0.8175976435472776 0.548183136214451
0.754811478989938 0.548183136214451
0.6920253144325984 0.6402218246336148
0.597846067596589 0.5021637920048693
0.5664529853179192 0.4561444477952874
0.45657719734257496 0.4101251035857056
0.34670140936723065 0.4101251035857056
0.23682562139188637 0.2720670709569601
0.14264637455587698 0.13400903832821462
0.11125329227720718 0.13400903832821462
0.0641636688592025 0.08798969411863278
0.04846712771986759 0.3180864151665419
0.0013775043018628963 0.4101251035857056
-0.014319036837472002 0.5021637920048693
-0.014319036837472002 0.5021637920048693
-0.014319036837472002 0.5021637920048693
-0.0771052013948116 0.2720670709569601
-0.13989136595215118 0.22604772674737827
-0.18698098937015586 0.22604772674737827
-0.18698098937015586 0.08798969411863278
-0.2654636950668304 0.18002838253779643
-0.24976715392749546 0.18002838253779643
-0.24976715392749546 0.3180864151665419
-0.2654636950668304 0.36410575937612377
-0.2654636950668304 0.36410575937612377
-0.23407061278816058 0.36410575937612377
-0.21837407164882566 0.4561444477952874
-0.21837407164882566 0.36410575937612377
-0.23407061278816058 0.4101251035857056
-0.23407061278816058 0.36410575937612377
-0.23407061278816058 0.3180864151665419
-0.2654636950668304 0.22604772674737827
-0.2654636950668304 0.04197034990905096
-0.23407061278816058 0.08798969411863278
-0.21837407164882566 0.18002838253779643
-0.17128444823082098 0.18002838253779643
-0.18698098937015586 0.3180864151665419
-0.1555879070914861 0.4561444477952874
-0.13989136595215118 0.4561444477952874
-0.10849828367348138 0.548183136214451
-0.0928017425341465 0.4561444477952874
-0.0928017425341465 0.18002838253779643
-0.13989136595215118 0.18002838253779643
-0.12419482481281628 0.08798969411863278
-0.0928017425341465 0.04197034990905096
-0.10849828367348138 0.18002838253779643
-0.0771052013948116 0.18002838253779643
-0.0457121191161418 0.22604772674737827
-0.014319036837472002 0.3180864151665419
0.017074045441197793 0.3180864151665419
0.07986020999853738 0.36410575937612377
0.09555675113787228 0.3180864151665419
0.07986020999853738 0.36410575937612377
0.0641636688592025 0.3180864151665419
0.0641636688592025 0.22604772674737827
0.04846712771986759 0.22604772674737827
0.03277058658053269 0.08798969411863278
0.03277058658053269 0.13400903832821462
0.0641636688592025 0.18002838253779643
0.04846712771986759 0.08798969411863278
0.0641636688592025 0.13400903832821462
0.07986020999853738 0.3180864151665419
0.1269498334165421 0.4561444477952874
0.11125329227720718 0.36410575937612377
0.1269498334165421 0.3180864151665419
0.09555675113787228 0.2720670709569601
0.0641636688592025 0.13400903832821462
0.04846712771986759 -0.004048994300530871
0.04846712771986759 0.04197034990905096
0.0013775043018628963 -0.004048994300530871
-0.0300155779768069 0.08798969411863278
-0.0300155779768069 0.18002838253779643
-0.0300155779768069 0.36410575937612377
-0.0300155779768069 0.2720670709569601
-0.0300155779768069 0.3180864151665419
0.0013775043018628963 0.22604772674737827
-0.014319036837472002 0.04197034990905096
-0.014319036837472002 0.18002838253779643
-0.0300155779768069 0.08798969411863278
-0.0771052013948116 0.04197034990905096
-0.10849828367348138 0.13400903832821462
-0.17128444823082098 0.08798969411863278
-0.17128444823082098 -0.0500683385101127
-0.1555879070914861 0.08798969411863278
-0.1555879070914861 0.22604772674737827
-0.13989136595215118 0.2720670709569601
-0.13989136595215118 0.3180864151665419
-0.17128444823082098 0.36410575937612377
-0.20267753050949078 0.3180864151665419
-0.21837407164882566 0.22604772674737827
-0.21837407164882566 0.08798969411863278
-0.23407061278816058 0.04197034990905096
-0.2654636950668304 -0.09608768271969452
-0.2654636950668304 -0.0500683385101127
-0.28116023620616526 -0.004048994300530871
-0.24976715392749546 -0.004048994300530871
-0.21837407164882566 0.3180864151665419
-0.21837407164882566 0.4101251035857056
-0.21837407164882566 0.36410575937612377
-0.23407061278816058 0.36410575937612377
-0.24976715392749546 0.18002838253779643
-0.28116023620616526 0.13400903832821462
-0.3125533184848351 0.08798969411863278
-0.28116023620616526 0.04197034990905096
-0.28116023620616526 0.04197034990905096
-0.32824985962416997 -0.004048994300530871
-0.3125533184848351 0.08798969411863278
-0.3125533184848351 0.08798969411863278
-0.34394640076350486 0.08798969411863278
-0.3125533184848351 0.18002838253779643
-0.3125533184848351 0.3180864151665419
-0.28116023620616526 0.36410575937612377
-0.2654636950668304 0.36410575937612377
-0.3125533184848351 0.2720670709569601
-0.35964294190283974 0.13400903832821462
-0.34394640076350486 -0.0500683385101127
-0.34394640076350486 -0.09608768271969452
-0.34394640076350486 -0.09608768271969452
-0.32824985962416997 -0.004048994300530871
-0.34394640076350486 -0.004048994300530871
-0.35964294190283974 0.13400903832821462
-0.34394640076350486 0.18002838253779643
-0.3125533184848351 0.36410575937612377
-0.29685677734550014 0.3180864151665419
-0.35964294190283974 0.22604772674737827
-0.35964294190283974 0.13400903832821462
-0.35964294190283974 -0.004048994300530871
-0.32824985962416997 -0.004048994300530871
-0.35964294190283974 -0.0500683385101127
-0.3753394830421746 -0.09608768271969452
-0.3753394830421746 -0.004048994300530871
-0.3753394830421746 0.08798969411863278
-0.34394640076350486 0.22604772674737827
-0.32824985962416997 0.18002838253779643
-0.28116023620616526 0.22604772674737827
-0.3125533184848351 0.13400903832821462
-0.28116023620616526 0.08798969411863278
-0.29685677734550014 0.13400903832821462
-0.32824985962416997 0.13400903832821462
-0.35964294190283974 0.04197034990905096
-0.40673256532084445 0.18002838253779643
-0.42242910646017934 -0.09608768271969452
-0.3753394830421746 -0.004048994300530871
-0.39103602418150957 0.04197034990905096
-0.34394640076350486 -0.0500683385101127
-0.34394640076350486 0.08798969411863278
-0.29685677734550014 0.13400903832821462
-0.28116023620616526 0.22604772674737827
-0.3125533184848351 0.22604772674737827
-0.3125533184848351 0.13400903832821462
-0.32824985962416997 0.04197034990905096
-0.34394640076350486 0.13400903832821462
-0.35964294190283974 -0.0500683385101127
-0.40673256532084445 -0.09608768271969452
-0.3753394830421746 -0.004048994300530871
-0.35964294190283974 -0.004048994300530871
-0.34394640076350486 0.18002838253779643
-0.3125533184848351 0.2720670709569601
-0.2654636950668304 0.18002838253779643
-0.17128444823082098 0.13400903832821462
-0.1555879070914861 0.18002838253779643
-0.12419482481281628 -0.0500683385101127
-0.12419482481281628 0.13400903832821462
-0.10849828367348138 0.08798969411863278
-0.10849828367348138 0.22604772674737827
-0.10849828367348138 0.2720670709569601
-0.06140866025547669 0.4561444477952874
-0.014319036837472002 0.5021637920048693
0.04846712771986759 0.5021637920048693
0.04846712771986759 0.548183136214451
0.14264637455587698 0.4561444477952874
0.14264637455587698 0.4101251035857056
0.14264637455587698 0.22604772674737827
0.11125329227720718 -0.004048994300530871
0.03277058658053269 -0.09608768271969452
0.0013775043018628963 -0.3722037479771855
-0.0300155779768069 -0.46424243639634916
0.0013775043018628963 -0.5562811248155128
0.0013775043018628963 -0.32618440376760366
0.04846712771986759 -0.23414571534844
0.03277058658053269 -0.004048994300530871
0.03277058658053269 -0.004048994300530871
0.0013775043018628963 0.08798969411863278
-0.014319036837472002 0.18002838253779643
-0.0771052013948116 0.18002838253779643
-0.10849828367348138 0.18002838253779643
-0.18698098937015586 -0.004048994300530871
-0.23407061278816058 -0.14210702692927635
-0.28116023620616526 -0.09608768271969452
-0.3125533184848351 -0.09608768271969452
-0.32824985962416997 0.04197034990905096
-0.32824985962416997 -0.004048994300530871
-0.29685677734550014 0.04197034990905096
-0.2654636950668304 0.08798969411863278
-0.21837407164882566 0.04197034990905096
-0.18698098937015586 0.04197034990905096
-0.20267753050949078 -0.004048994300530871
-0.17128444823082098 0.08798969411863278
-0.12419482481281628 -0.004048994300530871
-0.0771052013948116 0.08798969411863278
0.03277058658053269 -0.004048994300530871
0.18973599797388166 0.04197034990905096
0.3780944916459004 0.22604772674737827
0.7077218555719333 0.36410575937612377
1.1629215486126454 0.5942024804240329
1.806479735325376 0.9163378898911057
2.544217168874116 1.3305119877773421
3.4232234726768707 1.5145893646156694
4.396409023315634 1.5145893646156694
5.353898032815063 1.2844926435677604
6.0288493018064635 0.7782798572623602
6.3741732068718315 -0.0500683385101127
6.248600877757152 -0.9704552227017492
5.542256526487082 -1.9828807953125493
4.098174741668271 -2.99530636792335
2.0890174758334044 -4.00773194053415
0.07986020999853738 -4.51394472683955
-1.9292970558363296 -4.51394472683955
-3.859971615974522 -4.099770628953314
-4.001240486228536 -3.455499810019168
-3.3262892172371354 -2.903267679504186
-2.3844967488770417 -2.3050162047796223
-1.6310627741889665 -1.798803418474222
-1.081683834312245 -1.292590632168822
-0.8305391760828867 -0.9704552227017492
-0.7520564703862122 -0.786377845863422
-0.783449552664882 -0.46424243639634916
-0.7206633881075424 -0.32618440376760366
-0.6264841412715331 -0.0500683385101127
-0.48521527101751893 0.04197034990905096
-0.42242910646017934 0.18002838253779643
-0.34394640076350486 0.13400903832821462
-0.3125533184848351 0.18002838253779643
-0.34394640076350486 0.22604772674737827
-0.42242910646017934 0.2720670709569601
-0.46951872987818405 0.2720670709569601
-0.48521527101751893 0.2720670709569601
-0.45382218873884916 0.2720670709569601
-0.45382218873884916 0.22604772674737827
-0.45382218873884916 0.18002838253779643
-0.40673256532084445 0.3180864151665419
-0.35964294190283974 0.4101251035857056
-0.3753394830421746 0.5021637920048693
-0.34394640076350486 0.5942024804240329
-0.3125533184848351 0.5021637920048693
-0.34394640076350486 0.548183136214451
-0.34394640076350486 0.4561444477952874
-0.3125533184848351 0.3180864151665419
-0.32824985962416997 0.22604772674737827
-0.34394640076350486 0.3180864151665419
-0.34394640076350486 0.4101251035857056
-0.35964294190283974 0.5021637920048693
-0.29685677734550014 0.548183136214451
-0.28116023620616526 0.5942024804240329
-0.24976715392749546 0.6402218246336148
-0.21837407164882566 0.6862411688431965
-0.23407061278816058 0.5021637920048693
-0.21837407164882566 0.4101251035857056
-0.23407061278816058 0.4101251035857056
-0.23407061278816058 0.4561444477952874
-0.23407061278816058 0.548183136214451
-0.2654636950668304 0.5021637920048693
-0.24976715392749546 0.6402218246336148
-0.20267753050949078 0.5942024804240329
-0.13989136595215118 0.6402218246336148
-0.0771052013948116 0.6402218246336148
-0.0771052013948116 0.6862411688431965
-0.0457121191161418 0.6862411688431965
-0.0457121191161418 0.5942024804240329
-0.0457121191161418 0.7322605130527784
-0.0457121191161418 0.6402218246336148
-0.0300155779768069 0.5942024804240329
-0.0300155779768069 0.5021637920048693
-0.0457121191161418 0.5021637920048693
-0.014319036837472002 0.548183136214451
-0.014319036837472002 0.548183136214451
0.03277058658053269 0.548183136214451
0.0641636688592025 0.6402218246336148
0.07986020999853738 0.7782798572623602
0.17403945683454677 0.7782798572623602
0.17403945683454677 0.7322605130527784
0.18973599797388166 0.6862411688431965
0.20543253911321657 0.548183136214451
0.20543253911321657 0.4101251035857056
0.22112908025255146 0.4561444477952874
0.17403945683454677 0.548183136214451
0.20543253911321657 0.5021637920048693
0.22112908025255146 0.6402218246336148
0.28391524480989105 0.7322605130527784
0.3153083270885609 0.8703185456815239
0.36239795050656554 0.9623572341006875
0.42518411506390513 0.7782798572623602
0.45657719734257496 0.7322605130527784
0.45657719734257496 0.6862411688431965
0.44088065620324 0.6402218246336148
0.45657719734257496 0.548183136214451
0.45657719734257496 0.6862411688431965
0.47227373848190984 0.6402218246336148
0.48797027962124473 0.824299201471942
0.48797027962124473 0.7782798572623602
0.5507564441785843 0.7322605130527784
0.5821495264572542 0.824299201471942
0.6135426087359239 0.9163378898911057
0.6292391498752589 0.8703185456815239
0.6292391498752589 0.7782798572623602
0.6449356910145937 0.824299201471942
0.6135426087359239 0.7322605130527784
0.5664529853179192 0.6402218246336148
0.5821495264572542 0.548183136214451
0.597846067596589 0.548183136214451
0.6135426087359239 0.5942024804240329
0.6292391498752589 0.6862411688431965
0.6763287732932635 0.7782798572623602
0.7077218555719333 0.8703185456815239
0.7862045612686078 0.824299201471942
0.8019011024079427 0.6862411688431965
0.8646872669652823 0.6402218246336148
0.8960803492439521 0.4561444477952874
0.8646872669652823 0.2720670709569601
0.8489907258259474 0.3180864151665419
0.8332941846866125 0.3180864151665419
0.8019011024079427 0.36410575937612377
0.754811478989938 0.2720670709569601
0.7391149378506031 0.22604772674737827
0.6763287732932635 0.22604772674737827
0.6292391498752589 0.2720670709569601
0.5664529853179192 0.18002838253779643
0.5193633618999145 0.18002838253779643
0.44088065620324 0.08798969411863278
0.3780944916459004 -0.004048994300530871
0.29961178594922594 0.04197034990905096
0.2525221625312213 -0.0500683385101127
0.18973599797388166 -0.09608768271969452
0.1583429156952119 -0.14210702692927635
0.0641636688592025 -0.14210702692927635
0.0013775043018628963 -0.09608768271969452
-0.0300155779768069 -0.004048994300530871
-0.0457121191161418 0.08798969411863278
-0.0771052013948116 0.13400903832821462
-0.0928017425341465 0.13400903832821462
-0.1555879070914861 0.13400903832821462
-0.1555879070914861 0.04197034990905096
-0.20267753050949078 -0.1881263711388582
-0.23407061278816058 -0.14210702692927635
-0.3125533184848351 -0.23414571534844
-0.3125533184848351 -0.14210702692927635
-0.34394640076350486 0.04197034990905096
-0.29685677734550014 -0.09608768271969452
-0.3125533184848351 -0.004048994300530871
-0.29685677734550014 0.13400903832821462
-0.29685677734550014 0.08798969411863278
-0.28116023620616526 0.04197034990905096
-0.28116023620616526 -0.09608768271969452
-0.29685677734550014 -0.09608768271969452
-0.28116023620616526 -0.0500683385101127
-0.29685677734550014 -0.1881263711388582
-0.3125533184848351 -0.1881263711388582
-0.34394640076350486 -0.1881263711388582
-0.32824985962416997 -0.09608768271969452
-0.32824985962416997 -0.09608768271969452
-0.3125533184848351 -0.09608768271969452
-0.28116023620616526 0.04197034990905096
-0.23407061278816058 0.08798969411863278
-0.23407061278816058 0.04197034990905096
-0.20267753050949078 0.13400903832821462
-0.20267753050949078 -0.004048994300530871
-0.18698098937015586 -0.14210702692927635
-0.18698098937015586 -0.1881263711388582
-0.20267753050949078 -0.3722037479771855
-0.18698098937015586 -0.1881263711388582
-0.18698098937015586 -0.09608768271969452
-0.13989136595215118 -0.004048994300530871
-0.12419482481281628 0.08798969411863278
-0.0928017425341465 0.08798969411863278
-0.0300155779768069 0.04197034990905096
-0.014319036837472002 0.04197034990905096
0.0013775043018628963 -0.14210702692927635
-0.014319036837472002 -0.1881263711388582
-0.014319036837472002 -0.1881263711388582
-0.014319036837472002 -0.28016505955802185
-0.0457121191161418 -0.1881263711388582
-0.06140866025547669 -0.23414571534844
0.0013775043018628963 -0.1881263711388582
0.017074045441197793 -0.1881263711388582
0.03277058658053269 -0.14210702692927635
0.03277058658053269 -0.0500683385101127
0.0641636688592025 -0.004048994300530871
0.09555675113787228 -0.09608768271969452
0.07986020999853738 -0.09608768271969452
0.04846712771986759 -0.09608768271969452
-0.014319036837472002 -0.28016505955802185
-0.0300155779768069 -0.28016505955802185
-0.06140866025547669 -0.41822309218676734
-0.0771052013948116 -0.32618440376760366
-0.06140866025547669 -0.23414571534844
-0.0300155779768069 -0.09608768271969452
-0.014319036837472002 0.04197034990905096
0.0013775043018628963 0.04197034990905096
0.0013775043018628963 -0.004048994300530871
0.04846712771986759 -0.004048994300530871
0.03277058658053269 -0.09608768271969452
-0.014319036837472002 -0.09608768271969452
-0.06140866025547669 -0.1881263711388582
-0.10849828367348138 -0.1881263711388582
-0.1555879070914861 -0.1881263711388582
-0.12419482481281628 -0.1881263711388582
-0.12419482481281628 -0.14210702692927635
-0.1555879070914861 -0.14210702692927635
-0.13989136595215118 -0.14210702692927635
-0.1555879070914861 -0.0500683385101127
-0.1555879070914861 -0.0500683385101127
-0.20267753050949078 0.08798969411863278
-0.13989136595215118 -0.004048994300530871
-0.10849828367348138 -0.004048994300530871
-0.12419482481281628 -0.14210702692927635
-0.20267753050949078 -0.23414571534844
-0.1555879070914861 -0.32618440376760366
-0.18698098937015586 -0.28016505955802185
-0.21837407164882566 -0.1881263711388582
-0.2654636950668304 -0.09608768271969452
-0.28116023620616526 -0.0500683385101127
-0.21837407164882566 0.08798969411863278
-0.18698098937015586 0.08798969411863278
-0.20267753050949078 0.08798969411863278
-0.20267753050949078 -0.1881263711388582
-0.21837407164882566 -0.14210702692927635
-0.23407061278816058 -0.23414571534844
-0.29685677734550014 -0.23414571534844
-0.29685677734550014 -0.23414571534844
-0.32824985962416997 -0.1881263711388582
-0.2654636950668304 -0.0500683385101127
-0.28116023620616526 -0.004048994300530871
-0.24976715392749546 -0.0500683385101127
-0.24976715392749546 0.04197034990905096
-0.21837407164882566 0.08798969411863278
-0.21837407164882566 0.13400903832821462
-0.21837407164882566 -0.004048994300530871
-0.28116023620616526 0.04197034990905096
-0.2654636950668304 -0.09608768271969452
-0.32824985962416997 -0.09608768271969452
-0.34394640076350486 -0.0500683385101127
-0.35964294190283974 -0.1881263711388582
-0.3753394830421746 -0.14210702692927635
-0.32824985962416997 -0.14210702692927635
-0.28116023620616526 0.04197034990905096
-0.24976715392749546 0.13400903832821462
-0.23407061278816058 0.13400903832821462
-0.24976715392749546 0.13400903832821462
-0.21837407164882566 -0.004048994300530871
-0.24976715392749546 -0.14210702692927635
-0.2654636950668304 -0.1881263711388582
-0.24976715392749546 -0.28016505955802185
-0.2654636950668304 -0.23414571534844
-0.29685677734550014 -0.09608768271969452
-0.32824985962416997 -0.0500683385101127
-0.3125533184848351 -0.14210702692927635
-0.2654636950668304 -0.004048994300530871
-0.28116023620616526 0.04197034990905096
-0.24976715392749546 0.04197034990905096
-0.23407061278816058 -0.09608768271969452
-0.21837407164882566 -0.09608768271969452
-0.21837407164882566 -0.09608768271969452
-0.2654636950668304 -0.0500683385101127
-0.2654636950668304 -0.09608768271969452
-0.2654636950668304 -0.14210702692927635
-0.28116023620616526 -0.1881263711388582
-0.2654636950668304 -0.1881263711388582
-0.28116023620616526 -0.23414571534844
-0.2654636950668304 -0.09608768271969452
-0.2654636950668304 0.04197034990905096
-0.23407061278816058 0.13400903832821462
-0.24976715392749546 0.08798969411863278
-0.24976715392749546 0.08798969411863278
-0.24976715392749546 0.04197034990905096
-0.24976715392749546 -0.1881263711388582
-0.23407061278816058 -0.23414571534844
-0.2654636950668304 -0.32618440376760366
-0.28116023620616526 -0.23414571534844
-0.28116023620616526 -0.14210702692927635
-0.24976715392749546 0.04197034990905096
-0.24976715392749546 0.04197034990905096
-0.21837407164882566 0.18002838253779643
-0.18698098937015586 0.08798969411863278
-0.17128444823082098 0.08798969411863278
-0.17128444823082098 -0.09608768271969452
-0.20267753050949078 -0.14210702692927635
-0.21837407164882566 -0.09608768271969452
-0.21837407164882566 -0.09608768271969452
-0.21837407164882566 -0.09608768271969452
-0.18698098937015586 -0.0500683385101127
-0.13989136595215118 -0.0500683385101127
-0.12419482481281628 -0.004048994300530871
-0.0928017425341465 -0.004048994300530871
-0.0457121191161418 0.18002838253779643
-0.014319036837472002 0.2720670709569601
0.017074045441197793 0.36410575937612377
0.0641636688592025 0.548183136214451
0.0641636688592025 0.6402218246336148
0.07986020999853738 0.4101251035857056
0.1269498334165421 0.36410575937612377
0.17403945683454677 0.18002838253779643
0.18973599797388166 -0.09608768271969452
0.18973599797388166 -0.14210702692927635
0.17403945683454677 -0.32618440376760366
0.14264637455587698 -0.41822309218676734
0.0641636688592025 -0.28016505955802185
0.07986020999853738 -0.23414571534844
0.07986020999853738 -0.32618440376760366
0.09555675113787228 -0.28016505955802185
0.07986020999853738 -0.32618440376760366
0.0641636688592025 -0.32618440376760366
0.0641636688592025 -0.3722037479771855
0.03277058658053269 -0.41822309218676734
-0.0300155779768069 -0.3722037479771855
-0.06140866025547669 -0.1881263711388582
-0.0928017425341465 -0.0500683385101127
-0.0928017425341465 0.13400903832821462
-0.13989136595215118 0.18002838253779643
-0.13989136595215118 0.18002838253779643
-0.13989136595215118 0.08798969411863278
-0.18698098937015586 -0.14210702692927635
-0.1555879070914861 -0.0500683385101127
-0.17128444823082098 -0.0500683385101127
-0.23407061278816058 -0.09608768271969452
-0.2654636950668304 -0.1881263711388582
-0.23407061278816058 -0.14210702692927635
-0.20267753050949078 -0.09608768271969452
-0.18698098937015586 -0.1881263711388582
-0.06140866025547669 -0.09608768271969452
0.0013775043018628963 0.04197034990905096
0.11125329227720718 0.08798969411863278
0.2525221625312213 0.18002838253779643
0.42518411506390513 0.2720670709569601
0.754811478989938 0.5021637920048693
1.2571007954486548 0.6862411688431965
1.9320520644400554 0.8703185456815239
2.8110583682428096 1.0083765783102694
3.831333542299578 1.1924539551485966
4.930091422053021 1.1464346109390149
5.88758043155245 0.6862411688431965
6.405566289150501 -0.09608768271969452
6.389869748011166 -1.0624939111209128
5.746311561298436 -2.212977516360459
4.2708366942009555 -3.50151915422875
2.2616794283660884 -4.744041447887459
0.2525221625312213 -5.572389643659932
-1.7566351033036456 -5.710447676288678
-3.389075381794475 -5.250254234192859
-3.357682299515805 -4.329867350001223
-2.7141241128030744 -3.3634611216000043
-1.850814350139655 -2.4890935816179494
-1.1601665400089196 -1.844822762683804
-0.6578772235502028 -1.2005519437496583
-0.4381256475995142 -0.8784165342825856
-0.39103602418150957 -0.6483198132346765
-0.40673256532084445 -0.510261780605931
-0.40673256532084445 -0.32618440376760366
-0.3753394830421746 -0.1881263711388582
-0.34394640076350486 -0.14210702692927635
-0.32824985962416997 -0.14210702692927635
-0.32824985962416997 -0.14210702692927635
-0.35964294190283974 -0.09608768271969452
-0.32824985962416997 -0.14210702692927635
-0.35964294190283974 -0.004048994300530871
-0.35964294190283974 0.18002838253779643
-0.35964294190283974 0.36410575937612377
-0.3125533184848351 0.36410575937612377
-0.29685677734550014 0.548183136214451
-0.28116023620616526 0.4101251035857056
-0.28116023620616526 0.2720670709569601
-0.32824985962416997 0.18002838253779643
-0.29685677734550014 0.18002838253779643
-0.28116023620616526 0.18002838253779643
-0.29685677734550014 0.18002838253779643
-0.2654636950668304 0.3180864151665419
-0.2654636950668304 0.36410575937612377
-0.24976715392749546 0.4561444477952874
-0.21837407164882566 0.5942024804240329
-0.1555879070914861 0.5942024804240329
-0.13989136595215118 0.5942024804240329
-0.10849828367348138 0.5021637920048693
-0.12419482481281628 0.6862411688431965
-0.0928017425341465 0.5942024804240329
-0.12419482481281628 0.548183136214451
-0.0928017425341465 0.4101251035857056
-0.0928017425341465 0.4101251035857056
-0.0771052013948116 0.4101251035857056
-0.06140866025547669 0.36410575937612377
-0.0457121191161418 0.4561444477952874
-0.0457121191161418 0.548183136214451
0.017074045441197793 0.7782798572623602
0.0641636688592025 0.8703185456815239
0.04846712771986759 0.6862411688431965
0.04846712771986759 0.5942024804240329
0.09555675113787228 0.548183136214451
0.14264637455587698 0.36410575937612377
0.14264637455587698 0.3180864151665419
0.14264637455587698 0.4561444477952874
0.1269498334165421 0.4101251035857056
0.14264637455587698 0.4561444477952874
0.17403945683454677 0.6402218246336148
0.26821870367055617 0.6402218246336148
0.29961178594922594 0.6862411688431965
0.34670140936723065 0.6402218246336148
0.34670140936723065 0.5942024804240329
0.3780944916459004 0.6402218246336148
0.39379103278523536 0.548183136214451
0.3780944916459004 0.548183136214451
0.39379103278523536 0.5021637920048693
0.45657719734257496 0.4561444477952874
0.44088065620324 0.4561444477952874
0.5036668207605797 0.5942024804240329
0.5193633618999145 0.5942024804240329
0.5350599030392494 0.6402218246336148
0.5821495264572542 0.824299201471942
0.6135426087359239 0.8703185456815239
0.6449356910145937 0.6862411688431965
0.6763287732932635 0.6862411688431965
0.6763287732932635 0.548183136214451
0.6763287732932635 0.4561444477952874
0.6606322321539286 0.5021637920048693
0.6920253144325984 0.6402218246336148
0.7077218555719333 0.7322605130527784
0.7391149378506031 0.824299201471942
0.8019011024079427 0.7782798572623602
0.8332941846866125 0.8703185456815239
0.8960803492439521 0.8703185456815239
0.8960803492439521 0.824299201471942
0.8803838081046171 0.824299201471942
0.9431699726619568 0.824299201471942
0.9431699726619568 0.7782798572623602
0.9274734315226218 0.7782798572623602
0.9431699726619568 0.6402218246336148
0.9588665138012916 0.5021637920048693
0.9902595960799615 0.6862411688431965
1.0216526783586313 0.6402218246336148
1.0530457606373012 0.6862411688431965
1.1001353840553056 0.7782798572623602
1.1472250074733104 0.824299201471942
1.1786180897519802 1.0083765783102694
1.2414042543093198 0.7322605130527784
1.2571007954486548 0.6402218246336148
1.2727973365879897 0.4101251035857056
1.2414042543093198 0.36410575937612377
1.2100111720306501 0.18002838253779643
1.1158319251946407 0.18002838253779643
1.068742301776636 0.2720670709569601
1.037349219497966 0.3180864151665419
1.0059561372192964 0.36410575937612377
0.9431699726619568 0.3180864151665419
0.8646872669652823 0.36410575937612377
0.8646872669652823 0.2720670709569601
0.7234183967112682 0.13400903832821462
0.6920253144325984 0.08798969411863278
0.597846067596589 0.04197034990905096
0.5193633618999145 -0.09608768271969452
0.45657719734257496 -0.14210702692927635
0.39379103278523536 -0.09608768271969452
0.3153083270885609 -0.09608768271969452
0.29961178594922594 -0.0500683385101127
0.26821870367055617 0.04197034990905096
0.2525221625312213 0.04197034990905096
0.18973599797388166 0.04197034990905096
0.17403945683454677 0.04197034990905096
0.1583429156952119 0.08798969411863278
0.09555675113787228 0.08798969411863278
0.04846712771986759 0.04197034990905096
0.017074045441197793 -0.09608768271969452
-0.0300155779768069 -0.1881263711388582
-0.0771052013948116 -0.09608768271969452
-0.0771052013948116 -0.14210702692927635
-0.0928017425341465 -0.09608768271969452
-0.1555879070914861 -0.004048994300530871
-0.12419482481281628 0.18002838253779643
-0.10849828367348138 0.13400903832821462
-0.12419482481281628 0.04197034990905096
-0.0928017425341465 -0.004048994300530871
-0.06140866025547669 0.04197034990905096
-0.10849828367348138 -0.14210702692927635
-0.12419482481281628 -0.0500683385101127
-0.0928017425341465 -0.0500683385101127
-0.10849828367348138 -0.004048994300530871
-0.10849828367348138 -0.0500683385101127
-0.12419482481281628 -0.14210702692927635
-0.10849828367348138 0.08798969411863278
-0.0457121191161418 0.04197034990905096
-0.0457121191161418 0.08798969411863278
0.017074045441197793 0.22604772674737827
0.03277058658053269 0.18002838253779643
0.04846712771986759 0.08798969411863278
0.04846712771986759 -0.0500683385101127
0.03277058658053269 -0.1881263711388582
-0.014319036837472002 -0.1881263711388582
0.09555675113787228 -0.14210702692927635
0.09555675113787228 -0.004048994300530871
0.11125329227720718 0.04197034990905096
0.11125329227720718 0.08798969411863278
0.1269498334165421 0.08798969411863278
0.17403945683454677 0.18002838253779643
0.20543253911321657 0.18002838253779643
0.18973599797388166 0.04197034990905096
0.18973599797388166 -0.0500683385101127
0.1583429156952119 0.04197034990905096
0.14264637455587698 -0.0500683385101127
0.17403945683454677 -0.0500683385101127
0.1583429156952119 -0.0500683385101127
0.17403945683454677 0.04197034990905096
0.18973599797388166 -0.004048994300530871
0.18973599797388166 0.08798969411863278
0.17403945683454677 0.18002838253779643
0.20543253911321657 0.13400903832821462
0.20543253911321657 0.22604772674737827
0.1583429156952119 0.18002838253779643
0.1583429156952119 0.08798969411863278
0.1583429156952119 -0.0500683385101127
0.1269498334165421 -0.09608768271969452
0.09555675113787228 -0.14210702692927635
0.09555675113787228 -0.09608768271969452
0.0641636688592025 -0.004048994300530871
0.07986020999853738 0.04197034990905096
0.07986020999853738 0.08798969411863278
0.07986020999853738 0.18002838253779643
0.0641636688592025 0.18002838253779643
0.0641636688592025 0.13400903832821462
0.04846712771986759 -0.09608768271969452
0.04846712771986759 -0.004048994300530871
0.0013775043018628963 -0.0500683385101127
-0.0457121191161418 -0.14210702692927635
-0.0300155779768069 -0.0500683385101127
-0.0771052013948116 -0.14210702692927635
-0.06140866025547669 -0.0500683385101127
-0.0928017425341465 -0.0500683385101127
-0.0457121191161418 -0.004048994300530871
-0.10849828367348138 0.04197034990905096
-0.0928017425341465 0.08798969411863278
-0.0771052013948116 0.2720670709569601
-0.0771052013948116 0.13400903832821462
-0.12419482481281628 0.04197034990905096
-0.10849828367348138 -0.004048994300530871
-0.10849828367348138 -0.0500683385101127
-0.12419482481281628 -0.1881263711388582
-0.18698098937015586 -0.14210702692927635
-0.17128444823082098 -0.0500683385101127
-0.17128444823082098 0.04197034990905096
-0.17128444823082098 0.13400903832821462
-0.12419482481281628 0.08798969411863278
-0.13989136595215118 0.13400903832821462
-0.13989136595215118 0.08798969411863278
-0.10849828367348138 -0.004048994300530871
-0.13989136595215118 -0.004048994300530871
-0.1555879070914861 -0.0500683385101127
-0.18698098937015586 0.04197034990905096
-0.20267753050949078 -0.004048994300530871
-0.24976715392749546 -0.0500683385101127
-0.23407061278816058 -0.0500683385101127
-0.20267753050949078 -0.09608768271969452
-0.21837407164882566 -0.004048994300530871
-0.18698098937015586 0.08798969411863278
-0.18698098937015586 0.08798969411863278
-0.1555879070914861 0.22604772674737827
-0.17128444823082098 0.13400903832821462
-0.23407061278816058 0.13400903832821462
-0.21837407164882566 -0.004048994300530871
-0.24976715392749546 -0.0500683385101127
-0.24976715392749546 -0.1881263711388582
-0.28116023620616526 -0.14210702692927635
-0.29685677734550014 -0.004048994300530871
-0.28116023620616526 -0.0500683385101127
-0.23407061278816058 0.18002838253779643
-0.23407061278816058 0.22604772674737827
-0.18698098937015586 0.2720670709569601
-0.20267753050949078 0.3180864151665419
-0.20267753050949078 0.18002838253779643
-0.17128444823082098 -0.0500683385101127
-0.17128444823082098 -0.0500683385101127
-0.18698098937015586 -0.0500683385101127
-0.21837407164882566 -0.0500683385101127
-0.21837407164882566 -0.0500683385101127
-0.2654636950668304 0.13400903832821462
-0.2654636950668304 0.13400903832821462
-0.28116023620616526 0.08798969411863278
-0.24976715392749546 0.13400903832821462
-0.21837407164882566 0.18002838253779643
-0.1555879070914861 0.18002838253779643
-0.17128444823082098 0.04197034990905096
-0.17128444823082098 0.08798969411863278
-0.23407061278816058 0.04197034990905096
-0.2654636950668304 -0.004048994300530871
-0.2654636950668304 -0.0500683385101127
-0.2654636950668304 -0.09608768271969452
-0.2654636950668304 -0.004048994300530871
-0.2654636950668304 -0.0500683385101127
-0.23407061278816058 -0.0500683385101127
-0.23407061278816058 0.08798969411863278
-0.21837407164882566 0.2720670709569601
-0.18698098937015586 0.2720670709569601
-0.20267753050949078 0.22604772674737827
-0.21837407164882566 0.13400903832821462
-0.21837407164882566 0.04197034990905096
-0.23407061278816058 0.04197034990905096
-0.2654636950668304 -0.23414571534844
-0.24976715392749546 -0.23414571534844
-0.28116023620616526 -0.14210702692927635
-0.28116023620616526 -0.09608768271969452
-0.2654636950668304 0.04197034990905096
-0.2654636950668304 0.2720670709569601
-0.23407061278816058 0.3180864151665419
-0.20267753050949078 0.3180864151665419
-0.20267753050949078 0.13400903832821462
-0.1555879070914861 -0.004048994300530871
-0.18698098937015586 -0.09608768271969452
-0.1555879070914861 -0.0500683385101127
-0.17128444823082098 -0.14210702692927635
-0.20267753050949078 -0.09608768271969452
-0.21837407164882566 0.04197034990905096
-0.12419482481281628 0.04197034990905096
-0.0771052013948116 0.13400903832821462
-0.014319036837472002 0.22604772674737827
0.03277058658053269 0.3180864151665419
0.09555675113787228 0.5021637920048693
0.07986020999853738 0.5021637920048693
0.17403945683454677 0.6862411688431965
0.18973599797388166 0.5942024804240329
0.22112908025255146 0.548183136214451
0.23682562139188637 0.4561444477952874
0.26821870367055617 0.18002838253779643
0.28391524480989105 0.04197034990905096
0.20543253911321657 -0.14210702692927635
0.20543253911321657 -0.1881263711388582
0.14264637455587698 -0.23414571534844
0.09555675113787228 -0.23414571534844
0.07986020999853738 -0.14210702692927635
0.07986020999853738 -0.1881263711388582
0.0641636688592025 -0.14210702692927635
0.07986020999853738 -0.28016505955802185
0.07986020999853738 -0.32618440376760366
0.07986020999853738 -0.46424243639634916
0.0013775043018628963 -0.3722037479771855
-0.0300155779768069 -0.0500683385101127
-0.06140866025547669 0.04197034990905096
-0.0928017425341465 0.18002838253779643
-0.13989136595215118 0.18002838253779643
-0.1555879070914861 0.22604772674737827
-0.13989136595215118 0.22604772674737827
-0.12419482481281628 0.13400903832821462
-0.12419482481281628 -0.0500683385101127
-0.13989136595215118 -0.004048994300530871
-0.12419482481281628 -0.004048994300530871
-0.13989136595215118 -0.0500683385101127
-0.13989136595215118 -0.0500683385101127
-0.12419482481281628 -0.004048994300530871
-0.10849828367348138 -0.0500683385101127
-0.0457121191161418 -0.004048994300530871
0.03277058658053269 0.13400903832821462
0.17403945683454677 0.13400903832821462
0.33100486822789577 0.3180864151665419
0.5821495264572542 0.5021637920048693
0.9588665138012916 0.7322605130527784
1.4454592891206735 0.9623572341006875
2.120410558112074 1.100415266729433
2.9837203207754937 1.2384732993581784
3.956905871414257 1.4225506761965059
4.99287758661036 1.2384732993581784
5.85618734927378 0.9623572341006875
6.405566289150501 0.22604772674737827
6.389869748011166 -0.6943391574442583
5.82479426699511 -1.798803418474222
4.490588270151644 -3.1333644005520953
2.481431004316777 -4.237828661582059
0.47227373848190984 -5.066176857354532
-1.536883527352957 -5.434331611031187
-3.232109970401126 -5.066176857354532
-3.4518615463518145 -4.467925382629968
-2.8867860653357584 -3.5935578426479133
-2.0391728438116736 -2.5351129258275313
-1.3171319514022686 -1.798803418474222
-0.7677530115255471 -1.1085132553304948
-0.48521527101751893 -0.7403585016538401
-0.39103602418150957 -0.5562811248155128
-0.39103602418150957 -0.3722037479771855
-0.42242910646017934 -0.1881263711388582
-0.40673256532084445 0.08798969411863278
-0.34394640076350486 0.04197034990905096
-0.32824985962416997 0.18002838253779643
-0.3125533184848351 0.08798969411863278
-0.3753394830421746 0.04197034990905096
-0.39103602418150957 0.13400903832821462
-0.35964294190283974 0.18002838253779643
-0.35964294190283974 0.36410575937612377
-0.35964294190283974 0.4561444477952874
-0.34394640076350486 0.5942024804240329
-0.29685677734550014 0.6402218246336148
-0.29685677734550014 0.548183136214451
-0.24976715392749546 0.5942024804240329
-0.24976715392749546 0.4561444477952874
-0.28116023620616526 0.5021637920048693
-0.28116023620616526 0.4101251035857056
-0.28116023620616526 0.4561444477952874
-0.3125533184848351 0.548183136214451
-0.2654636950668304 0.5942024804240329
-0.21837407164882566 0.6402218246336148
-0.20267753050949078 0.6862411688431965
-0.17128444823082098 0.7782798572623602
-0.13989136595215118 0.6862411688431965
-0.0928017425341465 0.824299201471942
-0.10849828367348138 0.7782798572623602
-0.0928017425341465 0.6862411688431965
-0.10849828367348138 0.5942024804240329
-0.10849828367348138 0.6402218246336148
-0.12419482481281628 0.4561444477952874
-0.0771052013948116 0.548183136214451
-0.0771052013948116 0.6402218246336148
-0.0457121191161418 0.824299201471942
0.0013775043018628963 0.8703185456815239
0.04846712771986759 0.9163378898911057
0.04846712771986759 1.0083765783102694
0.0641636688592025 0.824299201471942
0.09555675113787228 0.7782798572623602
0.11125329227720718 0.6862411688431965
0.1269498334165421 0.7322605130527784
0.07986020999853738 0.5942024804240329
0.11125329227720718 0.6402218246336148
0.1583429156952119 0.7322605130527784
0.17403945683454677 0.6402218246336148
0.22112908025255146 0.7782798572623602
0.2525221625312213 0.824299201471942
0.28391524480989105 0.9163378898911057
0.3153083270885609 1.0083765783102694
0.34670140936723065 0.824299201471942
0.3780944916459004 0.9163378898911057
0.36239795050656554 0.6402218246336148
0.3780944916459004 0.7782798572623602
0.3780944916459004 0.548183136214451
0.3780944916459004 0.548183136214451
0.44088065620324 0.6402218246336148
0.44088065620324 0.7322605130527784
0.48797027962124473 0.824299201471942
0.5193633618999145 0.9623572341006875
0.5664529853179192 1.1464346109390149
0.597846067596589 1.100415266729433
0.6135426087359239 1.1464346109390149
0.6292391498752589 1.0083765783102694
0.6606322321539286 0.9163378898911057
0.6292391498752589 0.824299201471942
0.6292391498752589 0.9163378898911057
0.6135426087359239 0.7322605130527784
0.6135426087359239 0.824299201471942
0.6135426087359239 0.9623572341006875
0.6449356910145937 0.9623572341006875
0.6920253144325984 1.1464346109390149
0.7391149378506031 1.0543959225198511
0.8019011024079427 1.100415266729433
0.7862045612686078 1.100415266729433
0.8332941846866125 1.0543959225198511
0.8019011024079427 0.9623572341006875
0.8332941846866125 1.0083765783102694
0.7862045612686078 1.0083765783102694
0.8175976435472776 0.9163378898911057
0.8489907258259474 0.9163378898911057
0.8960803492439521 0.8703185456815239
0.911776890383287 0.9163378898911057
0.9588665138012916 0.9623572341006875
1.037349219497966 1.0543959225198511
1.0844388429159708 1.100415266729433
1.068742301776636 1.1924539551485966
1.1001353840553056 0.9163378898911057
1.1472250074733104 0.7322605130527784
1.1472250074733104 0.5942024804240329
1.1001353840553056 0.5021637920048693
1.068742301776636 0.4101251035857056
1.0059561372192964 0.5021637920048693
0.9274734315226218 0.548183136214451
0.8646872669652823 0.548183136214451
0.8803838081046171 0.5942024804240329
0.8332941846866125 0.548183136214451
0.754811478989938 0.548183136214451
0.7077218555719333 0.4101251035857056
0.6135426087359239 0.2720670709569601
0.5350599030392494 0.2720670709569601
0.47227373848190984 0.22604772674737827
0.39379103278523536 0.18002838253779643
0.3153083270885609 0.08798969411863278
0.2525221625312213 0.18002838253779643
0.23682562139188637 0.18002838253779643
0.17403945683454677 0.22604772674737827
0.14264637455587698 0.22604772674737827
0.1269498334165421 0.3180864151665419
0.1269498334165421 0.36410575937612377
0.11125329227720718 0.2720670709569601
0.07986020999853738 0.4101251035857056
0.03277058658053269 0.3180864151665419
-0.014319036837472002 0.2720670709569601
-0.014319036837472002 0.18002838253779643
-0.0771052013948116 -0.004048994300530871
-0.0928017425341465 0.08798969411863278
-0.10849828367348138 0.18002838253779643
-0.10849828367348138 0.2720670709569601
-0.10849828367348138 0.3180864151665419
-0.10849828367348138 0.4561444477952874
-0.10849828367348138 0.5021637920048693
-0.10849828367348138 0.4101251035857056
-0.12419482481281628 0.4101251035857056
-0.12419482481281628 0.22604772674737827
-0.12419482481281628 0.13400903832821462
-0.0928017425341465 0.13400903832821462
-0.0928017425341465 0.13400903832821462
-0.12419482481281628 0.22604772674737827
-0.12419482481281628 0.3180864151665419
-0.12419482481281628 0.36410575937612377
-0.0771052013948116 0.4101251035857056
-0.06140866025547669 0.36410575937612377
-0.014319036837472002 0.4561444477952874
-0.0300155779768069 0.2720670709569601
0.0013775043018628963 0.4101251035857056
-0.0457121191161418 0.22604772674737827
-0.0457121191161418 0.2720670709569601
-0.0457121191161418 0.2720670709569601
-0.014319036837472002 0.2720670709569601
-0.014319036837472002 0.3180864151665419
0.03277058658053269 0.3180864151665419
0.0641636688592025 0.3180864151665419
0.09555675113787228 0.4101251035857056
0.1583429156952119 0.36410575937612377
0.17403945683454677 0.3180864151665419
0.18973599797388166 0.4101251035857056
0.1583429156952119 0.36410575937612377
0.17403945683454677 0.4561444477952874
0.1269498334165421 0.3180864151665419
0.11125329227720718 0.2720670709569601
0.11125329227720718 0.08798969411863278
0.11125329227720718 0.18002838253779643
0.1269498334165421 0.13400903832821462
0.1583429156952119 0.13400903832821462
0.17403945683454677 0.2720670709569601
0.18973599797388166 0.36410575937612377
0.18973599797388166 0.5021637920048693
0.20543253911321657 0.4101251035857056
0.18973599797388166 0.2720670709569601
0.1583429156952119 0.18002838253779643
0.11125329227720718 0.13400903832821462
0.07986020999853738 0.18002838253779643
0.09555675113787228 0.08798969411863278
0.09555675113787228 0.18002838253779643
0.11125329227720718 0.3180864151665419
0.09555675113787228 0.3180864151665419
0.09555675113787228 0.3180864151665419
0.14264637455587698 0.3180864151665419
0.14264637455587698 0.36410575937612377
0.14264637455587698 0.2720670709569601
0.04846712771986759 0.4101251035857056
0.0013775043018628963 0.2720670709569601
-0.0300155779768069 0.3180864151665419
-0.014319036837472002 0.18002838253779643
-0.06140866025547669 0.08798969411863278
-0.0457121191161418 0.04197034990905096
-0.0457121191161418 0.04197034990905096
-0.0457121191161418 0.13400903832821462
-0.0457121191161418 0.4101251035857056
0.0013775043018628963 0.36410575937612377
0.017074045441197793 0.4561444477952874
-0.014319036837472002 0.3180864151665419
-0.0771052013948116 0.2720670709569601
-0.0928017425341465 0.2720670709569601
-0.13989136595215118 0.18002838253779643
-0.13989136595215118 0.08798969411863278
-0.20267753050949078 0.08798969411863278
-0.21837407164882566 0.18002838253779643
-0.21837407164882566 0.36410575937612377
-0.17128444823082098 0.22604772674737827
-0.13989136595215118 0.4101251035857056
-0.10849828367348138 0.2720670709569601
-0.0928017425341465 0.4101251035857056
-0.0771052013948116 0.18002838253779643
-0.0928017425341465 0.18002838253779643
-0.10849828367348138 0.3180864151665419
-0.18698098937015586 0.2720670709569601
-0.18698098937015586 0.3180864151665419
-0.20267753050949078 0.2720670709569601
-0.23407061278816058 0.2720670709569601
-0.2654636950668304 0.3180864151665419
-0.24976715392749546 0.22604772674737827
-0.23407061278816058 0.22604772674737827
-0.21837407164882566 0.3180864151665419
-0.17128444823082098 0.36410575937612377
-0.18698098937015586 0.36410575937612377
-0.20267753050949078 0.36410575937612377
-0.20267753050949078 0.4561444477952874
-0.23407061278816058 0.2720670709569601
-0.24976715392749546 0.22604772674737827
-0.23407061278816058 0.18002838253779643
-0.24976715392749546 0.18002838253779643
-0.2654636950668304 0.2720670709569601
-0.23407061278816058 0.3180864151665419
-0.24976715392749546 0.4101251035857056
-0.20267753050949078 0.4101251035857056
-0.21837407164882566 0.548183136214451
-0.23407061278816058 0.2720670709569601
-0.21837407164882566 0.36410575937612377
-0.21837407164882566 0.22604772674737827
-0.18698098937015586 0.18002838253779643
-0.24976715392749546 0.18002838253779643
-0.2654636950668304 0.3180864151665419
-0.28116023620616526 0.2720670709569601
-0.2654636950668304 0.4101251035857056
-0.23407061278816058 0.4561444477952874
-0.24976715392749546 0.4101251035857056
-0.18698098937015586 0.36410575937612377
-0.18698098937015586 0.4101251035857056
-0.18698098937015586 0.2720670709569601
-0.20267753050949078 0.36410575937612377
-0.20267753050949078 0.2720670709569601
-0.21837407164882566 0.3180864151665419
-0.23407061278816058 0.18002838253779643
-0.24976715392749546 0.18002838253779643
-0.29685677734550014 0.22604772674737827
-0.29685677734550014 0.2720670709569601
-0.2654636950668304 0.22604772674737827
-0.21837407164882566 0.3180864151665419
-0.24976715392749546 0.4561444477952874
-0.20267753050949078 0.4561444477952874
-0.21837407164882566 0.4101251035857056
-0.18698098937015586 0.36410575937612377
-0.21837407164882566 0.13400903832821462
-0.21837407164882566 0.13400903832821462
-0.23407061278816058 0.18002838253779643
-0.24976715392749546 0.22604772674737827
-0.2654636950668304 0.36410575937612377
-0.28116023620616526 0.3180864151665419
-0.2654636950668304 0.36410575937612377
-0.20267753050949078 0.4101251035857056
-0.20267753050949078 0.36410575937612377
-0.18698098937015586 0.3180864151665419
-0.20267753050949078 0.4101251035857056
-0.21837407164882566 0.3180864151665419
-0.17128444823082098 0.22604772674737827
-0.20267753050949078 0.22604772674737827
-0.17128444823082098 0.22604772674737827
-0.20267753050949078 0.3180864151665419
-0.1555879070914861 0.3180864151665419
-0.13989136595215118 0.2720670709569601
-0.0928017425341465 0.4101251035857056
-0.0300155779768069 0.4561444477952874
0.04846712771986759 0.6402218246336148
0.07986020999853738 0.7782798572623602
0.07986020999853738 0.7782798572623602
0.14264637455587698 0.824299201471942
0.14264637455587698 0.824299201471942
0.1583429156952119 0.7322605130527784
0.20543253911321657 0.5942024804240329
0.20543253911321657 0.4561444477952874
0.22112908025255146 0.36410575937612377
0.20543253911321657 0.18002838253779643
0.22112908025255146 0.2720670709569601
0.18973599797388166 0.08798969411863278
0.1269498334165421 0.08798969411863278
0.14264637455587698 0.08798969411863278
0.1269498334165421 -0.004048994300530871
0.11125329227720718 -0.004048994300530871
0.09555675113787228 0.04197034990905096
0.07986020999853738 0.13400903832821462
0.017074045441197793 0.13400903832821462
-0.014319036837472002 0.13400903832821462
-0.06140866025547669 0.2720670709569601
-0.0771052013948116 0.2720670709569601
-0.12419482481281628 0.36410575937612377
-0.13989136595215118 0.4101251035857056
-0.12419482481281628 0.4101251035857056
-0.1555879070914861 0.5021637920048693
-0.1555879070914861 0.36410575937612377
-0.17128444823082098 0.3180864151665419
-0.1555879070914861 0.36410575937612377
-0.17128444823082098 0.22604772674737827
-0.18698098937015586 0.13400903832821462
-0.13989136595215118 -0.004048994300530871
-0.12419482481281628 0.13400903832821462
-0.0300155779768069 0.22604772674737827
0.0641636688592025 0.36410575937612377
0.23682562139188637 0.4561444477952874
0.5507564441785843 0.6862411688431965
0.9902595960799615 0.9163378898911057
1.5867281593746876 1.1464346109390149
2.434341380898772 1.4225506761965059
3.4860096372342104 1.6066280530348331
4.6632502226843275 1.7907054298731604
5.7306150201591 1.376531331986924
6.342780124593162 0.5942024804240329
6.389869748011166 -0.3722037479771855
5.5893461499050865 -1.7527840742646403
3.7528508366029034 -2.99530636792335
1.7436935707680365 -4.00773194053415
-0.2654636950668304 -4.467925382629968
-2.2746209609016974 -4.191809317372477
-3.828578533695852 -3.6395771868574953
-3.4832546286304846 -2.627151614246695
-2.619944865967065 -1.9368614511029676
-1.6781523976069712 -1.1545325995400766
-0.940414964058231 -0.7403585016538401
-0.5323048944355236 -0.46424243639634916
-0.3753394830421746 -0.32618440376760366
-0.34394640076350486 -0.14210702692927635
-0.32824985962416997 -0.0500683385101127
-0.3125533184848351 0.3180864151665419
-0.28116023620616526 0.4101251035857056
-0.28116023620616526 0.4561444477952874
-0.2654636950668304 0.4561444477952874
-0.2654636950668304 0.5942024804240329
-0.28116023620616526 0.6862411688431965
-0.3125533184848351 0.6402218246336148
-0.35964294190283974 0.6402218246336148
-0.34394640076350486 0.5942024804240329
-0.3125533184848351 0.548183136214451
-0.32824985962416997 0.5942024804240329
-0.2654636950668304 0.6402218246336148
-0.23407061278816058 0.6862411688431965
-0.20267753050949078 0.8703185456815239
-0.1555879070914861 0.8703185456815239
-0.1555879070914861 0.8703185456815239
-0.12419482481281628 1.0543959225198511
-0.13989136595215118 0.7782798572623602
-0.1555879070914861 0.8703185456815239
-0.18698098937015586 0.6862411688431965
-0.1555879070914861 0.6402218246336148
-0.13989136595215118 0.7322605130527784
-0.13989136595215118 0.824299201471942
-0.13989136595215118 0.7782798572623602
-0.0457121191161418 1.0083765783102694
-0.014319036837472002 0.9623572341006875
0.04846712771986759 1.0083765783102694
0.04846712771986759 0.9163378898911057
0.0641636688592025 0.9163378898911057
0.07986020999853738 0.8703185456815239
0.03277058658053269 0.7782798572623602
0.03277058658053269 0.7782798572623602
0.04846712771986759 0.824299201471942
0.07986020999853738 0.8703185456815239
0.07986020999853738 0.9623572341006875
0.11125329227720718 0.8703185456815239
0.1583429156952119 0.8703185456815239
0.18973599797388166 0.9623572341006875
0.23682562139188637 0.9163378898911057
0.22112908025255146 1.0083765783102694
0.2525221625312213 0.9623572341006875
0.2525221625312213 1.0083765783102694
0.26821870367055617 0.8703185456815239
0.26821870367055617 0.7782798572623602
0.26821870367055617 0.6862411688431965
0.3153083270885609 0.7782798572623602
0.29961178594922594 0.7782798572623602
0.3153083270885609 0.9163378898911057
0.3780944916459004 1.0083765783102694
0.42518411506390513 1.0083765783102694
0.48797027962124473 1.100415266729433
0.5193633618999145 1.0083765783102694
0.5350599030392494 0.9163378898911057
0.5193633618999145 0.9163378898911057
0.5507564441785843 0.9163378898911057
0.5350599030392494 0.9623572341006875
0.5507564441785843 0.9623572341006875
0.5664529853179192 1.0083765783102694
0.6292391498752589 0.9623572341006875
0.6449356910145937 1.0543959225198511
0.6920253144325984 1.100415266729433
0.7077218555719333 1.1464346109390149
0.7391149378506031 1.2384732993581784
0.754811478989938 1.3305119877773421
0.7391149378506031 1.2384732993581784
0.7234183967112682 1.1464346109390149
0.7234183967112682 1.0543959225198511
0.754811478989938 0.9163378898911057
0.7862045612686078 0.8703185456815239
0.7391149378506031 1.100415266729433
0.754811478989938 1.0543959225198511
0.7705080201292729 1.2844926435677604
0.8019011024079427 1.3305119877773421
