-0.42305508751282567 0.897224462540388
-0.42305508751282567 0.8871792096558928
-0.3777068830788786 0.9072697154248833
-0.21445334711666938 0.9976769913853402
0.039496597713433924 1.1081747731147875
0.3932125922982207 1.278944072151206
0.7922767913169544 1.4597586240721199
1.2457588356564246 1.6405731759930335
1.7808676479769994 1.8314329807984426
2.3431853829579423 2.0122475327193565
2.914572758825675 2.203107337524765
3.44061193025946 2.3939671423301743
3.794327924844247 2.6149627057890688
3.993860024353614 2.8761392807859445
4.039208228787561 3.13731585578282
3.9213028972592987 3.3683566721262097
3.658283311542406 3.3181304077037335
3.1685227036557784 2.9464560509774107
2.4520210735994152 2.19306208464027
1.5269177031468961 1.1885367961907491
0.5746054100340088 0.013242208704809596
-0.14189622002235414 -1.0314640912826922
-0.6135175461354031 -1.7145412874283665
-0.767701441210823 -1.9254915980027658
-0.7042139550032972 -1.684405528774881
-0.5772389825882456 -1.1921881374346155
-0.4411943692864045 -0.6396992287873791
-0.35049796041851045 -0.24793436629206586
-0.3232890377581422 -0.036984055717666456
-0.3232890377581422 0.10364948466526648
-0.39584616485245744 0.18401150774122815
-0.42305508751282567 0.19405676062572338
-0.46840329194677266 0.24428302504819943
-0.5046818554939303 0.30455454235517065
-0.4865425737203515 0.38491656543113234
-0.4956122146071409 0.4552333356225988
-0.47747293283356207 0.5456406115830558
-0.47747293283356207 0.6159573817745222
-0.4502640101731939 0.6360478875435126
-0.4321247283996151 0.6762288990814934
-0.4502640101731939 0.6762288990814934
-0.4411943692864045 0.7264551635039695
-0.46840329194677266 0.7164099106194742
-0.5137514963807197 0.7264551635039695
-0.5228211372675091 0.7565909221574552
-0.5409604190410879 0.7565909221574552
-0.5681693417014562 0.7867266808109408
-0.586308623475035 0.7867266808109408
-0.6044479052486137 0.7766814279264456
-0.6044479052486137 0.7666361750419504
-0.6135175461354031 0.7867266808109408
-0.6135175461354031 0.7766814279264456
-0.6407264687957713 0.7565909221574552
-0.677005032342929 0.74654566927296
-0.7132835958900866 0.74654566927296
-0.7314228776636654 0.74654566927296
-0.767701441210823 0.706364657734979
-0.7858407229844018 0.7365004163884648
-0.8039800047579806 0.7264551635039695
-0.7858407229844018 0.7365004163884648
-0.7767710820976124 0.7264551635039695
-0.7767710820976124 0.7666361750419504
-0.7949103638711912 0.7666361750419504
-0.7949103638711912 0.7264551635039695
-0.7949103638711912 0.706364657734979
-0.81304964564477 0.6661836461969982
-0.8402585683051382 0.656138393312503
-0.858397850078717 0.6460931404280078
-0.8765371318522959 0.6159573817745222
-0.8946764136258747 0.5858216231210366
-0.9037460545126641 0.6159573817745222
-0.9128156953994535 0.5958668760055318
-0.9218853362862429 0.6159573817745222
-0.9128156953994535 0.6159573817745222
-0.9218853362862429 0.6260026346590174
-0.8946764136258747 0.605912128890027
-0.9037460545126641 0.5757763702365414
-0.9037460545126641 0.555685864467551
-0.9218853362862429 0.555685864467551
-0.949094258946611 0.555685864467551
-0.9672335407201899 0.5255501058140652
-1.0035121042673476 0.5255501058140652
-1.0579299495880838 0.51550485292957
-1.0488603087012944 0.5355953586985605
-1.0488603087012944 0.51550485292957
-1.039790667814505 0.5456406115830558
-1.0488603087012944 0.5657311173520462
-1.039790667814505 0.5355953586985605
-1.0216513860409262 0.51550485292957
-1.0216513860409262 0.4954143471605797
-1.039790667814505 0.465278588507094
-1.0307210269277156 0.47532384139158923
-1.0307210269277156 0.4351428298536084
-1.0579299495880838 0.4351428298536084
-1.0488603087012944 0.4351428298536084
-1.085138872248452 0.415052324084618
-1.0760692313616627 0.4250975769691132
-1.0669995904748732 0.4050070712001228
-1.0669995904748732 0.39496181831562754
-1.0579299495880838 0.36482605966214193
-1.0760692313616627 0.3447355538931515
-1.1032781540220309 0.3246450481241611
-1.1304870766823991 0.29450928947067545
-1.193974562889925 0.27441878370168504
-1.2030442037767144 0.2141472663947138
-1.239322767323872 0.19405676062572338
-1.2756013308710297 0.17396625485673295
-1.284670971757819 0.16392100197223775
-1.3209495353049767 0.1337852433187521
-1.3300191761917661 0.09360423178077128
-1.3572280988521344 0.06346847312728565
-1.375367380625713 0.013242208704809596
-1.4116459441728706 -0.05707456148665687
-1.4297852259464494 -0.10730082590913292
-1.4569941486068176 -0.14748183744711377
-1.4751334303803965 -0.21779860763858022
-1.4932727121539753 -0.24793436629206586
-1.529551275701133 -0.2780701249455515
-1.511411993927554 -0.2780701249455515
-1.4932727121539753 -0.2780701249455515
-1.4751334303803965 -0.2881153778300467
-1.4297852259464494 -0.3082058835990371
-1.3935066623992918 -0.2780701249455515
-1.3209495353049767 -0.24793436629206586
-1.2937406126446085 -0.21779860763858022
-1.239322767323872 -0.19770810186958981
-1.193974562889925 -0.1876628489850946
-1.1395567175691885 -0.15752709033160897
-1.0942085131352415 -0.0972555730246377
-1.0669995904748732 -0.04702930860216166
-1.0035121042673476 0.0031969558203143868
-0.9309549771730323 0.06346847312728565
-0.8856067727390853 0.1337852433187521
-0.81304964564477 0.2041020135102186
-0.767701441210823 0.25432827793269464
-0.722353236776876 0.29450928947067545
-0.6951443141165078 0.29450928947067545
-0.677005032342929 0.3246450481241611
-0.6497961096825607 0.3447355538931515
-0.6407264687957713 0.3346903010086563
-0.6044479052486137 0.36482605966214193
-0.586308623475035 0.39496181831562754
-0.5681693417014562 0.4351428298536084
-0.5681693417014562 0.4451880827381036
-0.5590997008146668 0.4552333356225988
-0.5590997008146668 0.5054596000450748
-0.5500300599278773 0.5054596000450748
-0.5318907781542985 0.51550485292957
-0.5318907781542985 0.5054596000450748
-0.5228211372675091 0.5255501058140652
-0.5228211372675091 0.5054596000450748
-0.5137514963807197 0.47532384139158923
-0.5409604190410879 0.4451880827381036
-0.5228211372675091 0.4351428298536084
-0.5137514963807197 0.4451880827381036
-0.4956122146071409 0.4552333356225988
-0.47747293283356207 0.48536909427608443
-0.4411943692864045 0.5054596000450748
-0.42305508751282567 0.5657311173520462
-0.3777068830788786 0.5858216231210366
-0.35049796041851045 0.5757763702365414
-0.35049796041851045 0.6260026346590174
-0.34142831953172104 0.6159573817745222
-0.34142831953172104 0.605912128890027
-0.36863724219208927 0.5958668760055318
-0.35049796041851045 0.5757763702365414
-0.35049796041851045 0.6360478875435126
-0.34142831953172104 0.6460931404280078
-0.3232890377581422 0.6460931404280078
-0.3051497559845634 0.6661836461969982
-0.2779408333241952 0.706364657734979
-0.2688711924374058 0.7565909221574552
-0.2688711924374058 0.7164099106194742
-0.28701047421098463 0.7365004163884648
-0.296080115097774 0.706364657734979
-0.3051497559845634 0.6862741519659886
-0.3232890377581422 0.6963194048504838
-0.35049796041851045 0.6762288990814934
-0.36863724219208927 0.6661836461969982
-0.35956760130529986 0.706364657734979
-0.3777068830788786 0.7164099106194742
-0.35049796041851045 0.7164099106194742
-0.35049796041851045 0.7365004163884648
-0.34142831953172104 0.7365004163884648
-0.35956760130529986 0.7164099106194742
-0.3777068830788786 0.6862741519659886
-0.36863724219208927 0.656138393312503
-0.36863724219208927 0.6360478875435126
-0.3777068830788786 0.656138393312503
-0.36863724219208927 0.6260026346590174
-0.38677652396566803 0.6460931404280078
-0.39584616485245744 0.6762288990814934
-0.36863724219208927 0.6862741519659886
-0.36863724219208927 0.706364657734979
-0.36863724219208927 0.6963194048504838
-0.36863724219208927 0.6862741519659886
-0.40491580573924685 0.6661836461969982
-0.39584616485245744 0.6460931404280078
-0.40491580573924685 0.6260026346590174
-0.42305508751282567 0.6159573817745222
-0.4411943692864045 0.5858216231210366
-0.4321247283996151 0.5958668760055318
-0.41398544662603626 0.5858216231210366
-0.41398544662603626 0.5958668760055318
-0.40491580573924685 0.5858216231210366
-0.41398544662603626 0.5858216231210366
-0.41398544662603626 0.5858216231210366
-0.41398544662603626 0.5657311173520462
-0.4321247283996151 0.5456406115830558
-0.4411943692864045 0.48536909427608443
-0.4502640101731939 0.48536909427608443
-0.4593336510599833 0.4351428298536084
-0.4411943692864045 0.4351428298536084
-0.4411943692864045 0.415052324084618
-0.42305508751282567 0.4351428298536084
-0.40491580573924685 0.4351428298536084
-0.4321247283996151 0.4351428298536084
-0.41398544662603626 0.4351428298536084
-0.42305508751282567 0.4451880827381036
-0.41398544662603626 0.4552333356225988
-0.38677652396566803 0.4451880827381036
-0.3777068830788786 0.465278588507094
-0.3777068830788786 0.4451880827381036
-0.3777068830788786 0.4451880827381036
-0.40491580573924685 0.4552333356225988
-0.40491580573924685 0.4552333356225988
-0.39584616485245744 0.5054596000450748
-0.40491580573924685 0.5255501058140652
-0.38677652396566803 0.555685864467551
-0.41398544662603626 0.5657311173520462
-0.36863724219208927 0.5456406115830558
-0.36863724219208927 0.555685864467551
-0.35956760130529986 0.555685864467551
-0.34142831953172104 0.5657311173520462
-0.36863724219208927 0.5255501058140652
-0.36863724219208927 0.5355953586985605
-0.35049796041851045 0.5255501058140652
-0.35956760130529986 0.5054596000450748
-0.3777068830788786 0.5054596000450748
-0.34142831953172104 0.5255501058140652
-0.34142831953172104 0.555685864467551
-0.3323586786449316 0.5355953586985605
-0.3323586786449316 0.5456406115830558
-0.35049796041851045 0.5456406115830558
-0.35049796041851045 0.5456406115830558
-0.35956760130529986 0.5255501058140652
-0.40491580573924685 0.4954143471605797
-0.4321247283996151 0.48536909427608443
-0.4593336510599833 0.465278588507094
-0.46840329194677266 0.4451880827381036
-0.47747293283356207 0.4552333356225988
-0.46840329194677266 0.4552333356225988
-0.4502640101731939 0.4451880827381036
-0.4502640101731939 0.47532384139158923
-0.4411943692864045 0.47532384139158923
-0.41398544662603626 0.465278588507094
-0.42305508751282567 0.4552333356225988
-0.4502640101731939 0.4451880827381036
-0.4502640101731939 0.4250975769691132
-0.4865425737203515 0.415052324084618
-0.5046818554939303 0.38491656543113234
-0.5046818554939303 0.39496181831562754
-0.4956122146071409 0.415052324084618
-0.4956122146071409 0.415052324084618
-0.4956122146071409 0.4250975769691132
-0.4865425737203515 0.4250975769691132
-0.5137514963807197 0.4451880827381036
-0.4956122146071409 0.4552333356225988
-0.5228211372675091 0.4351428298536084
-0.5318907781542985 0.4351428298536084
-0.5137514963807197 0.4552333356225988
-0.40491580573924685 0.51550485292957
-0.18724442445630116 0.6260026346590174
0.13019300658132796 0.8269076923489216
0.5746054100340088 1.0579485086923115
1.0734356588074259 1.2588535663822156
1.6720319573355267 1.4798491298411103
2.334115742071153 1.6807541875310144
2.9327120405992537 1.8414782336829378
3.4950297755801967 2.0725190500263277
3.885024333712141 2.323650372138708
4.066417151447929 2.6149627057890688
4.120834996768665 2.90627503943943
3.9847903834668243 3.127270602898325
3.7399100795235105 3.1172253500138294
3.277358394297251 2.765641499056497
2.597135327788046 2.0122475327193565
1.699240879995895 0.9675412327318546
0.7469285868830075 -0.24793436629206586
-0.0239908884940919 -1.3930931951245198
-0.5228211372675091 -2.1967134258841368
-0.6951443141165078 -2.498071012418993
-0.7042139550032972 -2.327301713382574
-0.5953782643618243 -1.8451295749268042
-0.5046818554939303 -1.302685919164063
-0.4321247283996151 -0.8807852980152641
-0.4321247283996151 -0.589472964364903
-0.46840329194677266 -0.3885679066749988
-0.5228211372675091 -0.2680248720610563
-0.5590997008146668 -0.20775335475408502
-0.5772389825882456 -0.10730082590913292
-0.6044479052486137 -0.04702930860216166
-0.586308623475035 0.053423220242790434
-0.5953782643618243 0.10364948466526648
-0.586308623475035 0.14383049620324734
-0.5772389825882456 0.19405676062572338
-0.5953782643618243 0.224192519279209
-0.5953782643618243 0.2342377721637042
-0.6316568279089819 0.2342377721637042
-0.6588657505693502 0.2141472663947138
-0.6588657505693502 0.25432827793269464
-0.677005032342929 0.27441878370168504
-0.6951443141165078 0.26437353081718984
-0.6679353914561396 0.29450928947067545
-0.6860746732297184 0.3246450481241611
-0.6860746732297184 0.3246450481241611
-0.6860746732297184 0.3145997952396659
-0.7132835958900866 0.28446403658618025
-0.7495621594372442 0.24428302504819943
-0.7949103638711912 0.224192519279209
-0.8039800047579806 0.19405676062572338
-0.8402585683051382 0.19405676062572338
-0.858397850078717 0.19405676062572338
-0.858397850078717 0.224192519279209
-0.8493282091919276 0.224192519279209
-0.858397850078717 0.224192519279209
-0.858397850078717 0.2342377721637042
-0.858397850078717 0.2342377721637042
-0.8674674909655065 0.224192519279209
-0.9037460545126641 0.2141472663947138
-0.9581638998334004 0.19405676062572338
-0.9672335407201899 0.17396625485673295
-0.9672335407201899 0.17396625485673295
-1.0035121042673476 0.18401150774122815
-1.012581745154137 0.18401150774122815
-1.0216513860409262 0.17396625485673295
-1.039790667814505 0.18401150774122815
-1.0216513860409262 0.17396625485673295
-1.0307210269277156 0.19405676062572338
-1.039790667814505 0.18401150774122815
-1.0579299495880838 0.15387574908774254
-1.0760692313616627 0.15387574908774254
-1.0579299495880838 0.1136947375497617
-1.085138872248452 0.1136947375497617
-1.085138872248452 0.1136947375497617
-1.1304870766823991 0.09360423178077128
-1.1304870766823991 0.10364948466526648
-1.085138872248452 0.09360423178077128
-1.1032781540220309 0.14383049620324734
-1.1032781540220309 0.14383049620324734
-1.1123477949088203 0.14383049620324734
-1.0760692313616627 0.17396625485673295
-1.0669995904748732 0.16392100197223775
-1.0760692313616627 0.15387574908774254
-1.0760692313616627 0.1337852433187521
-1.1304870766823991 0.1136947375497617
-1.1395567175691885 0.08355897889627606
-1.1758352811163462 0.06346847312728565
-1.1849049220031356 0.06346847312728565
-1.2302531264370826 0.053423220242790434
-1.2483924082106614 0.04337796735829522
-1.2665316899842403 0.04337796735829522
-1.284670971757819 0.03333271447380002
-1.2937406126446085 0.0031969558203143868
-1.3118798944181873 -0.05707456148665687
-1.3390888170785555 -0.0771650672556473
-1.375367380625713 -0.11734607879362813
-1.3935066623992918 -0.16757234321610417
-1.4116459441728706 -0.19770810186958981
-1.4479245077200282 -0.24793436629206586
-1.4842030712671859 -0.2680248720610563
-1.511411993927554 -0.3082058835990371
-1.5204816348143435 -0.3282963893680275
-1.5476905574747117 -0.3684774009060084
-1.5476905574747117 -0.3785226537905036
-1.5658298392482906 -0.4187036653284844
-1.57489948013508 -0.4990656884044461
-1.6021084027954482 -0.5191561941734365
-1.6293173254558164 -0.5693824585959125
-1.6474566072293952 -0.6296539759028839
-1.6837351707765529 -0.6698349874408647
-1.6928048116633423 -0.7200612518633407
-1.7109440934369209 -0.7200612518633407
-1.6746655298897635 -0.7301065047478359
-1.6746655298897635 -0.7501970105168263
-1.6383869663426058 -0.7200612518633407
-1.5930387619086588 -0.6999707460943503
-1.5386209165879223 -0.6899254932098551
-1.4751334303803965 -0.6798802403253599
-1.4479245077200282 -0.6698349874408647
-1.3844370215125024 -0.6597897345563695
-1.348158457965345 -0.6497444816718743
-1.284670971757819 -0.6196087230183887
-1.239322767323872 -0.5995182172493982
-1.2121138446635038 -0.5392466999424269
-1.1576959993427673 -0.4789751826354557
-1.0942085131352415 -0.4287489182129796
-1.0669995904748732 -0.348386895137018
-1.0307210269277156 -0.3383416422525227
-0.9672335407201899 -0.2981606307145419
-0.9400246180598216 -0.24793436629206586
-0.8946764136258747 -0.2579796191765611
-0.8493282091919276 -0.23788911340757066
-0.8402585683051382 -0.23788911340757066
-0.8221192865315594 -0.22784386052307545
-0.81304964564477 -0.20775335475408502
-0.7858407229844018 -0.15752709033160897
-0.7495621594372442 -0.16757234321610417
-0.7404925185504548 -0.12739133167812333
-0.7132835958900866 -0.0872103201401425
-0.6860746732297184 -0.04702930860216166
-0.6588657505693502 -0.016893549948676034
-0.6316568279089819 -0.036984055717666456
-0.6497961096825607 -0.016893549948676034
-0.6407264687957713 -0.036984055717666456
-0.6588657505693502 -0.06711981437115208
-0.6588657505693502 -0.06711981437115208
-0.6951443141165078 -0.0872103201401425
-0.6679353914561396 -0.0771650672556473
-0.6951443141165078 -0.0771650672556473
-0.677005032342929 -0.04702930860216166
-0.6588657505693502 -0.04702930860216166
-0.6497961096825607 -0.036984055717666456
-0.6316568279089819 -0.02693880283317124
-0.6316568279089819 -0.04702930860216166
-0.6407264687957713 -0.05707456148665687
-0.6497961096825607 -0.06711981437115208
-0.6225871870221925 -0.0771650672556473
-0.6588657505693502 -0.0872103201401425
-0.6135175461354031 -0.0872103201401425
-0.6135175461354031 -0.06711981437115208
-0.6044479052486137 -0.06711981437115208
-0.5953782643618243 -0.05707456148665687
-0.586308623475035 -0.016893549948676034
-0.5681693417014562 0.0031969558203143868
-0.5590997008146668 0.0031969558203143868
-0.5590997008146668 0.0031969558203143868
-0.5590997008146668 -0.016893549948676034
-0.5953782643618243 -0.02693880283317124
-0.5953782643618243 -0.04702930860216166
-0.6044479052486137 -0.0771650672556473
-0.6135175461354031 -0.0872103201401425
-0.6407264687957713 -0.0771650672556473
-0.6407264687957713 -0.0872103201401425
-0.6316568279089819 -0.04702930860216166
-0.6135175461354031 -0.036984055717666456
-0.6135175461354031 -0.02693880283317124
-0.6135175461354031 -0.02693880283317124
-0.6225871870221925 -0.02693880283317124
-0.6497961096825607 -0.02693880283317124
-0.677005032342929 -0.036984055717666456
-0.7042139550032972 -0.06711981437115208
-0.7404925185504548 -0.06711981437115208
-0.7586318003240337 -0.10730082590913292
-0.7858407229844018 -0.10730082590913292
-0.7949103638711912 -0.11734607879362813
-0.7949103638711912 -0.11734607879362813
-0.7858407229844018 -0.0872103201401425
-0.767701441210823 -0.10730082590913292
-0.7404925185504548 -0.0972555730246377
-0.7132835958900866 -0.11734607879362813
-0.7132835958900866 -0.11734607879362813
-0.722353236776876 -0.15752709033160897
-0.7132835958900866 -0.16757234321610417
-0.7314228776636654 -0.19770810186958981
-0.7132835958900866 -0.1876628489850946
-0.6860746732297184 -0.17761759610059938
-0.6860746732297184 -0.16757234321610417
-0.6679353914561396 -0.13743658456261856
-0.677005032342929 -0.12739133167812333
-0.6225871870221925 -0.10730082590913292
-0.6044479052486137 -0.06711981437115208
-0.6135175461354031 -0.0771650672556473
-0.5953782643618243 -0.0771650672556473
-0.6135175461354031 -0.11734607879362813
-0.6135175461354031 -0.10730082590913292
-0.6316568279089819 -0.14748183744711377
-0.6679353914561396 -0.12739133167812333
-0.677005032342929 -0.16757234321610417
-0.677005032342929 -0.17761759610059938
-0.6588657505693502 -0.14748183744711377
-0.6679353914561396 -0.13743658456261856
-0.6588657505693502 -0.12739133167812333
-0.677005032342929 -0.12739133167812333
-0.6679353914561396 -0.11734607879362813
-0.6679353914561396 -0.12739133167812333
-0.677005032342929 -0.14748183744711377
-0.6951443141165078 -0.14748183744711377
-0.6951443141165078 -0.16757234321610417
-0.6951443141165078 -0.15752709033160897
-0.677005032342929 -0.13743658456261856
-0.6407264687957713 -0.14748183744711377
-0.6135175461354031 -0.13743658456261856
-0.6044479052486137 -0.13743658456261856
-0.5772389825882456 -0.12739133167812333
-0.5500300599278773 -0.11734607879362813
-0.5500300599278773 -0.12739133167812333
-0.5500300599278773 -0.12739133167812333
-0.5318907781542985 -0.14748183744711377
-0.5681693417014562 -0.15752709033160897
-0.5590997008146668 -0.1876628489850946
-0.5681693417014562 -0.1876628489850946
-0.5953782643618243 -0.1876628489850946
-0.5953782643618243 -0.19770810186958981
-0.5953782643618243 -0.21779860763858022
-0.6316568279089819 -0.22784386052307545
-0.5953782643618243 -0.23788911340757066
-0.6044479052486137 -0.24793436629206586
-0.6044479052486137 -0.2579796191765611
-0.6497961096825607 -0.2680248720610563
-0.677005032342929 -0.3182511364835323
-0.6951443141165078 -0.3383416422525227
-0.7132835958900866 -0.3584321480215132
-0.7314228776636654 -0.3885679066749988
-0.7495621594372442 -0.4086584124439892
-0.7586318003240337 -0.4287489182129796
-0.7586318003240337 -0.4086584124439892
-0.7495621594372442 -0.4187036653284844
-0.6951443141165078 -0.398613159559494
-0.6679353914561396 -0.398613159559494
-0.6679353914561396 -0.3885679066749988
-0.6679353914561396 -0.3885679066749988
-0.6951443141165078 -0.4086584124439892
-0.6951443141165078 -0.4287489182129796
-0.7042139550032972 -0.43879417109747487
-0.7132835958900866 -0.4287489182129796
-0.722353236776876 -0.4187036653284844
-0.7132835958900866 -0.3885679066749988
-0.7132835958900866 -0.3684774009060084
-0.6951443141165078 -0.3282963893680275
-0.7132835958900866 -0.3282963893680275
-0.7042139550032972 -0.3282963893680275
-0.6951443141165078 -0.3383416422525227
-0.7132835958900866 -0.3684774009060084
-0.7132835958900866 -0.3584321480215132
-0.722353236776876 -0.3785226537905036
-0.722353236776876 -0.398613159559494
-0.7404925185504548 -0.398613159559494
-0.7314228776636654 -0.4187036653284844
-0.7495621594372442 -0.398613159559494
-0.7586318003240337 -0.3684774009060084
-0.7586318003240337 -0.3785226537905036
-0.7404925185504548 -0.3383416422525227
-0.7314228776636654 -0.348386895137018
-0.722353236776876 -0.398613159559494
-0.7314228776636654 -0.398613159559494
-0.7132835958900866 -0.398613159559494
-0.7314228776636654 -0.3885679066749988
-0.7404925185504548 -0.4187036653284844
-0.767701441210823 -0.43879417109747487
-0.767701441210823 -0.4187036653284844
-0.7404925185504548 -0.4287489182129796
-0.7314228776636654 -0.3785226537905036
-0.722353236776876 -0.398613159559494
-0.7042139550032972 -0.398613159559494
-0.6860746732297184 -0.3785226537905036
-0.6679353914561396 -0.398613159559494
-0.677005032342929 -0.3785226537905036
-0.6588657505693502 -0.398613159559494
-0.6679353914561396 -0.4086584124439892
-0.677005032342929 -0.4287489182129796
-0.677005032342929 -0.4187036653284844
-0.6497961096825607 -0.4086584124439892
-0.677005032342929 -0.4287489182129796
-0.6316568279089819 -0.4086584124439892
-0.6225871870221925 -0.4086584124439892
-0.6316568279089819 -0.4086584124439892
-0.6316568279089819 -0.398613159559494
-0.6316568279089819 -0.4187036653284844
-0.6407264687957713 -0.43879417109747487
-0.6860746732297184 -0.4588846768664653
-0.7132835958900866 -0.4990656884044461
-0.7586318003240337 -0.5191561941734365
-0.7767710820976124 -0.5593372057114173
-0.7949103638711912 -0.5794277114804078
-0.8039800047579806 -0.589472964364903
-0.8039800047579806 -0.5693824585959125
-0.7858407229844018 -0.5995182172493982
-0.7586318003240337 -0.5693824585959125
-0.7404925185504548 -0.5693824585959125
-0.7132835958900866 -0.589472964364903
-0.6951443141165078 -0.5995182172493982
-0.6679353914561396 -0.6296539759028839
-0.6588657505693502 -0.6095634701338934
-0.6679353914561396 -0.6396992287873791
-0.6316568279089819 -0.6095634701338934
-0.6316568279089819 -0.5995182172493982
-0.6407264687957713 -0.5794277114804078
-0.6316568279089819 -0.5392466999424269
-0.6225871870221925 -0.5191561941734365
-0.6225871870221925 -0.4890204355199509
-0.6316568279089819 -0.4689299297509605
-0.6407264687957713 -0.4890204355199509
-0.6951443141165078 -0.4689299297509605
-0.6951443141165078 -0.4689299297509605
-0.6316568279089819 -0.4488394239819701
-0.47747293283356207 -0.3584321480215132
-0.19631406534309057 -0.1876628489850946
0.1936804927888538 0.023287461589304805
0.6834411006754816 0.28446403658618025
1.2457588356564246 0.5054596000450748
1.8806336977316829 0.7264551635039695
2.53364784158052 0.9374054740783689
3.1503834218821996 1.128265278883778
3.658283311542406 1.329170336573682
3.975720742580035 1.5501659000325767
4.148043919429034 1.8314329807984426
4.157113560315823 2.0725190500263277
4.002929665240403 2.243288349062746
3.7127011568631425 2.1528810731022894
3.186661985429357 1.7611162106069762
2.3794639465051 0.987631738500845
1.3727338080714764 0.0031969558203143868
0.36600366963785247 -1.0515545970516826
-0.38677652396566803 -1.9958083681942325
-0.81304964564477 -2.598523541263945
-0.9672335407201899 -2.8094738518383444
-0.9581638998334004 -2.6085687941484403
-0.8856067727390853 -2.216803931653127
-0.7586318003240337 -1.784858057619833
-0.7132835958900866 -1.4935457239694718
-0.7132835958900866 -1.3328216778175486
-0.7495621594372442 -1.172097631665625
-0.7949103638711912 -1.1017808614741587
-0.8039800047579806 -1.0314640912826922
-0.8311889274183488 -0.9611473210912258
-0.8311889274183488 -0.9008758037842545
-0.8221192865315594 -0.8406042864772832
-0.7949103638711912 -0.8104685278237976
-0.7949103638711912 -0.7602422634013216
-0.7949103638711912 -0.780332769170312
-0.8221192865315594 -0.780332769170312
-0.858397850078717 -0.7903780220548072
-0.9128156953994535 -0.780332769170312
-0.9581638998334004 -0.780332769170312
-0.9853728224937687 -0.7702875162858168
-0.9853728224937687 -0.7702875162858168
-0.9944424633805581 -0.780332769170312
-1.012581745154137 -0.7501970105168263
-1.0216513860409262 -0.7501970105168263
-0.9944424633805581 -0.7702875162858168
-1.0307210269277156 -0.780332769170312
-0.9944424633805581 -0.7903780220548072
-1.039790667814505 -0.8104685278237976
-1.039790667814505 -0.8104685278237976
-1.0488603087012944 -0.830559033592788
-1.039790667814505 -0.8104685278237976
-1.0488603087012944 -0.7903780220548072
-1.039790667814505 -0.7702875162858168
-1.0216513860409262 -0.7702875162858168
-1.0307210269277156 -0.7401517576323311
-1.012581745154137 -0.7200612518633407
-1.0669995904748732 -0.7200612518633407
-1.085138872248452 -0.7301065047478359
-1.0760692313616627 -0.7501970105168263
-1.0942085131352415 -0.7702875162858168
-1.1032781540220309 -0.7602422634013216
-1.1214174357956097 -0.7602422634013216
-1.1214174357956097 -0.7501970105168263
-1.1214174357956097 -0.7401517576323311
-1.1123477949088203 -0.7501970105168263
-1.1032781540220309 -0.7100159989788455
-1.0942085131352415 -0.7301065047478359
-1.085138872248452 -0.6999707460943503
-1.0942085131352415 -0.7200612518633407
-1.1032781540220309 -0.7200612518633407
-1.1304870766823991 -0.7602422634013216
-1.1758352811163462 -0.780332769170312
-1.1849049220031356 -0.780332769170312
-1.2030442037767144 -0.8104685278237976
-1.239322767323872 -0.830559033592788
-1.2302531264370826 -0.830559033592788
-1.2574620490974509 -0.8104685278237976
-1.2574620490974509 -0.8205137807082928
-1.2574620490974509 -0.7903780220548072
-1.2483924082106614 -0.8205137807082928
-1.239322767323872 -0.8506495393617785
-1.2756013308710297 -0.8606947922462737
-1.302810253531398 -0.9008758037842545
-1.3209495353049767 -0.9109210566687497
-1.3572280988521344 -0.9209663095532449
-1.3935066623992918 -0.9511020682067306
-1.4025763032860812 -0.9511020682067306
-1.42071558505966 -0.9511020682067306
-1.4297852259464494 -0.9611473210912258
-1.4751334303803965 -0.971192573975721
-1.4932727121539753 -1.0013283326292066
-1.511411993927554 -1.0515545970516826
-1.529551275701133 -1.1017808614741587
-1.5658298392482906 -1.1419618730121395
-1.620247684569027 -1.1921881374346155
-1.665595889002974 -1.2323691489725965
-1.7200137343237103 -1.3127311720485582
-1.7744315796444468 -1.352912183586539
-1.7925708614180256 -1.403138448009015
-1.8107101431916044 -1.4332742066625006
-1.8379190658519726 -1.4634099653159862
-1.8288494249651832 -1.4734552182004814
-1.8379190658519726 -1.5236814826229574
-1.8107101431916044 -1.5638624941609383
-1.8379190658519726 -1.6241340114679097
-1.8197797840783938 -1.6442245172369
-1.846988706738762 -1.6743602758903857
-1.846988706738762 -1.7145412874283665
-1.8560583476255514 -1.7446770460818521
-1.8832672702859197 -1.784858057619833
-1.892336911172709 -1.784858057619833
-1.8560583476255514 -1.7748128047353378
-1.846988706738762 -1.7748128047353378
-1.801640502304815 -1.784858057619833
-1.756292297870868 -1.7547222989663473
-1.7109440934369209 -1.7044960345438713
-1.6474566072293952 -1.7145412874283665
-1.5658298392482906 -1.6542697701213953
-1.5204816348143435 -1.634179264352405
-1.4569941486068176 -1.593998252814424
-1.3935066623992918 -1.5437719883919478
-1.348158457965345 -1.503590976853967
-1.284670971757819 -1.453364712431491
-1.2302531264370826 -1.3930931951245198
-1.1667656402295568 -1.3328216778175486
-1.0942085131352415 -1.2825954133950725
-1.0307210269277156 -1.222323896088101
-0.9853728224937687 -1.172097631665625
-0.949094258946611 -1.1319166201276443
-0.9037460545126641 -1.1017808614741587
-0.8856067727390853 -1.0816903557051682
-0.8765371318522959 -1.0816903557051682
-0.8493282091919276 -1.071645102820673
-0.81304964564477 -1.0415093441671874
-0.7949103638711912 -1.0314640912826922
-0.7858407229844018 -1.0113735855137018
-0.7404925185504548 -0.9611473210912258
-0.7314228776636654 -0.9310115624377401
-0.7042139550032972 -0.9209663095532449
-0.677005032342929 -0.9209663095532449
-0.6588657505693502 -0.9209663095532449
-0.677005032342929 -0.9511020682067306
-0.6860746732297184 -0.9410568153222353
-0.6860746732297184 -0.9611473210912258
-0.7042139550032972 -0.971192573975721
-0.7042139550032972 -0.9812378268602162
-0.7132835958900866 -0.9912830797447114
-0.7132835958900866 -0.9611473210912258
-0.7132835958900866 -0.9310115624377401
-0.6951443141165078 -0.9511020682067306
-0.6679353914561396 -0.9109210566687497
-0.6497961096825607 -0.9008758037842545
-0.6679353914561396 -0.9209663095532449
-0.6588657505693502 -0.9310115624377401
-0.6951443141165078 -0.9410568153222353
-0.6860746732297184 -0.9812378268602162
-0.722353236776876 -1.0013283326292066
-0.7042139550032972 -1.0113735855137018
-0.722353236776876 -1.0013283326292066
-0.6860746732297184 -0.9812378268602162
-0.6497961096825607 -0.9611473210912258
-0.6044479052486137 -0.9410568153222353
-0.5681693417014562 -0.9109210566687497
-0.5409604190410879 -0.9008758037842545
-0.5318907781542985 -0.8807852980152641
-0.5046818554939303 -0.8606947922462737
-0.46840329194677266 -0.8406042864772832
-0.4956122146071409 -0.8205137807082928
-0.5137514963807197 -0.8506495393617785
-0.5318907781542985 -0.830559033592788
-0.5590997008146668 -0.8406042864772832
-0.5772389825882456 -0.8205137807082928
-0.586308623475035 -0.8104685278237976
-0.5681693417014562 -0.7702875162858168
-0.6225871870221925 -0.7200612518633407
-0.586308623475035 -0.6899254932098551
-0.5681693417014562 -0.7100159989788455
-0.6044479052486137 -0.6899254932098551
-0.5953782643618243 -0.7100159989788455
-0.5953782643618243 -0.7401517576323311
-0.6044479052486137 -0.7301065047478359
-0.6135175461354031 -0.7702875162858168
-0.6407264687957713 -0.7401517576323311
-0.6497961096825607 -0.7501970105168263
-0.6316568279089819 -0.7301065047478359
-0.6044479052486137 -0.7301065047478359
-0.586308623475035 -0.7200612518633407
-0.586308623475035 -0.7100159989788455
-0.586308623475035 -0.7501970105168263
-0.6044479052486137 -0.7501970105168263
-0.6135175461354031 -0.7702875162858168
-0.6407264687957713 -0.7702875162858168
-0.6497961096825607 -0.8104685278237976
-0.6860746732297184 -0.8004232749393024
-0.6860746732297184 -0.830559033592788
-0.6860746732297184 -0.7903780220548072
-0.6951443141165078 -0.8104685278237976
-0.677005032342929 -0.7702875162858168
-0.677005032342929 -0.8004232749393024
-0.6316568279089819 -0.7903780220548072
-0.6407264687957713 -0.8004232749393024
-0.6407264687957713 -0.7903780220548072
-0.6225871870221925 -0.8104685278237976
-0.6316568279089819 -0.8606947922462737
-0.6588657505693502 -0.8807852980152641
-0.6679353914561396 -0.9209663095532449
-0.6497961096825607 -0.8807852980152641
-0.6497961096825607 -0.9008758037842545
-0.6407264687957713 -0.8807852980152641
-0.6225871870221925 -0.8707400451307689
-0.6135175461354031 -0.8606947922462737
-0.6225871870221925 -0.8506495393617785
-0.6497961096825607 -0.8908305508997593
-0.6951443141165078 -0.9008758037842545
-0.7404925185504548 -0.9511020682067306
-0.767701441210823 -0.9611473210912258
-0.7132835958900866 -0.9410568153222353
-0.5500300599278773 -0.9008758037842545
-0.3142193968713528 -0.7602422634013216
0.03042695682664452 -0.5292014470579317
0.4839090011661147 -0.2981606307145419
0.9827392499395319 -0.04702930860216166
1.5541266258072644 0.15387574908774254
2.1617925652221546 0.35478080677764673
2.787597786410623 0.51550485292957
3.3771244440519346 0.6762288990814934
3.8215368475046154 0.8168624394644264
4.120834996768665 1.0579485086923115
4.21153140563656 1.3191250836891868
4.157113560315823 1.5401206471480815
3.9485118199196667 1.6405731759930335
3.540377980014144 1.4497133711876247
2.887363836165307 0.9273602211938737
1.9985390292599452 0.10364948466526648
1.0099481725999002 -0.8707400451307689
0.11205372480774915 -1.885310586464785
-0.5046818554939303 -2.698976070108897
-0.81304964564477 -3.181148208564667
-0.8765371318522959 -3.2012387143336576
-0.7949103638711912 -2.8998811277988015
-0.6679353914561396 -2.4277542422275262
-0.5590997008146668 -2.025944126847718
-0.5318907781542985 -1.6944507816593761
-0.5409604190410879 -1.4935457239694718
-0.5681693417014562 -1.3730026893555294
-0.5953782643618243 -1.302685919164063
-0.6316568279089819 -1.222323896088101
-0.6407264687957713 -1.1821428845501203
-0.6225871870221925 -1.121871367243149
-0.6407264687957713 -1.071645102820673
-0.6588657505693502 -1.0314640912826922
-0.677005032342929 -1.0314640912826922
-0.7042139550032972 -1.0013283326292066
-0.7404925185504548 -1.0113735855137018
-0.7495621594372442 -0.9912830797447114
-0.7495621594372442 -0.9812378268602162
-0.7767710820976124 -0.9511020682067306
-0.7586318003240337 -0.9209663095532449
-0.7495621594372442 -0.9209663095532449
-0.7767710820976124 -0.8807852980152641
-0.7949103638711912 -0.8707400451307689
-0.7949103638711912 -0.8908305508997593
-0.7949103638711912 -0.9008758037842545
-0.8221192865315594 -0.9109210566687497
-0.8493282091919276 -0.9310115624377401
-0.8674674909655065 -0.9310115624377401
-0.9128156953994535 -0.9410568153222353
-0.9218853362862429 -0.9410568153222353
-0.9309549771730323 -0.9310115624377401
-0.8946764136258747 -0.9209663095532449
-0.9037460545126641 -0.9310115624377401
-0.9037460545126641 -0.9109210566687497
-0.9037460545126641 -0.9410568153222353
-0.9037460545126641 -0.9511020682067306
-0.9218853362862429 -0.9511020682067306
-0.9400246180598216 -0.9611473210912258
-0.9763031816069793 -0.9812378268602162
-1.0035121042673476 -1.0314640912826922
-1.012581745154137 -1.021418838398197
-1.012581745154137 -1.021418838398197
-1.0035121042673476 -1.0113735855137018
-1.0035121042673476 -1.0113735855137018
-0.9853728224937687 -1.021418838398197
-0.9763031816069793 -1.0013283326292066
-0.9672335407201899 -1.0113735855137018
-0.9581638998334004 -1.0013283326292066
-0.9581638998334004 -1.021418838398197
-0.949094258946611 -1.0415093441671874
-0.9672335407201899 -1.021418838398197
-0.9672335407201899 -1.0314640912826922
-0.9581638998334004 -1.0013283326292066
-0.9581638998334004 -0.971192573975721
-0.949094258946611 -0.9611473210912258
-0.9400246180598216 -0.9410568153222353
-0.949094258946611 -0.9310115624377401
-0.9309549771730323 -0.9310115624377401
-0.949094258946611 -0.9511020682067306
-0.9672335407201899 -0.971192573975721
-0.9763031816069793 -0.9812378268602162
-1.0216513860409262 -0.9812378268602162
-1.039790667814505 -1.0113735855137018
-1.0488603087012944 -1.021418838398197
-1.0760692313616627 -1.0013283326292066
-1.1032781540220309 -1.0415093441671874
-1.1123477949088203 -1.0314640912826922
-1.1123477949088203 -1.0314640912826922
-1.1667656402295568 -1.0314640912826922
-1.148626358455978 -1.0314640912826922
-1.1758352811163462 -1.0615998499361778
-1.2030442037767144 -1.1017808614741587
-1.2211834855502932 -1.121871367243149
-1.2483924082106614 -1.1620523787811299
-1.2756013308710297 -1.1821428845501203
-1.3118798944181873 -1.212278643203606
-1.3300191761917661 -1.2424144018570917
-1.3300191761917661 -1.222323896088101
-1.3662977397389235 -1.2625049076260821
-1.3662977397389235 -1.2625049076260821
-1.3390888170785555 -1.252459654741587
-1.3662977397389235 -1.2725501605105773
-1.3662977397389235 -1.302685919164063
-1.3844370215125024 -1.3328216778175486
-1.4025763032860812 -1.3730026893555294
-1.42071558505966 -1.403138448009015
-1.4569941486068176 -1.4634099653159862
-1.4479245077200282 -1.4935457239694718
-1.4569941486068176 -1.503590976853967
-1.4388548668332388 -1.503590976853967
-1.4116459441728706 -1.5136362297384622
-1.3662977397389235 -1.503590976853967
-1.375367380625713 -1.4835004710849766
-1.2756013308710297 -1.453364712431491
-1.2574620490974509 -1.453364712431491
-1.2211834855502932 -1.4332742066625006
-1.1758352811163462 -1.403138448009015
-1.1395567175691885 -1.403138448009015
-1.085138872248452 -1.403138448009015
-1.012581745154137 -1.3830479422400246
-0.9763031816069793 -1.3428669307020438
-0.9309549771730323 -1.302685919164063
-0.8674674909655065 -1.2625049076260821
-0.8221192865315594 -1.222323896088101
-0.7767710820976124 -1.1821428845501203
-0.722353236776876 -1.172097631665625
-0.7132835958900866 -1.1620523787811299
-0.6860746732297184 -1.1419618730121395
-0.6588657505693502 -1.121871367243149
-0.6407264687957713 -1.1419618730121395
-0.6225871870221925 -1.1319166201276443
-0.5953782643618243 -1.1118261143586539
-0.6135175461354031 -1.1017808614741587
-0.586308623475035 -1.1017808614741587
-0.586308623475035 -1.1017808614741587
-0.5681693417014562 -1.0816903557051682
-0.5590997008146668 -1.0515545970516826
-0.5228211372675091 -1.0415093441671874
-0.5137514963807197 -1.0415093441671874
-0.5137514963807197 -1.0415093441671874
-0.4956122146071409 -1.0415093441671874
-0.5046818554939303 -1.0615998499361778
-0.5318907781542985 -1.0816903557051682
-0.5409604190410879 -1.0917356085896635
-0.5409604190410879 -1.0917356085896635
-0.5500300599278773 -1.071645102820673
-0.5500300599278773 -1.0615998499361778
-0.5500300599278773 -1.0515545970516826
-0.5590997008146668 -1.021418838398197
-0.5409604190410879 -1.021418838398197
-0.5318907781542985 -1.0314640912826922
-0.5409604190410879 -1.0415093441671874
-0.5681693417014562 -1.0314640912826922
-0.586308623475035 -1.071645102820673
-0.5681693417014562 -1.0615998499361778
-0.5681693417014562 -1.071645102820673
-0.5772389825882456 -1.0615998499361778
-0.586308623475035 -1.0615998499361778
-0.6135175461354031 -1.0615998499361778
-0.5772389825882456 -1.0113735855137018
-0.5590997008146668 -1.0013283326292066
-0.5590997008146668 -1.021418838398197
-0.5409604190410879 -1.0013283326292066
-0.5409604190410879 -1.0314640912826922
-0.5500300599278773 -1.0113735855137018
-0.5228211372675091 -1.0314640912826922
-0.5318907781542985 -1.0415093441671874
-0.5318907781542985 -1.0415093441671874
-0.5409604190410879 -1.0314640912826922
-0.5228211372675091 -1.0314640912826922
-0.5228211372675091 -1.0113735855137018
-0.5318907781542985 -1.0113735855137018
-0.5228211372675091 -0.9912830797447114
-0.5318907781542985 -0.9812378268602162
-0.5228211372675091 -1.0013283326292066
-0.5137514963807197 -1.0013283326292066
-0.5228211372675091 -1.0113735855137018
-0.5409604190410879 -1.0415093441671874
-0.5137514963807197 -1.0615998499361778
-0.5046818554939303 -1.0615998499361778
-0.5046818554939303 -1.0615998499361778
-0.4865425737203515 -1.0314640912826922
-0.4502640101731939 -0.9812378268602162
-0.4321247283996151 -0.9611473210912258
-0.39584616485245744 -0.9410568153222353
-0.3777068830788786 -0.9008758037842545
-0.38677652396566803 -0.9109210566687497
-0.38677652396566803 -0.8807852980152641
-0.38677652396566803 -0.9310115624377401
-0.40491580573924685 -0.9310115624377401
-0.40491580573924685 -0.9310115624377401
-0.40491580573924685 -0.9410568153222353
-0.41398544662603626 -0.9310115624377401
-0.39584616485245744 -0.9410568153222353
-0.38677652396566803 -0.9511020682067306
-0.38677652396566803 -0.9109210566687497
-0.35956760130529986 -0.9109210566687497
-0.35956760130529986 -0.8908305508997593
-0.34142831953172104 -0.9109210566687497
-0.3142193968713528 -0.9310115624377401
-0.34142831953172104 -0.9310115624377401
-0.35956760130529986 -0.9511020682067306
-0.35956760130529986 -0.9812378268602162
-0.3777068830788786 -0.9812378268602162
-0.39584616485245744 -0.9812378268602162
-0.41398544662603626 -0.971192573975721
-0.4321247283996151 -0.9511020682067306
-0.4411943692864045 -0.9310115624377401
-0.46840329194677266 -0.9008758037842545
-0.4593336510599833 -0.8807852980152641
-0.41398544662603626 -0.8807852980152641
-0.3232890377581422 -0.8104685278237976
-0.10561765647519654 -0.7200612518633407
0.1936804927888538 -0.5492919528269221
0.55646612826043 -0.348386895137018
1.0190178134866896 -0.13743658456261856
1.5541266258072644 0.1237399904342569
2.1436532834485758 0.29450928947067545
2.778528145523834 0.48536909427608443
3.4043333667123026 0.656138393312503
3.90316361548572 0.8168624394644264
4.265949250957296 0.987631738500845
4.447342068693084 1.1985820490752443
4.447342068693084 1.3894418538806534
4.284088532730875 1.4597586240721199
3.9213028972592987 1.329170336573682
3.349915521391566 0.8871792096558928
2.5155085598069413 0.2041020135102186
1.5178480622601067 -0.7301065047478359
0.5201875647132723 -1.6743602758903857
-0.250731910663827 -2.5181615181879833
-0.6951443141165078 -3.080695679719715
-0.8402585683051382 -3.2514649787561334
-0.7858407229844018 -3.0706504268352197
-0.6679353914561396 -2.7190665758778874
-0.5590997008146668 -2.307211207613584
-0.4865425737203515 -1.9857631153097373
-0.4865425737203515 -1.8049485633888234
-0.5137514963807197 -1.684405528774881
-0.586308623475035 -1.6241340114679097
-0.6225871870221925 -1.5437719883919478
-0.6588657505693502 -1.4935457239694718
-0.6588657505693502 -1.4332742066625006
-0.6407264687957713 -1.3629574364710342
-0.6044479052486137 -1.2926406662795678
-0.5681693417014562 -1.212278643203606
-0.5500300599278773 -1.1620523787811299
-0.5500300599278773 -1.1319166201276443
-0.5409604190410879 -1.0917356085896635
-0.5500300599278773 -1.0917356085896635
-0.586308623475035 -1.0917356085896635
-0.6225871870221925 -1.1118261143586539
-0.6135175461354031 -1.0515545970516826
-0.6135175461354031 -1.0415093441671874
-0.6135175461354031 -1.021418838398197
-0.6044479052486137 -0.9912830797447114
-0.6044479052486137 -0.9912830797447114
-0.6135175461354031 -0.971192573975721
-0.5953782643618243 -0.9812378268602162
-0.5953782643618243 -0.9410568153222353
-0.6044479052486137 -0.971192573975721
-0.5953782643618243 -0.9611473210912258
-0.6135175461354031 -0.971192573975721
-0.6316568279089819 -0.971192573975721
-0.6497961096825607 -0.9812378268602162
-0.6588657505693502 -0.9511020682067306
-0.677005032342929 -0.9511020682067306
-0.6588657505693502 -0.9310115624377401
-0.6679353914561396 -0.9209663095532449
-0.6679353914561396 -0.9109210566687497
-0.6860746732297184 -0.9109210566687497
-0.677005032342929 -0.9109210566687497
-0.6951443141165078 -0.9310115624377401
-0.722353236776876 -0.9611473210912258
-0.7495621594372442 -0.971192573975721
-0.767701441210823 -0.9912830797447114
-0.7858407229844018 -0.9812378268602162
-0.7858407229844018 -0.9812378268602162
-0.7858407229844018 -0.971192573975721
-0.8039800047579806 -0.9511020682067306
-0.7949103638711912 -0.9410568153222353
-0.7949103638711912 -0.9310115624377401
-0.8221192865315594 -0.9410568153222353
-0.8402585683051382 -0.9511020682067306
-0.8765371318522959 -1.0013283326292066
-0.8765371318522959 -1.021418838398197
-0.9037460545126641 -1.021418838398197
-0.9309549771730323 -1.0615998499361778
-0.9672335407201899 -1.0415093441671874
-0.9853728224937687 -1.071645102820673
-0.9944424633805581 -1.0816903557051682
-0.9581638998334004 -1.071645102820673
-0.9763031816069793 -1.0615998499361778
-0.9581638998334004 -1.0816903557051682
-0.9581638998334004 -1.071645102820673
-0.9853728224937687 -1.0816903557051682
-0.9944424633805581 -1.0816903557051682
-1.0579299495880838 -1.121871367243149
-1.0669995904748732 -1.1319166201276443
-1.1123477949088203 -1.172097631665625
-1.1304870766823991 -1.1620523787811299
-1.1395567175691885 -1.172097631665625
-1.1576959993427673 -1.1921881374346155
-1.2121138446635038 -1.1921881374346155
-1.2302531264370826 -1.212278643203606
-1.239322767323872 -1.2323691489725965
-1.2211834855502932 -1.2725501605105773
-1.2574620490974509 -1.3227764249330534
-1.2574620490974509 -1.3328216778175486
-1.2756013308710297 -1.3930931951245198
-1.302810253531398 -1.4232289537780054
-1.3300191761917661 -1.453364712431491
-1.348158457965345 -1.4734552182004814
-1.375367380625713 -1.4935457239694718
-1.3662977397389235 -1.503590976853967
-1.375367380625713 -1.4734552182004814
-1.348158457965345 -1.4634099653159862
-1.3300191761917661 -1.453364712431491
-1.3390888170785555 -1.4835004710849766
-1.3572280988521344 -1.5337267355074526
-1.3844370215125024 -1.5337267355074526
-1.4297852259464494 -1.5839529999299287
-1.4116459441728706 -1.6241340114679097
-1.4116459441728706 -1.634179264352405
-1.4025763032860812 -1.6643150230058905
-1.375367380625713 -1.6542697701213953
-1.3209495353049767 -1.6542697701213953
-1.2665316899842403 -1.634179264352405
-1.2211834855502932 -1.5739077470454335
-1.1395567175691885 -1.553817241276443
-1.085138872248452 -1.5437719883919478
-1.0307210269277156 -1.5236814826229574
-0.9763031816069793 -1.4734552182004814
-0.9218853362862429 -1.453364712431491
-0.8856067727390853 -1.4433194595469958
-0.8221192865315594 -1.4131837008935102
-0.8221192865315594 -1.3830479422400246
-0.767701441210823 -1.3428669307020438
-0.7132835958900866 -1.2825954133950725
-0.6588657505693502 -1.2424144018570917
-0.586308623475035 -1.2022333903191107
-0.5318907781542985 -1.172097631665625
-0.5046818554939303 -1.1319166201276443
-0.47747293283356207 -1.121871367243149
-0.4593336510599833 -1.1118261143586539
-0.4321247283996151 -1.1118261143586539
-0.4321247283996151 -1.1319166201276443
-0.42305508751282567 -1.121871367243149
-0.42305508751282567 -1.1017808614741587
-0.4411943692864045 -1.0917356085896635
-0.42305508751282567 -1.0515545970516826
-0.40491580573924685 -1.0515545970516826
-0.39584616485245744 -1.0415093441671874
-0.3777068830788786 -1.0515545970516826
-0.35956760130529986 -1.0415093441671874
-0.36863724219208927 -1.0515545970516826
-0.35956760130529986 -1.0515545970516826
-0.3777068830788786 -1.0917356085896635
-0.41398544662603626 -1.0816903557051682
-0.42305508751282567 -1.0917356085896635
-0.4593336510599833 -1.071645102820673
-0.4593336510599833 -1.071645102820673
-0.47747293283356207 -1.0314640912826922
-0.5046818554939303 -1.0415093441671874
-0.5137514963807197 -1.021418838398197
-0.5046818554939303 -1.0013283326292066
-0.4956122146071409 -1.0113735855137018
-0.4956122146071409 -1.0314640912826922
-0.4956122146071409 -1.0515545970516826
-0.46840329194677266 -1.071645102820673
-0.4502640101731939 -1.071645102820673
-0.4593336510599833 -1.0816903557051682
-0.4321247283996151 -1.0917356085896635
-0.40491580573924685 -1.0515545970516826
-0.35956760130529986 -1.0314640912826922
-0.35956760130529986 -0.9912830797447114
-0.3232890377581422 -0.9209663095532449
-0.3142193968713528 -0.9310115624377401
-0.3051497559845634 -0.9109210566687497
-0.3142193968713528 -0.9511020682067306
-0.28701047421098463 -0.9410568153222353
-0.296080115097774 -0.9511020682067306
-0.3142193968713528 -0.9611473210912258
-0.3142193968713528 -0.9511020682067306
-0.3232890377581422 -0.9310115624377401
-0.28701047421098463 -0.9109210566687497
-0.28701047421098463 -0.8908305508997593
-0.2688711924374058 -0.8908305508997593
-0.24166226977703759 -0.8707400451307689
-0.2779408333241952 -0.8506495393617785
-0.24166226977703759 -0.830559033592788
-0.24166226977703759 -0.8406042864772832
-0.23259262889024818 -0.830559033592788
-0.250731910663827 -0.8606947922462737
-0.2688711924374058 -0.8807852980152641
-0.2779408333241952 -0.8707400451307689
-0.28701047421098463 -0.8606947922462737
-0.3051497559845634 -0.8506495393617785
-0.2779408333241952 -0.830559033592788
-0.250731910663827 -0.8104685278237976
-0.23259262889024818 -0.8205137807082928
-0.21445334711666938 -0.7903780220548072
-0.19631406534309057 -0.7903780220548072
-0.19631406534309057 -0.8205137807082928
-0.20538370622987998 -0.830559033592788
-0.21445334711666938 -0.8406042864772832
-0.2235229880034588 -0.8707400451307689
-0.24166226977703759 -0.8807852980152641
-0.2779408333241952 -0.8807852980152641
-0.2598015515506164 -0.8606947922462737
-0.23259262889024818 -0.8908305508997593
-0.21445334711666938 -0.8908305508997593
-0.20538370622987998 -0.8707400451307689
-0.20538370622987998 -0.8707400451307689
-0.20538370622987998 -0.8707400451307689
-0.18724442445630116 -0.9008758037842545
-0.16910514268272236 -0.9008758037842545
-0.21445334711666938 -0.9109210566687497
-0.20538370622987998 -0.9511020682067306
-0.250731910663827 -0.9511020682067306
-0.2598015515506164 -0.971192573975721
-0.24166226977703759 -0.9812378268602162
-0.250731910663827 -0.971192573975721
-0.250731910663827 -0.9511020682067306
-0.250731910663827 -0.971192573975721
-0.250731910663827 -0.9511020682067306
-0.24166226977703759 -0.9812378268602162
-0.2688711924374058 -0.9812378268602162
-0.250731910663827 -1.021418838398197
-0.28701047421098463 -1.0415093441671874
-0.28701047421098463 -1.0314640912826922
-0.2779408333241952 -1.021418838398197
-0.2598015515506164 -1.0013283326292066
-0.23259262889024818 -0.9812378268602162
-0.20538370622987998 -0.9410568153222353
-0.18724442445630116 -0.8908305508997593
-0.17817478356951177 -0.8807852980152641
-0.18724442445630116 -0.8406042864772832
-0.16910514268272236 -0.8406042864772832
-0.18724442445630116 -0.8406042864772832
-0.16910514268272236 -0.8807852980152641
-0.17817478356951177 -0.8807852980152641
-0.19631406534309057 -0.8707400451307689
-0.21445334711666938 -0.8807852980152641
-0.2235229880034588 -0.8606947922462737
-0.2235229880034588 -0.8406042864772832
-0.21445334711666938 -0.8205137807082928
-0.21445334711666938 -0.8104685278237976
-0.20538370622987998 -0.7903780220548072
-0.19631406534309057 -0.7903780220548072
-0.18724442445630116 -0.8104685278237976
-0.21445334711666938 -0.8205137807082928
-0.21445334711666938 -0.8506495393617785
-0.250731910663827 -0.8707400451307689
-0.250731910663827 -0.8606947922462737
-0.2688711924374058 -0.9008758037842545
-0.250731910663827 -0.8707400451307689
-0.2688711924374058 -0.8506495393617785
-0.250731910663827 -0.8506495393617785
-0.2235229880034588 -0.8506495393617785
-0.23259262889024818 -0.8406042864772832
-0.21445334711666938 -0.830559033592788
-0.20538370622987998 -0.8506495393617785
-0.20538370622987998 -0.8406042864772832
-0.20538370622987998 -0.8707400451307689
-0.24166226977703759 -0.8707400451307689
-0.250731910663827 -0.9008758037842545
-0.2779408333241952 -0.9310115624377401
-0.2779408333241952 -0.9209663095532449
-0.2688711924374058 -0.9310115624377401
-0.2688711924374058 -0.9008758037842545
-0.2598015515506164 -0.8908305508997593
-0.250731910663827 -0.8908305508997593
-0.24166226977703759 -0.8707400451307689
-0.21445334711666938 -0.8606947922462737
-0.21445334711666938 -0.9008758037842545
-0.21445334711666938 -0.9008758037842545
-0.23259262889024818 -0.9109210566687497
-0.24166226977703759 -0.9310115624377401
-0.24166226977703759 -0.9209663095532449
-0.2688711924374058 -0.9410568153222353
-0.250731910663827 -0.9209663095532449
-0.2235229880034588 -0.9109210566687497
-0.21445334711666938 -0.9109210566687497
-0.18724442445630116 -0.9109210566687497
-0.18724442445630116 -0.9109210566687497
-0.16003550179593296 -0.8908305508997593
-0.13282657913556475 -0.9109210566687497
-0.15096586090914355 -0.9109210566687497
-0.12375693824877534 -0.9310115624377401
-0.16003550179593296 -0.9410568153222353
-0.16003550179593296 -0.9511020682067306
-0.16910514268272236 -0.9310115624377401
-0.16003550179593296 -0.9310115624377401
-0.15096586090914355 -0.9008758037842545
-0.16003550179593296 -0.9109210566687497
-0.13282657913556475 -0.9008758037842545
-0.13282657913556475 -0.830559033592788
-0.12375693824877534 -0.8707400451307689
-0.08747837470161772 -0.8506495393617785
-0.11468729736198593 -0.8908305508997593
-0.10561765647519654 -0.8807852980152641
-0.15096586090914355 -0.9008758037842545
-0.16910514268272236 -0.9008758037842545
-0.16003550179593296 -0.9209663095532449
-0.14189622002235414 -0.9109210566687497
-0.15096586090914355 -0.8707400451307689
-0.12375693824877534 -0.8807852980152641
-0.15096586090914355 -0.8707400451307689
-0.12375693824877534 -0.8606947922462737
-0.13282657913556475 -0.8506495393617785
-0.14189622002235414 -0.8606947922462737
-0.16910514268272236 -0.8506495393617785
-0.16003550179593296 -0.8606947922462737
-0.13282657913556475 -0.9008758037842545
-0.15096586090914355 -0.8807852980152641
-0.16003550179593296 -0.8908305508997593
-0.15096586090914355 -0.8807852980152641
-0.14189622002235414 -0.8406042864772832
-0.16910514268272236 -0.8205137807082928
-0.14189622002235414 -0.8104685278237976
-0.10561765647519654 -0.8104685278237976
-0.10561765647519654 -0.8104685278237976
-0.10561765647519654 -0.8104685278237976
-0.10561765647519654 -0.830559033592788
-0.08747837470161772 -0.830559033592788
-0.11468729736198593 -0.8506495393617785
-0.10561765647519654 -0.8406042864772832
-0.11468729736198593 -0.830559033592788
-0.10561765647519654 -0.8406042864772832
-0.12375693824877534 -0.8205137807082928
-0.12375693824877534 -0.8104685278237976
-0.16003550179593296 -0.7903780220548072
-0.20538370622987998 -0.7903780220548072
-0.24166226977703759 -0.780332769170312
-0.23259262889024818 -0.7501970105168263
-0.15096586090914355 -0.7301065047478359
0.07577516126059154 -0.6296539759028839
0.40228223318501005 -0.4890204355199509
0.8376249957509014 -0.2680248720610563
1.3545945262978976 -0.06711981437115208
1.9894693883731558 0.18401150774122815
2.68783173665594 0.415052324084618
3.349915521391566 0.6460931404280078
3.9485118199196667 0.8871792096558928
4.3657153007119796 1.1483557846527683
4.619665245542083 1.419577612534139
4.619665245542083 1.6907994404155096
4.4745509913534525 1.851523486567433
4.1933921238629805 1.7711614634914714
3.6401440297688272 1.3793966009961582
2.823876349957781 0.6360478875435126
1.8443551341845252 -0.348386895137018
0.9192517637320061 -1.3730026893555294
0.20275013367564318 -2.317256460498079
-0.16910514268272236 -2.8998811277988015
-0.2779408333241952 -3.080695679719715
-0.250731910663827 -2.8998811277988015
-0.16003550179593296 -2.4880257595344974
-0.05119981115446011 -2.0962608970391843
-0.014921247607302497 -1.7446770460818521
0.0032180341662763107 -1.553817241276443
-0.06026945204124951 -1.4433194595469958
-0.10561765647519654 -1.3930931951245198
-0.19631406534309057 -1.3127311720485582
-0.2235229880034588 -1.2926406662795678
-0.2688711924374058 -1.2022333903191107
-0.2688711924374058 -1.1520071258966347
-0.24166226977703759 -1.0816903557051682
-0.23259262889024818 -1.0013283326292066
-0.2235229880034588 -0.9812378268602162
-0.250731910663827 -0.9410568153222353
-0.250731910663827 -0.9611473210912258
-0.28701047421098463 -0.9511020682067306
-0.296080115097774 -0.9511020682067306
-0.34142831953172104 -0.9511020682067306
-0.36863724219208927 -0.9410568153222353
-0.3777068830788786 -0.9310115624377401
-0.3777068830788786 -0.9209663095532449
-0.36863724219208927 -0.8908305508997593
-0.38677652396566803 -0.8707400451307689
-0.3777068830788786 -0.8506495393617785
-0.38677652396566803 -0.8406042864772832
-0.40491580573924685 -0.8606947922462737
-0.39584616485245744 -0.8807852980152641
-0.4321247283996151 -0.8908305508997593
-0.4502640101731939 -0.9008758037842545
-0.47747293283356207 -0.8807852980152641
-0.5409604190410879 -0.9008758037842545
-0.5500300599278773 -0.9008758037842545
-0.5409604190410879 -0.8707400451307689
-0.5228211372675091 -0.8506495393617785
-0.5318907781542985 -0.8406042864772832
-0.5137514963807197 -0.8606947922462737
-0.4956122146071409 -0.8807852980152641
-0.5137514963807197 -0.8807852980152641
-0.5409604190410879 -0.9008758037842545
-0.586308623475035 -0.9209663095532449
-0.5953782643618243 -0.9410568153222353
-0.6316568279089819 -0.971192573975721
-0.6497961096825607 -0.9912830797447114
-0.6588657505693502 -1.0013283326292066
-0.6497961096825607 -0.9812378268602162
-0.6588657505693502 -0.9812378268602162
-0.6407264687957713 -0.9812378268602162
-0.6225871870221925 -0.9611473210912258
-0.6225871870221925 -0.971192573975721
-0.6497961096825607 -0.9912830797447114
-0.6225871870221925 -1.0013283326292066
-0.6497961096825607 -1.0113735855137018
-0.6588657505693502 -1.0314640912826922
-0.6679353914561396 -1.021418838398197
-0.7042139550032972 -1.0314640912826922
-0.7132835958900866 -1.0314640912826922
-0.7495621594372442 -1.021418838398197
-0.7314228776636654 -1.0113735855137018
-0.7132835958900866 -0.9812378268602162
-0.7042139550032972 -0.971192573975721
-0.6951443141165078 -0.9812378268602162
-0.7314228776636654 -1.021418838398197
-0.7132835958900866 -1.021418838398197
-0.7404925185504548 -1.0515545970516826
-0.7586318003240337 -1.0917356085896635
-0.7858407229844018 -1.1017808614741587
-0.8039800047579806 -1.0917356085896635
-0.81304964564477 -1.1419618730121395
-0.8493282091919276 -1.1319166201276443
-0.8674674909655065 -1.1520071258966347
-0.8856067727390853 -1.1520071258966347
-0.9037460545126641 -1.1620523787811299
-0.9218853362862429 -1.2022333903191107
-0.9672335407201899 -1.2424144018570917
-0.9944424633805581 -1.2825954133950725
-1.0216513860409262 -1.3227764249330534
-1.0669995904748732 -1.3328216778175486
-1.1032781540220309 -1.403138448009015
-1.1395567175691885 -1.4131837008935102
-1.1849049220031356 -1.4634099653159862
-1.193974562889925 -1.4734552182004814
-1.2211834855502932 -1.4835004710849766
-1.2302531264370826 -1.503590976853967
-1.2574620490974509 -1.5437719883919478
-1.2574620490974509 -1.5739077470454335
-1.284670971757819 -1.6040435056989193
-1.302810253531398 -1.6241340114679097
-1.3300191761917661 -1.6743602758903857
-1.3209495353049767 -1.7145412874283665
-1.348158457965345 -1.7145412874283665
-1.3209495353049767 -1.7748128047353378
-1.3300191761917661 -1.7647675518508426
-1.302810253531398 -1.7446770460818521
-1.2756013308710297 -1.7145412874283665
-1.2483924082106614 -1.734631793197357
-1.1758352811163462 -1.6944507816593761
-1.1123477949088203 -1.7044960345438713
-1.0669995904748732 -1.6743602758903857
-1.012581745154137 -1.6542697701213953
-0.9581638998334004 -1.634179264352405
-0.9128156953994535 -1.6140887585834145
-0.8493282091919276 -1.6140887585834145
-0.7949103638711912 -1.5839529999299287
-0.7314228776636654 -1.5337267355074526
-0.6588657505693502 -1.4835004710849766
-0.5772389825882456 -1.4131837008935102
-0.5137514963807197 -1.3428669307020438
-0.46840329194677266 -1.2926406662795678
-0.39584616485245744 -1.2424144018570917
-0.35956760130529986 -1.222323896088101
-0.3142193968713528 -1.1821428845501203
-0.2779408333241952 -1.1620523787811299
-0.24166226977703759 -1.1319166201276443
-0.23259262889024818 -1.1017808614741587
-0.21445334711666938 -1.0615998499361778
-0.17817478356951177 -1.0314640912826922
-0.16910514268272236 -0.9912830797447114
-0.16003550179593296 -0.971192573975721
-0.12375693824877534 -0.9410568153222353
-0.11468729736198593 -0.9109210566687497
-0.06933909292803891 -0.9109210566687497
-0.08747837470161772 -0.9310115624377401
-0.07840873381482832 -0.9410568153222353
-0.06026945204124951 -0.9310115624377401
-0.08747837470161772 -0.9410568153222353
-0.09654801558840713 -0.9410568153222353
-0.09654801558840713 -0.9410568153222353
-0.07840873381482832 -0.9008758037842545
-0.06933909292803891 -0.8807852980152641
-0.06026945204124951 -0.8807852980152641
-0.05119981115446011 -0.8707400451307689
-0.04213017026767071 -0.8707400451307689
-0.04213017026767071 -0.8506495393617785
-0.06026945204124951 -0.8606947922462737
-0.06026945204124951 -0.8406042864772832
-0.06933909292803891 -0.8506495393617785
-0.08747837470161772 -0.8606947922462737
-0.06026945204124951 -0.8807852980152641
-0.07840873381482832 -0.8606947922462737
-0.06933909292803891 -0.8506495393617785
-0.05119981115446011 -0.8104685278237976
-0.014921247607302497 -0.7903780220548072
-0.005851606720513093 -0.7903780220548072
0.0032180341662763107 -0.7401517576323311
0.03042695682664452 -0.7501970105168263
0.02135731593985512 -0.7501970105168263
0.03042695682664452 -0.7702875162858168
0.02135731593985512 -0.7602422634013216
0.02135731593985512 -0.7702875162858168
0.03042695682664452 -0.7602422634013216
0.0032180341662763107 -0.7501970105168263
0.039496597713433924 -0.7401517576323311
0.04856623860022333 -0.6899254932098551
0.06670552037380213 -0.6597897345563695
0.08484480214738094 -0.6597897345563695
0.08484480214738094 -0.6396992287873791
0.10298408392095976 -0.6196087230183887
0.11205372480774915 -0.6296539759028839
0.10298408392095976 -0.6095634701338934
0.07577516126059154 -0.6196087230183887
0.06670552037380213 -0.6095634701338934
0.03042695682664452 -0.6497444816718743
0.02135731593985512 -0.6296539759028839
0.03042695682664452 -0.6396992287873791
0.039496597713433924 -0.6196087230183887
0.06670552037380213 -0.5995182172493982
0.08484480214738094 -0.589472964364903
0.10298408392095976 -0.5693824585959125
0.13019300658132796 -0.5693824585959125
0.11205372480774915 -0.5794277114804078
0.1574019292416962 -0.5593372057114173
0.14833228835490678 -0.5794277114804078
0.12112336569453856 -0.5693824585959125
0.12112336569453856 -0.5794277114804078
0.12112336569453856 -0.589472964364903
0.13019300658132796 -0.5693824585959125
0.10298408392095976 -0.5794277114804078
0.12112336569453856 -0.5593372057114173
0.11205372480774915 -0.5593372057114173
0.12112336569453856 -0.5392466999424269
0.14833228835490678 -0.5593372057114173
0.13019300658132796 -0.5492919528269221
0.14833228835490678 -0.5593372057114173
0.11205372480774915 -0.5693824585959125
0.10298408392095976 -0.5794277114804078
0.12112336569453856 -0.5995182172493982
0.11205372480774915 -0.6396992287873791
0.09391444303417035 -0.6095634701338934
0.09391444303417035 -0.6196087230183887
0.10298408392095976 -0.5995182172493982
0.09391444303417035 -0.589472964364903
0.11205372480774915 -0.5693824585959125
0.10298408392095976 -0.6095634701338934
0.10298408392095976 -0.5995182172493982
0.08484480214738094 -0.6095634701338934
0.09391444303417035 -0.6396992287873791
0.09391444303417035 -0.6497444816718743
0.07577516126059154 -0.6698349874408647
0.06670552037380213 -0.6999707460943503
0.05763587948701274 -0.6798802403253599
0.05763587948701274 -0.6999707460943503
0.05763587948701274 -0.6798802403253599
0.05763587948701274 -0.6497444816718743
0.06670552037380213 -0.6196087230183887
0.05763587948701274 -0.6497444816718743
0.04856623860022333 -0.6698349874408647
0.05763587948701274 -0.6698349874408647
0.03042695682664452 -0.6899254932098551
0.039496597713433924 -0.7401517576323311
0.0032180341662763107 -0.7100159989788455
-0.014921247607302497 -0.7301065047478359
-0.005851606720513093 -0.7200612518633407
0.0032180341662763107 -0.7100159989788455
0.0032180341662763107 -0.7100159989788455
0.0032180341662763107 -0.6899254932098551
0.02135731593985512 -0.6798802403253599
0.02135731593985512 -0.6999707460943503
0.012287675053065715 -0.7301065047478359
0.03042695682664452 -0.7401517576323311
0.02135731593985512 -0.7602422634013216
0.04856623860022333 -0.7702875162858168
0.03042695682664452 -0.7702875162858168
0.02135731593985512 -0.780332769170312
0.0032180341662763107 -0.7702875162858168
-0.005851606720513093 -0.7602422634013216
0.02135731593985512 -0.7602422634013216
0.02135731593985512 -0.7602422634013216
0.039496597713433924 -0.7401517576323311
0.03042695682664452 -0.7301065047478359
0.039496597713433924 -0.7301065047478359
0.039496597713433924 -0.7100159989788455
0.039496597713433924 -0.7401517576323311
0.039496597713433924 -0.7301065047478359
0.039496597713433924 -0.7301065047478359
0.03042695682664452 -0.7200612518633407
0.02135731593985512 -0.6798802403253599
0.039496597713433924 -0.6798802403253599
0.06670552037380213 -0.6597897345563695
0.06670552037380213 -0.6497444816718743
0.07577516126059154 -0.6296539759028839
0.07577516126059154 -0.6296539759028839
0.04856623860022333 -0.6497444816718743
0.05763587948701274 -0.6597897345563695
0.04856623860022333 -0.6698349874408647
0.012287675053065715 -0.6798802403253599
0.03042695682664452 -0.6999707460943503
0.03042695682664452 -0.7200612518633407
0.039496597713433924 -0.7100159989788455
0.039496597713433924 -0.6999707460943503
0.039496597713433924 -0.6999707460943503
0.05763587948701274 -0.6597897345563695
0.05763587948701274 -0.6798802403253599
0.06670552037380213 -0.6597897345563695
0.04856623860022333 -0.6999707460943503
0.05763587948701274 -0.6798802403253599
0.05763587948701274 -0.7301065047478359
0.05763587948701274 -0.7501970105168263
0.03042695682664452 -0.7501970105168263
0.012287675053065715 -0.7401517576323311
0.02135731593985512 -0.6899254932098551
0.02135731593985512 -0.6999707460943503
0.05763587948701274 -0.6999707460943503
0.04856623860022333 -0.6899254932098551
0.04856623860022333 -0.6698349874408647
0.05763587948701274 -0.6899254932098551
0.07577516126059154 -0.6999707460943503
0.05763587948701274 -0.6899254932098551
0.039496597713433924 -0.7301065047478359
0.012287675053065715 -0.7401517576323311
0.0032180341662763107 -0.7702875162858168
-0.0239908884940919 -0.7501970105168263
-0.0239908884940919 -0.7602422634013216
-0.033060529380881304 -0.7501970105168263
-0.033060529380881304 -0.7602422634013216
-0.005851606720513093 -0.7301065047478359
0.02135731593985512 -0.7501970105168263
0.03042695682664452 -0.7501970105168263
0.012287675053065715 -0.7602422634013216
0.012287675053065715 -0.7702875162858168
-0.014921247607302497 -0.780332769170312
-0.005851606720513093 -0.7903780220548072
-0.014921247607302497 -0.830559033592788
-0.05119981115446011 -0.8406042864772832
-0.05119981115446011 -0.8104685278237976
-0.05119981115446011 -0.830559033592788
-0.0239908884940919 -0.7903780220548072
0.02135731593985512 -0.8104685278237976
0.039496597713433924 -0.7702875162858168
0.06670552037380213 -0.780332769170312
0.07577516126059154 -0.780332769170312
0.08484480214738094 -0.780332769170312
0.07577516126059154 -0.7702875162858168
0.08484480214738094 -0.7602422634013216
0.09391444303417035 -0.7602422634013216
0.09391444303417035 -0.7401517576323311
0.10298408392095976 -0.6798802403253599
0.11205372480774915 -0.6798802403253599
0.14833228835490678 -0.6497444816718743
0.1574019292416962 -0.6196087230183887
0.1574019292416962 -0.6196087230183887
0.16647157012848557 -0.5995182172493982
0.1574019292416962 -0.6095634701338934
0.12112336569453856 -0.6095634701338934
0.09391444303417035 -0.6296539759028839
0.03042695682664452 -0.6296539759028839
0.03042695682664452 -0.6296539759028839
0.06670552037380213 -0.6396992287873791
0.20275013367564318 -0.5593372057114173
0.4567000785057465 -0.4086584124439892
0.8376249957509014 -0.16757234321610417
1.2366891947696352 0.07351372601178086
1.7355194435430523 0.3246450481241611
2.2796978967504167 0.51550485292957
2.896433477052096 0.7264551635039695
3.4678208529198287 0.9173149683093785
3.9847903834668243 1.088084267345797
4.383854582485558 1.3090798308046916
4.628734886428872 1.5702564058015671
4.7012920135231875 1.8917044981054139
4.66501344997603 2.233243096178251
4.456411709579873 2.3437408779076985
4.084556433221508 2.17297157887128
3.476890493806618 1.610437417339548
2.6606228139955714 0.7565909221574552
1.726449802656263 -0.3383416422525227
0.8648339184112697 -1.4433194595469958
0.2480983381095902 -2.407663736458536
-0.08747837470161772 -3.0103789095282485
-0.19631406534309057 -3.1510124499111813
-0.20538370622987998 -2.9099263806832965
-0.11468729736198593 -2.4277542422275262
-0.033060529380881304 -1.9455821037717562
0.0032180341662763107 -1.6040435056989193
0.012287675053065715 -1.352912183586539
-0.005851606720513093 -1.252459654741587
-0.04213017026767071 -1.172097631665625
-0.07840873381482832 -1.1419618730121395
-0.13282657913556475 -1.0917356085896635
-0.16910514268272236 -1.0615998499361778
-0.16910514268272236 -1.0113735855137018
-0.18724442445630116 -0.9912830797447114
-0.18724442445630116 -0.9209663095532449
-0.19631406534309057 -0.9209663095532449
-0.2235229880034588 -0.8606947922462737
-0.23259262889024818 -0.8406042864772832
-0.250731910663827 -0.8104685278237976
-0.2598015515506164 -0.7903780220548072
-0.2688711924374058 -0.7903780220548072
-0.2598015515506164 -0.780332769170312
-0.250731910663827 -0.7903780220548072
-0.2598015515506164 -0.7702875162858168
-0.2688711924374058 -0.7702875162858168
-0.2779408333241952 -0.780332769170312
-0.2779408333241952 -0.8104685278237976
-0.3142193968713528 -0.8104685278237976
-0.3142193968713528 -0.7903780220548072
-0.28701047421098463 -0.7702875162858168
-0.296080115097774 -0.7602422634013216
-0.250731910663827 -0.7501970105168263
-0.2235229880034588 -0.6999707460943503
-0.19631406534309057 -0.6999707460943503
-0.17817478356951177 -0.6999707460943503
-0.16910514268272236 -0.6899254932098551
-0.19631406534309057 -0.6999707460943503
-0.21445334711666938 -0.7100159989788455
-0.250731910663827 -0.7200612518633407
-0.2688711924374058 -0.6999707460943503
-0.2688711924374058 -0.6899254932098551
-0.28701047421098463 -0.6798802403253599
-0.28701047421098463 -0.6698349874408647
-0.28701047421098463 -0.6497444816718743
-0.2779408333241952 -0.6296539759028839
-0.2779408333241952 -0.6095634701338934
-0.2779408333241952 -0.6095634701338934
-0.3051497559845634 -0.6296539759028839
-0.3232890377581422 -0.6296539759028839
-0.34142831953172104 -0.6597897345563695
-0.36863724219208927 -0.6698349874408647
-0.35956760130529986 -0.6899254932098551
-0.35956760130529986 -0.6597897345563695
-0.36863724219208927 -0.6698349874408647
-0.3777068830788786 -0.6497444816718743
-0.36863724219208927 -0.6497444816718743
-0.3777068830788786 -0.6497444816718743
-0.3777068830788786 -0.6296539759028839
-0.39584616485245744 -0.6798802403253599
-0.40491580573924685 -0.6798802403253599
-0.40491580573924685 -0.7100159989788455
-0.4321247283996151 -0.7301065047478359
-0.4593336510599833 -0.7301065047478359
-0.4956122146071409 -0.7501970105168263
-0.5046818554939303 -0.7401517576323311
-0.5228211372675091 -0.7501970105168263
-0.5409604190410879 -0.7501970105168263
-0.5409604190410879 -0.7501970105168263
-0.5500300599278773 -0.7602422634013216
-0.5681693417014562 -0.7702875162858168
-0.6225871870221925 -0.8004232749393024
-0.6588657505693502 -0.7903780220548072
-0.6951443141165078 -0.8205137807082928
-0.7495621594372442 -0.8807852980152641
-0.7858407229844018 -0.8707400451307689
-0.8402585683051382 -0.9008758037842545
-0.858397850078717 -0.9209663095532449
-0.8946764136258747 -0.9611473210912258
-0.8946764136258747 -0.9812378268602162
-0.9672335407201899 -0.9812378268602162
-0.9672335407201899 -1.0013283326292066
-0.9763031816069793 -1.0415093441671874
-1.0035121042673476 -1.1017808614741587
-1.012581745154137 -1.1520071258966347
-1.0307210269277156 -1.2022333903191107
-1.0579299495880838 -1.2625049076260821
-1.0942085131352415 -1.2926406662795678
-1.148626358455978 -1.3328216778175486
-1.1395567175691885 -1.3328216778175486
-1.1667656402295568 -1.3730026893555294
-1.1758352811163462 -1.3629574364710342
-1.1667656402295568 -1.3730026893555294
-1.1576959993427673 -1.403138448009015
-1.1667656402295568 -1.3930931951245198
-1.1576959993427673 -1.4232289537780054
-1.1576959993427673 -1.453364712431491
-1.148626358455978 -1.503590976853967
-1.1758352811163462 -1.5136362297384622
-1.1304870766823991 -1.5437719883919478
-1.085138872248452 -1.553817241276443
-1.0488603087012944 -1.5437719883919478
-1.012581745154137 -1.5236814826229574
-0.9400246180598216 -1.4835004710849766
-0.8674674909655065 -1.4433194595469958
-0.7949103638711912 -1.3930931951245198
-0.722353236776876 -1.3629574364710342
-0.6497961096825607 -1.3328216778175486
-0.586308623475035 -1.2725501605105773
-0.5228211372675091 -1.2424144018570917
-0.4865425737203515 -1.212278643203606
-0.40491580573924685 -1.172097631665625
-0.3777068830788786 -1.1319166201276443
-0.3232890377581422 -1.071645102820673
-0.28701047421098463 -1.021418838398197
-0.23259262889024818 -0.9812378268602162
-0.16910514268272236 -0.9109210566687497
-0.12375693824877534 -0.8707400451307689
-0.07840873381482832 -0.830559033592788
-0.06026945204124951 -0.780332769170312
-0.0239908884940919 -0.7702875162858168
-0.033060529380881304 -0.7501970105168263
-0.014921247607302497 -0.7100159989788455
0.0032180341662763107 -0.7100159989788455
-0.014921247607302497 -0.7100159989788455
0.0032180341662763107 -0.6698349874408647
-0.005851606720513093 -0.6497444816718743
0.0032180341662763107 -0.6396992287873791
0.012287675053065715 -0.5995182172493982
0.039496597713433924 -0.6196087230183887
0.039496597713433924 -0.6095634701338934
0.039496597713433924 -0.6296539759028839
0.03042695682664452 -0.6196087230183887
0.02135731593985512 -0.6396992287873791
0.03042695682664452 -0.6497444816718743
0.02135731593985512 -0.6497444816718743
-0.0239908884940919 -0.6296539759028839
-0.06026945204124951 -0.6196087230183887
-0.07840873381482832 -0.589472964364903
-0.08747837470161772 -0.6196087230183887
-0.09654801558840713 -0.5794277114804078
-0.09654801558840713 -0.5693824585959125
-0.05119981115446011 -0.5794277114804078
-0.06026945204124951 -0.5995182172493982
-0.033060529380881304 -0.5794277114804078
-0.005851606720513093 -0.6095634701338934
-0.014921247607302497 -0.6196087230183887
-0.033060529380881304 -0.5995182172493982
-0.014921247607302497 -0.6196087230183887
-0.005851606720513093 -0.5794277114804078
-0.005851606720513093 -0.5593372057114173
0.012287675053065715 -0.5191561941734365
0.03042695682664452 -0.4990656884044461
0.06670552037380213 -0.4588846768664653
0.07577516126059154 -0.4588846768664653
0.08484480214738094 -0.4789751826354557
0.07577516126059154 -0.4789751826354557
0.07577516126059154 -0.4588846768664653
0.09391444303417035 -0.4990656884044461
0.07577516126059154 -0.5091109412889413
0.08484480214738094 -0.4890204355199509
0.05763587948701274 -0.4689299297509605
0.06670552037380213 -0.4588846768664653
0.10298408392095976 -0.4187036653284844
0.13926264746811737 -0.4187036653284844
0.14833228835490678 -0.398613159559494
0.14833228835490678 -0.3785226537905036
0.16647157012848557 -0.4086584124439892
0.1846108519020644 -0.4488394239819701
0.1936804927888538 -0.4187036653284844
0.1846108519020644 -0.43879417109747487
0.17554121101527498 -0.43879417109747487
0.17554121101527498 -0.43879417109747487
0.17554121101527498 -0.398613159559494
0.1936804927888538 -0.398613159559494
0.220889415449222 -0.398613159559494
0.2299590563360114 -0.398613159559494
0.2571679789963796 -0.3684774009060084
0.28437690165674784 -0.3584321480215132
0.29344654254353725 -0.3785226537905036
0.29344654254353725 -0.3684774009060084
0.2480983381095902 -0.3885679066749988
0.220889415449222 -0.4086584124439892
0.2299590563360114 -0.4187036653284844
0.220889415449222 -0.398613159559494
0.220889415449222 -0.3785226537905036
0.2118197745624326 -0.398613159559494
0.20275013367564318 -0.398613159559494
0.220889415449222 -0.3684774009060084
0.2118197745624326 -0.3584321480215132
0.220889415449222 -0.3584321480215132
0.2118197745624326 -0.3885679066749988
0.1846108519020644 -0.4086584124439892
0.13926264746811737 -0.43879417109747487
0.12112336569453856 -0.4287489182129796
0.08484480214738094 -0.4789751826354557
0.04856623860022333 -0.5191561941734365
0.012287675053065715 -0.4990656884044461
-0.005851606720513093 -0.5292014470579317
-0.005851606720513093 -0.5191561941734365
-0.033060529380881304 -0.5392466999424269
-0.0239908884940919 -0.5492919528269221
-0.014921247607302497 -0.5191561941734365
0.0032180341662763107 -0.5492919528269221
0.0032180341662763107 -0.5693824585959125
0.012287675053065715 -0.6095634701338934
0.012287675053065715 -0.5794277114804078
0.012287675053065715 -0.5794277114804078
0.012287675053065715 -0.589472964364903
0.03042695682664452 -0.5392466999424269
0.04856623860022333 -0.5292014470579317
0.05763587948701274 -0.4789751826354557
0.08484480214738094 -0.4689299297509605
0.08484480214738094 -0.4488394239819701
0.09391444303417035 -0.4287489182129796
0.09391444303417035 -0.4588846768664653
0.07577516126059154 -0.43879417109747487
0.05763587948701274 -0.4689299297509605
0.04856623860022333 -0.4789751826354557
0.05763587948701274 -0.4789751826354557
0.04856623860022333 -0.4789751826354557
0.07577516126059154 -0.4789751826354557
0.04856623860022333 -0.4689299297509605
0.08484480214738094 -0.43879417109747487
0.08484480214738094 -0.4488394239819701
0.07577516126059154 -0.4187036653284844
0.13019300658132796 -0.4287489182129796
0.13926264746811737 -0.43879417109747487
0.12112336569453856 -0.4588846768664653
0.13019300658132796 -0.4689299297509605
0.11205372480774915 -0.4789751826354557
0.12112336569453856 -0.4789751826354557
0.07577516126059154 -0.4990656884044461
0.10298408392095976 -0.4890204355199509
0.09391444303417035 -0.4689299297509605
0.14833228835490678 -0.4689299297509605
0.16647157012848557 -0.4488394239819701
0.17554121101527498 -0.4287489182129796
0.20275013367564318 -0.4287489182129796
0.1846108519020644 -0.43879417109747487
0.20275013367564318 -0.4287489182129796
0.20275013367564318 -0.43879417109747487
0.1936804927888538 -0.4588846768664653
0.1846108519020644 -0.4789751826354557
0.14833228835490678 -0.4689299297509605
0.1574019292416962 -0.4488394239819701
0.17554121101527498 -0.4689299297509605
0.1846108519020644 -0.4488394239819701
0.1846108519020644 -0.4287489182129796
0.1846108519020644 -0.4287489182129796
0.2118197745624326 -0.4086584124439892
0.2118197745624326 -0.4187036653284844
0.20275013367564318 -0.4187036653284844
0.1936804927888538 -0.4488394239819701
0.1846108519020644 -0.4588846768664653
0.17554121101527498 -0.4890204355199509
0.14833228835490678 -0.4588846768664653
0.14833228835490678 -0.4588846768664653
0.11205372480774915 -0.4689299297509605
0.13019300658132796 -0.4689299297509605
0.13926264746811737 -0.4488394239819701
0.1574019292416962 -0.4689299297509605
0.13019300658132796 -0.4588846768664653
0.12112336569453856 -0.4588846768664653
0.13926264746811737 -0.4588846768664653
0.13019300658132796 -0.4488394239819701
0.12112336569453856 -0.4689299297509605
0.11205372480774915 -0.4689299297509605
0.08484480214738094 -0.43879417109747487
0.09391444303417035 -0.4187036653284844
0.09391444303417035 -0.4287489182129796
0.09391444303417035 -0.398613159559494
0.05763587948701274 -0.3885679066749988
0.09391444303417035 -0.348386895137018
0.12112336569453856 -0.3383416422525227
0.10298408392095976 -0.3584321480215132
0.10298408392095976 -0.348386895137018
0.10298408392095976 -0.3785226537905036
0.09391444303417035 -0.398613159559494
0.09391444303417035 -0.4086584124439892
0.09391444303417035 -0.4187036653284844
0.11205372480774915 -0.3684774009060084
0.10298408392095976 -0.3684774009060084
0.13926264746811737 -0.3684774009060084
0.14833228835490678 -0.3584321480215132
0.1846108519020644 -0.348386895137018
0.1846108519020644 -0.3584321480215132
0.1846108519020644 -0.348386895137018
0.1846108519020644 -0.3684774009060084
0.1574019292416962 -0.3885679066749988
0.1574019292416962 -0.4086584124439892
0.11205372480774915 -0.4187036653284844
0.11205372480774915 -0.4287489182129796
0.13019300658132796 -0.3785226537905036
0.1574019292416962 -0.3684774009060084
0.1846108519020644 -0.3584321480215132
0.20275013367564318 -0.3282963893680275
0.2118197745624326 -0.3182511364835323
0.20275013367564318 -0.2881153778300467
0.16647157012848557 -0.3383416422525227
0.13019300658132796 -0.3383416422525227
0.09391444303417035 -0.3383416422525227
0.13019300658132796 -0.3383416422525227
0.2571679789963796 -0.2579796191765611
0.4839090011661147 -0.15752709033160897
0.8104160730905332 0.053423220242790434
1.2276195538828458 0.28446403658618025
1.7083105208826843 0.5054596000450748
2.243419333203259 0.7565909221574552
2.805737068184202 0.9474507269628641
3.3952637258255134 1.1383105317682731
3.9575814608064563 1.3090798308046916
4.401993864259137 1.5300753942635863
4.683152731749608 1.7711614634914714
4.782918781504292 2.0624737971418323
4.746640217957134 2.323650372138708
4.501759914013821 2.3939671423301743
4.030138587900772 2.092609555795318
3.2682887534104617 1.4095323596496439
2.270628255863627 0.35478080677764673
1.2457588356564246 -0.8205137807082928
0.41135187407179946 -1.9154463451182706
-0.06026945204124951 -2.6186140470329353
-0.2598015515506164 -2.8195191047228394
-0.17817478356951177 -2.5282067710724787
-0.033060529380881304 -2.035989379732213
0.13019300658132796 -1.5437719883919478
0.220889415449222 -1.1821428845501203
0.2299590563360114 -0.971192573975721
0.2299590563360114 -0.8606947922462737
0.13926264746811737 -0.780332769170312
0.10298408392095976 -0.7301065047478359
0.07577516126059154 -0.6698349874408647
0.08484480214738094 -0.5995182172493982
0.08484480214738094 -0.5091109412889413
0.08484480214738094 -0.4488394239819701
0.08484480214738094 -0.4187036653284844
0.039496597713433924 -0.3885679066749988
0.03042695682664452 -0.4086584124439892
-0.0239908884940919 -0.398613159559494
-0.033060529380881304 -0.398613159559494
-0.05119981115446011 -0.3584321480215132
-0.06933909292803891 -0.3383416422525227
-0.05119981115446011 -0.3082058835990371
-0.08747837470161772 -0.2881153778300467
-0.09654801558840713 -0.24793436629206586
-0.07840873381482832 -0.2680248720610563
-0.09654801558840713 -0.2780701249455515
-0.12375693824877534 -0.2780701249455515
-0.13282657913556475 -0.3182511364835323
-0.15096586090914355 -0.3282963893680275
-0.13282657913556475 -0.3082058835990371
-0.12375693824877534 -0.3082058835990371
-0.14189622002235414 -0.3182511364835323
-0.13282657913556475 -0.2981606307145419
-0.12375693824877534 -0.3082058835990371
-0.11468729736198593 -0.2780701249455515
-0.10561765647519654 -0.2881153778300467
-0.11468729736198593 -0.2780701249455515
-0.11468729736198593 -0.2881153778300467
-0.12375693824877534 -0.2881153778300467
-0.15096586090914355 -0.2981606307145419
-0.18724442445630116 -0.3182511364835323
-0.19631406534309057 -0.348386895137018
-0.18724442445630116 -0.3282963893680275
-0.19631406534309057 -0.3282963893680275
-0.18724442445630116 -0.3082058835990371
-0.18724442445630116 -0.2981606307145419
-0.19631406534309057 -0.2780701249455515
-0.21445334711666938 -0.2579796191765611
-0.2235229880034588 -0.2780701249455515
-0.21445334711666938 -0.2881153778300467
-0.24166226977703759 -0.3182511364835323
-0.250731910663827 -0.348386895137018
-0.250731910663827 -0.3584321480215132
-0.2598015515506164 -0.3684774009060084
-0.2779408333241952 -0.3584321480215132
-0.28701047421098463 -0.3584321480215132
-0.296080115097774 -0.3584321480215132
-0.3142193968713528 -0.3383416422525227
-0.3232890377581422 -0.3383416422525227
-0.3232890377581422 -0.3584321480215132
-0.3232890377581422 -0.3383416422525227
-0.3232890377581422 -0.3584321480215132
-0.3323586786449316 -0.3584321480215132
-0.34142831953172104 -0.3684774009060084
-0.35956760130529986 -0.398613159559494
-0.40491580573924685 -0.4187036653284844
-0.41398544662603626 -0.43879417109747487
-0.4411943692864045 -0.4187036653284844
-0.4321247283996151 -0.4287489182129796
-0.39584616485245744 -0.4086584124439892
-0.41398544662603626 -0.398613159559494
-0.39584616485245744 -0.4086584124439892
-0.39584616485245744 -0.3684774009060084
-0.3777068830788786 -0.398613159559494
-0.41398544662603626 -0.398613159559494
-0.4321247283996151 -0.4086584124439892
-0.4865425737203515 -0.4488394239819701
-0.5137514963807197 -0.5191561941734365
-0.5590997008146668 -0.5292014470579317
-0.586308623475035 -0.5392466999424269
-0.6135175461354031 -0.5693824585959125
-0.6225871870221925 -0.5593372057114173
-0.6679353914561396 -0.589472964364903
-0.7042139550032972 -0.6095634701338934
-0.7042139550032972 -0.6296539759028839
-0.7404925185504548 -0.6798802403253599
-0.7949103638711912 -0.7501970105168263
-0.8402585683051382 -0.7702875162858168
-0.8674674909655065 -0.8205137807082928
-0.9037460545126641 -0.8506495393617785
-0.9218853362862429 -0.8807852980152641
-0.9309549771730323 -0.8707400451307689
-0.949094258946611 -0.8807852980152641
-0.9128156953994535 -0.8707400451307689
-0.9218853362862429 -0.8707400451307689
-0.9037460545126641 -0.8707400451307689
-0.8674674909655065 -0.8707400451307689
-0.8311889274183488 -0.9109210566687497
-0.7949103638711912 -0.9109210566687497
-0.7858407229844018 -0.9511020682067306
-0.722353236776876 -0.9511020682067306
-0.677005032342929 -0.9310115624377401
-0.6225871870221925 -0.8606947922462737
-0.5772389825882456 -0.8104685278237976
-0.4956122146071409 -0.7602422634013216
-0.39584616485245744 -0.7100159989788455
-0.3142193968713528 -0.6396992287873791
-0.23259262889024818 -0.5794277114804078
-0.17817478356951177 -0.5191561941734365
-0.13282657913556475 -0.4789751826354557
-0.07840873381482832 -0.4689299297509605
-0.05119981115446011 -0.4187036653284844
-0.0239908884940919 -0.3885679066749988
-0.005851606720513093 -0.3785226537905036
0.02135731593985512 -0.348386895137018
0.04856623860022333 -0.3383416422525227
0.04856623860022333 -0.2881153778300467
0.08484480214738094 -0.23788911340757066
0.11205372480774915 -0.22784386052307545
0.13926264746811737 -0.19770810186958981
0.17554121101527498 -0.17761759610059938
0.220889415449222 -0.16757234321610417
0.220889415449222 -0.19770810186958981
0.23902869722280082 -0.17761759610059938
0.220889415449222 -0.17761759610059938
0.220889415449222 -0.1876628489850946
0.220889415449222 -0.19770810186958981
0.23902869722280082 -0.16757234321610417
0.2480983381095902 -0.14748183744711377
0.27530726076995843 -0.12739133167812333
0.28437690165674784 -0.12739133167812333
0.28437690165674784 -0.06711981437115208
0.311585824317116 -0.06711981437115208
0.3206554652039054 -0.0872103201401425
0.32972510609069483 -0.04702930860216166
0.32972510609069483 -0.04702930860216166
0.30251618343032666 -0.05707456148665687
0.311585824317116 -0.016893549948676034
0.3206554652039054 -0.036984055717666456
0.3206554652039054 0.0031969558203143868
0.3206554652039054 0.013242208704809596
0.3206554652039054 0.03333271447380002
0.34786438786427365 0.053423220242790434
0.34786438786427365 0.07351372601178086
0.35693402875106306 0.08355897889627606
0.32972510609069483 0.07351372601178086
0.33879474697748424 0.06346847312728565
0.311585824317116 0.09360423178077128
0.3206554652039054 0.07351372601178086
0.311585824317116 0.06346847312728565
0.35693402875106306 0.06346847312728565
0.3206554652039054 0.08355897889627606
0.35693402875106306 0.1237399904342569
0.36600366963785247 0.14383049620324734
0.3750733105246419 0.16392100197223775
0.3750733105246419 0.2141472663947138
0.3932125922982207 0.24428302504819943
0.40228223318501005 0.2342377721637042
0.41135187407179946 0.2342377721637042
0.3932125922982207 0.224192519279209
0.41135187407179946 0.2342377721637042
0.41135187407179946 0.2342377721637042
0.41135187407179946 0.2141472663947138
0.41135187407179946 0.25432827793269464
0.41135187407179946 0.26437353081718984
0.40228223318501005 0.27441878370168504
0.41135187407179946 0.30455454235517065
0.42042151495858887 0.3145997952396659
0.4294911558453783 0.3246450481241611
0.4567000785057465 0.29450928947067545
0.4476304376189571 0.29450928947067545
0.4476304376189571 0.28446403658618025
0.4385607967321677 0.26437353081718984
0.4385607967321677 0.24428302504819943
0.4294911558453783 0.24428302504819943
0.4385607967321677 0.25432827793269464
0.4385607967321677 0.25432827793269464
0.4567000785057465 0.27441878370168504
0.4657697193925359 0.27441878370168504
0.4839090011661147 0.26437353081718984
0.47483936027932533 0.28446403658618025
0.5201875647132723 0.25432827793269464
0.5201875647132723 0.25432827793269464
0.5020482829396935 0.24428302504819943
0.4929786420529041 0.25432827793269464
0.4929786420529041 0.224192519279209
0.47483936027932533 0.224192519279209
0.47483936027932533 0.2342377721637042
0.4657697193925359 0.24428302504819943
0.4657697193925359 0.25432827793269464
0.4657697193925359 0.29450928947067545
0.4839090011661147 0.29450928947067545
0.4929786420529041 0.30455454235517065
0.4839090011661147 0.28446403658618025
0.4567000785057465 0.27441878370168504
0.4567000785057465 0.27441878370168504
0.4657697193925359 0.24428302504819943
0.4294911558453783 0.24428302504819943
0.4385607967321677 0.224192519279209
0.4385607967321677 0.24428302504819943
0.42042151495858887 0.25432827793269464
0.4294911558453783 0.28446403658618025
0.42042151495858887 0.3145997952396659
0.42042151495858887 0.3145997952396659
0.4294911558453783 0.3246450481241611
0.4657697193925359 0.3145997952396659
0.4657697193925359 0.3246450481241611
0.4567000785057465 0.30455454235517065
0.47483936027932533 0.28446403658618025
0.4567000785057465 0.25432827793269464
0.4476304376189571 0.27441878370168504
0.4294911558453783 0.26437353081718984
0.41135187407179946 0.26437353081718984
0.42042151495858887 0.26437353081718984
0.4294911558453783 0.25432827793269464
0.4567000785057465 0.28446403658618025
0.47483936027932533 0.3246450481241611
0.4839090011661147 0.29450928947067545
0.47483936027932533 0.3246450481241611
0.4839090011661147 0.3346903010086563
0.47483936027932533 0.29450928947067545
0.4567000785057465 0.3145997952396659
0.4567000785057465 0.29450928947067545
0.47483936027932533 0.28446403658618025
0.47483936027932533 0.3145997952396659
0.4929786420529041 0.3346903010086563
0.5111179238264829 0.3346903010086563
0.5111179238264829 0.35478080677764673
0.5201875647132723 0.3346903010086563
0.5020482829396935 0.3447355538931515
0.47483936027932533 0.35478080677764673
0.4657697193925359 0.3246450481241611
0.4385607967321677 0.27441878370168504
0.41135187407179946 0.27441878370168504
0.42042151495858887 0.2342377721637042
0.42042151495858887 0.28446403658618025
0.4385607967321677 0.28446403658618025
0.47483936027932533 0.28446403658618025
0.4839090011661147 0.30455454235517065
0.5111179238264829 0.3145997952396659
0.5111179238264829 0.3246450481241611
0.5292572056000617 0.3246450481241611
0.55646612826043 0.36482605966214193
0.5746054100340088 0.36482605966214193
0.5473964873736406 0.37487131254663714
0.5383268464868511 0.37487131254663714
0.55646612826043 0.38491656543113234
0.5473964873736406 0.415052324084618
0.5383268464868511 0.4351428298536084
0.5473964873736406 0.4451880827381036
0.5473964873736406 0.4552333356225988
0.55646612826043 0.4552333356225988
0.5655357691472194 0.48536909427608443
0.5746054100340088 0.48536909427608443
0.5836750509207982 0.48536909427608443
0.5746054100340088 0.5054596000450748
0.5746054100340088 0.51550485292957
0.5655357691472194 0.48536909427608443
0.5473964873736406 0.465278588507094
0.5292572056000617 0.47532384139158923
0.5292572056000617 0.48536909427608443
0.5383268464868511 0.5054596000450748
0.5655357691472194 0.5255501058140652
0.5655357691472194 0.5456406115830558
0.5746054100340088 0.555685864467551
0.5746054100340088 0.5255501058140652
0.55646612826043 0.5255501058140652
0.55646612826043 0.51550485292957
0.5383268464868511 0.51550485292957
0.5292572056000617 0.48536909427608443
0.5383268464868511 0.4954143471605797
0.5383268464868511 0.5054596000450748
0.5473964873736406 0.5255501058140652
0.5746054100340088 0.5355953586985605
0.5927446918075876 0.555685864467551
0.601814332694377 0.5958668760055318
0.6290232553547451 0.5858216231210366
0.6199536144679557 0.5757763702365414
0.6108839735811663 0.5858216231210366
0.5836750509207982 0.5657311173520462
0.5746054100340088 0.555685864467551
0.5383268464868511 0.5456406115830558
0.5383268464868511 0.5355953586985605
0.5473964873736406 0.5355953586985605
0.5473964873736406 0.5355953586985605
0.5655357691472194 0.5757763702365414
0.5655357691472194 0.5757763702365414
0.5746054100340088 0.5757763702365414
0.5836750509207982 0.5657311173520462
0.6108839735811663 0.5657311173520462
0.5836750509207982 0.555685864467551
0.5836750509207982 0.51550485292957
0.55646612826043 0.4954143471605797
0.5473964873736406 0.4954143471605797
0.5111179238264829 0.4552333356225988
0.5111179238264829 0.47532384139158923
0.5383268464868511 0.5054596000450748
0.5292572056000617 0.5255501058140652
0.5292572056000617 0.5255501058140652
0.5473964873736406 0.5355953586985605
0.55646612826043 0.5456406115830558
0.5655357691472194 0.5456406115830558
0.5655357691472194 0.5456406115830558
0.5473964873736406 0.51550485292957
0.5655357691472194 0.5054596000450748
0.55646612826043 0.51550485292957
0.55646612826043 0.5456406115830558
0.5383268464868511 0.5355953586985605
0.55646612826043 0.5456406115830558
0.5655357691472194 0.5757763702365414
0.5383268464868511 0.5958668760055318
0.5473964873736406 0.5958668760055318
0.5473964873736406 0.6159573817745222
0.5655357691472194 0.605912128890027
0.5746054100340088 0.605912128890027
0.5473964873736406 0.6159573817745222
0.5383268464868511 0.5958668760055318
0.5292572056000617 0.5757763702365414
0.5292572056000617 0.5657311173520462
0.5020482829396935 0.5657311173520462
0.5111179238264829 0.5657311173520462
0.5020482829396935 0.5958668760055318
0.5292572056000617 0.605912128890027
0.5473964873736406 0.6460931404280078
0.55646612826043 0.656138393312503
0.5655357691472194 0.6260026346590174
0.5746054100340088 0.6159573817745222
0.5383268464868511 0.605912128890027
0.5292572056000617 0.605912128890027
0.5201875647132723 0.5858216231210366
0.4929786420529041 0.5657311173520462
0.4929786420529041 0.5858216231210366
0.5292572056000617 0.5757763702365414
0.5383268464868511 0.5858216231210366
0.5383268464868511 0.6159573817745222
0.55646612826043 0.5858216231210366
0.5746054100340088 0.605912128890027
0.55646612826043 0.6260026346590174
0.5655357691472194 0.605912128890027
0.5836750509207982 0.605912128890027
0.55646612826043 0.5858216231210366
0.5655357691472194 0.5757763702365414
0.5383268464868511 0.5958668760055318
0.5292572056000617 0.6260026346590174
0.5383268464868511 0.605912128890027
0.5655357691472194 0.6360478875435126
0.5746054100340088 0.6661836461969982
0.55646612826043 0.6862741519659886
0.5836750509207982 0.7365004163884648
0.5927446918075876 0.706364657734979
0.5836750509207982 0.706364657734979
0.601814332694377 0.6862741519659886
0.6108839735811663 0.6460931404280078
0.5927446918075876 0.6661836461969982
0.5746054100340088 0.6460931404280078
0.55646612826043 0.6762288990814934
0.5746054100340088 0.706364657734979
0.5836750509207982 0.74654566927296
0.6199536144679557 0.7666361750419504
0.6380928962415345 0.7565909221574552
0.6562321780151134 0.7766814279264456
0.6380928962415345 0.7565909221574552
0.601814332694377 0.7666361750419504
0.5836750509207982 0.74654566927296
0.55646612826043 0.7666361750419504
0.5927446918075876 0.7666361750419504
0.7469285868830075 0.846998198117912
0.9736696090527425 1.0177674971543307
1.3273856036375293 1.2186725548442348
1.7627283662034205 1.4999396356101007
2.270628255863627 1.7912519692604618
2.869224554391728 2.042383291372842
3.4678208529198287 2.3035598663697177
4.05734751056114 2.5044649240596217
4.4745509913534525 2.7455509932875066
4.746640217957134 3.006727568284382
4.846406267711818 3.287994649050248
4.81012770416466 3.579306982700609
4.628734886428872 3.7500762817370275
4.265949250957296 3.61948799423859
3.703631515976353 3.056953832706858
2.914572758825675 2.1227453144488035
1.971330106599577 0.9574959798473593
1.1550624267885305 -0.24793436629206586
0.601814332694377 -1.222323896088101
0.32972510609069483 -1.7647675518508426
0.266237619883169 -1.7446770460818521
0.34786438786427365 -1.3629574364710342
0.4385607967321677 -0.8406042864772832
0.5655357691472194 -0.4187036653284844
0.5836750509207982 -0.0972555730246377
0.5927446918075876 0.1136947375497617
0.5383268464868511 0.2342377721637042
0.4657697193925359 0.28446403658618025
0.4294911558453783 0.35478080677764673
0.40228223318501005 0.4250975769691132
0.3932125922982207 0.48536909427608443
0.3841429514114313 0.5054596000450748
0.35693402875106306 0.555685864467551
0.35693402875106306 0.5858216231210366
0.34786438786427365 0.6260026346590174
0.32972510609069483 0.5858216231210366
0.29344654254353725 0.5858216231210366
0.30251618343032666 0.6159573817745222
0.266237619883169 0.6460931404280078
0.2571679789963796 0.6460931404280078
0.2571679789963796 0.656138393312503
0.2299590563360114 0.6661836461969982
0.2299590563360114 0.6963194048504838
0.220889415449222 0.6963194048504838
0.20275013367564318 0.7164099106194742
0.1846108519020644 0.706364657734979
0.13926264746811737 0.6862741519659886
0.13926264746811737 0.6762288990814934
0.12112336569453856 0.6460931404280078
0.08484480214738094 0.6661836461969982
0.09391444303417035 0.6460931404280078
0.06670552037380213 0.6460931404280078
0.09391444303417035 0.6862741519659886
0.08484480214738094 0.7164099106194742
0.12112336569453856 0.7264551635039695
0.08484480214738094 0.7264551635039695
0.11205372480774915 0.7264551635039695
0.10298408392095976 0.7164099106194742
0.06670552037380213 0.7264551635039695
0.10298408392095976 0.7164099106194742
0.09391444303417035 0.7365004163884648
0.12112336569453856 0.74654566927296
0.08484480214738094 0.74654566927296
0.09391444303417035 0.74654566927296
0.10298408392095976 0.7565909221574552
0.10298408392095976 0.796771933695436
0.10298408392095976 0.796771933695436
0.10298408392095976 0.7666361750419504
0.06670552037380213 0.7666361750419504
0.04856623860022333 0.74654566927296
0.02135731593985512 0.7264551635039695
0.02135731593985512 0.6963194048504838
-0.0239908884940919 0.6762288990814934
-0.033060529380881304 0.6862741519659886
-0.0239908884940919 0.706364657734979
-0.0239908884940919 0.706364657734979
-0.014921247607302497 0.6963194048504838
-0.014921247607302497 0.7264551635039695
-0.033060529380881304 0.7164099106194742
-0.05119981115446011 0.706364657734979
-0.10561765647519654 0.6862741519659886
-0.13282657913556475 0.6460931404280078
-0.15096586090914355 0.6260026346590174
-0.17817478356951177 0.5958668760055318
-0.19631406534309057 0.5757763702365414
-0.19631406534309057 0.5958668760055318
-0.23259262889024818 0.5858216231210366
-0.23259262889024818 0.5858216231210366
-0.2598015515506164 0.5757763702365414
-0.2598015515506164 0.5958668760055318
-0.2688711924374058 0.605912128890027
-0.296080115097774 0.5657311173520462
-0.3323586786449316 0.555685864467551
-0.35956760130529986 0.47532384139158923
-0.38677652396566803 0.465278588507094
-0.4502640101731939 0.4050070712001228
-0.4502640101731939 0.37487131254663714
-0.47747293283356207 0.35478080677764673
-0.4865425737203515 0.3346903010086563
-0.5137514963807197 0.3246450481241611
-0.5318907781542985 0.3145997952396659
-0.5409604190410879 0.27441878370168504
-0.5590997008146668 0.25432827793269464
-0.5953782643618243 0.2141472663947138
-0.6407264687957713 0.18401150774122815
-0.6860746732297184 0.1337852433187521
-0.722353236776876 0.06346847312728565
-0.7586318003240337 0.03333271447380002
-0.8039800047579806 -0.006848297064180823
-0.8221192865315594 0.0031969558203143868
-0.8493282091919276 -0.036984055717666456
-0.8765371318522959 -0.06711981437115208
-0.8856067727390853 -0.11734607879362813
-0.8674674909655065 -0.12739133167812333
-0.8856067727390853 -0.15752709033160897
-0.8765371318522959 -0.1876628489850946
-0.8856067727390853 -0.22784386052307545
-0.858397850078717 -0.2579796191765611
-0.858397850078717 -0.2780701249455515
-0.8311889274183488 -0.2780701249455515
-0.81304964564477 -0.2981606307145419
-0.7858407229844018 -0.2680248720610563
-0.7495621594372442 -0.2579796191765611
-0.6860746732297184 -0.22784386052307545
-0.6044479052486137 -0.16757234321610417
-0.5046818554939303 -0.11734607879362813
-0.4411943692864045 -0.04702930860216166
-0.35956760130529986 -0.016893549948676034
-0.28701047421098463 0.023287461589304805
-0.23259262889024818 0.08355897889627606
-0.16003550179593296 0.1237399904342569
-0.11468729736198593 0.16392100197223775
-0.06026945204124951 0.19405676062572338
0.0032180341662763107 0.25432827793269464
0.04856623860022333 0.3246450481241611
0.10298408392095976 0.36482605966214193
0.13926264746811737 0.4351428298536084
0.17554121101527498 0.47532384139158923
0.220889415449222 0.5054596000450748
0.266237619883169 0.5355953586985605
0.28437690165674784 0.5355953586985605
0.30251618343032666 0.555685864467551
0.311585824317116 0.5657311173520462
0.29344654254353725 0.5657311173520462
0.30251618343032666 0.5757763702365414
0.34786438786427365 0.605912128890027
0.32972510609069483 0.6260026346590174
0.33879474697748424 0.6360478875435126
0.33879474697748424 0.6159573817745222
0.32972510609069483 0.656138393312503
0.34786438786427365 0.656138393312503
0.3206554652039054 0.656138393312503
0.32972510609069483 0.6661836461969982
0.34786438786427365 0.6460931404280078
0.3206554652039054 0.6360478875435126
0.32972510609069483 0.6260026346590174
0.28437690165674784 0.605912128890027
0.266237619883169 0.6460931404280078
0.266237619883169 0.6460931404280078
0.29344654254353725 0.6661836461969982
0.311585824317116 0.6963194048504838
0.32972510609069483 0.7365004163884648
0.32972510609069483 0.74654566927296
0.34786438786427365 0.74654566927296
0.32972510609069483 0.74654566927296
0.32972510609069483 0.7264551635039695
0.28437690165674784 0.6963194048504838
0.30251618343032666 0.7164099106194742
0.30251618343032666 0.6963194048504838
0.311585824317116 0.706364657734979
0.29344654254353725 0.7264551635039695
0.30251618343032666 0.7264551635039695
0.311585824317116 0.7565909221574552
0.32972510609069483 0.7565909221574552
0.34786438786427365 0.74654566927296
0.35693402875106306 0.7565909221574552
0.34786438786427365 0.7565909221574552
0.36600366963785247 0.7264551635039695
0.34786438786427365 0.7164099106194742
0.35693402875106306 0.7164099106194742
0.34786438786427365 0.7164099106194742
0.34786438786427365 0.74654566927296
0.34786438786427365 0.7666361750419504
0.3750733105246419 0.7766814279264456
0.41135187407179946 0.8269076923489216
0.42042151495858887 0.8670887038869024
0.4567000785057465 0.8871792096558928
0.4476304376189571 0.8670887038869024
0.4476304376189571 0.8871792096558928
0.4385607967321677 0.8771339567713976
0.4476304376189571 0.8871792096558928
0.4385607967321677 0.846998198117912
0.4294911558453783 0.846998198117912
0.42042151495858887 0.8570434510024072
0.42042151495858887 0.8871792096558928
0.42042151495858887 0.9072697154248833
0.4385607967321677 0.9173149683093785
0.4476304376189571 0.8871792096558928
0.4567000785057465 0.9273602211938737
0.4657697193925359 0.9072697154248833
0.4657697193925359 0.9173149683093785
0.4657697193925359 0.8871792096558928
0.4567000785057465 0.8570434510024072
0.4294911558453783 0.846998198117912
0.4294911558453783 0.8269076923489216
0.42042151495858887 0.8168624394644264
0.4385607967321677 0.8269076923489216
0.4476304376189571 0.8269076923489216
0.4476304376189571 0.8269076923489216
0.47483936027932533 0.8269076923489216
0.47483936027932533 0.8369529452334168
0.4657697193925359 0.8168624394644264
0.4567000785057465 0.7867266808109408
0.42042151495858887 0.74654566927296
0.3841429514114313 0.7666361750419504
0.3932125922982207 0.7164099106194742
0.3841429514114313 0.706364657734979
0.3750733105246419 0.6762288990814934
0.35693402875106306 0.6661836461969982
0.35693402875106306 0.6661836461969982
0.3750733105246419 0.6460931404280078
0.35693402875106306 0.6260026346590174
0.3750733105246419 0.6460931404280078
0.40228223318501005 0.6260026346590174
0.3750733105246419 0.6260026346590174
0.3841429514114313 0.5858216231210366
0.34786438786427365 0.5858216231210366
0.29344654254353725 0.5657311173520462
0.27530726076995843 0.5355953586985605
0.23902869722280082 0.555685864467551
0.23902869722280082 0.5355953586985605
0.2299590563360114 0.5456406115830558
0.2299590563360114 0.5657311173520462
0.23902869722280082 0.5858216231210366
0.2480983381095902 0.5958668760055318
0.2480983381095902 0.555685864467551
0.2571679789963796 0.5355953586985605
0.2480983381095902 0.51550485292957
0.266237619883169 0.51550485292957
0.23902869722280082 0.51550485292957
0.23902869722280082 0.51550485292957
0.20275013367564318 0.4954143471605797
0.220889415449222 0.5355953586985605
0.2299590563360114 0.5355953586985605
0.2480983381095902 0.5355953586985605
0.27530726076995843 0.5757763702365414
0.29344654254353725 0.5958668760055318
0.29344654254353725 0.605912128890027
0.28437690165674784 0.6260026346590174
0.27530726076995843 0.6159573817745222
0.30251618343032666 0.6360478875435126
0.30251618343032666 0.6360478875435126
0.29344654254353725 0.6360478875435126
0.27530726076995843 0.6260026346590174
0.28437690165674784 0.605912128890027
0.32972510609069483 0.6260026346590174
0.3206554652039054 0.6460931404280078
0.3206554652039054 0.6661836461969982
0.33879474697748424 0.6661836461969982
0.33879474697748424 0.656138393312503
0.35693402875106306 0.6460931404280078
0.33879474697748424 0.6360478875435126
0.3206554652039054 0.6159573817745222
0.311585824317116 0.5858216231210366
0.2571679789963796 0.5757763702365414
0.28437690165674784 0.5757763702365414
0.29344654254353725 0.605912128890027
0.28437690165674784 0.6159573817745222
0.311585824317116 0.6460931404280078
0.32972510609069483 0.6460931404280078
0.34786438786427365 0.656138393312503
0.3750733105246419 0.6460931404280078
0.35693402875106306 0.6360478875435126
0.35693402875106306 0.6260026346590174
0.33879474697748424 0.605912128890027
0.28437690165674784 0.5657311173520462
0.220889415449222 0.555685864467551
0.17554121101527498 0.5456406115830558
0.14833228835490678 0.5355953586985605
0.220889415449222 0.5757763702365414
0.34786438786427365 0.6360478875435126
0.5655357691472194 0.7867266808109408
0.8739035592980591 0.9675412327318546
1.2366891947696352 1.1684462904217587
1.6720319573355267 1.3793966009961582
2.1617925652221546 1.560211152917072
2.696901377542729 1.7108899461845
3.232010189863304 1.8816592452209187
3.7308404386367213 2.032338038488347
4.1389742785422445 2.19306208464027
4.429202786919506 2.42410290098366
4.565247400221346 2.705369981749526
4.583386681994925 2.996682315399887
4.465481350466663 3.2076326259742864
4.220601046523349 3.1774968673208006
3.7399100795235105 2.795777257709983
3.023408449467148 2.0222927856038515
2.0892354381278393 0.9273602211938737
1.118783863241373 -0.24793436629206586
0.36600366963785247 -1.3328216778175486
-0.08747837470161772 -2.1063061499236797
-0.20538370622987998 -2.367482724920555
-0.17817478356951177 -2.156532414346156
-0.033060529380881304 -1.7044960345438713
0.08484480214738094 -1.1620523787811299
0.1574019292416962 -0.7501970105168263
0.2118197745624326 -0.4588846768664653
0.1936804927888538 -0.2981606307145419
0.13019300658132796 -0.19770810186958981
0.10298408392095976 -0.14748183744711377
0.06670552037380213 -0.0972555730246377
0.039496597713433924 -0.006848297064180823
0.05763587948701274 0.023287461589304805
0.06670552037380213 0.1337852433187521
0.06670552037380213 0.2342377721637042
0.08484480214738094 0.3346903010086563
0.08484480214738094 0.39496181831562754
0.07577516126059154 0.4250975769691132
0.06670552037380213 0.47532384139158923
0.04856623860022333 0.4954143471605797
0.03042695682664452 0.5054596000450748
0.012287675053065715 0.47532384139158923
0.012287675053065715 0.47532384139158923
-0.014921247607302497 0.4451880827381036
-0.0239908884940919 0.4451880827381036
-0.07840873381482832 0.465278588507094
-0.10561765647519654 0.4552333356225988
-0.09654801558840713 0.5054596000450748
-0.09654801558840713 0.4954143471605797
-0.07840873381482832 0.51550485292957
-0.06026945204124951 0.5355953586985605
-0.06933909292803891 0.5355953586985605
-0.06933909292803891 0.5054596000450748
-0.06026945204124951 0.51550485292957
-0.06933909292803891 0.4954143471605797
-0.09654801558840713 0.48536909427608443
-0.14189622002235414 0.4552333356225988
-0.14189622002235414 0.4552333356225988
-0.14189622002235414 0.48536909427608443
-0.16003550179593296 0.47532384139158923
-0.16003550179593296 0.4954143471605797
-0.16003550179593296 0.4954143471605797
-0.16910514268272236 0.48536909427608443
-0.18724442445630116 0.465278588507094
-0.2235229880034588 0.4351428298536084
-0.23259262889024818 0.4250975769691132
-0.296080115097774 0.39496181831562754
-0.28701047421098463 0.3447355538931515
-0.3142193968713528 0.3145997952396659
-0.3323586786449316 0.3346903010086563
-0.3323586786449316 0.30455454235517065
-0.3323586786449316 0.3246450481241611
-0.34142831953172104 0.3246450481241611
-0.35956760130529986 0.3346903010086563
-0.35956760130529986 0.3346903010086563
-0.34142831953172104 0.30455454235517065
-0.34142831953172104 0.28446403658618025
-0.38677652396566803 0.27441878370168504
-0.41398544662603626 0.26437353081718984
-0.4593336510599833 0.2342377721637042
-0.47747293283356207 0.19405676062572338
-0.5046818554939303 0.17396625485673295
-0.5137514963807197 0.16392100197223775
-0.5137514963807197 0.17396625485673295
-0.5228211372675091 0.17396625485673295
-0.5318907781542985 0.17396625485673295
-0.5228211372675091 0.16392100197223775
-0.5137514963807197 0.16392100197223775
-0.5318907781542985 0.14383049620324734
-0.5409604190410879 0.1337852433187521
-0.5681693417014562 0.09360423178077128
-0.5590997008146668 0.06346847312728565
-0.5772389825882456 0.06346847312728565
-0.6044479052486137 0.053423220242790434
-0.6135175461354031 0.06346847312728565
-0.6316568279089819 0.04337796735829522
-0.6497961096825607 0.03333271447380002
-0.6225871870221925 0.053423220242790434
-0.6225871870221925 0.06346847312728565
-0.6225871870221925 0.023287461589304805
-0.6588657505693502 -0.006848297064180823
-0.677005032342929 0.0031969558203143868
-0.722353236776876 -0.05707456148665687
-0.7495621594372442 -0.0872103201401425
-0.7949103638711912 -0.11734607879362813
-0.7858407229844018 -0.12739133167812333
-0.8311889274183488 -0.14748183744711377
-0.8311889274183488 -0.14748183744711377
-0.858397850078717 -0.15752709033160897
-0.858397850078717 -0.16757234321610417
-0.8674674909655065 -0.19770810186958981
-0.858397850078717 -0.20775335475408502
-0.8856067727390853 -0.21779860763858022
-0.9218853362862429 -0.2579796191765611
-0.949094258946611 -0.2981606307145419
-0.9309549771730323 -0.3282963893680275
-0.9218853362862429 -0.3785226537905036
-0.8946764136258747 -0.3785226537905036
-0.8674674909655065 -0.3584321480215132
-0.8221192865315594 -0.3383416422525227
-0.7767710820976124 -0.2981606307145419
-0.722353236776876 -0.2680248720610563
-0.6497961096825607 -0.2579796191765611
-0.586308623475035 -0.23788911340757066
-0.5409604190410879 -0.20775335475408502
-0.5046818554939303 -0.16757234321610417
-0.4865425737203515 -0.1876628489850946
-0.4411943692864045 -0.16757234321610417
-0.39584616485245744 -0.11734607879362813
-0.35956760130529986 -0.0872103201401425
-0.3323586786449316 -0.05707456148665687
-0.28701047421098463 -0.02693880283317124
-0.2779408333241952 -0.016893549948676034
-0.2598015515506164 -0.006848297064180823
-0.2235229880034588 0.0031969558203143868
-0.23259262889024818 0.023287461589304805
-0.2235229880034588 0.0031969558203143868
-0.21445334711666938 0.0031969558203143868
-0.23259262889024818 0.013242208704809596
-0.21445334711666938 0.0031969558203143868
-0.21445334711666938 -0.016893549948676034
-0.2235229880034588 -0.02693880283317124
-0.19631406534309057 -0.006848297064180823
-0.18724442445630116 -0.006848297064180823
-0.16910514268272236 0.023287461589304805
-0.16003550179593296 0.013242208704809596
-0.14189622002235414 0.0031969558203143868
-0.12375693824877534 0.013242208704809596
-0.12375693824877534 -0.016893549948676034
-0.12375693824877534 -0.006848297064180823
-0.15096586090914355 -0.02693880283317124
-0.15096586090914355 -0.036984055717666456
-0.15096586090914355 -0.02693880283317124
-0.12375693824877534 -0.016893549948676034
-0.12375693824877534 0.0031969558203143868
-0.11468729736198593 0.03333271447380002
-0.07840873381482832 0.013242208704809596
-0.06933909292803891 0.03333271447380002
-0.05119981115446011 0.03333271447380002
-0.05119981115446011 0.023287461589304805
-0.0239908884940919 0.013242208704809596
-0.033060529380881304 0.013242208704809596
-0.05119981115446011 -0.016893549948676034
-0.06026945204124951 -0.016893549948676034
-0.06026945204124951 -0.016893549948676034
-0.05119981115446011 0.013242208704809596
-0.033060529380881304 0.0031969558203143868
-0.033060529380881304 0.023287461589304805
-0.005851606720513093 0.04337796735829522
0.012287675053065715 0.07351372601178086
0.04856623860022333 0.09360423178077128
0.06670552037380213 0.09360423178077128
0.05763587948701274 0.08355897889627606
0.039496597713433924 0.08355897889627606
0.012287675053065715 0.08355897889627606
-0.0239908884940919 0.08355897889627606
-0.0239908884940919 0.09360423178077128
-0.0239908884940919 0.10364948466526648
-0.033060529380881304 0.1237399904342569
-0.014921247607302497 0.15387574908774254
0.012287675053065715 0.15387574908774254
0.0032180341662763107 0.19405676062572338
0.03042695682664452 0.2141472663947138
0.039496597713433924 0.2041020135102186
-0.005851606720513093 0.2041020135102186
-0.0239908884940919 0.18401150774122815
-0.033060529380881304 0.19405676062572338
-0.05119981115446011 0.16392100197223775
-0.06933909292803891 0.16392100197223775
-0.10561765647519654 0.16392100197223775
-0.10561765647519654 0.14383049620324734
-0.13282657913556475 0.16392100197223775
-0.13282657913556475 0.14383049620324734
-0.15096586090914355 0.1136947375497617
-0.15096586090914355 0.15387574908774254
-0.17817478356951177 0.1136947375497617
-0.17817478356951177 0.10364948466526648
-0.18724442445630116 0.06346847312728565
-0.2235229880034588 0.03333271447380002
-0.19631406534309057 0.013242208704809596
-0.20538370622987998 0.0031969558203143868
-0.20538370622987998 -0.006848297064180823
-0.19631406534309057 0.023287461589304805
-0.16003550179593296 0.023287461589304805
-0.12375693824877534 0.013242208704809596
-0.13282657913556475 0.03333271447380002
-0.08747837470161772 0.03333271447380002
-0.09654801558840713 0.023287461589304805
-0.08747837470161772 0.04337796735829522
-0.07840873381482832 0.023287461589304805
-0.06933909292803891 0.023287461589304805
-0.06933909292803891 0.03333271447380002
-0.06933909292803891 -0.006848297064180823
-0.08747837470161772 0.023287461589304805
-0.07840873381482832 0.053423220242790434
-0.08747837470161772 0.07351372601178086
-0.07840873381482832 0.07351372601178086
-0.08747837470161772 0.1136947375497617
-0.05119981115446011 0.09360423178077128
-0.033060529380881304 0.1237399904342569
-0.0239908884940919 0.09360423178077128
-0.033060529380881304 0.08355897889627606
-0.033060529380881304 0.07351372601178086
-0.0239908884940919 0.03333271447380002
-0.04213017026767071 0.03333271447380002
-0.05119981115446011 0.023287461589304805
-0.04213017026767071 0.04337796735829522
-0.06026945204124951 0.03333271447380002
-0.0239908884940919 0.06346847312728565
-0.005851606720513093 0.08355897889627606
0.0032180341662763107 0.08355897889627606
0.04856623860022333 0.1136947375497617
0.05763587948701274 0.09360423178077128
0.04856623860022333 0.10364948466526648
0.03042695682664452 0.08355897889627606
0.03042695682664452 0.053423220242790434
0.02135731593985512 0.06346847312728565
-0.0239908884940919 0.04337796735829522
-0.06933909292803891 0.04337796735829522
-0.11468729736198593 0.053423220242790434
-0.09654801558840713 0.053423220242790434
-0.10561765647519654 0.07351372601178086
0.012287675053065715 0.1237399904342569
0.220889415449222 0.2041020135102186
0.47483936027932533 0.37487131254663714
0.8466946366376908 0.5657311173520462
1.2185499129960564 0.7867266808109408
1.7173801617694737 0.9976769913853402
2.22528005142968 1.1684462904217587
2.778528145523834 1.3191250836891868
3.349915521391566 1.4798491298411103
3.8396761292781942 1.6807541875310144
4.202461764749771 1.901749750989909
4.383854582485558 2.19306208464027
4.420133146032716 2.4843744182906313
4.275018891844086 2.635053211558059
3.9122332563725095 2.5446459355976025
3.3136369578444085 2.002202279834861
2.4157425100522576 1.0679937615768067
1.390873089845055 -0.05707456148665687
0.4385607967321677 -1.2424144018570917
-0.21445334711666938 -2.1866681729996413
-0.5318907781542985 -2.6788855643399065
-0.586308623475035 -2.6688403114554116
-0.5046818554939303 -2.2770754489600984
-0.3777068830788786 -1.784858057619833
-0.250731910663827 -1.2926406662795678
-0.19631406534309057 -0.9812378268602162
-0.16910514268272236 -0.7903780220548072
-0.2235229880034588 -0.7100159989788455
-0.2598015515506164 -0.6396992287873791
-0.3232890377581422 -0.589472964364903
-0.3323586786449316 -0.5492919528269221
-0.3232890377581422 -0.4890204355199509
-0.3142193968713528 -0.3885679066749988
-0.296080115097774 -0.3182511364835323
-0.2779408333241952 -0.24793436629206586
-0.296080115097774 -0.19770810186958981
-0.3051497559845634 -0.1876628489850946
-0.2779408333241952 -0.17761759610059938
-0.3051497559845634 -0.17761759610059938
-0.3142193968713528 -0.19770810186958981
-0.3323586786449316 -0.19770810186958981
-0.36863724219208927 -0.19770810186958981
-0.40491580573924685 -0.19770810186958981
-0.40491580573924685 -0.1876628489850946
-0.4321247283996151 -0.17761759610059938
-0.4321247283996151 -0.14748183744711377
-0.42305508751282567 -0.12739133167812333
-0.41398544662603626 -0.10730082590913292
-0.39584616485245744 -0.11734607879362813
-0.39584616485245744 -0.10730082590913292
-0.38677652396566803 -0.0972555730246377
-0.41398544662603626 -0.11734607879362813
-0.4321247283996151 -0.13743658456261856
-0.4502640101731939 -0.14748183744711377
-0.46840329194677266 -0.15752709033160897
-0.47747293283356207 -0.16757234321610417
-0.4956122146071409 -0.13743658456261856
-0.4956122146071409 -0.11734607879362813
-0.4956122146071409 -0.11734607879362813
-0.4956122146071409 -0.0972555730246377
-0.5046818554939303 -0.0771650672556473
-0.5046818554939303 -0.0872103201401425
-0.5046818554939303 -0.10730082590913292
-0.5318907781542985 -0.10730082590913292
-0.5500300599278773 -0.10730082590913292
-0.5681693417014562 -0.14748183744711377
-0.5772389825882456 -0.15752709033160897
-0.6044479052486137 -0.16757234321610417
-0.6135175461354031 -0.15752709033160897
-0.5953782643618243 -0.14748183744711377
-0.6044479052486137 -0.13743658456261856
-0.6225871870221925 -0.13743658456261856
-0.6225871870221925 -0.12739133167812333
-0.6407264687957713 -0.16757234321610417
-0.677005032342929 -0.16757234321610417
-0.7314228776636654 -0.1876628489850946
-0.7314228776636654 -0.22784386052307545
-0.7767710820976124 -0.2680248720610563
-0.7858407229844018 -0.2981606307145419
-0.7949103638711912 -0.3182511364835323
-0.8039800047579806 -0.3182511364835323
-0.7949103638711912 -0.3282963893680275
-0.7858407229844018 -0.3383416422525227
-0.767701441210823 -0.348386895137018
-0.7767710820976124 -0.3182511364835323
-0.767701441210823 -0.3383416422525227
-0.7949103638711912 -0.3684774009060084
-0.7949103638711912 -0.3584321480215132
-0.8493282091919276 -0.3684774009060084
-0.8493282091919276 -0.3885679066749988
-0.8765371318522959 -0.3584321480215132
-0.8946764136258747 -0.3885679066749988
-0.9128156953994535 -0.398613159559494
-0.9400246180598216 -0.3885679066749988
-0.949094258946611 -0.4086584124439892
-0.9763031816069793 -0.398613159559494
-0.9853728224937687 -0.3785226537905036
-0.9944424633805581 -0.43879417109747487
-1.0216513860409262 -0.4689299297509605
-1.0488603087012944 -0.4789751826354557
-1.0760692313616627 -0.5292014470579317
-1.1032781540220309 -0.5593372057114173
-1.1395567175691885 -0.6196087230183887
-1.1667656402295568 -0.6597897345563695
-1.193974562889925 -0.6798802403253599
-1.2030442037767144 -0.6999707460943503
-1.2121138446635038 -0.7100159989788455
-1.2302531264370826 -0.7200612518633407
-1.239322767323872 -0.7401517576323311
-1.239322767323872 -0.7501970105168263
-1.2574620490974509 -0.7702875162858168
-1.2574620490974509 -0.8205137807082928
-1.2665316899842403 -0.830559033592788
-1.2483924082106614 -0.8908305508997593
-1.2483924082106614 -0.8908305508997593
-1.239322767323872 -0.9109210566687497
-1.193974562889925 -0.9008758037842545
-1.1214174357956097 -0.8606947922462737
-1.085138872248452 -0.8205137807082928
