0.14612232407165104 0.6089301632061734
0.13236467850875747 0.5885087994224879
0.13236467850875747 0.6293515269898589
0.14612232407165104 0.6089301632061734
0.15987996963454462 0.711036982124601
0.18739526076033178 0.751879709691972
0.21491055188611896 0.6906156183409154
0.22866819744901254 0.711036982124601
0.21491055188611896 0.6497728907735444
0.21491055188611896 0.6906156183409154
0.20115290632322538 0.6089301632061734
0.20115290632322538 0.6089301632061734
0.1736376151974382 0.5272447080714313
0.14612232407165104 0.5680874356388024
0.14612232407165104 0.6293515269898589
0.14612232407165104 0.6089301632061734
0.18739526076033178 0.6293515269898589
0.21491055188611896 0.6497728907735444
0.22866819744901254 0.6701942545572299
0.22866819744901254 0.6701942545572299
0.24242584301190612 0.6701942545572299
0.24242584301190612 0.6089301632061734
0.24242584301190612 0.6089301632061734
0.20115290632322538 0.5885087994224879
0.21491055188611896 0.5476660718551168
0.18739526076033178 0.5272447080714313
0.20115290632322538 0.5068233442877458
0.15987996963454462 0.5680874356388024
0.21491055188611896 0.6089301632061734
0.22866819744901254 0.6497728907735444
0.22866819744901254 0.6293515269898589
0.2561834885747997 0.6497728907735444
0.2561834885747997 0.6293515269898589
0.2836987797005869 0.5885087994224879
0.22866819744901254 0.5680874356388024
0.22866819744901254 0.5680874356388024
0.22866819744901254 0.5068233442877458
0.21491055188611896 0.4659806167203748
0.21491055188611896 0.5272447080714313
0.22866819744901254 0.5068233442877458
0.2561834885747997 0.5680874356388024
0.2699411341376933 0.5272447080714313
0.29745642526348043 0.6089301632061734
0.3387293619521612 0.6089301632061734
0.3524870075150548 0.5272447080714313
0.36624465307794835 0.5476660718551168
0.3387293619521612 0.5068233442877458
0.36624465307794835 0.4659806167203748
0.3524870075150548 0.4864019805040603
0.36624465307794835 0.4659806167203748
0.3524870075150548 0.4864019805040603
0.36624465307794835 0.5272447080714313
0.39375994420373556 0.5476660718551168
0.4075175897666291 0.5885087994224879
0.44879052645530987 0.5885087994224879
0.49006346314399063 0.5476660718551168
0.49006346314399063 0.5680874356388024
0.5038211087068842 0.5068233442877458
0.4625481720182034 0.5068233442877458
0.5038211087068842 0.5068233442877458
0.44879052645530987 0.4659806167203748
0.476305817581097 0.4659806167203748
0.4625481720182034 0.4864019805040603
0.476305817581097 0.4659806167203748
0.5313363998326713 0.5272447080714313
0.5450940453955649 0.4864019805040603
0.5588516909584585 0.5476660718551168
0.6001246276471393 0.5272447080714313
0.5863669820842456 0.5476660718551168
0.6413975643358201 0.5068233442877458
0.6413975643358201 0.42513788915300377
0.6276399187729265 0.42513788915300377
0.6413975643358201 0.40471652536931824
0.6413975643358201 0.40471652536931824
0.6689128554616072 0.44555925293668924
0.6689128554616072 0.42513788915300377
0.6826705010245008 0.4864019805040603
0.710185792150288 0.5068233442877458
0.7652163744018623 0.4864019805040603
0.7789740199647559 0.5272447080714313
0.7652163744018623 0.4659806167203748
0.7514587288389687 0.4864019805040603
0.7377010832760751 0.4659806167203748
0.7652163744018623 0.42513788915300377
0.7377010832760751 0.3842951615856327
0.7652163744018623 0.3638737978019472
0.7514587288389687 0.44555925293668924
0.7652163744018623 0.42513788915300377
0.7652163744018623 0.40471652536931824
0.7789740199647559 0.42513788915300377
0.806489311090543 0.5068233442877458
0.8340046022163302 0.4659806167203748
0.806489311090543 0.4864019805040603
0.806489311090543 0.4864019805040603
0.7927316655276494 0.42513788915300377
0.7652163744018623 0.3638737978019472
0.6964281465873944 0.3434524340182617
0.6689128554616072 0.3842951615856327
0.6413975643358201 0.44555925293668924
0.5726093365213522 0.4659806167203748
0.5588516909584585 0.4864019805040603
0.5038211087068842 0.5068233442877458
0.4625481720182034 0.5272447080714313
0.43503288089241626 0.5068233442877458
0.36624465307794835 0.5680874356388024
0.31121407082637403 0.5272447080714313
0.2836987797005869 0.4659806167203748
0.21491055188611896 0.5068233442877458
0.11860703294586387 0.40471652536931824
0.06357645069428955 0.5068233442877458
0.022303514005608795 0.44555925293668924
-0.03272706824596554 0.5068233442877458
-0.07400000493464629 0.5680874356388024
-0.04648471380885912 0.5680874356388024
-0.07400000493464629 0.6089301632061734
-0.03272706824596554 0.6089301632061734
-0.07400000493464629 0.5272447080714313
-0.08775765049753986 0.5680874356388024
-0.12903058718622062 0.5068233442877458
-0.17030352387490136 0.4659806167203748
-0.19781881500068854 0.5068233442877458
-0.2253341061264757 0.44555925293668924
-0.19781881500068854 0.5476660718551168
-0.2253341061264757 0.5476660718551168
-0.19781881500068854 0.6089301632061734
-0.21157646056358212 0.6089301632061734
-0.19781881500068854 0.6089301632061734
-0.15654587831200778 0.5885087994224879
-0.17030352387490136 0.5680874356388024
-0.21157646056358212 0.5680874356388024
-0.25284939725226285 0.5476660718551168
-0.21157646056358212 0.4864019805040603
-0.2253341061264757 0.4864019805040603
-0.23909175168936928 0.4864019805040603
-0.25284939725226285 0.4864019805040603
-0.23909175168936928 0.5272447080714313
-0.23909175168936928 0.5272447080714313
-0.18406116943779494 0.5680874356388024
-0.21157646056358212 0.6089301632061734
-0.15654587831200778 0.5885087994224879
-0.18406116943779494 0.5068233442877458
-0.15654587831200778 0.5272447080714313
-0.12903058718622062 0.4864019805040603
-0.18406116943779494 0.4864019805040603
-0.18406116943779494 0.4864019805040603
-0.15654587831200778 0.4659806167203748
-0.19781881500068854 0.4864019805040603
-0.15654587831200778 0.4659806167203748
-0.1427882327491142 0.5272447080714313
-0.11527294162332703 0.5680874356388024
-0.10151529606043345 0.4864019805040603
-0.0602423593717527 0.5680874356388024
-0.08775765049753986 0.5272447080714313
-0.03272706824596554 0.5476660718551168
-0.07400000493464629 0.44555925293668924
-0.07400000493464629 0.44555925293668924
-0.07400000493464629 0.40471652536931824
-0.10151529606043345 0.40471652536931824
-0.08775765049753986 0.40471652536931824
-0.10151529606043345 0.40471652536931824
-0.08775765049753986 0.44555925293668924
-0.07400000493464629 0.44555925293668924
-0.03272706824596554 0.4864019805040603
-0.018969422683071953 0.5068233442877458
-0.018969422683071953 0.44555925293668924
-0.018969422683071953 0.44555925293668924
-0.03272706824596554 0.42513788915300377
-0.07400000493464629 0.3842951615856327
-0.07400000493464629 0.3638737978019472
-0.10151529606043345 0.3434524340182617
-0.10151529606043345 0.40471652536931824
-0.08775765049753986 0.3842951615856327
-0.08775765049753986 0.42513788915300377
-0.0602423593717527 0.42513788915300377
-0.0602423593717527 0.4659806167203748
-0.04648471380885912 0.4864019805040603
-0.018969422683071953 0.44555925293668924
-0.03272706824596554 0.40471652536931824
-0.07400000493464629 0.3638737978019472
-0.12903058718622062 0.3434524340182617
-0.15654587831200778 0.3434524340182617
-0.18406116943779494 0.32303107023457617
-0.17030352387490136 0.3638737978019472
-0.17030352387490136 0.32303107023457617
-0.15654587831200778 0.3638737978019472
-0.1427882327491142 0.40471652536931824
-0.10151529606043345 0.42513788915300377
-0.08775765049753986 0.42513788915300377
-0.08775765049753986 0.40471652536931824
-0.08775765049753986 0.3638737978019472
-0.12903058718622062 0.3434524340182617
-0.1427882327491142 0.26176697888351963
-0.15654587831200778 0.30260970645089064
-0.17030352387490136 0.28218834266720516
-0.17030352387490136 0.3638737978019472
-0.17030352387490136 0.32303107023457617
-0.15654587831200778 0.3638737978019472
-0.1427882327491142 0.3434524340182617
-0.11527294162332703 0.3638737978019472
-0.10151529606043345 0.3638737978019472
-0.08775765049753986 0.3434524340182617
-0.11527294162332703 0.3434524340182617
-0.19781881500068854 0.3434524340182617
-0.18406116943779494 0.3434524340182617
-0.19781881500068854 0.3638737978019472
-0.2253341061264757 0.3842951615856327
-0.18406116943779494 0.40471652536931824
-0.18406116943779494 0.4864019805040603
-0.1427882327491142 0.5272447080714313
-0.11527294162332703 0.5885087994224879
-0.0602423593717527 0.6293515269898589
-0.005211777120178371 0.6293515269898589
-0.005211777120178371 0.5680874356388024
0.022303514005608795 0.6293515269898589
0.03606115956850238 0.6089301632061734
0.03606115956850238 0.5476660718551168
0.04981880513139596 0.4864019805040603
0.03606115956850238 0.40471652536931824
0.0910917418200767 0.3842951615856327
0.0910917418200767 0.3434524340182617
0.13236467850875747 0.32303107023457617
0.18739526076033178 0.3638737978019472
0.22866819744901254 0.3842951615856327
0.31121407082637403 0.40471652536931824
0.29745642526348043 0.40471652536931824
0.29745642526348043 0.3842951615856327
0.2561834885747997 0.3434524340182617
0.22866819744901254 0.3434524340182617
0.15987996963454462 0.30260970645089064
0.1736376151974382 0.2413456150998341
0.18739526076033178 0.30260970645089064
0.20115290632322538 0.28218834266720516
0.15987996963454462 0.32303107023457617
0.22866819744901254 0.3434524340182617
0.24242584301190612 0.32303107023457617
0.24242584301190612 0.32303107023457617
0.20115290632322538 0.3434524340182617
0.11860703294586387 0.2209242513161486
0.0910917418200767 0.2209242513161486
0.022303514005608795 0.18008152374877756
-0.04648471380885912 0.11881743239772101
-0.12903058718622062 0.15966015996509203
-0.15654587831200778 0.11881743239772101
-0.1427882327491142 0.11881743239772101
-0.17030352387490136 0.15966015996509203
-0.18406116943779494 0.20050288753246306
-0.19781881500068854 0.2413456150998341
-0.18406116943779494 0.2209242513161486
-0.18406116943779494 0.2413456150998341
-0.19781881500068854 0.2209242513161486
-0.18406116943779494 0.13923879618140653
-0.25284939725226285 0.15966015996509203
-0.23909175168936928 0.15966015996509203
-0.2253341061264757 0.11881743239772101
-0.25284939725226285 0.13923879618140653
-0.23909175168936928 0.11881743239772101
-0.23909175168936928 0.15966015996509203
-0.23909175168936928 0.20050288753246306
-0.26660704281515646 0.2209242513161486
-0.19781881500068854 0.28218834266720516
-0.21157646056358212 0.20050288753246306
-0.19781881500068854 0.20050288753246306
-0.2253341061264757 0.15966015996509203
-0.25284939725226285 0.15966015996509203
-0.25284939725226285 0.15966015996509203
-0.28036468837805 0.11881743239772101
-0.28036468837805 0.15966015996509203
-0.25284939725226285 0.15966015996509203
-0.25284939725226285 0.20050288753246306
-0.19781881500068854 0.20050288753246306
-0.19781881500068854 0.2209242513161486
-0.1427882327491142 0.26176697888351963
-0.1427882327491142 0.28218834266720516
-0.08775765049753986 0.30260970645089064
-0.1427882327491142 0.3434524340182617
-0.11527294162332703 0.32303107023457617
-0.12903058718622062 0.3434524340182617
-0.12903058718622062 0.28218834266720516
-0.10151529606043345 0.20050288753246306
-0.0602423593717527 -0.0037107503043920906
0.022303514005608795 -0.22834575192493275
0.13236467850875747 -0.5550875724639011
0.32497171638926764 -0.9226721205702403
0.6689128554616072 -1.3923634875950073
1.1229151590370954 -1.7191053081339753
1.7695245004930937 -1.902897582187145
2.6362561709553893 -1.9641616735382017
3.654321942609515 -1.8416334908360885
4.67238771426364 -1.6169984892155478
5.662938194791978 -1.228992577325523
6.392093409625337 -0.8001439378681272
6.639731029757422 -0.45298075354547346
6.199486371744827 -0.20792438814124725
5.05760179002466 0.03713197726297894
3.351653740225856 0.13923879618140653
1.5906751081754773 0.13923879618140653
-0.17030352387490136 -0.06497484165544865
-1.93128215592528 -0.14666029679019071
-2.5778914973812785 -0.22834575192493275
-2.4403150417523425 -0.16708166057387622
-1.8487362825479186 -0.024132114088077607
-1.0783081310258777 0.15966015996509203
-0.3766682073183051 0.30260970645089064
0.1048493873829703 0.40471652536931824
0.3387293619521612 0.4659806167203748
0.4212752353295227 0.4659806167203748
0.36624465307794835 0.4659806167203748
0.2561834885747997 0.4864019805040603
0.13236467850875747 0.3842951615856327
0.022303514005608795 0.3638737978019472
-0.005211777120178371 0.3638737978019472
-0.018969422683071953 0.3638737978019472
-0.018969422683071953 0.3638737978019472
0.008545868442715212 0.30260970645089064
0.022303514005608795 0.3434524340182617
0.04981880513139596 0.3638737978019472
0.07733409625718313 0.3638737978019472
0.07733409625718313 0.3638737978019472
0.0910917418200767 0.42513788915300377
0.11860703294586387 0.3842951615856327
0.11860703294586387 0.3638737978019472
0.11860703294586387 0.3842951615856327
0.11860703294586387 0.3434524340182617
0.07733409625718313 0.3434524340182617
0.06357645069428955 0.28218834266720516
0.07733409625718313 0.2413456150998341
0.06357645069428955 0.26176697888351963
0.06357645069428955 0.32303107023457617
0.07733409625718313 0.3638737978019472
0.1048493873829703 0.3638737978019472
0.13236467850875747 0.3842951615856327
0.14612232407165104 0.3638737978019472
0.13236467850875747 0.3842951615856327
0.11860703294586387 0.32303107023457617
0.13236467850875747 0.28218834266720516
0.1048493873829703 0.30260970645089064
0.11860703294586387 0.30260970645089064
0.04981880513139596 0.28218834266720516
0.07733409625718313 0.26176697888351963
0.1048493873829703 0.28218834266720516
0.0910917418200767 0.3638737978019472
0.1048493873829703 0.30260970645089064
0.0910917418200767 0.3638737978019472
0.14612232407165104 0.40471652536931824
0.13236467850875747 0.3638737978019472
0.13236467850875747 0.32303107023457617
0.1048493873829703 0.30260970645089064
0.07733409625718313 0.30260970645089064
0.0910917418200767 0.2413456150998341
0.0910917418200767 0.26176697888351963
0.1048493873829703 0.2413456150998341
0.0910917418200767 0.2413456150998341
0.1048493873829703 0.30260970645089064
0.13236467850875747 0.30260970645089064
0.13236467850875747 0.3434524340182617
0.15987996963454462 0.3638737978019472
0.20115290632322538 0.30260970645089064
0.15987996963454462 0.30260970645089064
0.15987996963454462 0.2413456150998341
0.15987996963454462 0.26176697888351963
0.15987996963454462 0.2413456150998341
0.13236467850875747 0.26176697888351963
0.13236467850875747 0.2209242513161486
0.15987996963454462 0.2413456150998341
0.14612232407165104 0.28218834266720516
0.1736376151974382 0.32303107023457617
0.18739526076033178 0.32303107023457617
0.22866819744901254 0.3842951615856327
0.21491055188611896 0.28218834266720516
0.24242584301190612 0.28218834266720516
0.24242584301190612 0.2413456150998341
0.21491055188611896 0.26176697888351963
0.22866819744901254 0.2209242513161486
0.21491055188611896 0.20050288753246306
0.22866819744901254 0.2209242513161486
0.22866819744901254 0.30260970645089064
0.22866819744901254 0.28218834266720516
0.2699411341376933 0.30260970645089064
0.2836987797005869 0.30260970645089064
0.32497171638926764 0.32303107023457617
0.3387293619521612 0.30260970645089064
0.32497171638926764 0.26176697888351963
0.31121407082637403 0.2413456150998341
0.3387293619521612 0.20050288753246306
0.32497171638926764 0.20050288753246306
0.32497171638926764 0.18008152374877756
0.3387293619521612 0.2413456150998341
0.3524870075150548 0.26176697888351963
0.4075175897666291 0.26176697888351963
0.4212752353295227 0.2413456150998341
0.43503288089241626 0.28218834266720516
0.476305817581097 0.28218834266720516
0.5175787542697777 0.28218834266720516
0.5175787542697777 0.26176697888351963
0.5313363998326713 0.2413456150998341
0.5313363998326713 0.20050288753246306
0.5450940453955649 0.20050288753246306
0.5313363998326713 0.15966015996509203
0.5313363998326713 0.15966015996509203
0.5313363998326713 0.18008152374877756
0.5863669820842456 0.2209242513161486
0.6276399187729265 0.2413456150998341
0.6551552098987136 0.28218834266720516
0.6826705010245008 0.30260970645089064
0.6964281465873944 0.26176697888351963
0.7239434377131815 0.2209242513161486
0.7377010832760751 0.18008152374877756
0.710185792150288 0.18008152374877756
0.7377010832760751 0.13923879618140653
0.7239434377131815 0.13923879618140653
0.710185792150288 0.13923879618140653
0.6826705010245008 0.18008152374877756
0.710185792150288 0.15966015996509203
0.7377010832760751 0.18008152374877756
0.7652163744018623 0.2209242513161486
0.7927316655276494 0.26176697888351963
0.7927316655276494 0.2413456150998341
0.7514587288389687 0.18008152374877756
0.7652163744018623 0.18008152374877756
0.7239434377131815 0.11881743239772101
0.6964281465873944 0.11881743239772101
0.6413975643358201 0.11881743239772101
0.6001246276471393 0.11881743239772101
0.5726093365213522 0.13923879618140653
0.5313363998326713 0.18008152374877756
0.4625481720182034 0.26176697888351963
0.43503288089241626 0.28218834266720516
0.39375994420373556 0.26176697888351963
0.38000229864084195 0.28218834266720516
0.31121407082637403 0.26176697888351963
0.2699411341376933 0.2209242513161486
0.20115290632322538 0.2413456150998341
0.13236467850875747 0.2209242513161486
0.0910917418200767 0.15966015996509203
0.06357645069428955 0.20050288753246306
0.008545868442715212 0.26176697888351963
-0.03272706824596554 0.26176697888351963
-0.04648471380885912 0.30260970645089064
-0.04648471380885912 0.3434524340182617
-0.03272706824596554 0.3434524340182617
-0.0602423593717527 0.32303107023457617
-0.10151529606043345 0.32303107023457617
-0.12903058718622062 0.28218834266720516
-0.15654587831200778 0.2209242513161486
-0.17030352387490136 0.2413456150998341
-0.19781881500068854 0.20050288753246306
-0.2253341061264757 0.2413456150998341
-0.26660704281515646 0.26176697888351963
-0.2253341061264757 0.2413456150998341
-0.21157646056358212 0.28218834266720516
-0.19781881500068854 0.3638737978019472
-0.18406116943779494 0.3434524340182617
-0.19781881500068854 0.3842951615856327
-0.19781881500068854 0.30260970645089064
-0.23909175168936928 0.28218834266720516
-0.26660704281515646 0.28218834266720516
-0.28036468837805 0.20050288753246306
-0.3078799795038372 0.26176697888351963
-0.3078799795038372 0.2413456150998341
-0.28036468837805 0.26176697888351963
-0.26660704281515646 0.26176697888351963
-0.28036468837805 0.30260970645089064
-0.23909175168936928 0.3434524340182617
-0.23909175168936928 0.3434524340182617
-0.19781881500068854 0.3434524340182617
-0.19781881500068854 0.28218834266720516
-0.21157646056358212 0.26176697888351963
-0.2253341061264757 0.18008152374877756
-0.2253341061264757 0.2209242513161486
-0.25284939725226285 0.2209242513161486
-0.26660704281515646 0.2209242513161486
-0.2253341061264757 0.2413456150998341
-0.19781881500068854 0.26176697888351963
-0.18406116943779494 0.26176697888351963
-0.1427882327491142 0.30260970645089064
-0.12903058718622062 0.30260970645089064
-0.12903058718622062 0.28218834266720516
-0.11527294162332703 0.32303107023457617
-0.12903058718622062 0.26176697888351963
-0.18406116943779494 0.20050288753246306
-0.12903058718622062 0.20050288753246306
-0.1427882327491142 0.20050288753246306
-0.12903058718622062 0.2209242513161486
-0.17030352387490136 0.2209242513161486
-0.1427882327491142 0.2413456150998341
-0.08775765049753986 0.2209242513161486
-0.07400000493464629 0.2413456150998341
-0.07400000493464629 0.26176697888351963
-0.12903058718622062 0.28218834266720516
-0.08775765049753986 0.2413456150998341
-0.0602423593717527 0.2209242513161486
-0.07400000493464629 0.18008152374877756
-0.10151529606043345 0.2209242513161486
-0.11527294162332703 0.13923879618140653
-0.12903058718622062 0.15966015996509203
-0.11527294162332703 0.15966015996509203
-0.12903058718622062 0.18008152374877756
-0.10151529606043345 0.20050288753246306
-0.10151529606043345 0.2413456150998341
-0.11527294162332703 0.2413456150998341
-0.10151529606043345 0.2209242513161486
-0.10151529606043345 0.20050288753246306
-0.15654587831200778 0.18008152374877756
-0.1427882327491142 0.13923879618140653
-0.1427882327491142 0.13923879618140653
-0.15654587831200778 0.11881743239772101
-0.17030352387490136 0.11881743239772101
-0.19781881500068854 0.13923879618140653
-0.19781881500068854 0.13923879618140653
-0.15654587831200778 0.15966015996509203
-0.21157646056358212 0.20050288753246306
-0.12903058718622062 0.20050288753246306
-0.15654587831200778 0.18008152374877756
-0.15654587831200778 0.20050288753246306
-0.19781881500068854 0.15966015996509203
-0.17030352387490136 0.13923879618140653
-0.17030352387490136 0.09839606861403549
-0.21157646056358212 0.05755334104666446
-0.2253341061264757 0.07797470483034998
-0.23909175168936928 0.07797470483034998
-0.21157646056358212 0.15966015996509203
-0.19781881500068854 0.20050288753246306
-0.21157646056358212 0.20050288753246306
-0.18406116943779494 0.20050288753246306
-0.17030352387490136 0.20050288753246306
-0.18406116943779494 0.2413456150998341
-0.17030352387490136 0.18008152374877756
-0.18406116943779494 0.15966015996509203
-0.19781881500068854 0.15966015996509203
-0.2253341061264757 0.15966015996509203
-0.2253341061264757 0.18008152374877756
-0.2253341061264757 0.2413456150998341
-0.19781881500068854 0.32303107023457617
-0.18406116943779494 0.3434524340182617
-0.17030352387490136 0.3842951615856327
-0.17030352387490136 0.44555925293668924
-0.1427882327491142 0.42513788915300377
-0.10151529606043345 0.42513788915300377
-0.07400000493464629 0.42513788915300377
-0.03272706824596554 0.3434524340182617
-0.0602423593717527 0.32303107023457617
-0.03272706824596554 0.28218834266720516
-0.03272706824596554 0.2209242513161486
-0.018969422683071953 0.20050288753246306
0.04981880513139596 0.18008152374877756
0.1048493873829703 0.13923879618140653
0.14612232407165104 0.20050288753246306
0.18739526076033178 0.2209242513161486
0.2561834885747997 0.2209242513161486
0.22866819744901254 0.2413456150998341
0.24242584301190612 0.18008152374877756
0.21491055188611896 0.18008152374877756
0.20115290632322538 0.11881743239772101
0.15987996963454462 0.09839606861403549
0.15987996963454462 0.13923879618140653
0.1048493873829703 0.11881743239772101
0.14612232407165104 0.18008152374877756
0.18739526076033178 0.18008152374877756
0.20115290632322538 0.18008152374877756
0.15987996963454462 0.2413456150998341
0.1736376151974382 0.15966015996509203
0.15987996963454462 0.13923879618140653
0.1048493873829703 0.07797470483034998
0.04981880513139596 0.05755334104666446
0.008545868442715212 -0.024132114088077607
-0.04648471380885912 -0.04455347787176312
-0.11527294162332703 -0.04455347787176312
-0.17030352387490136 0.016710613479293427
-0.2253341061264757 0.016710613479293427
-0.19781881500068854 0.03713197726297894
-0.21157646056358212 0.05755334104666446
-0.19781881500068854 0.09839606861403549
-0.21157646056358212 0.07797470483034998
-0.18406116943779494 0.07797470483034998
-0.19781881500068854 -0.0037107503043920906
-0.21157646056358212 -0.024132114088077607
-0.26660704281515646 -0.024132114088077607
-0.26660704281515646 -0.024132114088077607
-0.26660704281515646 -0.024132114088077607
-0.2941223339409436 0.03713197726297894
-0.26660704281515646 0.016710613479293427
-0.28036468837805 0.05755334104666446
-0.28036468837805 0.05755334104666446
-0.23909175168936928 0.09839606861403549
-0.26660704281515646 0.09839606861403549
-0.26660704281515646 0.09839606861403549
-0.26660704281515646 0.03713197726297894
-0.32163762506673077 0.016710613479293427
-0.3353952706296244 -0.04455347787176312
-0.3491529161925179 -0.04455347787176312
-0.3353952706296244 -0.0037107503043920906
-0.2941223339409436 0.03713197726297894
-0.3078799795038372 0.05755334104666446
-0.26660704281515646 0.07797470483034998
-0.26660704281515646 0.05755334104666446
-0.2253341061264757 0.11881743239772101
-0.21157646056358212 0.09839606861403549
-0.21157646056358212 0.13923879618140653
-0.2253341061264757 0.09839606861403549
-0.2253341061264757 0.07797470483034998
-0.21157646056358212 0.07797470483034998
-0.2253341061264757 0.11881743239772101
-0.19781881500068854 0.18008152374877756
-0.17030352387490136 0.15966015996509203
-0.1427882327491142 0.09839606861403549
-0.10151529606043345 -0.024132114088077607
-0.0602423593717527 -0.22834575192493275
0.06357645069428955 -0.49382348111284446
0.2561834885747997 -0.9226721205702403
0.5313363998326713 -1.3106780324602652
1.040369285659734 -1.6578412167829188
1.797039791618881 -1.821212127052403
2.8838937910874742 -1.780369399485032
4.13583953731079 -1.5965771254318624
5.360269992408319 -1.1677284859744665
6.17197108061904 -0.7797225740844417
6.2682745995592954 -0.3712952984107314
5.401542929096999 -0.14666029679019071
3.640564297046621 -0.0037107503043920906
1.8795856649962426 -0.024132114088077607
0.11860703294586387 -0.12623893300650518
-1.6423715991045147 -0.20792438814124725
-2.7017103074473208 -0.2896098432759893
-2.399042105063662 -0.18750302435756172
-1.6423715991045147 -0.10581756922281967
-0.8031552197680062 0.05755334104666446
-0.08775765049753986 0.20050288753246306
0.36624465307794835 0.2413456150998341
0.49006346314399063 0.32303107023457617
0.476305817581097 0.30260970645089064
0.31121407082637403 0.28218834266720516
0.11860703294586387 0.28218834266720516
0.008545868442715212 0.30260970645089064
-0.0602423593717527 0.2413456150998341
-0.08775765049753986 0.26176697888351963
-0.0602423593717527 0.2209242513161486
-0.04648471380885912 0.20050288753246306
0.008545868442715212 0.15966015996509203
-0.005211777120178371 0.20050288753246306
0.008545868442715212 0.20050288753246306
0.03606115956850238 0.2209242513161486
0.008545868442715212 0.26176697888351963
0.008545868442715212 0.26176697888351963
0.07733409625718313 0.32303107023457617
0.0910917418200767 0.28218834266720516
0.07733409625718313 0.2413456150998341
0.04981880513139596 0.2413456150998341
0.03606115956850238 0.26176697888351963
0.06357645069428955 0.18008152374877756
0.008545868442715212 0.15966015996509203
-0.005211777120178371 0.15966015996509203
0.022303514005608795 0.18008152374877756
0.022303514005608795 0.2209242513161486
0.008545868442715212 0.2209242513161486
0.04981880513139596 0.26176697888351963
0.06357645069428955 0.30260970645089064
0.06357645069428955 0.28218834266720516
0.0910917418200767 0.28218834266720516
0.07733409625718313 0.2209242513161486
0.06357645069428955 0.20050288753246306
0.03606115956850238 0.20050288753246306
0.03606115956850238 0.20050288753246306
-0.005211777120178371 0.18008152374877756
-0.018969422683071953 0.18008152374877756
-0.005211777120178371 0.2413456150998341
0.06357645069428955 0.2209242513161486
0.06357645069428955 0.30260970645089064
0.1048493873829703 0.28218834266720516
0.13236467850875747 0.28218834266720516
0.0910917418200767 0.2413456150998341
0.11860703294586387 0.2209242513161486
0.0910917418200767 0.2209242513161486
0.06357645069428955 0.13923879618140653
0.0910917418200767 0.15966015996509203
0.06357645069428955 0.15966015996509203
0.06357645069428955 0.20050288753246306
0.008545868442715212 0.2209242513161486
0.0910917418200767 0.2413456150998341
0.1048493873829703 0.26176697888351963
0.11860703294586387 0.28218834266720516
0.14612232407165104 0.2209242513161486
0.15987996963454462 0.2413456150998341
0.14612232407165104 0.20050288753246306
0.1048493873829703 0.20050288753246306
0.0910917418200767 0.13923879618140653
0.0910917418200767 0.07797470483034998
0.1048493873829703 0.11881743239772101
0.13236467850875747 0.15966015996509203
0.11860703294586387 0.13923879618140653
0.13236467850875747 0.15966015996509203
0.14612232407165104 0.18008152374877756
0.1736376151974382 0.20050288753246306
0.18739526076033178 0.2209242513161486
0.20115290632322538 0.2209242513161486
0.22866819744901254 0.15966015996509203
0.22866819744901254 0.13923879618140653
0.20115290632322538 0.15966015996509203
0.21491055188611896 0.09839606861403549
0.18739526076033178 0.15966015996509203
0.18739526076033178 0.15966015996509203
0.2561834885747997 0.18008152374877756
0.2836987797005869 0.15966015996509203
0.2699411341376933 0.20050288753246306
0.29745642526348043 0.2209242513161486
0.31121407082637403 0.2209242513161486
0.31121407082637403 0.20050288753246306
0.3387293619521612 0.15966015996509203
0.3524870075150548 0.15966015996509203
0.32497171638926764 0.07797470483034998
0.3387293619521612 0.07797470483034998
0.3387293619521612 0.09839606861403549
0.36624465307794835 0.11881743239772101
0.38000229864084195 0.13923879618140653
0.39375994420373556 0.20050288753246306
0.4075175897666291 0.20050288753246306
0.44879052645530987 0.2209242513161486
0.5038211087068842 0.13923879618140653
0.476305817581097 0.20050288753246306
0.476305817581097 0.15966015996509203
0.476305817581097 0.13923879618140653
0.476305817581097 0.07797470483034998
0.44879052645530987 0.03713197726297894
0.44879052645530987 0.05755334104666446
0.49006346314399063 0.05755334104666446
0.5313363998326713 0.13923879618140653
0.5588516909584585 0.09839606861403549
0.5588516909584585 0.15966015996509203
0.5863669820842456 0.18008152374877756
0.6138822732100329 0.18008152374877756
0.6001246276471393 0.15966015996509203
0.6001246276471393 0.13923879618140653
0.5863669820842456 0.05755334104666446
0.6276399187729265 0.05755334104666446
0.6001246276471393 0.07797470483034998
0.6001246276471393 0.05755334104666446
0.6001246276471393 0.05755334104666446
0.6001246276471393 0.09839606861403549
0.6276399187729265 0.11881743239772101
0.6413975643358201 0.13923879618140653
0.6413975643358201 0.18008152374877756
0.5863669820842456 0.13923879618140653
0.6413975643358201 0.13923879618140653
0.6001246276471393 0.11881743239772101
0.5588516909584585 0.11881743239772101
0.5175787542697777 0.09839606861403549
0.4212752353295227 0.09839606861403549
0.38000229864084195 0.13923879618140653
0.31121407082637403 0.09839606861403549
0.2836987797005869 0.13923879618140653
0.22866819744901254 0.15966015996509203
0.21491055188611896 0.2209242513161486
0.18739526076033178 0.26176697888351963
0.18739526076033178 0.20050288753246306
0.0910917418200767 0.18008152374877756
0.07733409625718313 0.20050288753246306
0.03606115956850238 0.15966015996509203
0.008545868442715212 0.13923879618140653
-0.04648471380885912 0.11881743239772101
-0.10151529606043345 0.13923879618140653
-0.1427882327491142 0.2209242513161486
-0.1427882327491142 0.20050288753246306
-0.18406116943779494 0.2209242513161486
-0.17030352387490136 0.2413456150998341
-0.17030352387490136 0.28218834266720516
-0.19781881500068854 0.30260970645089064
-0.2253341061264757 0.2413456150998341
-0.21157646056358212 0.18008152374877756
-0.2253341061264757 0.2209242513161486
-0.2253341061264757 0.13923879618140653
-0.32163762506673077 0.11881743239772101
-0.32163762506673077 0.20050288753246306
-0.3078799795038372 0.15966015996509203
-0.32163762506673077 0.2209242513161486
-0.3353952706296244 0.2413456150998341
-0.3078799795038372 0.32303107023457617
-0.25284939725226285 0.32303107023457617
-0.23909175168936928 0.26176697888351963
-0.25284939725226285 0.28218834266720516
-0.23909175168936928 0.2209242513161486
-0.26660704281515646 0.2209242513161486
-0.2941223339409436 0.18008152374877756
-0.3078799795038372 0.18008152374877756
-0.3078799795038372 0.20050288753246306
-0.2941223339409436 0.2209242513161486
-0.28036468837805 0.26176697888351963
-0.26660704281515646 0.28218834266720516
-0.26660704281515646 0.30260970645089064
-0.25284939725226285 0.28218834266720516
-0.18406116943779494 0.32303107023457617
-0.21157646056358212 0.2413456150998341
-0.18406116943779494 0.26176697888351963
-0.2253341061264757 0.2209242513161486
-0.23909175168936928 0.2209242513161486
-0.25284939725226285 0.2209242513161486
-0.23909175168936928 0.2209242513161486
-0.2253341061264757 0.2209242513161486
-0.19781881500068854 0.2209242513161486
-0.19781881500068854 0.26176697888351963
-0.21157646056358212 0.28218834266720516
-0.15654587831200778 0.30260970645089064
-0.15654587831200778 0.3434524340182617
-0.12903058718622062 0.28218834266720516
-0.15654587831200778 0.2413456150998341
-0.15654587831200778 0.2209242513161486
-0.15654587831200778 0.15966015996509203
-0.1427882327491142 0.15966015996509203
-0.17030352387490136 0.18008152374877756
-0.1427882327491142 0.2209242513161486
-0.17030352387490136 0.2413456150998341
-0.11527294162332703 0.2209242513161486
-0.12903058718622062 0.26176697888351963
-0.08775765049753986 0.26176697888351963
-0.08775765049753986 0.26176697888351963
-0.08775765049753986 0.26176697888351963
-0.12903058718622062 0.2209242513161486
-0.1427882327491142 0.20050288753246306
-0.18406116943779494 0.15966015996509203
-0.17030352387490136 0.13923879618140653
-0.18406116943779494 0.11881743239772101
-0.19781881500068854 0.20050288753246306
-0.19781881500068854 0.20050288753246306
-0.18406116943779494 0.20050288753246306
-0.18406116943779494 0.20050288753246306
-0.15654587831200778 0.26176697888351963
-0.1427882327491142 0.26176697888351963
-0.17030352387490136 0.15966015996509203
-0.17030352387490136 0.2209242513161486
-0.2253341061264757 0.13923879618140653
-0.23909175168936928 0.11881743239772101
-0.28036468837805 0.11881743239772101
-0.23909175168936928 0.11881743239772101
-0.2253341061264757 0.09839606861403549
-0.23909175168936928 0.13923879618140653
-0.23909175168936928 0.18008152374877756
-0.26660704281515646 0.20050288753246306
-0.19781881500068854 0.2209242513161486
-0.21157646056358212 0.18008152374877756
-0.2253341061264757 0.2209242513161486
-0.19781881500068854 0.15966015996509203
-0.25284939725226285 0.13923879618140653
-0.23909175168936928 0.09839606861403549
-0.28036468837805 0.11881743239772101
-0.2941223339409436 0.11881743239772101
-0.3078799795038372 0.15966015996509203
-0.28036468837805 0.13923879618140653
-0.28036468837805 0.15966015996509203
-0.26660704281515646 0.20050288753246306
-0.23909175168936928 0.26176697888351963
-0.25284939725226285 0.26176697888351963
-0.26660704281515646 0.2209242513161486
-0.21157646056358212 0.20050288753246306
-0.25284939725226285 0.20050288753246306
-0.23909175168936928 0.20050288753246306
-0.26660704281515646 0.2209242513161486
-0.26660704281515646 0.26176697888351963
-0.26660704281515646 0.28218834266720516
-0.2253341061264757 0.3434524340182617
-0.2253341061264757 0.40471652536931824
-0.17030352387490136 0.44555925293668924
-0.15654587831200778 0.4864019805040603
-0.08775765049753986 0.5068233442877458
-0.0602423593717527 0.44555925293668924
-0.0602423593717527 0.44555925293668924
-0.07400000493464629 0.32303107023457617
-0.04648471380885912 0.30260970645089064
-0.04648471380885912 0.26176697888351963
-0.018969422683071953 0.15966015996509203
0.022303514005608795 0.15966015996509203
0.07733409625718313 0.15966015996509203
0.11860703294586387 0.2209242513161486
0.20115290632322538 0.26176697888351963
0.2561834885747997 0.28218834266720516
0.2836987797005869 0.28218834266720516
0.2699411341376933 0.28218834266720516
0.24242584301190612 0.26176697888351963
0.1736376151974382 0.2413456150998341
0.14612232407165104 0.18008152374877756
0.1048493873829703 0.20050288753246306
0.0910917418200767 0.11881743239772101
0.07733409625718313 0.15966015996509203
0.1048493873829703 0.18008152374877756
0.13236467850875747 0.2209242513161486
0.18739526076033178 0.2413456150998341
0.1736376151974382 0.28218834266720516
0.18739526076033178 0.26176697888351963
0.14612232407165104 0.2209242513161486
0.1048493873829703 0.15966015996509203
0.03606115956850238 0.13923879618140653
0.008545868442715212 0.11881743239772101
-0.10151529606043345 0.05755334104666446
-0.1427882327491142 0.05755334104666446
-0.19781881500068854 0.05755334104666446
-0.2253341061264757 0.13923879618140653
-0.21157646056358212 0.11881743239772101
-0.25284939725226285 0.13923879618140653
-0.23909175168936928 0.13923879618140653
-0.18406116943779494 0.15966015996509203
-0.21157646056358212 0.11881743239772101
-0.21157646056358212 0.07797470483034998
-0.21157646056358212 0.11881743239772101
-0.23909175168936928 0.07797470483034998
-0.28036468837805 0.09839606861403549
-0.2941223339409436 0.03713197726297894
-0.28036468837805 0.07797470483034998
-0.28036468837805 0.09839606861403549
-0.26660704281515646 0.09839606861403549
-0.2941223339409436 0.11881743239772101
-0.28036468837805 0.13923879618140653
-0.28036468837805 0.20050288753246306
-0.25284939725226285 0.13923879618140653
-0.28036468837805 0.07797470483034998
-0.2941223339409436 0.09839606861403549
-0.3078799795038372 0.05755334104666446
-0.3491529161925179 0.03713197726297894
-0.28036468837805 0.05755334104666446
-0.2941223339409436 0.09839606861403549
-0.26660704281515646 0.11881743239772101
-0.25284939725226285 0.13923879618140653
-0.25284939725226285 0.18008152374877756
-0.21157646056358212 0.15966015996509203
-0.18406116943779494 0.20050288753246306
-0.21157646056358212 0.15966015996509203
-0.21157646056358212 0.15966015996509203
-0.21157646056358212 0.13923879618140653
-0.19781881500068854 0.09839606861403549
-0.2253341061264757 0.13923879618140653
-0.18406116943779494 0.15966015996509203
-0.2253341061264757 0.18008152374877756
-0.17030352387490136 0.2209242513161486
-0.15654587831200778 0.2413456150998341
-0.07400000493464629 0.15966015996509203
-0.03272706824596554 0.09839606861403549
-0.005211777120178371 -0.12623893300650518
0.04981880513139596 -0.35087393462704586
0.11860703294586387 -0.6571943913823286
0.2836987797005869 -1.0860430308397244
0.5863669820842456 -1.3106780324602652
1.0953998679113082 -1.5557343978644913
1.7557668549302001 -1.6782625805666045
2.718802044332751 -1.5557343978644913
3.833171334927131 -1.3106780324602652
4.988813562210193 -0.9839362119212969
5.951848751612743 -0.6776157551660141
6.447123991876912 -0.2896098432759893
6.447123991876912 -0.04455347787176312
5.635422903666191 0.11881743239772101
4.163354828436577 0.15966015996509203
2.4023761963861987 0.13923879618140653
0.6413975643358201 0.05755334104666446
-1.1195810677145586 0.016710613479293427
-2.385284459500768 -0.08539620543913415
-2.687952661884427 -0.08539620543913415
-2.399042105063662 -0.06497484165544865
-1.7386751180447697 -0.024132114088077607
-1.0232775487743035 0.07797470483034998
-0.4041834984440923 0.2209242513161486
-0.04648471380885912 0.32303107023457617
0.1736376151974382 0.3842951615856327
0.18739526076033178 0.40471652536931824
0.13236467850875747 0.3842951615856327
0.1048493873829703 0.3638737978019472
0.008545868442715212 0.3434524340182617
-0.018969422683071953 0.28218834266720516
-0.0602423593717527 0.26176697888351963
-0.0602423593717527 0.30260970645089064
-0.03272706824596554 0.40471652536931824
-0.005211777120178371 0.40471652536931824
0.022303514005608795 0.42513788915300377
0.04981880513139596 0.42513788915300377
0.06357645069428955 0.3842951615856327
0.07733409625718313 0.3638737978019472
0.06357645069428955 0.3434524340182617
0.03606115956850238 0.30260970645089064
0.03606115956850238 0.28218834266720516
0.03606115956850238 0.2413456150998341
0.022303514005608795 0.32303107023457617
0.008545868442715212 0.32303107023457617
0.03606115956850238 0.3434524340182617
0.04981880513139596 0.40471652536931824
0.06357645069428955 0.42513788915300377
0.0910917418200767 0.3638737978019472
0.1048493873829703 0.3434524340182617
0.1048493873829703 0.3434524340182617
0.07733409625718313 0.32303107023457617
0.03606115956850238 0.26176697888351963
0.06357645069428955 0.26176697888351963
0.03606115956850238 0.28218834266720516
0.03606115956850238 0.28218834266720516
0.06357645069428955 0.28218834266720516
0.06357645069428955 0.28218834266720516
0.07733409625718313 0.3434524340182617
0.0910917418200767 0.3842951615856327
0.13236467850875747 0.3434524340182617
0.11860703294586387 0.3434524340182617
0.1048493873829703 0.3434524340182617
0.1048493873829703 0.28218834266720516
0.11860703294586387 0.30260970645089064
0.0910917418200767 0.2413456150998341
0.11860703294586387 0.2209242513161486
0.07733409625718313 0.2413456150998341
0.0910917418200767 0.30260970645089064
0.06357645069428955 0.30260970645089064
0.0910917418200767 0.32303107023457617
0.07733409625718313 0.32303107023457617
0.13236467850875747 0.32303107023457617
0.14612232407165104 0.30260970645089064
0.11860703294586387 0.32303107023457617
0.13236467850875747 0.3434524340182617
0.11860703294586387 0.2209242513161486
0.07733409625718313 0.26176697888351963
0.07733409625718313 0.2209242513161486
0.0910917418200767 0.28218834266720516
0.1048493873829703 0.26176697888351963
0.11860703294586387 0.2413456150998341
0.15987996963454462 0.32303107023457617
0.1736376151974382 0.32303107023457617
0.20115290632322538 0.32303107023457617
0.15987996963454462 0.32303107023457617
0.14612232407165104 0.26176697888351963
0.13236467850875747 0.2413456150998341
0.14612232407165104 0.20050288753246306
0.13236467850875747 0.2209242513161486
0.11860703294586387 0.2209242513161486
0.13236467850875747 0.2413456150998341
0.15987996963454462 0.2413456150998341
0.1736376151974382 0.28218834266720516
0.18739526076033178 0.3434524340182617
0.18739526076033178 0.3434524340182617
0.21491055188611896 0.30260970645089064
0.21491055188611896 0.28218834266720516
0.21491055188611896 0.30260970645089064
0.18739526076033178 0.20050288753246306
0.18739526076033178 0.2209242513161486
0.1736376151974382 0.20050288753246306
0.20115290632322538 0.18008152374877756
0.18739526076033178 0.2413456150998341
0.24242584301190612 0.20050288753246306
0.2699411341376933 0.2209242513161486
0.29745642526348043 0.2413456150998341
0.31121407082637403 0.28218834266720516
0.36624465307794835 0.28218834266720516
0.36624465307794835 0.2413456150998341
0.3524870075150548 0.2209242513161486
0.3387293619521612 0.20050288753246306
0.3387293619521612 0.18008152374877756
0.32497171638926764 0.15966015996509203
0.38000229864084195 0.13923879618140653
0.36624465307794835 0.18008152374877756
0.4212752353295227 0.20050288753246306
0.39375994420373556 0.2209242513161486
0.476305817581097 0.2413456150998341
0.49006346314399063 0.20050288753246306
0.5175787542697777 0.2209242513161486
0.5175787542697777 0.18008152374877756
0.5588516909584585 0.13923879618140653
0.5588516909584585 0.11881743239772101
0.5450940453955649 0.11881743239772101
0.5038211087068842 0.13923879618140653
0.4625481720182034 0.09839606861403549
0.476305817581097 0.11881743239772101
0.5038211087068842 0.15966015996509203
0.476305817581097 0.15966015996509203
0.5450940453955649 0.18008152374877756
0.5588516909584585 0.2413456150998341
0.6551552098987136 0.20050288753246306
0.6138822732100329 0.18008152374877756
0.6138822732100329 0.13923879618140653
0.5863669820842456 0.13923879618140653
0.5726093365213522 0.11881743239772101
0.5588516909584585 0.07797470483034998
0.5588516909584585 0.07797470483034998
0.5726093365213522 0.13923879618140653
0.5588516909584585 0.18008152374877756
0.6001246276471393 0.2209242513161486
0.5863669820842456 0.2209242513161486
0.6001246276471393 0.30260970645089064
0.5863669820842456 0.26176697888351963
0.5450940453955649 0.30260970645089064
0.5175787542697777 0.26176697888351963
0.476305817581097 0.26176697888351963
0.4212752353295227 0.28218834266720516
0.36624465307794835 0.2209242513161486
0.29745642526348043 0.2413456150998341
0.24242584301190612 0.26176697888351963
0.21491055188611896 0.30260970645089064
0.15987996963454462 0.3638737978019472
0.13236467850875747 0.3434524340182617
0.11860703294586387 0.3434524340182617
0.0910917418200767 0.3842951615856327
0.06357645069428955 0.3638737978019472
-0.03272706824596554 0.3434524340182617
-0.04648471380885912 0.32303107023457617
-0.10151529606043345 0.32303107023457617
-0.12903058718622062 0.30260970645089064
-0.17030352387490136 0.28218834266720516
-0.18406116943779494 0.30260970645089064
-0.21157646056358212 0.3434524340182617
-0.2253341061264757 0.3842951615856327
-0.21157646056358212 0.42513788915300377
-0.18406116943779494 0.44555925293668924
-0.17030352387490136 0.42513788915300377
-0.21157646056358212 0.40471652536931824
-0.25284939725226285 0.3638737978019472
-0.2253341061264757 0.3638737978019472
-0.26660704281515646 0.3638737978019472
-0.28036468837805 0.3638737978019472
-0.28036468837805 0.32303107023457617
-0.28036468837805 0.3434524340182617
-0.26660704281515646 0.42513788915300377
-0.25284939725226285 0.42513788915300377
-0.26660704281515646 0.42513788915300377
-0.2253341061264757 0.42513788915300377
-0.23909175168936928 0.42513788915300377
-0.21157646056358212 0.44555925293668924
-0.21157646056358212 0.3842951615856327
-0.2253341061264757 0.3638737978019472
-0.23909175168936928 0.3842951615856327
-0.23909175168936928 0.3434524340182617
-0.2941223339409436 0.30260970645089064
-0.26660704281515646 0.3434524340182617
-0.2941223339409436 0.3638737978019472
-0.28036468837805 0.3842951615856327
-0.26660704281515646 0.3842951615856327
-0.2253341061264757 0.42513788915300377
-0.17030352387490136 0.42513788915300377
-0.11527294162332703 0.42513788915300377
-0.12903058718622062 0.3638737978019472
-0.17030352387490136 0.3434524340182617
-0.1427882327491142 0.3434524340182617
-0.15654587831200778 0.30260970645089064
-0.18406116943779494 0.32303107023457617
-0.18406116943779494 0.32303107023457617
-0.18406116943779494 0.3434524340182617
-0.17030352387490136 0.3434524340182617
-0.12903058718622062 0.40471652536931824
-0.08775765049753986 0.40471652536931824
-0.07400000493464629 0.3638737978019472
-0.10151529606043345 0.3434524340182617
-0.08775765049753986 0.3434524340182617
-0.08775765049753986 0.3434524340182617
-0.12903058718622062 0.30260970645089064
-0.15654587831200778 0.30260970645089064
-0.12903058718622062 0.26176697888351963
-0.15654587831200778 0.26176697888351963
-0.15654587831200778 0.32303107023457617
-0.1427882327491142 0.3434524340182617
-0.11527294162332703 0.3434524340182617
-0.11527294162332703 0.3434524340182617
-0.11527294162332703 0.3638737978019472
-0.08775765049753986 0.32303107023457617
-0.11527294162332703 0.3434524340182617
-0.12903058718622062 0.3434524340182617
-0.1427882327491142 0.30260970645089064
-0.17030352387490136 0.2413456150998341
-0.19781881500068854 0.30260970645089064
-0.1427882327491142 0.3434524340182617
-0.19781881500068854 0.3434524340182617
-0.19781881500068854 0.44555925293668924
-0.17030352387490136 0.4659806167203748
-0.1427882327491142 0.5272447080714313
-0.11527294162332703 0.5680874356388024
-0.11527294162332703 0.5068233442877458
-0.11527294162332703 0.5680874356388024
-0.10151529606043345 0.5476660718551168
-0.0602423593717527 0.5068233442877458
-0.07400000493464629 0.44555925293668924
-0.04648471380885912 0.44555925293668924
-0.03272706824596554 0.40471652536931824
-0.04648471380885912 0.3842951615856327
-0.018969422683071953 0.42513788915300377
0.04981880513139596 0.3638737978019472
0.06357645069428955 0.42513788915300377
0.11860703294586387 0.3434524340182617
0.15987996963454462 0.3638737978019472
0.18739526076033178 0.32303107023457617
0.20115290632322538 0.28218834266720516
0.20115290632322538 0.30260970645089064
0.18739526076033178 0.32303107023457617
0.15987996963454462 0.30260970645089064
0.0910917418200767 0.30260970645089064
0.1048493873829703 0.32303107023457617
0.1048493873829703 0.3434524340182617
0.11860703294586387 0.40471652536931824
0.1736376151974382 0.40471652536931824
0.20115290632322538 0.3434524340182617
0.21491055188611896 0.3638737978019472
0.18739526076033178 0.3434524340182617
0.15987996963454462 0.30260970645089064
0.0910917418200767 0.28218834266720516
0.008545868442715212 0.2209242513161486
-0.04648471380885912 0.18008152374877756
-0.10151529606043345 0.18008152374877756
-0.18406116943779494 0.2209242513161486
-0.21157646056358212 0.2209242513161486
-0.2253341061264757 0.2413456150998341
-0.28036468837805 0.26176697888351963
-0.28036468837805 0.26176697888351963
-0.2941223339409436 0.2413456150998341
-0.25284939725226285 0.20050288753246306
-0.28036468837805 0.18008152374877756
-0.28036468837805 0.15966015996509203
-0.2941223339409436 0.18008152374877756
-0.32163762506673077 0.15966015996509203
-0.3491529161925179 0.20050288753246306
-0.3353952706296244 0.20050288753246306
-0.3491529161925179 0.2413456150998341
-0.3078799795038372 0.26176697888351963
-0.32163762506673077 0.2413456150998341
-0.32163762506673077 0.28218834266720516
-0.3078799795038372 0.2413456150998341
-0.32163762506673077 0.26176697888351963
-0.3491529161925179 0.2209242513161486
-0.4041834984440923 0.20050288753246306
-0.3904258528811987 0.18008152374877756
-0.41794114400698584 0.2209242513161486
-0.41794114400698584 0.2413456150998341
-0.4041834984440923 0.20050288753246306
-0.3904258528811987 0.2413456150998341
-0.36291056175541153 0.28218834266720516
-0.32163762506673077 0.30260970645089064
-0.26660704281515646 0.30260970645089064
-0.28036468837805 0.32303107023457617
-0.25284939725226285 0.3434524340182617
-0.26660704281515646 0.26176697888351963
-0.26660704281515646 0.28218834266720516
-0.28036468837805 0.3434524340182617
-0.23909175168936928 0.32303107023457617
-0.2253341061264757 0.3842951615856327
-0.21157646056358212 0.32303107023457617
-0.18406116943779494 0.2209242513161486
-0.1427882327491142 0.016710613479293427
-0.08775765049753986 -0.14666029679019071
0.008545868442715212 -0.4121380259781024
0.18739526076033178 -0.7593012103007561
0.49006346314399063 -1.0860430308397244
0.9027928300307981 -1.3923634875950073
1.5494021714867965 -1.5353130340808059
2.429891487511986 -1.4944703065134348
3.4892301958547915 -1.3106780324602652
4.603599486449172 -0.9226721205702403
5.607907612540403 -0.5755089362475866
6.32330518181087 -0.14666029679019071
6.51591221969138 0.15966015996509203
6.089425207241679 0.40471652536931824
4.975055916647299 0.5272447080714313
3.255350221285601 0.4864019805040603
1.494371589235222 0.40471652536931824
-0.26660704281515646 0.30260970645089064
-2.027585674865535 0.15966015996509203
-2.729225598573108 0.016710613479293427
-2.5366185606925975 -0.0037107503043920906
-1.9175245103623864 0.07797470483034998
-1.1333387132774522 0.2209242513161486
-0.43169878956987945 0.3434524340182617
0.022303514005608795 0.44555925293668924
0.2699411341376933 0.5476660718551168
0.3387293619521612 0.5272447080714313
0.21491055188611896 0.4659806167203748
0.1048493873829703 0.4864019805040603
-0.005211777120178371 0.40471652536931824
-0.07400000493464629 0.42513788915300377
-0.1427882327491142 0.3638737978019472
-0.12903058718622062 0.3638737978019472
-0.11527294162332703 0.3638737978019472
-0.08775765049753986 0.42513788915300377
-0.005211777120178371 0.42513788915300377
-0.0602423593717527 0.4864019805040603
-0.005211777120178371 0.4659806167203748
0.04981880513139596 0.4864019805040603
0.03606115956850238 0.44555925293668924
0.03606115956850238 0.44555925293668924
0.008545868442715212 0.42513788915300377
-0.005211777120178371 0.3842951615856327
-0.018969422683071953 0.32303107023457617
-0.018969422683071953 0.32303107023457617
-0.03272706824596554 0.32303107023457617
-0.018969422683071953 0.3842951615856327
0.022303514005608795 0.3434524340182617
-0.005211777120178371 0.42513788915300377
0.022303514005608795 0.42513788915300377
0.0910917418200767 0.44555925293668924
0.06357645069428955 0.3842951615856327
0.06357645069428955 0.42513788915300377
0.022303514005608795 0.28218834266720516
-0.018969422683071953 0.3434524340182617
0.008545868442715212 0.28218834266720516
-0.005211777120178371 0.2413456150998341
-0.04648471380885912 0.32303107023457617
-0.018969422683071953 0.32303107023457617
0.008545868442715212 0.30260970645089064
0.022303514005608795 0.42513788915300377
0.04981880513139596 0.3842951615856327
0.1048493873829703 0.3842951615856327
0.07733409625718313 0.3842951615856327
0.1048493873829703 0.32303107023457617
0.0910917418200767 0.32303107023457617
0.07733409625718313 0.28218834266720516
0.04981880513139596 0.30260970645089064
0.022303514005608795 0.32303107023457617
0.03606115956850238 0.3434524340182617
0.03606115956850238 0.26176697888351963
0.03606115956850238 0.3434524340182617
0.06357645069428955 0.3434524340182617
0.07733409625718313 0.3434524340182617
0.1048493873829703 0.3842951615856327
0.11860703294586387 0.3638737978019472
0.11860703294586387 0.32303107023457617
0.07733409625718313 0.30260970645089064
0.06357645069428955 0.2413456150998341
0.04981880513139596 0.26176697888351963
0.04981880513139596 0.20050288753246306
0.06357645069428955 0.28218834266720516
0.03606115956850238 0.32303107023457617
0.06357645069428955 0.32303107023457617
0.0910917418200767 0.32303107023457617
0.1048493873829703 0.3434524340182617
0.14612232407165104 0.3434524340182617
0.13236467850875747 0.30260970645089064
0.13236467850875747 0.32303107023457617
0.14612232407165104 0.28218834266720516
0.13236467850875747 0.28218834266720516
0.0910917418200767 0.2413456150998341
0.1048493873829703 0.2209242513161486
0.1048493873829703 0.28218834266720516
0.13236467850875747 0.26176697888351963
0.15987996963454462 0.2413456150998341
0.1736376151974382 0.3434524340182617
0.18739526076033178 0.3434524340182617
0.21491055188611896 0.3434524340182617
0.24242584301190612 0.28218834266720516
0.22866819744901254 0.28218834266720516
0.2561834885747997 0.2413456150998341
0.24242584301190612 0.2209242513161486
0.21491055188611896 0.20050288753246306
0.21491055188611896 0.18008152374877756
0.22866819744901254 0.2413456150998341
0.2699411341376933 0.20050288753246306
0.24242584301190612 0.26176697888351963
0.2699411341376933 0.30260970645089064
0.3387293619521612 0.32303107023457617
0.3524870075150548 0.2209242513161486
0.38000229864084195 0.20050288753246306
0.39375994420373556 0.2209242513161486
0.39375994420373556 0.20050288753246306
0.38000229864084195 0.2413456150998341
0.4075175897666291 0.13923879618140653
0.38000229864084195 0.13923879618140653
0.39375994420373556 0.15966015996509203
0.43503288089241626 0.15966015996509203
0.4212752353295227 0.18008152374877756
0.44879052645530987 0.2209242513161486
0.49006346314399063 0.2413456150998341
0.5038211087068842 0.2413456150998341
0.5313363998326713 0.2209242513161486
0.5588516909584585 0.13923879618140653
0.5726093365213522 0.15966015996509203
0.5038211087068842 0.09839606861403549
0.5175787542697777 0.07797470483034998
0.5450940453955649 0.016710613479293427
0.5588516909584585 0.15966015996509203
0.5726093365213522 0.11881743239772101
0.5726093365213522 0.13923879618140653
0.6138822732100329 0.2209242513161486
0.6138822732100329 0.18008152374877756
0.6001246276471393 0.20050288753246306
0.6551552098987136 0.2209242513161486
0.6138822732100329 0.15966015996509203
0.6276399187729265 0.18008152374877756
0.6001246276471393 0.15966015996509203
0.5863669820842456 0.13923879618140653
0.5726093365213522 0.11881743239772101
0.5313363998326713 0.18008152374877756
0.49006346314399063 0.11881743239772101
0.5038211087068842 0.20050288753246306
0.49006346314399063 0.2413456150998341
0.476305817581097 0.26176697888351963
0.44879052645530987 0.28218834266720516
0.39375994420373556 0.26176697888351963
0.31121407082637403 0.26176697888351963
0.2836987797005869 0.28218834266720516
0.20115290632322538 0.2209242513161486
0.13236467850875747 0.2413456150998341
0.1048493873829703 0.2413456150998341
0.03606115956850238 0.2413456150998341
-0.005211777120178371 0.2413456150998341
-0.04648471380885912 0.28218834266720516
-0.08775765049753986 0.30260970645089064
-0.08775765049753986 0.32303107023457617
-0.10151529606043345 0.42513788915300377
-0.12903058718622062 0.32303107023457617
-0.17030352387490136 0.32303107023457617
-0.21157646056358212 0.32303107023457617
-0.28036468837805 0.26176697888351963
-0.28036468837805 0.2413456150998341
-0.3078799795038372 0.2209242513161486
-0.3353952706296244 0.30260970645089064
-0.3491529161925179 0.26176697888351963
-0.3491529161925179 0.26176697888351963
-0.36291056175541153 0.3638737978019472
-0.36291056175541153 0.32303107023457617
-0.3353952706296244 0.32303107023457617
-0.36291056175541153 0.3638737978019472
-0.32163762506673077 0.3434524340182617
-0.3904258528811987 0.30260970645089064
-0.43169878956987945 0.26176697888351963
-0.41794114400698584 0.26176697888351963
-0.4592140806956666 0.20050288753246306
-0.4592140806956666 0.26176697888351963
-0.445456435132773 0.26176697888351963
-0.43169878956987945 0.30260970645089064
-0.3904258528811987 0.30260970645089064
-0.41794114400698584 0.3434524340182617
-0.36291056175541153 0.3434524340182617
-0.3904258528811987 0.26176697888351963
-0.3491529161925179 0.26176697888351963
-0.3904258528811987 0.26176697888351963
-0.3904258528811987 0.2209242513161486
-0.4041834984440923 0.2413456150998341
-0.41794114400698584 0.18008152374877756
-0.43169878956987945 0.20050288753246306
-0.3904258528811987 0.26176697888351963
-0.36291056175541153 0.30260970645089064
-0.3353952706296244 0.30260970645089064
-0.3353952706296244 0.28218834266720516
-0.2941223339409436 0.30260970645089064
-0.2941223339409436 0.28218834266720516
-0.2941223339409436 0.28218834266720516
-0.28036468837805 0.28218834266720516
-0.2941223339409436 0.20050288753246306
-0.2941223339409436 0.15966015996509203
-0.3078799795038372 0.15966015996509203
-0.3078799795038372 0.15966015996509203
-0.2941223339409436 0.20050288753246306
-0.2941223339409436 0.2209242513161486
-0.25284939725226285 0.28218834266720516
-0.26660704281515646 0.28218834266720516
-0.25284939725226285 0.32303107023457617
-0.21157646056358212 0.26176697888351963
-0.21157646056358212 0.2209242513161486
-0.2253341061264757 0.20050288753246306
-0.21157646056358212 0.15966015996509203
-0.26660704281515646 0.11881743239772101
-0.2941223339409436 0.11881743239772101
-0.3353952706296244 0.11881743239772101
-0.3078799795038372 0.18008152374877756
-0.28036468837805 0.18008152374877756
-0.28036468837805 0.2413456150998341
-0.28036468837805 0.20050288753246306
-0.23909175168936928 0.2209242513161486
-0.23909175168936928 0.2413456150998341
-0.23909175168936928 0.18008152374877756
-0.25284939725226285 0.15966015996509203
-0.26660704281515646 0.15966015996509203
-0.2941223339409436 0.11881743239772101
-0.2941223339409436 0.07797470483034998
-0.3353952706296244 0.11881743239772101
-0.3353952706296244 0.09839606861403549
-0.3491529161925179 0.15966015996509203
-0.3078799795038372 0.15966015996509203
-0.3078799795038372 0.20050288753246306
-0.3078799795038372 0.2209242513161486
-0.28036468837805 0.20050288753246306
-0.28036468837805 0.2209242513161486
-0.28036468837805 0.20050288753246306
-0.32163762506673077 0.2209242513161486
-0.3491529161925179 0.20050288753246306
-0.3353952706296244 0.18008152374877756
-0.3491529161925179 0.26176697888351963
-0.36291056175541153 0.30260970645089064
-0.32163762506673077 0.3638737978019472
-0.2941223339409436 0.3842951615856327
-0.26660704281515646 0.42513788915300377
-0.21157646056358212 0.4659806167203748
-0.17030352387490136 0.42513788915300377
-0.15654587831200778 0.3638737978019472
-0.12903058718622062 0.3434524340182617
-0.12903058718622062 0.32303107023457617
-0.15654587831200778 0.2209242513161486
-0.12903058718622062 0.18008152374877756
-0.12903058718622062 0.15966015996509203
-0.07400000493464629 0.09839606861403549
-0.04648471380885912 0.13923879618140653
0.03606115956850238 0.15966015996509203
0.0910917418200767 0.20050288753246306
0.13236467850875747 0.2413456150998341
0.07733409625718313 0.20050288753246306
0.07733409625718313 0.18008152374877756
0.008545868442715212 0.15966015996509203
-0.018969422683071953 0.13923879618140653
0.022303514005608795 0.11881743239772101
0.008545868442715212 0.07797470483034998
0.008545868442715212 0.09839606861403549
0.022303514005608795 0.11881743239772101
-0.005211777120178371 0.11881743239772101
-0.005211777120178371 0.09839606861403549
-0.018969422683071953 0.15966015996509203
-0.04648471380885912 0.11881743239772101
-0.08775765049753986 0.09839606861403549
-0.15654587831200778 0.03713197726297894
-0.21157646056358212 -0.0037107503043920906
-0.2941223339409436 0.016710613479293427
-0.3904258528811987 -0.08539620543913415
-0.3904258528811987 -0.06497484165544865
-0.4041834984440923 -0.024132114088077607
-0.41794114400698584 -0.06497484165544865
-0.41794114400698584 -0.024132114088077607
-0.4041834984440923 -0.0037107503043920906
-0.3766682073183051 0.07797470483034998
-0.32163762506673077 0.07797470483034998
-0.3491529161925179 0.03713197726297894
-0.36291056175541153 0.016710613479293427
-0.3904258528811987 -0.0037107503043920906
-0.3766682073183051 -0.0037107503043920906
-0.41794114400698584 -0.04455347787176312
-0.4729717262585602 -0.06497484165544865
-0.48672937182145376 -0.08539620543913415
-0.5004870173843473 -0.0037107503043920906
-0.445456435132773 -0.04455347787176312
-0.48672937182145376 0.016710613479293427
-0.43169878956987945 0.07797470483034998
-0.43169878956987945 0.07797470483034998
-0.3904258528811987 0.05755334104666446
-0.41794114400698584 0.03713197726297894
-0.43169878956987945 0.016710613479293427
-0.445456435132773 -0.04455347787176312
-0.4592140806956666 -0.04455347787176312
-0.445456435132773 -0.04455347787176312
-0.4592140806956666 -0.04455347787176312
-0.445456435132773 -0.0037107503043920906
-0.445456435132773 0.03713197726297894
-0.3904258528811987 0.03713197726297894
-0.3766682073183051 0.09839606861403549
-0.36291056175541153 0.09839606861403549
-0.3353952706296244 0.05755334104666446
-0.3078799795038372 0.09839606861403549
-0.3078799795038372 0.11881743239772101
-0.32163762506673077 0.20050288753246306
-0.32163762506673077 0.18008152374877756
-0.3078799795038372 0.18008152374877756
-0.3078799795038372 0.11881743239772101
-0.25284939725226285 0.03713197726297894
-0.2253341061264757 -0.10581756922281967
-0.17030352387490136 -0.3304525708433603
-0.08775765049753986 -0.6367730275986431
0.11860703294586387 -0.9839362119212969
0.4212752353295227 -1.4127848513786927
0.8202469566534366 -1.7599480357013464
1.5769174626125837 -2.025425764889258
2.526195006452241 -2.0458471286729436
3.654321942609515 -1.902897582187145
4.878752397707044 -1.5148916702971202
5.93809110604985 -1.1677284859744665
6.51591221969138 -0.7184584827333852
6.350820472936657 -0.31003120705967485
5.25020882790517 -0.10581756922281967
3.4892301958547915 0.016710613479293427
1.7282515638044131 -0.04455347787176312
-0.03272706824596554 -0.18750302435756172
-1.7937057002963441 -0.2691884794923038
-2.908074990890724 -0.35087393462704586
-2.6329220796328525 -0.3304525708433603
-1.9175245103623864 -0.14666029679019071
-1.0645504854629841 -0.0037107503043920906
-0.3491529161925179 0.15966015996509203
0.07733409625718313 0.2209242513161486
0.29745642526348043 0.28218834266720516
0.2699411341376933 0.28218834266720516
0.1736376151974382 0.2413456150998341
0.008545868442715212 0.28218834266720516
-0.10151529606043345 0.2209242513161486
-0.19781881500068854 0.2413456150998341
-0.2253341061264757 0.15966015996509203
-0.2253341061264757 0.18008152374877756
-0.21157646056358212 0.18008152374877756
-0.18406116943779494 0.11881743239772101
-0.1427882327491142 0.15966015996509203
-0.11527294162332703 0.13923879618140653
-0.11527294162332703 0.2209242513161486
-0.11527294162332703 0.20050288753246306
-0.11527294162332703 0.26176697888351963
-0.10151529606043345 0.26176697888351963
-0.0602423593717527 0.26176697888351963
-0.11527294162332703 0.26176697888351963
-0.07400000493464629 0.20050288753246306
-0.11527294162332703 0.18008152374877756
-0.12903058718622062 0.15966015996509203
-0.12903058718622062 0.09839606861403549
-0.1427882327491142 0.15966015996509203
-0.17030352387490136 0.20050288753246306
-0.1427882327491142 0.2209242513161486
-0.10151529606043345 0.20050288753246306
-0.07400000493464629 0.2413456150998341
-0.03272706824596554 0.2413456150998341
-0.03272706824596554 0.20050288753246306
-0.0602423593717527 0.2209242513161486
-0.0602423593717527 0.18008152374877756
-0.0602423593717527 0.15966015996509203
-0.08775765049753986 0.13923879618140653
-0.11527294162332703 0.09839606861403549
-0.11527294162332703 0.09839606861403549
-0.08775765049753986 0.11881743239772101
-0.0602423593717527 0.18008152374877756
-0.0602423593717527 0.2209242513161486
-0.03272706824596554 0.2209242513161486
-0.03272706824596554 0.26176697888351963
-0.018969422683071953 0.18008152374877756
-0.005211777120178371 0.20050288753246306
-0.03272706824596554 0.13923879618140653
-0.03272706824596554 0.20050288753246306
-0.07400000493464629 0.11881743239772101
-0.0602423593717527 0.09839606861403549
-0.08775765049753986 0.11881743239772101
-0.07400000493464629 0.09839606861403549
-0.07400000493464629 0.15966015996509203
-0.03272706824596554 0.13923879618140653
-0.018969422683071953 0.20050288753246306
0.008545868442715212 0.2209242513161486
-0.018969422683071953 0.18008152374877756
-0.018969422683071953 0.2413456150998341
-0.03272706824596554 0.13923879618140653
-0.0602423593717527 0.11881743239772101
-0.0602423593717527 0.09839606861403549
-0.0602423593717527 0.09839606861403549
-0.07400000493464629 0.11881743239772101
-0.0602423593717527 0.09839606861403549
-0.04648471380885912 0.11881743239772101
-0.0602423593717527 0.15966015996509203
-0.018969422683071953 0.18008152374877756
0.008545868442715212 0.18008152374877756
0.022303514005608795 0.18008152374877756
0.008545868442715212 0.15966015996509203
0.03606115956850238 0.11881743239772101
0.008545868442715212 0.07797470483034998
0.022303514005608795 0.09839606861403549
0.008545868442715212 0.03713197726297894
0.008545868442715212 0.07797470483034998
0.04981880513139596 0.09839606861403549
0.03606115956850238 0.11881743239772101
0.04981880513139596 0.13923879618140653
0.0910917418200767 0.15966015996509203
0.0910917418200767 0.13923879618140653
0.14612232407165104 0.15966015996509203
0.1048493873829703 0.13923879618140653
0.1048493873829703 0.11881743239772101
0.11860703294586387 0.05755334104666446
0.1048493873829703 0.05755334104666446
0.14612232407165104 0.07797470483034998
0.13236467850875747 0.05755334104666446
0.18739526076033178 0.05755334104666446
0.1736376151974382 0.11881743239772101
0.21491055188611896 0.11881743239772101
0.24242584301190612 0.11881743239772101
0.29745642526348043 0.13923879618140653
0.2836987797005869 0.13923879618140653
0.32497171638926764 0.09839606861403549
0.29745642526348043 0.09839606861403549
0.29745642526348043 0.09839606861403549
0.29745642526348043 0.03713197726297894
0.3387293619521612 0.016710613479293427
0.31121407082637403 0.03713197726297894
0.32497171638926764 0.05755334104666446
0.31121407082637403 0.07797470483034998
0.38000229864084195 0.07797470483034998
0.44879052645530987 0.09839606861403549
0.4625481720182034 0.15966015996509203
0.5450940453955649 0.11881743239772101
0.5175787542697777 0.11881743239772101
0.5313363998326713 0.09839606861403549
0.5313363998326713 0.05755334104666446
0.5175787542697777 0.016710613479293427
0.5175787542697777 -0.024132114088077607
0.5313363998326713 -0.0037107503043920906
0.5450940453955649 0.03713197726297894
0.5450940453955649 0.07797470483034998
0.5588516909584585 0.05755334104666446
0.6001246276471393 0.07797470483034998
0.6276399187729265 0.11881743239772101
0.6551552098987136 0.07797470483034998
0.6413975643358201 0.07797470483034998
0.6413975643358201 -0.024132114088077607
0.6276399187729265 0.016710613479293427
0.6001246276471393 -0.0037107503043920906
0.5450940453955649 -0.06497484165544865
0.5175787542697777 -0.0037107503043920906
0.49006346314399063 0.03713197726297894
0.44879052645530987 0.05755334104666446
0.43503288089241626 0.07797470483034998
0.38000229864084195 0.07797470483034998
0.38000229864084195 0.13923879618140653
0.32497171638926764 0.13923879618140653
0.2561834885747997 0.13923879618140653
0.20115290632322538 0.07797470483034998
0.14612232407165104 0.03713197726297894
0.06357645069428955 0.07797470483034998
-0.03272706824596554 0.03713197726297894
-0.0602423593717527 0.05755334104666446
-0.10151529606043345 0.03713197726297894
-0.1427882327491142 0.11881743239772101
-0.17030352387490136 0.13923879618140653
-0.18406116943779494 0.18008152374877756
-0.21157646056358212 0.18008152374877756
-0.2253341061264757 0.13923879618140653
-0.26660704281515646 0.15966015996509203
-0.2941223339409436 0.18008152374877756
-0.2941223339409436 0.09839606861403549
-0.32163762506673077 0.11881743239772101
-0.36291056175541153 0.07797470483034998
-0.3766682073183051 0.07797470483034998
-0.3904258528811987 0.09839606861403549
-0.41794114400698584 0.13923879618140653
-0.41794114400698584 0.18008152374877756
-0.43169878956987945 0.20050288753246306
-0.4041834984440923 0.18008152374877756
-0.41794114400698584 0.15966015996509203
-0.43169878956987945 0.15966015996509203
-0.43169878956987945 0.18008152374877756
-0.43169878956987945 0.09839606861403549
-0.4592140806956666 0.09839606861403549
-0.48672937182145376 0.09839606861403549
-0.4729717262585602 0.07797470483034998
-0.48672937182145376 0.05755334104666446
-0.5142446629472409 0.15966015996509203
-0.5004870173843473 0.15966015996509203
-0.5004870173843473 0.15966015996509203
-0.4729717262585602 0.18008152374877756
-0.4592140806956666 0.26176697888351963
-0.43169878956987945 0.18008152374877756
-0.445456435132773 0.13923879618140653
-0.4592140806956666 0.13923879618140653
-0.4592140806956666 0.11881743239772101
-0.48672937182145376 0.03713197726297894
-0.4729717262585602 0.11881743239772101
-0.4592140806956666 0.11881743239772101
-0.4592140806956666 0.09839606861403549
-0.4041834984440923 0.18008152374877756
-0.4041834984440923 0.20050288753246306
-0.3491529161925179 0.20050288753246306
-0.3491529161925179 0.18008152374877756
-0.3353952706296244 0.11881743239772101
-0.32163762506673077 0.13923879618140653
-0.32163762506673077 0.09839606861403549
-0.36291056175541153 0.09839606861403549
-0.3766682073183051 0.09839606861403549
-0.3353952706296244 0.09839606861403549
-0.3491529161925179 0.13923879618140653
-0.3766682073183051 0.09839606861403549
-0.32163762506673077 0.18008152374877756
-0.2941223339409436 0.18008152374877756
-0.25284939725226285 0.2209242513161486
-0.26660704281515646 0.18008152374877756
-0.26660704281515646 0.13923879618140653
-0.23909175168936928 0.13923879618140653
-0.28036468837805 0.09839606861403549
-0.3078799795038372 0.016710613479293427
-0.2941223339409436 0.05755334104666446
-0.3353952706296244 0.016710613479293427
-0.3078799795038372 0.07797470483034998
-0.32163762506673077 0.07797470483034998
-0.3078799795038372 0.07797470483034998
-0.28036468837805 0.11881743239772101
-0.2941223339409436 0.18008152374877756
-0.2941223339409436 0.09839606861403549
-0.28036468837805 0.05755334104666446
-0.28036468837805 0.07797470483034998
-0.3078799795038372 0.05755334104666446
-0.32163762506673077 0.016710613479293427
-0.36291056175541153 0.07797470483034998
-0.3766682073183051 0.016710613479293427
-0.36291056175541153 0.016710613479293427
-0.36291056175541153 0.07797470483034998
-0.3766682073183051 0.05755334104666446
-0.3491529161925179 0.07797470483034998
-0.3766682073183051 0.15966015996509203
-0.3353952706296244 0.15966015996509203
-0.32163762506673077 0.13923879618140653
-0.3491529161925179 0.13923879618140653
-0.3491529161925179 0.11881743239772101
-0.36291056175541153 0.09839606861403549
-0.3766682073183051 0.13923879618140653
-0.3904258528811987 0.15966015996509203
-0.41794114400698584 0.2209242513161486
-0.4041834984440923 0.26176697888351963
-0.3766682073183051 0.30260970645089064
-0.3353952706296244 0.32303107023457617
-0.26660704281515646 0.40471652536931824
-0.23909175168936928 0.3842951615856327
-0.21157646056358212 0.32303107023457617
-0.19781881500068854 0.26176697888351963
-0.17030352387490136 0.18008152374877756
-0.12903058718622062 0.05755334104666446
-0.15654587831200778 -0.04455347787176312
-0.1427882327491142 -0.06497484165544865
-0.08775765049753986 -0.024132114088077607
-0.03272706824596554 -0.024132114088077607
0.008545868442715212 0.09839606861403549
0.022303514005608795 0.11881743239772101
0.06357645069428955 0.15966015996509203
0.07733409625718313 0.13923879618140653
0.008545868442715212 0.11881743239772101
0.022303514005608795 0.09839606861403549
-0.005211777120178371 0.05755334104666446
-0.018969422683071953 0.05755334104666446
-0.005211777120178371 -0.0037107503043920906
-0.03272706824596554 -0.0037107503043920906
-0.03272706824596554 0.016710613479293427
-0.03272706824596554 -0.024132114088077607
-0.03272706824596554 0.016710613479293427
-0.08775765049753986 -0.0037107503043920906
-0.15654587831200778 -0.0037107503043920906
-0.17030352387490136 -0.04455347787176312
-0.23909175168936928 -0.10581756922281967
-0.3078799795038372 -0.08539620543913415
-0.36291056175541153 -0.12623893300650518
-0.4041834984440923 -0.14666029679019071
-0.5004870173843473 -0.16708166057387622
-0.5004870173843473 -0.14666029679019071
-0.4592140806956666 -0.14666029679019071
-0.4729717262585602 -0.12623893300650518
-0.48672937182145376 -0.08539620543913415
-0.4592140806956666 -0.06497484165544865
-0.4592140806956666 -0.04455347787176312
-0.41794114400698584 0.016710613479293427
-0.445456435132773 -0.06497484165544865
-0.43169878956987945 -0.06497484165544865
-0.4592140806956666 -0.12623893300650518
-0.4592140806956666 -0.12623893300650518
-0.5004870173843473 -0.18750302435756172
-0.5280023085101345 -0.12623893300650518
-0.5417599540730281 -0.12623893300650518
-0.5417599540730281 -0.08539620543913415
-0.5004870173843473 -0.06497484165544865
-0.4729717262585602 -0.024132114088077607
-0.43169878956987945 -0.024132114088077607
-0.4592140806956666 -0.04455347787176312
-0.48672937182145376 -0.06497484165544865
-0.5004870173843473 -0.08539620543913415
-0.5142446629472409 -0.10581756922281967
-0.4729717262585602 -0.08539620543913415
-0.48672937182145376 -0.14666029679019071
-0.5142446629472409 -0.12623893300650518
-0.5004870173843473 -0.10581756922281967
-0.5004870173843473 -0.06497484165544865
-0.4592140806956666 -0.04455347787176312
-0.445456435132773 -0.0037107503043920906
-0.4041834984440923 0.07797470483034998
-0.3904258528811987 0.05755334104666446
-0.36291056175541153 0.15966015996509203
-0.3353952706296244 0.15966015996509203
-0.3078799795038372 0.13923879618140653
-0.3491529161925179 -0.0037107503043920906
-0.3491529161925179 -0.16708166057387622
-0.3078799795038372 -0.3712952984107314
-0.26660704281515646 -0.7797225740844417
-0.12903058718622062 -1.10646439462341
0.1736376151974382 -1.5353130340808059
0.6689128554616072 -1.821212127052403
1.398068070294967 -2.1275325838076857
2.3611032596975177 -2.1683753113750566
3.5305031325434726 -2.025425764889258
4.741175942078108 -1.6782625805666045
5.7729993592951265 -1.269835304892894
6.3645781184995505 -0.8614080292191838
6.227001662870615 -0.49382348111284446
5.25020882790517 -0.24876711570861829
3.4892301958547915 -0.12623893300650518
1.7282515638044131 -0.18750302435756172
-0.03272706824596554 -0.2691884794923038
-1.7937057002963441 -0.3712952984107314
-3.004378509830979 -0.4121380259781024
-2.7704985352617886 -0.35087393462704586
-2.0551009659913224 -0.24876711570861829
-1.2571575233434944 -0.12623893300650518
-0.5142446629472409 0.03713197726297894
-0.0602423593717527 0.11881743239772101
0.18739526076033178 0.13923879618140653
0.20115290632322538 0.11881743239772101
0.1048493873829703 0.09839606861403549
-0.0602423593717527 0.09839606861403549
-0.15654587831200778 0.09839606861403549
-0.23909175168936928 0.20050288753246306
-0.23909175168936928 0.11881743239772101
-0.2253341061264757 0.15966015996509203
-0.2253341061264757 0.13923879618140653
-0.17030352387490136 0.11881743239772101
-0.15654587831200778 0.09839606861403549
-0.17030352387490136 0.05755334104666446
-0.17030352387490136 0.03713197726297894
-0.19781881500068854 0.03713197726297894
-0.19781881500068854 0.05755334104666446
-0.19781881500068854 0.09839606861403549
-0.19781881500068854 0.11881743239772101
-0.17030352387490136 0.13923879618140653
-0.1427882327491142 0.15966015996509203
-0.15654587831200778 0.18008152374877756
-0.15654587831200778 0.11881743239772101
-0.1427882327491142 0.09839606861403549
-0.15654587831200778 0.05755334104666446
-0.15654587831200778 0.07797470483034998
-0.15654587831200778 0.03713197726297894
-0.19781881500068854 0.05755334104666446
-0.1427882327491142 0.07797470483034998
-0.19781881500068854 0.05755334104666446
-0.11527294162332703 0.05755334104666446
-0.11527294162332703 0.13923879618140653
-0.10151529606043345 0.15966015996509203
-0.07400000493464629 0.09839606861403549
-0.07400000493464629 0.11881743239772101
-0.0602423593717527 0.13923879618140653
-0.10151529606043345 0.05755334104666446
-0.11527294162332703 0.03713197726297894
-0.17030352387490136 -0.024132114088077607
-0.19781881500068854 -0.0037107503043920906
-0.17030352387490136 0.05755334104666446
-0.15654587831200778 0.07797470483034998
-0.1427882327491142 0.07797470483034998
-0.15654587831200778 0.09839606861403549
-0.12903058718622062 0.13923879618140653
-0.10151529606043345 0.11881743239772101
-0.07400000493464629 0.11881743239772101
-0.03272706824596554 0.07797470483034998
-0.07400000493464629 0.05755334104666446
-0.07400000493464629 -0.0037107503043920906
-0.08775765049753986 -0.0037107503043920906
-0.12903058718622062 -0.024132114088077607
-0.10151529606043345 -0.0037107503043920906
-0.08775765049753986 0.05755334104666446
-0.0602423593717527 0.03713197726297894
-0.04648471380885912 0.09839606861403549
-0.04648471380885912 0.13923879618140653
-0.005211777120178371 0.09839606861403549
-0.018969422683071953 0.03713197726297894
-0.03272706824596554 0.07797470483034998
-0.04648471380885912 0.05755334104666446
-0.03272706824596554 -0.0037107503043920906
-0.0602423593717527 -0.04455347787176312
-0.0602423593717527 -0.024132114088077607
-0.04648471380885912 -0.024132114088077607
-0.005211777120178371 0.016710613479293427
-0.005211777120178371 0.05755334104666446
0.008545868442715212 0.05755334104666446
0.022303514005608795 0.07797470483034998
0.06357645069428955 0.07797470483034998
0.07733409625718313 0.05755334104666446
0.0910917418200767 0.05755334104666446
0.07733409625718313 0.05755334104666446
0.04981880513139596 -0.0037107503043920906
0.03606115956850238 -0.04455347787176312
0.03606115956850238 -0.024132114088077607
0.04981880513139596 0.016710613479293427
0.07733409625718313 0.03713197726297894
0.0910917418200767 0.05755334104666446
0.11860703294586387 0.016710613479293427
0.11860703294586387 0.03713197726297894
0.18739526076033178 0.11881743239772101
0.20115290632322538 0.05755334104666446
0.21491055188611896 0.03713197726297894
0.14612232407165104 -0.024132114088077607
0.15987996963454462 -0.04455347787176312
0.1736376151974382 -0.0037107503043920906
0.1736376151974382 -0.04455347787176312
0.20115290632322538 -0.0037107503043920906
0.2561834885747997 0.03713197726297894
0.2561834885747997 -0.0037107503043920906
0.2836987797005869 0.03713197726297894
0.31121407082637403 0.11881743239772101
0.3387293619521612 0.07797470483034998
0.3524870075150548 0.03713197726297894
0.36624465307794835 -0.0037107503043920906
0.38000229864084195 -0.06497484165544865
0.38000229864084195 -0.06497484165544865
0.39375994420373556 -0.06497484165544865
0.36624465307794835 -0.08539620543913415
0.38000229864084195 -0.04455347787176312
0.4075175897666291 -0.04455347787176312
0.4212752353295227 0.016710613479293427
0.43503288089241626 0.05755334104666446
0.5175787542697777 0.03713197726297894
0.5038211087068842 0.03713197726297894
0.5038211087068842 0.05755334104666446
0.5038211087068842 -0.0037107503043920906
0.5038211087068842 -0.024132114088077607
0.4625481720182034 -0.06497484165544865
0.49006346314399063 -0.06497484165544865
0.4625481720182034 -0.06497484165544865
0.5175787542697777 -0.06497484165544865
0.5313363998326713 -0.024132114088077607
0.5313363998326713 -0.024132114088077607
0.5450940453955649 0.05755334104666446
0.5863669820842456 0.07797470483034998
0.5863669820842456 0.03713197726297894
0.5450940453955649 0.03713197726297894
0.5038211087068842 -0.0037107503043920906
0.4625481720182034 -0.024132114088077607
0.4075175897666291 -0.06497484165544865
0.38000229864084195 -0.024132114088077607
0.31121407082637403 -0.04455347787176312
0.2699411341376933 0.016710613479293427
0.20115290632322538 0.016710613479293427
0.14612232407165104 0.09839606861403549
0.11860703294586387 0.11881743239772101
0.06357645069428955 0.13923879618140653
0.03606115956850238 0.11881743239772101
-0.005211777120178371 0.11881743239772101
-0.08775765049753986 0.09839606861403549
-0.15654587831200778 0.07797470483034998
-0.19781881500068854 0.03713197726297894
-0.26660704281515646 0.05755334104666446
-0.3078799795038372 0.03713197726297894
-0.2941223339409436 0.03713197726297894
-0.3078799795038372 0.05755334104666446
-0.32163762506673077 0.09839606861403549
-0.32163762506673077 0.13923879618140653
-0.3353952706296244 0.15966015996509203
-0.3078799795038372 0.15966015996509203
-0.3353952706296244 0.15966015996509203
-0.3491529161925179 0.11881743239772101
-0.36291056175541153 0.07797470483034998
-0.41794114400698584 0.016710613479293427
-0.4041834984440923 0.03713197726297894
-0.43169878956987945 0.07797470483034998
-0.43169878956987945 0.05755334104666446
-0.445456435132773 0.09839606861403549
-0.4592140806956666 0.13923879618140653
-0.43169878956987945 0.15966015996509203
-0.3904258528811987 0.18008152374877756
-0.3766682073183051 0.20050288753246306
-0.41794114400698584 0.11881743239772101
-0.445456435132773 0.13923879618140653
-0.48672937182145376 0.07797470483034998
-0.4592140806956666 0.09839606861403549
-0.48672937182145376 0.09839606861403549
-0.5004870173843473 0.03713197726297894
-0.4592140806956666 0.07797470483034998
-0.445456435132773 0.13923879618140653
-0.43169878956987945 0.15966015996509203
-0.43169878956987945 0.20050288753246306
-0.4041834984440923 0.2413456150998341
-0.43169878956987945 0.13923879618140653
-0.4041834984440923 0.15966015996509203
-0.3904258528811987 0.09839606861403549
-0.41794114400698584 0.09839606861403549
-0.4041834984440923 0.05755334104666446
-0.43169878956987945 0.07797470483034998
-0.445456435132773 0.09839606861403549
-0.41794114400698584 0.09839606861403549
-0.3904258528811987 0.09839606861403549
-0.3766682073183051 0.11881743239772101
-0.3491529161925179 0.18008152374877756
-0.3491529161925179 0.20050288753246306
-0.2941223339409436 0.18008152374877756
-0.3353952706296244 0.15966015996509203
-0.3078799795038372 0.09839606861403549
-0.28036468837805 0.11881743239772101
-0.28036468837805 0.09839606861403549
-0.3078799795038372 0.05755334104666446
-0.3078799795038372 0.05755334104666446
-0.3078799795038372 0.05755334104666446
-0.32163762506673077 0.07797470483034998
-0.3078799795038372 0.07797470483034998
-0.2941223339409436 0.15966015996509203
-0.21157646056358212 0.11881743239772101
-0.2253341061264757 0.18008152374877756
-0.25284939725226285 0.15966015996509203
-0.2941223339409436 0.09839606861403549
-0.32163762506673077 0.05755334104666446
-0.2941223339409436 0.03713197726297894
-0.28036468837805 -0.0037107503043920906
-0.3078799795038372 -0.024132114088077607
-0.3078799795038372 -0.0037107503043920906
-0.2941223339409436 -0.04455347787176312
-0.3078799795038372 0.05755334104666446
-0.2941223339409436 0.05755334104666446
-0.28036468837805 0.07797470483034998
-0.3078799795038372 0.11881743239772101
-0.32163762506673077 0.07797470483034998
-0.3353952706296244 0.03713197726297894
-0.3353952706296244 0.05755334104666446
-0.3491529161925179 0.016710613479293427
-0.36291056175541153 -0.0037107503043920906
-0.36291056175541153 -0.024132114088077607
-0.3766682073183051 -0.024132114088077607
-0.3904258528811987 0.016710613479293427
-0.41794114400698584 -0.0037107503043920906
-0.41794114400698584 0.03713197726297894
-0.3491529161925179 0.07797470483034998
-0.3491529161925179 0.05755334104666446
-0.3353952706296244 0.016710613479293427
-0.3766682073183051 0.03713197726297894
-0.41794114400698584 0.03713197726297894
-0.3904258528811987 -0.024132114088077607
-0.4041834984440923 -0.0037107503043920906
-0.4592140806956666 -0.024132114088077607
-0.445456435132773 0.016710613479293427
-0.43169878956987945 -0.024132114088077607
-0.43169878956987945 0.016710613479293427
-0.3904258528811987 0.09839606861403549
-0.3491529161925179 0.09839606861403549
-0.36291056175541153 0.05755334104666446
-0.3353952706296244 0.09839606861403549
-0.36291056175541153 0.05755334104666446
-0.36291056175541153 0.03713197726297894
-0.3904258528811987 0.07797470483034998
-0.41794114400698584 0.05755334104666446
-0.41794114400698584 0.11881743239772101
-0.3904258528811987 0.15966015996509203
-0.3904258528811987 0.18008152374877756
-0.3491529161925179 0.2209242513161486
-0.3078799795038372 0.30260970645089064
-0.3353952706296244 0.3638737978019472
-0.2941223339409436 0.32303107023457617
-0.21157646056358212 0.32303107023457617
-0.23909175168936928 0.28218834266720516
-0.23909175168936928 0.26176697888351963
-0.21157646056358212 0.15966015996509203
-0.2253341061264757 0.09839606861403549
-0.15654587831200778 0.09839606861403549
-0.1427882327491142 0.07797470483034998
-0.10151529606043345 -0.024132114088077607
-0.03272706824596554 0.05755334104666446
0.008545868442715212 0.05755334104666446
0.04981880513139596 0.15966015996509203
0.07733409625718313 0.18008152374877756
0.1048493873829703 0.11881743239772101
0.04981880513139596 0.07797470483034998
0.008545868442715212 0.07797470483034998
-0.005211777120178371 0.03713197726297894
-0.04648471380885912 0.016710613479293427
-0.0602423593717527 -0.0037107503043920906
-0.0602423593717527 0.07797470483034998
-0.018969422683071953 0.03713197726297894
0.008545868442715212 0.07797470483034998
0.008545868442715212 0.07797470483034998
-0.005211777120178371 0.05755334104666446
-0.018969422683071953 0.09839606861403549
-0.0602423593717527 0.03713197726297894
-0.11527294162332703 -0.0037107503043920906
-0.19781881500068854 -0.06497484165544865
-0.26660704281515646 -0.10581756922281967
-0.3353952706296244 -0.12623893300650518
-0.4041834984440923 -0.16708166057387622
-0.4041834984440923 -0.14666029679019071
-0.445456435132773 -0.10581756922281967
-0.41794114400698584 -0.06497484165544865
-0.4592140806956666 -0.024132114088077607
-0.4041834984440923 -0.024132114088077607
-0.3766682073183051 -0.024132114088077607
-0.3766682073183051 -0.08539620543913415
-0.36291056175541153 -0.08539620543913415
-0.3904258528811987 -0.10581756922281967
-0.43169878956987945 -0.12623893300650518
-0.43169878956987945 -0.10581756922281967
-0.48672937182145376 -0.10581756922281967
-0.5004870173843473 -0.08539620543913415
-0.5004870173843473 -0.06497484165544865
-0.48672937182145376 -0.04455347787176312
-0.43169878956987945 -0.08539620543913415
-0.43169878956987945 0.016710613479293427
-0.4041834984440923 -0.0037107503043920906
-0.445456435132773 -0.0037107503043920906
-0.41794114400698584 -0.06497484165544865
-0.445456435132773 -0.06497484165544865
-0.43169878956987945 -0.04455347787176312
-0.43169878956987945 -0.12623893300650518
-0.4592140806956666 -0.10581756922281967
-0.4592140806956666 -0.04455347787176312
-0.445456435132773 -0.04455347787176312
-0.41794114400698584 0.016710613479293427
-0.3766682073183051 0.03713197726297894
-0.3353952706296244 0.07797470483034998
-0.2941223339409436 0.13923879618140653
-0.2941223339409436 0.15966015996509203
-0.25284939725226285 0.09839606861403549
-0.26660704281515646 -0.0037107503043920906
-0.25284939725226285 -0.12623893300650518
-0.23909175168936928 -0.35087393462704586
-0.19781881500068854 -0.6367730275986431
-0.03272706824596554 -0.9839362119212969
0.24242584301190612 -1.3719421238113216
0.7239434377131815 -1.6578412167829188
1.4255833614207543 -1.8416334908360885
2.3748609052604115 -1.862054854619774
3.544260778106366 -1.6578412167829188
4.796206524329682 -1.4127848513786927
5.78675700485802 -1.024778939488668
6.337062827373764 -0.7388798465170706
6.13069814393036 -0.4121380259781024
5.05760179002466 -0.2691884794923038
3.2966231579742815 -0.18750302435756172
1.5356445259239029 -0.12623893300650518
-0.2253341061264757 -0.18750302435756172
-1.9863127381768544 -0.24876711570861829
-3.018136155393873 -0.31003120705967485
-2.811771471950469 -0.2896098432759893
-2.1376468393686836 -0.14666029679019071
-1.3259457511579624 -0.08539620543913415
-0.5967905363246024 -0.0037107503043920906
-0.11527294162332703 0.03713197726297894
0.0910917418200767 0.18008152374877756
0.0910917418200767 0.13923879618140653
0.03606115956850238 0.13923879618140653
-0.07400000493464629 0.20050288753246306
-0.19781881500068854 0.20050288753246306
-0.18406116943779494 0.18008152374877756
-0.21157646056358212 0.18008152374877756
-0.18406116943779494 0.2209242513161486
-0.15654587831200778 0.20050288753246306
-0.15654587831200778 0.20050288753246306
-0.12903058718622062 0.20050288753246306
-0.15654587831200778 0.15966015996509203
-0.15654587831200778 0.15966015996509203
-0.15654587831200778 0.11881743239772101
-0.19781881500068854 0.09839606861403549
-0.21157646056358212 0.13923879618140653
-0.21157646056358212 0.15966015996509203
-0.17030352387490136 0.20050288753246306
-0.1427882327491142 0.2209242513161486
-0.12903058718622062 0.18008152374877756
-0.08775765049753986 0.2209242513161486
-0.10151529606043345 0.18008152374877756
-0.10151529606043345 0.20050288753246306
-0.10151529606043345 0.13923879618140653
-0.10151529606043345 0.13923879618140653
-0.1427882327491142 0.11881743239772101
-0.11527294162332703 0.11881743239772101
-0.10151529606043345 0.09839606861403549
-0.10151529606043345 0.11881743239772101
-0.08775765049753986 0.13923879618140653
-0.07400000493464629 0.20050288753246306
-0.0602423593717527 0.20050288753246306
-0.0602423593717527 0.18008152374877756
-0.0602423593717527 0.20050288753246306
-0.07400000493464629 0.18008152374877756
-0.04648471380885912 0.13923879618140653
-0.07400000493464629 0.09839606861403549
-0.08775765049753986 0.09839606861403549
-0.11527294162332703 0.11881743239772101
-0.10151529606043345 0.09839606861403549
-0.11527294162332703 0.13923879618140653
-0.0602423593717527 0.11881743239772101
-0.08775765049753986 0.18008152374877756
-0.03272706824596554 0.20050288753246306
-0.018969422683071953 0.2209242513161486
-0.018969422683071953 0.18008152374877756
-0.018969422683071953 0.13923879618140653
-0.03272706824596554 0.13923879618140653
-0.0602423593717527 0.07797470483034998
-0.0602423593717527 0.03713197726297894
-0.08775765049753986 0.07797470483034998
-0.0602423593717527 0.07797470483034998
-0.0602423593717527 0.07797470483034998
-0.03272706824596554 0.11881743239772101
-0.03272706824596554 0.18008152374877756
-0.005211777120178371 0.15966015996509203
0.008545868442715212 0.15966015996509203
-0.005211777120178371 0.07797470483034998
0.008545868442715212 0.07797470483034998
-0.005211777120178371 0.07797470483034998
-0.018969422683071953 0.05755334104666446
-0.005211777120178371 0.016710613479293427
-0.03272706824596554 -0.0037107503043920906
-0.005211777120178371 0.05755334104666446
0.008545868442715212 0.07797470483034998
0.03606115956850238 0.07797470483034998
0.04981880513139596 0.11881743239772101
0.07733409625718313 0.11881743239772101
0.11860703294586387 0.13923879618140653
0.11860703294586387 0.11881743239772101
0.11860703294586387 0.09839606861403549
0.0910917418200767 0.016710613479293427
0.1048493873829703 0.05755334104666446
0.0910917418200767 0.03713197726297894
0.04981880513139596 0.03713197726297894
0.06357645069428955 0.03713197726297894
0.07733409625718313 0.07797470483034998
0.13236467850875747 0.09839606861403549
0.15987996963454462 0.09839606861403549
0.15987996963454462 0.13923879618140653
0.15987996963454462 0.09839606861403549
0.18739526076033178 0.09839606861403549
0.20115290632322538 0.07797470483034998
0.20115290632322538 0.07797470483034998
0.14612232407165104 0.05755334104666446
0.18739526076033178 -0.0037107503043920906
0.20115290632322538 -0.024132114088077607
0.20115290632322538 0.016710613479293427
0.22866819744901254 -0.0037107503043920906
0.2699411341376933 0.09839606861403549
0.29745642526348043 0.03713197726297894
0.32497171638926764 0.07797470483034998
0.38000229864084195 0.11881743239772101
0.39375994420373556 -0.0037107503043920906
0.43503288089241626 0.03713197726297894
0.4212752353295227 -0.0037107503043920906
0.39375994420373556 -0.0037107503043920906
0.4212752353295227 -0.06497484165544865
0.38000229864084195 -0.08539620543913415
0.4075175897666291 -0.024132114088077607
0.39375994420373556 -0.0037107503043920906
0.43503288089241626 0.05755334104666446
0.476305817581097 0.05755334104666446
0.5175787542697777 0.03713197726297894
0.5175787542697777 0.03713197726297894
0.5313363998326713 0.016710613479293427
0.5313363998326713 0.016710613479293427
0.5450940453955649 0.016710613479293427
0.5313363998326713 -0.024132114088077607
0.49006346314399063 -0.04455347787176312
0.476305817581097 -0.06497484165544865
0.4625481720182034 0.016710613479293427
0.4625481720182034 0.016710613479293427
0.4625481720182034 0.05755334104666446
0.4625481720182034 0.09839606861403549
0.43503288089241626 0.13923879618140653
0.4212752353295227 0.13923879618140653
0.39375994420373556 0.13923879618140653
0.32497171638926764 0.13923879618140653
0.2836987797005869 0.07797470483034998
0.21491055188611896 0.07797470483034998
0.14612232407165104 0.05755334104666446
0.0910917418200767 0.05755334104666446
0.04981880513139596 0.09839606861403549
0.03606115956850238 0.07797470483034998
-0.04648471380885912 0.13923879618140653
-0.07400000493464629 0.20050288753246306
-0.08775765049753986 0.2209242513161486
-0.10151529606043345 0.2413456150998341
-0.19781881500068854 0.2209242513161486
-0.2253341061264757 0.20050288753246306
-0.2253341061264757 0.18008152374877756
-0.2941223339409436 0.15966015996509203
-0.2941223339409436 0.11881743239772101
-0.36291056175541153 0.07797470483034998
-0.3766682073183051 0.13923879618140653
-0.3491529161925179 0.15966015996509203
-0.3491529161925179 0.15966015996509203
-0.36291056175541153 0.2209242513161486
-0.3491529161925179 0.2209242513161486
-0.3353952706296244 0.26176697888351963
-0.3491529161925179 0.18008152374877756
-0.36291056175541153 0.18008152374877756
-0.3766682073183051 0.20050288753246306
-0.43169878956987945 0.15966015996509203
-0.43169878956987945 0.11881743239772101
-0.41794114400698584 0.15966015996509203
-0.41794114400698584 0.15966015996509203
-0.445456435132773 0.15966015996509203
-0.445456435132773 0.2209242513161486
-0.41794114400698584 0.2209242513161486
-0.4041834984440923 0.28218834266720516
-0.3904258528811987 0.26176697888351963
-0.3491529161925179 0.2413456150998341
-0.36291056175541153 0.2209242513161486
-0.36291056175541153 0.20050288753246306
-0.4041834984440923 0.20050288753246306
-0.43169878956987945 0.15966015996509203
-0.41794114400698584 0.15966015996509203
-0.41794114400698584 0.15966015996509203
-0.41794114400698584 0.15966015996509203
-0.4041834984440923 0.2209242513161486
-0.3766682073183051 0.2413456150998341
-0.3353952706296244 0.2413456150998341
-0.3078799795038372 0.28218834266720516
-0.3078799795038372 0.20050288753246306
-0.32163762506673077 0.18008152374877756
-0.32163762506673077 0.15966015996509203
-0.3078799795038372 0.15966015996509203
-0.3353952706296244 0.13923879618140653
-0.36291056175541153 0.11881743239772101
-0.32163762506673077 0.09839606861403549
-0.3491529161925179 0.13923879618140653
-0.32163762506673077 0.2209242513161486
-0.3491529161925179 0.18008152374877756
-0.28036468837805 0.2209242513161486
-0.2253341061264757 0.26176697888351963
-0.21157646056358212 0.2209242513161486
-0.2253341061264757 0.18008152374877756
-0.2253341061264757 0.15966015996509203
-0.25284939725226285 0.15966015996509203
-0.23909175168936928 0.09839606861403549
-0.28036468837805 0.05755334104666446
-0.26660704281515646 0.11881743239772101
-0.3078799795038372 0.11881743239772101
-0.2941223339409436 0.18008152374877756
-0.28036468837805 0.15966015996509203
-0.23909175168936928 0.15966015996509203
-0.23909175168936928 0.2413456150998341
-0.2253341061264757 0.13923879618140653
-0.23909175168936928 0.15966015996509203
-0.25284939725226285 0.13923879618140653
-0.25284939725226285 0.13923879618140653
-0.2941223339409436 0.07797470483034998
-0.28036468837805 0.05755334104666446
-0.2941223339409436 0.09839606861403549
-0.3078799795038372 0.09839606861403549
-0.3078799795038372 0.15966015996509203
-0.32163762506673077 0.11881743239772101
-0.32163762506673077 0.15966015996509203
-0.25284939725226285 0.18008152374877756
-0.28036468837805 0.20050288753246306
-0.28036468837805 0.15966015996509203
-0.3078799795038372 0.11881743239772101
-0.32163762506673077 0.11881743239772101
-0.36291056175541153 0.09839606861403549
-0.3491529161925179 0.11881743239772101
-0.36291056175541153 0.07797470483034998
-0.3766682073183051 0.09839606861403549
-0.3353952706296244 0.15966015996509203
-0.32163762506673077 0.2209242513161486
-0.32163762506673077 0.28218834266720516
-0.26660704281515646 0.28218834266720516
-0.26660704281515646 0.32303107023457617
-0.26660704281515646 0.30260970645089064
-0.25284939725226285 0.32303107023457617
-0.2941223339409436 0.30260970645089064
-0.23909175168936928 0.3434524340182617
-0.25284939725226285 0.26176697888351963
-0.2253341061264757 0.32303107023457617
-0.19781881500068854 0.32303107023457617
-0.17030352387490136 0.32303107023457617
-0.12903058718622062 0.30260970645089064
-0.07400000493464629 0.28218834266720516
-0.07400000493464629 0.26176697888351963
-0.0602423593717527 0.2209242513161486
-0.0602423593717527 0.13923879618140653
-0.04648471380885912 0.09839606861403549
-0.018969422683071953 0.07797470483034998
0.04981880513139596 0.13923879618140653
0.07733409625718313 0.03713197726297894
0.07733409625718313 0.15966015996509203
0.06357645069428955 0.11881743239772101
0.022303514005608795 0.18008152374877756
0.04981880513139596 0.15966015996509203
0.022303514005608795 0.2209242513161486
-0.018969422683071953 0.2209242513161486
0.06357645069428955 0.15966015996509203
0.04981880513139596 0.18008152374877756
0.03606115956850238 0.13923879618140653
0.022303514005608795 0.07797470483034998
-0.005211777120178371 0.03713197726297894
-0.04648471380885912 -0.0037107503043920906
-0.08775765049753986 0.05755334104666446
-0.12903058718622062 -0.024132114088077607
-0.15654587831200778 0.03713197726297894
-0.2253341061264757 0.016710613479293427
-0.26660704281515646 0.03713197726297894
-0.25284939725226285 0.09839606861403549
-0.3078799795038372 0.07797470483034998
-0.32163762506673077 0.016710613479293427
-0.32163762506673077 -0.04455347787176312
-0.36291056175541153 -0.024132114088077607
-0.3904258528811987 -0.06497484165544865
-0.3904258528811987 -0.06497484165544865
-0.4041834984440923 -0.024132114088077607
-0.41794114400698584 -0.0037107503043920906
-0.4041834984440923 0.03713197726297894
-0.41794114400698584 0.03713197726297894
-0.41794114400698584 0.05755334104666446
-0.36291056175541153 0.09839606861403549
-0.3904258528811987 0.07797470483034998
-0.3766682073183051 0.05755334104666446
-0.41794114400698584 -0.0037107503043920906
-0.4592140806956666 -0.024132114088077607
-0.4729717262585602 -0.08539620543913415
-0.4729717262585602 -0.024132114088077607
-0.4729717262585602 -0.04455347787176312
-0.4592140806956666 0.016710613479293427
-0.4592140806956666 0.016710613479293427
-0.4592140806956666 0.07797470483034998
-0.41794114400698584 0.11881743239772101
-0.36291056175541153 0.07797470483034998
-0.36291056175541153 0.05755334104666446
-0.3766682073183051 0.09839606861403549
-0.3904258528811987 0.03713197726297894
-0.445456435132773 0.016710613479293427
-0.4041834984440923 -0.024132114088077607
-0.43169878956987945 0.016710613479293427
-0.4041834984440923 0.016710613479293427
-0.3904258528811987 0.03713197726297894
-0.3491529161925179 0.11881743239772101
-0.36291056175541153 0.13923879618140653
-0.3078799795038372 0.20050288753246306
-0.28036468837805 0.20050288753246306
-0.28036468837805 0.18008152374877756
-0.28036468837805 0.20050288753246306
-0.21157646056358212 0.05755334104666446
-0.23909175168936928 -0.06497484165544865
-0.2253341061264757 -0.2691884794923038
-0.18406116943779494 -0.47340211732915893
-0.08775765049753986 -0.7184584827333852
0.03606115956850238 -1.0043575757049823
0.31121407082637403 -1.228992577325523
0.710185792150288 -1.4944703065134348
1.3292798424804992 -1.5761557616481767
2.1684962218170076 -1.4944703065134348
3.1590467023453455 -1.4332062151623781
4.259658347376832 -1.228992577325523
5.318997055719638 -0.9635148481376113
6.103182852804572 -0.6776157551660141
6.529669865254274 -0.3712952984107314
6.405851055188231 -0.16708166057387622
5.566634675851723 -0.0037107503043920906
4.09456660062211 0.11881743239772101
2.333587968571731 0.20050288753246306
0.5726093365213522 0.15966015996509203
-1.1883692955290266 0.07797470483034998
-2.6054067885070653 0.03713197726297894
-2.7704985352617886 -0.04455347787176312
-2.261465649434726 -0.06497484165544865
-1.4910374979126853 -0.0037107503043920906
-0.7068517008277511 0.03713197726297894
-0.15654587831200778 0.11881743239772101
0.15987996963454462 0.18008152374877756
0.24242584301190612 0.26176697888351963
0.15987996963454462 0.2209242513161486
0.04981880513139596 0.2209242513161486
-0.0602423593717527 0.2413456150998341
-0.11527294162332703 0.2413456150998341
-0.19781881500068854 0.26176697888351963
-0.1427882327491142 0.2209242513161486
-0.15654587831200778 0.2209242513161486
-0.08775765049753986 0.15966015996509203
-0.10151529606043345 0.2413456150998341
-0.08775765049753986 0.13923879618140653
-0.10151529606043345 0.09839606861403549
-0.11527294162332703 0.11881743239772101
-0.08775765049753986 0.15966015996509203
-0.12903058718622062 0.15966015996509203
-0.11527294162332703 0.2413456150998341
-0.11527294162332703 0.20050288753246306
-0.0602423593717527 0.30260970645089064
-0.04648471380885912 0.2209242513161486
-0.04648471380885912 0.18008152374877756
-0.07400000493464629 0.15966015996509203
-0.0602423593717527 0.13923879618140653
-0.0602423593717527 0.13923879618140653
-0.10151529606043345 0.11881743239772101
-0.10151529606043345 0.18008152374877756
-0.07400000493464629 0.15966015996509203
-0.0602423593717527 0.18008152374877756
-0.03272706824596554 0.20050288753246306
-0.03272706824596554 0.2209242513161486
-0.005211777120178371 0.26176697888351963
0.008545868442715212 0.20050288753246306
0.008545868442715212 0.2209242513161486
-0.018969422683071953 0.20050288753246306
-0.018969422683071953 0.13923879618140653
-0.04648471380885912 0.13923879618140653
-0.0602423593717527 0.07797470483034998
-0.03272706824596554 0.13923879618140653
-0.04648471380885912 0.11881743239772101
-0.03272706824596554 0.18008152374877756
-0.03272706824596554 0.20050288753246306
-0.005211777120178371 0.18008152374877756
0.008545868442715212 0.2209242513161486
0.03606115956850238 0.2209242513161486
0.022303514005608795 0.13923879618140653
0.03606115956850238 0.11881743239772101
-0.005211777120178371 0.11881743239772101
-0.03272706824596554 0.05755334104666446
-0.0602423593717527 0.03713197726297894
-0.0602423593717527 0.09839606861403549
-0.04648471380885912 0.05755334104666446
-0.03272706824596554 0.13923879618140653
0.03606115956850238 0.18008152374877756
0.04981880513139596 0.15966015996509203
0.06357645069428955 0.15966015996509203
0.04981880513139596 0.15966015996509203
0.0910917418200767 0.11881743239772101
0.0910917418200767 0.07797470483034998
0.04981880513139596 0.09839606861403549
0.022303514005608795 0.09839606861403549
0.022303514005608795 0.07797470483034998
0.008545868442715212 0.07797470483034998
0.04981880513139596 0.11881743239772101
0.06357645069428955 0.13923879618140653
0.06357645069428955 0.09839606861403549
0.07733409625718313 0.15966015996509203
0.11860703294586387 0.20050288753246306
0.11860703294586387 0.11881743239772101
0.13236467850875747 0.11881743239772101
0.14612232407165104 0.11881743239772101
0.13236467850875747 0.09839606861403549
0.13236467850875747 0.07797470483034998
0.13236467850875747 0.03713197726297894
0.15987996963454462 0.07797470483034998
0.15987996963454462 0.05755334104666446
0.15987996963454462 0.11881743239772101
0.1736376151974382 0.09839606861403549
0.18739526076033178 0.15966015996509203
0.22866819744901254 0.18008152374877756
0.2699411341376933 0.09839606861403549
0.29745642526348043 0.07797470483034998
0.2836987797005869 0.09839606861403549
0.2699411341376933 0.016710613479293427
0.2699411341376933 0.016710613479293427
0.22866819744901254 -0.024132114088077607
0.2561834885747997 -0.0037107503043920906
0.2836987797005869 0.05755334104666446
0.2699411341376933 0.016710613479293427
0.36624465307794835 0.07797470483034998
0.39375994420373556 0.09839606861403549
0.44879052645530987 0.03713197726297894
0.476305817581097 0.05755334104666446
0.44879052645530987 0.016710613479293427
0.4625481720182034 0.05755334104666446
0.4625481720182034 -0.04455347787176312
0.44879052645530987 -0.0037107503043920906
0.4625481720182034 -0.04455347787176312
0.43503288089241626 -0.04455347787176312
0.44879052645530987 -0.04455347787176312
0.49006346314399063 -0.0037107503043920906
0.5450940453955649 -0.0037107503043920906
0.5038211087068842 0.03713197726297894
0.5588516909584585 0.03713197726297894
0.5588516909584585 0.016710613479293427
0.5588516909584585 0.05755334104666446
0.6001246276471393 0.03713197726297894
0.5863669820842456 -0.024132114088077607
0.5588516909584585 -0.024132114088077607
0.5726093365213522 -0.06497484165544865
0.5726093365213522 0.016710613479293427
0.5313363998326713 -0.024132114088077607
0.5863669820842456 0.03713197726297894
0.6001246276471393 0.09839606861403549
0.6001246276471393 0.11881743239772101
0.6138822732100329 0.09839606861403549
0.6001246276471393 0.13923879618140653
0.5863669820842456 0.11881743239772101
0.5313363998326713 0.11881743239772101
0.49006346314399063 0.05755334104666446
0.43503288089241626 0.09839606861403549
0.3524870075150548 0.05755334104666446
0.31121407082637403 0.07797470483034998
0.2836987797005869 0.15966015996509203
0.21491055188611896 0.18008152374877756
0.18739526076033178 0.2209242513161486
0.11860703294586387 0.18008152374877756
0.11860703294586387 0.2413456150998341
0.06357645069428955 0.26176697888351963
-0.005211777120178371 0.26176697888351963
-0.0602423593717527 0.2209242513161486
-0.12903058718622062 0.15966015996509203
-0.19781881500068854 0.15966015996509203
-0.2253341061264757 0.11881743239772101
-0.23909175168936928 0.18008152374877756
-0.23909175168936928 0.2209242513161486
-0.25284939725226285 0.2209242513161486
-0.23909175168936928 0.2209242513161486
-0.32163762506673077 0.26176697888351963
-0.28036468837805 0.32303107023457617
-0.2941223339409436 0.28218834266720516
-0.26660704281515646 0.32303107023457617
-0.2941223339409436 0.2209242513161486
-0.3353952706296244 0.15966015996509203
-0.3766682073183051 0.18008152374877756
-0.36291056175541153 0.15966015996509203
-0.41794114400698584 0.20050288753246306
-0.41794114400698584 0.2209242513161486
-0.41794114400698584 0.2209242513161486
-0.3904258528811987 0.2413456150998341
-0.3904258528811987 0.30260970645089064
-0.3766682073183051 0.32303107023457617
-0.3353952706296244 0.26176697888351963
-0.3491529161925179 0.28218834266720516
-0.3766682073183051 0.2209242513161486
-0.3766682073183051 0.2209242513161486
-0.3904258528811987 0.20050288753246306
-0.3904258528811987 0.2209242513161486
-0.4041834984440923 0.20050288753246306
-0.3766682073183051 0.2413456150998341
-0.36291056175541153 0.26176697888351963
-0.3904258528811987 0.26176697888351963
-0.3904258528811987 0.30260970645089064
-0.3491529161925179 0.32303107023457617
-0.3353952706296244 0.26176697888351963
-0.36291056175541153 0.30260970645089064
-0.3353952706296244 0.26176697888351963
-0.32163762506673077 0.20050288753246306
-0.3904258528811987 0.15966015996509203
-0.3353952706296244 0.15966015996509203
-0.32163762506673077 0.18008152374877756
-0.32163762506673077 0.18008152374877756
-0.3078799795038372 0.2209242513161486
-0.26660704281515646 0.2413456150998341
-0.26660704281515646 0.28218834266720516
-0.26660704281515646 0.30260970645089064
-0.19781881500068854 0.26176697888351963
-0.2253341061264757 0.2413456150998341
-0.21157646056358212 0.20050288753246306
-0.2253341061264757 0.20050288753246306
-0.25284939725226285 0.13923879618140653
-0.23909175168936928 0.13923879618140653
-0.28036468837805 0.13923879618140653
-0.26660704281515646 0.18008152374877756
-0.25284939725226285 0.15966015996509203
-0.21157646056358212 0.20050288753246306
-0.2253341061264757 0.2413456150998341
-0.21157646056358212 0.28218834266720516
-0.19781881500068854 0.26176697888351963
-0.18406116943779494 0.26176697888351963
-0.19781881500068854 0.15966015996509203
-0.23909175168936928 0.18008152374877756
-0.21157646056358212 0.15966015996509203
-0.28036468837805 0.07797470483034998
-0.28036468837805 0.15966015996509203
-0.26660704281515646 0.15966015996509203
-0.2941223339409436 0.18008152374877756
-0.28036468837805 0.2209242513161486
-0.21157646056358212 0.2413456150998341
-0.2253341061264757 0.26176697888351963
-0.23909175168936928 0.18008152374877756
-0.25284939725226285 0.2209242513161486
-0.26660704281515646 0.18008152374877756
-0.2941223339409436 0.18008152374877756
-0.28036468837805 0.18008152374877756
-0.32163762506673077 0.07797470483034998
-0.3491529161925179 0.09839606861403549
-0.32163762506673077 0.11881743239772101
-0.32163762506673077 0.11881743239772101
-0.3353952706296244 0.15966015996509203
-0.2941223339409436 0.18008152374877756
-0.26660704281515646 0.26176697888351963
-0.26660704281515646 0.2413456150998341
-0.26660704281515646 0.2209242513161486
-0.2941223339409436 0.2209242513161486
-0.32163762506673077 0.18008152374877756
-0.3491529161925179 0.2209242513161486
-0.3766682073183051 0.2413456150998341
-0.3904258528811987 0.26176697888351963
-0.3491529161925179 0.30260970645089064
-0.32163762506673077 0.3434524340182617
-0.3078799795038372 0.3434524340182617
-0.26660704281515646 0.40471652536931824
-0.21157646056358212 0.4864019805040603
-0.17030352387490136 0.42513788915300377
-0.17030352387490136 0.4659806167203748
-0.12903058718622062 0.3638737978019472
-0.11527294162332703 0.32303107023457617
-0.10151529606043345 0.26176697888351963
-0.11527294162332703 0.20050288753246306
-0.11527294162332703 0.18008152374877756
-0.07400000493464629 0.11881743239772101
-0.04648471380885912 0.18008152374877756
-0.018969422683071953 0.18008152374877756
0.03606115956850238 0.20050288753246306
0.0910917418200767 0.2209242513161486
0.0910917418200767 0.26176697888351963
0.11860703294586387 0.26176697888351963
0.0910917418200767 0.2209242513161486
-0.005211777120178371 0.18008152374877756
0.008545868442715212 0.13923879618140653
0.03606115956850238 0.09839606861403549
0.008545868442715212 0.20050288753246306
0.008545868442715212 0.15966015996509203
0.022303514005608795 0.15966015996509203
0.04981880513139596 0.2209242513161486
0.04981880513139596 0.15966015996509203
0.06357645069428955 0.20050288753246306
0.03606115956850238 0.18008152374877756
-0.005211777120178371 0.09839606861403549
-0.07400000493464629 0.13923879618140653
-0.12903058718622062 0.05755334104666446
-0.21157646056358212 -0.024132114088077607
-0.32163762506673077 -0.0037107503043920906
-0.3353952706296244 0.03713197726297894
-0.3766682073183051 0.03713197726297894
-0.3766682073183051 0.03713197726297894
-0.3766682073183051 0.03713197726297894
-0.3353952706296244 0.07797470483034998
-0.3491529161925179 0.11881743239772101
-0.3766682073183051 0.07797470483034998
-0.32163762506673077 0.07797470483034998
-0.3491529161925179 0.03713197726297894
-0.3766682073183051 0.016710613479293427
-0.3766682073183051 -0.0037107503043920906
-0.3904258528811987 -0.0037107503043920906
-0.445456435132773 0.016710613479293427
-0.43169878956987945 0.03713197726297894
-0.43169878956987945 0.05755334104666446
-0.41794114400698584 0.11881743239772101
-0.43169878956987945 0.11881743239772101
-0.4041834984440923 0.15966015996509203
-0.4041834984440923 0.11881743239772101
-0.4041834984440923 0.09839606861403549
-0.3904258528811987 0.05755334104666446
-0.41794114400698584 0.03713197726297894
-0.43169878956987945 0.016710613479293427
-0.4041834984440923 -0.024132114088077607
-0.3904258528811987 0.03713197726297894
-0.41794114400698584 0.03713197726297894
-0.3766682073183051 0.05755334104666446
-0.3766682073183051 0.07797470483034998
-0.36291056175541153 0.11881743239772101
-0.3491529161925179 0.15966015996509203
-0.3353952706296244 0.13923879618140653
-0.32163762506673077 0.07797470483034998
-0.3078799795038372 0.13923879618140653
-0.28036468837805 0.09839606861403549
-0.28036468837805 0.20050288753246306
-0.28036468837805 0.18008152374877756
-0.25284939725226285 0.20050288753246306
-0.23909175168936928 0.15966015996509203
-0.19781881500068854 0.15966015996509203
-0.15654587831200778 -0.06497484165544865
-0.11527294162332703 -0.31003120705967485
-0.018969422683071953 -0.6163516638149575
0.15987996963454462 -1.0860430308397244
0.5038211087068842 -1.4536275789460638
0.9990963489710531 -1.739526671917661
1.7144939182415195 -1.9233189459708306
2.6775291076440704 -1.9845830373218871
3.8056560438013443 -1.7191053081339753
4.988813562210193 -1.3719421238113216
5.993121688301423 -0.9430934843539258
6.543427510817167 -0.595930300031272
6.378335764062444 -0.22834575192493275
5.429058220222787 0.016710613479293427
3.736867815986876 0.07797470483034998
1.9758891839364976 0.09839606861403549
0.21491055188611896 -0.06497484165544865
-1.5460680801642597 -0.16708166057387622
-2.784256180824682 -0.24876711570861829
-2.687952661884427 -0.24876711570861829
-2.0551009659913224 -0.20792438814124725
-1.2984304600321752 -0.04455347787176312
-0.5417599540730281 0.18008152374877756
-0.018969422683071953 0.32303107023457617
0.2699411341376933 0.40471652536931824
0.32497171638926764 0.42513788915300377
0.24242584301190612 0.42513788915300377
0.11860703294586387 0.32303107023457617
-0.005211777120178371 0.32303107023457617
-0.10151529606043345 0.28218834266720516
-0.18406116943779494 0.2413456150998341
-0.17030352387490136 0.26176697888351963
-0.17030352387490136 0.2413456150998341
-0.1427882327491142 0.26176697888351963
-0.07400000493464629 0.28218834266720516
-0.04648471380885912 0.28218834266720516
-0.03272706824596554 0.32303107023457617
-0.03272706824596554 0.3434524340182617
-0.005211777120178371 0.3842951615856327
-0.018969422683071953 0.3434524340182617
-0.018969422683071953 0.3434524340182617
-0.03272706824596554 0.28218834266720516
-0.0602423593717527 0.30260970645089064
-0.03272706824596554 0.26176697888351963
-0.04648471380885912 0.2209242513161486
-0.04648471380885912 0.2413456150998341
-0.04648471380885912 0.2413456150998341
-0.018969422683071953 0.30260970645089064
-0.03272706824596554 0.30260970645089064
0.008545868442715212 0.3434524340182617
0.03606115956850238 0.3638737978019472
0.022303514005608795 0.32303107023457617
0.03606115956850238 0.30260970645089064
-0.03272706824596554 0.30260970645089064
-0.04648471380885912 0.26176697888351963
0.022303514005608795 0.28218834266720516
-0.005211777120178371 0.2413456150998341
-0.018969422683071953 0.2209242513161486
-0.005211777120178371 0.2209242513161486
-0.005211777120178371 0.26176697888351963
-0.005211777120178371 0.26176697888351963
0.04981880513139596 0.3638737978019472
0.06357645069428955 0.3434524340182617
0.06357645069428955 0.30260970645089064
0.0910917418200767 0.3434524340182617
0.0910917418200767 0.28218834266720516
0.07733409625718313 0.26176697888351963
0.06357645069428955 0.2413456150998341
0.03606115956850238 0.2209242513161486
0.008545868442715212 0.2413456150998341
0.04981880513139596 0.18008152374877756
0.04981880513139596 0.30260970645089064
0.07733409625718313 0.26176697888351963
0.0910917418200767 0.28218834266720516
0.1048493873829703 0.32303107023457617
0.0910917418200767 0.32303107023457617
0.1048493873829703 0.30260970645089064
0.13236467850875747 0.2209242513161486
0.11860703294586387 0.2413456150998341
0.0910917418200767 0.2209242513161486
0.1048493873829703 0.15966015996509203
0.06357645069428955 0.20050288753246306
0.1048493873829703 0.2209242513161486
0.1048493873829703 0.26176697888351963
0.13236467850875747 0.28218834266720516
0.14612232407165104 0.30260970645089064
0.18739526076033178 0.32303107023457617
0.21491055188611896 0.32303107023457617
0.21491055188611896 0.28218834266720516
0.2699411341376933 0.26176697888351963
0.24242584301190612 0.2413456150998341
0.21491055188611896 0.20050288753246306
0.20115290632322538 0.2209242513161486
0.20115290632322538 0.2209242513161486
0.21491055188611896 0.26176697888351963
0.2699411341376933 0.28218834266720516
0.29745642526348043 0.30260970645089064
0.3524870075150548 0.32303107023457617
0.3524870075150548 0.3434524340182617
0.4075175897666291 0.26176697888351963
0.4075175897666291 0.32303107023457617
0.4625481720182034 0.26176697888351963
0.43503288089241626 0.2209242513161486
0.43503288089241626 0.2413456150998341
0.38000229864084195 0.20050288753246306
0.4075175897666291 0.2209242513161486
0.44879052645530987 0.20050288753246306
0.476305817581097 0.2413456150998341
0.5038211087068842 0.26176697888351963
0.5588516909584585 0.28218834266720516
0.5726093365213522 0.3434524340182617
0.6138822732100329 0.30260970645089064
0.6276399187729265 0.32303107023457617
0.6413975643358201 0.26176697888351963
0.6276399187729265 0.2209242513161486
0.6413975643358201 0.18008152374877756
0.6689128554616072 0.13923879618140653
0.710185792150288 0.20050288753246306
0.6964281465873944 0.20050288753246306
0.710185792150288 0.2413456150998341
0.7789740199647559 0.28218834266720516
0.806489311090543 0.32303107023457617
0.8202469566534366 0.28218834266720516
0.8752775389050109 0.26176697888351963
0.8752775389050109 0.26176697888351963
0.8890351844679045 0.26176697888351963
0.8890351844679045 0.20050288753246306
0.8477622477792237 0.20050288753246306
0.8202469566534366 0.20050288753246306
0.8615198933421173 0.20050288753246306
0.8615198933421173 0.20050288753246306
0.9027928300307981 0.2209242513161486
0.9303081211565852 0.2413456150998341
0.9440657667194788 0.30260970645089064
0.9578234122823724 0.30260970645089064
0.9440657667194788 0.30260970645089064
0.9303081211565852 0.30260970645089064
0.8890351844679045 0.30260970645089064
0.8340046022163302 0.28218834266720516
0.7927316655276494 0.2413456150998341
0.710185792150288 0.2413456150998341
0.6413975643358201 0.28218834266720516
0.5863669820842456 0.28218834266720516
0.5588516909584585 0.3434524340182617
0.5313363998326713 0.32303107023457617
0.49006346314399063 0.3842951615856327
0.4625481720182034 0.3842951615856327
0.43503288089241626 0.3638737978019472
0.3524870075150548 0.3434524340182617
0.31121407082637403 0.32303107023457617
0.2561834885747997 0.30260970645089064
0.18739526076033178 0.30260970645089064
0.13236467850875747 0.28218834266720516
0.04981880513139596 0.28218834266720516
0.022303514005608795 0.3434524340182617
-0.005211777120178371 0.32303107023457617
0.022303514005608795 0.3638737978019472
0.008545868442715212 0.44555925293668924
0.008545868442715212 0.42513788915300377
-0.005211777120178371 0.40471652536931824
-0.005211777120178371 0.3638737978019472
-0.018969422683071953 0.40471652536931824
-0.04648471380885912 0.30260970645089064
-0.10151529606043345 0.3434524340182617
-0.11527294162332703 0.32303107023457617
-0.1427882327491142 0.28218834266720516
-0.11527294162332703 0.3434524340182617
-0.12903058718622062 0.42513788915300377
-0.1427882327491142 0.40471652536931824
-0.12903058718622062 0.42513788915300377
-0.11527294162332703 0.4659806167203748
-0.12903058718622062 0.5068233442877458
-0.11527294162332703 0.40471652536931824
-0.08775765049753986 0.3842951615856327
-0.15654587831200778 0.3842951615856327
-0.1427882327491142 0.3434524340182617
-0.18406116943779494 0.32303107023457617
-0.15654587831200778 0.3434524340182617
-0.1427882327491142 0.3434524340182617
-0.15654587831200778 0.3842951615856327
-0.15654587831200778 0.40471652536931824
-0.15654587831200778 0.44555925293668924
-0.08775765049753986 0.5068233442877458
-0.0602423593717527 0.42513788915300377
-0.0602423593717527 0.4659806167203748
-0.018969422683071953 0.3842951615856327
-0.03272706824596554 0.3638737978019472
-0.04648471380885912 0.3638737978019472
-0.0602423593717527 0.3434524340182617
-0.08775765049753986 0.3434524340182617
-0.018969422683071953 0.3842951615856327
-0.005211777120178371 0.42513788915300377
