0.14479443425116062 -1.0984378337247271
0.07122151479840609 -0.9056116064845975
0.006845210277245868 -0.7020728110644608
-0.12190739876507457 -0.5306717201843456
-0.2598566227389893 -0.3378454929442161
-0.3978058467129041 -0.19858210660412254
-0.48977199602884725 -0.027181015724007405
-0.5449516856184131 0.10136980243607896
-0.5725415304131961 0.18707034787613652
-0.5265584557552245 0.2406331887761725
-0.48977199602884725 0.26205832513618693
-0.49896861096044154 0.3049085978562157
-0.4805753810972529 0.3370463023962373
-0.4713787661656586 0.3477588705762445
-0.49896861096044154 0.3370463023962373
-0.5265584557552245 0.3906091432962733
-0.5633449154816018 0.4013217114762805
-0.5725415304131961 0.41203427965628764
-0.600131375207979 0.4013217114762805
-0.6093279901395734 0.43345941601630206
-0.600131375207979 0.44417198419630927
-0.5633449154816018 0.48702225691633805
-0.5725415304131961 0.49773482509634526
-0.5633449154816018 0.5191599614563597
-0.5633449154816018 0.5727228023563956
-0.5909347602763847 0.5834353705364028
-0.6093279901395734 0.59414793871641
-0.6185246050711677 0.5834353705364028
-0.6093279901395734 0.6262856432564315
-0.6461144498659506 0.6048605068964172
-0.6369178349343563 0.6155730750764244
-0.655311064797545 0.647710779616446
-0.655311064797545 0.6905610523364748
-0.627721220002762 0.7119861886964892
-0.6185246050711677 0.754836461416518
-0.6369178349343563 0.7976867341365468
-0.6369178349343563 0.8191118704965611
-0.627721220002762 0.8298244386765683
-0.6461144498659506 0.8619621432165899
-0.655311064797545 0.8726747113965971
-0.6645076797291393 0.8512495750365827
-0.6920975245239223 0.8619621432165899
-0.7012941394555166 0.9048124159366188
-0.7012941394555166 0.9262375522966331
-0.7012941394555166 0.9476626886566475
-0.7288839842502994 0.9798003931966691
-0.7380805991818938 1.0119380977366907
-0.7380805991818938 1.0762135068167338
-0.7196873693187051 1.086926074996741
-0.7564738290450824 1.0976386431767482
-0.7932602887714597 1.12977634771677
-0.830046748497837 1.1726266204367986
-0.8576365932926199 1.194051756796813
-0.8852264380874029 1.2261894613368347
-0.9220128978137802 1.2369020295168418
-0.9312095127453744 1.2583271658768562
-0.9587993575401574 1.301177438596885
-0.9863892023349403 1.3333151431369066
-0.9679959724717517 1.3333151431369066
-0.9863892023349403 1.3761654158569354
-0.9863892023349403 1.3975905522169498
-1.0139790471297232 1.4297282567569713
-1.0231756620613177 1.4404408249369784
-1.032372276992912 1.4297282567569713
-1.0599621217876949 1.4511533931169858
-1.0691587367192892 1.4618659612969929
-1.0783553516508835 1.4404408249369784
-1.1059451964456664 1.4511533931169858
-1.0691587367192892 1.4832910976570073
-1.0507655068561006 1.4511533931169858
-1.032372276992912 1.4725785294770002
-1.0139790471297232 1.4832910976570073
-0.9679959724717517 1.4511533931169858
-0.9404061276769687 1.4511533931169858
-0.9036196679505915 1.408303120396957
-0.8668332082242142 1.3118900067768922
-0.8668332082242142 1.2904648704168777
-0.830046748497837 1.194051756796813
-0.802456903703054 1.1619140522567915
-0.7380805991818938 1.1190637795367626
-0.7012941394555166 1.0440758022767123
-0.6369178349343563 0.9798003931966691
-0.600131375207979 0.9583752568366547
-0.5357550706868188 0.9155249841166259
-0.49896861096044154 0.8512495750365827
-0.45298553630246996 0.754836461416518
-0.4161990765760927 0.7119861886964892
-0.3610193869865268 0.647710779616446
-0.34262615712333816 0.59414793871641
-0.3518227720549325 0.5084473932763525
-0.3058396973969609 0.48702225691633805
-0.2966430824653666 0.44417198419630927
-0.2966430824653666 0.4013217114762805
-0.2874464675337723 0.41203427965628764
-0.2874464675337723 0.36918400693625886
-0.27824985260217794 0.3370463023962373
-0.2598566227389893 0.31562116603622287
-0.24146339287580068 0.3049085978562157
-0.20467693314942342 0.2941960296762085
-0.17708708835464046 0.2941960296762085
-0.22307016301261204 0.2727708933161941
-0.21387354808101774 0.26205832513618693
-0.21387354808101774 0.2513457569561797
-0.21387354808101774 0.2513457569561797
-0.23226677794420636 0.2084954842361509
-0.1954803182178291 0.2299206205961653
-0.16789047342304614 0.26205832513618693
-0.1403006286282632 0.2513457569561797
-0.09431755397029161 0.2513457569561797
-0.06672770917550866 0.2406331887761725
-0.0299412494491314 0.26205832513618693
0.03443505507202882 0.2513457569561797
0.08961474466159472 0.2406331887761725
0.1355978193195663 0.2084954842361509
0.19997412384072652 0.21920805241615812
0.2643504283618867 0.18707034787613652
0.39310303740420716 0.18707034787613652
0.503462416583339 0.2084954842361509
0.650608255488848 0.18707034787613652
0.8161473242575458 0.19778291605614373
0.9816863930262434 0.18707034787613652
1.1380288468633468 0.19778291605614373
1.3219611454952331 0.14422007515610774
1.4231239097427706 0.09065723425607176
1.3863374500163934 0.026381825176028578
1.174815306589724 -0.09145642480405058
0.7057879450784139 -0.17715697024410815
0.016041825208840184 -0.24143237932415135
-0.8576365932926199 -0.25214494750415856
-1.703725166999297 -0.17715697024410815
-2.4118645167320594 -0.048606152084021796
-2.9360715678329354 0.09065723425607176
-3.2855429352335195 0.21920805241615812
-3.4970650786601887 0.26205832513618693
-3.6718007623604807 0.31562116603622287
-3.75457029674483 0.3584714387562517
-3.8465364460607727 0.48702225691633805
-3.901716135650339 0.6584233477964532
-3.9201093655135275 0.9155249841166259
-3.901716135650339 1.247614597696849
-3.8649296759239613 1.6118419158170938
-3.7729635266080184 1.954644097577324
-3.616621072770915 2.286733711157547
-3.4326887741390286 2.54383534747772
-3.1843801709859823 2.7259490065378422
-2.917678337969747 2.8223621201579068
-2.660173119885106 2.9080626655979644
-2.4486509764584365 2.940200370137986
-2.338291597279305 3.0259009155780436
-2.2187356031685788 3.0473260519380583
-2.13596606878423 3.1116014610181013
-2.053196534399881 3.0473260519380583
-1.9060506954943721 2.8866375292379503
-1.6853319371361084 2.5973981883777557
-1.409433489188279 2.0510572111973886
-1.1703215009668266 1.365452847676928
-0.949602742608563 0.5620102341763884
-0.8392433634294313 -0.19858210660412254
-0.7656704439766767 -0.7234979474244752
-0.7380805991818938 -1.0234498564646768
-0.6829009095923279 -1.0663001291847054
-0.5541483005500074 -0.9698870155646407
-0.3610193869865268 -0.7342105156044824
-0.10351416890188593 -0.55209685654436
0.16318766411434926 -0.3914083338442521
0.39310303740420716 -0.2628575156841657
0.5494454912413106 -0.19858210660412254
0.6322150256256595 -0.18786953842411536
0.650608255488848 -0.22000724296413696
0.623018410694065 -0.22000724296413696
0.5862319509676879 -0.23071981114414414
0.5586421061729049 -0.2628575156841657
0.5770353360360935 -0.29499522022418734
0.5862319509676879 -0.3378454929442161
0.650608255488848 -0.3378454929442161
0.6690014853520366 -0.3592706293042305
0.7149845600100082 -0.3378454929442161
0.7517710197363855 -0.3271329247642089
0.7793608645311685 -0.3271329247642089
0.8161473242575458 -0.3271329247642089
0.8345405541207344 -0.3378454929442161
0.8713270138471116 -0.3592706293042305
0.8805236287787059 -0.3378454929442161
0.9265067034366775 -0.3806957656642449
0.9540965482314605 -0.3914083338442521
0.9908830079578378 -0.4235460383842737
1.0184728527526208 -0.4235460383842737
1.0460626975474037 -0.4449711747442881
1.0644559274105923 -0.46639631110430246
1.1012423871369696 -0.4449711747442881
1.1472254617949411 -0.46639631110430246
1.1932085364529128 -0.45568374292429525
1.2483882260424786 -0.4449711747442881
1.2759780708372617 -0.45568374292429525
1.2943713007004503 -0.4878214474643169
1.3587476052216105 -0.5092465838243313
1.3587476052216105 -0.5199591520043384
1.4139272948111763 -0.5413842883643528
1.4507137545375537 -0.5842345610843817
1.4783035993323366 -0.5842345610843817
1.5334832889219026 -0.5842345610843817
1.5886629785114683 -0.6056596974443961
1.63464605316944 -0.6056596974443961
1.6714325128958172 -0.5842345610843817
1.7082189726221944 -0.6163722656244032
1.7450054323485718 -0.6163722656244032
1.7450054323485718 -0.6485099701644248
1.754202047280166 -0.6806476747044464
1.7633986622117603 -0.7020728110644608
1.7633986622117603 -0.7127853792444679
1.7725952771433546 -0.7449230837844896
1.7450054323485718 -0.7449230837844896
1.7266122024853832 -0.7449230837844896
1.7450054323485718 -0.7127853792444679
1.7358088174169775 -0.7234979474244752
1.7174155875537889 -0.7234979474244752
1.6898257427590058 -0.7234979474244752
1.63464605316944 -0.7449230837844896
1.5610731337166854 -0.7556356519644968
1.4875002142639309 -0.7449230837844896
1.4139272948111763 -0.7556356519644968
1.349550990290016 -0.7449230837844896
1.2759780708372617 -0.7020728110644608
1.202405151384507 -0.659222538344432
1.1472254617949411 -0.659222538344432
1.0920457722053751 -0.6056596974443961
1.0460626975474037 -0.5949471292643889
1.000079622889432 -0.5735219929043744
0.9448999332998662 -0.5092465838243313
0.8713270138471116 -0.49853401564432404
0.8069507093259515 -0.4449711747442881
0.7149845600100082 -0.3914083338442521
0.650608255488848 -0.3592706293042305
0.5494454912413106 -0.3057077884041945
0.49426580165174466 -0.29499522022418734
0.42988949713058444 -0.23071981114414414
0.38390642247261286 -0.13430669752407937
0.3471199627462356 -0.09145642480405058
0.301136888088264 -0.00575587936399301
0.2643504283618867 0.037094393356035774
0.22756396863550946 0.13350750697610056
0.1907775089091322 0.13350750697610056
0.14479443425116062 0.17635777969612934
0.10800797452478335 0.17635777969612934
0.05282828493521745 0.2084954842361509
0.016041825208840184 0.21920805241615812
-0.0023514046543484488 0.2406331887761725
-0.0299412494491314 0.2941960296762085
-0.04833447931232003 0.31562116603622287
-0.04833447931232003 0.31562116603622287
-0.04833447931232003 0.3477588705762445
-0.05753109424391435 0.36918400693625886
-0.04833447931232003 0.37989657511626607
-0.06672770917550866 0.37989657511626607
-0.05753109424391435 0.3584714387562517
-0.0851209390386973 0.3263337342162301
-0.0851209390386973 0.3049085978562157
-0.14949724355985752 0.3263337342162301
-0.14949724355985752 0.3263337342162301
-0.16789047342304614 0.3370463023962373
-0.1403006286282632 0.36918400693625886
-0.14949724355985752 0.36918400693625886
-0.12190739876507457 0.37989657511626607
-0.12190739876507457 0.4013217114762805
-0.0851209390386973 0.36918400693625886
-0.09431755397029161 0.3584714387562517
-0.07592432410710298 0.3477588705762445
-0.06672770917550866 0.3263337342162301
-0.11271078383348025 0.3263337342162301
-0.11271078383348025 0.2834834614962013
-0.13110401369666888 0.3049085978562157
-0.13110401369666888 0.31562116603622287
-0.12190739876507457 0.31562116603622287
-0.13110401369666888 0.3477588705762445
-0.1403006286282632 0.3370463023962373
-0.14949724355985752 0.36918400693625886
-0.13110401369666888 0.3584714387562517
-0.12190739876507457 0.3477588705762445
-0.12190739876507457 0.3477588705762445
-0.11271078383348025 0.3370463023962373
-0.15869385849145184 0.3263337342162301
-0.16789047342304614 0.3049085978562157
-0.1954803182178291 0.2941960296762085
-0.1954803182178291 0.2941960296762085
-0.1954803182178291 0.2834834614962013
-0.17708708835464046 0.3049085978562157
-0.16789047342304614 0.3370463023962373
-0.16789047342304614 0.31562116603622287
-0.13110401369666888 0.36918400693625886
-0.1403006286282632 0.3370463023962373
-0.1403006286282632 0.3584714387562517
-0.15869385849145184 0.3370463023962373
-0.18628370328623478 0.3370463023962373
-0.1954803182178291 0.31562116603622287
-0.1954803182178291 0.2834834614962013
-0.1954803182178291 0.26205832513618693
-0.1954803182178291 0.26205832513618693
-0.21387354808101774 0.31562116603622287
-0.1954803182178291 0.3263337342162301
-0.16789047342304614 0.3370463023962373
-0.14949724355985752 0.3370463023962373
-0.15869385849145184 0.31562116603622287
-0.16789047342304614 0.3049085978562157
-0.16789047342304614 0.26205832513618693
-0.18628370328623478 0.2513457569561797
-0.1954803182178291 0.26205832513618693
-0.1954803182178291 0.2299206205961653
-0.1954803182178291 0.26205832513618693
-0.1954803182178291 0.26205832513618693
-0.18628370328623478 0.3049085978562157
-0.17708708835464046 0.2834834614962013
-0.18628370328623478 0.3049085978562157
-0.15869385849145184 0.2834834614962013
-0.16789047342304614 0.2941960296762085
-0.17708708835464046 0.2727708933161941
-0.18628370328623478 0.2727708933161941
-0.1954803182178291 0.2513457569561797
-0.1954803182178291 0.2513457569561797
-0.21387354808101774 0.2406331887761725
-0.20467693314942342 0.2406331887761725
-0.21387354808101774 0.2406331887761725
-0.22307016301261204 0.2727708933161941
-0.23226677794420636 0.26205832513618693
-0.22307016301261204 0.26205832513618693
-0.22307016301261204 0.2941960296762085
-0.22307016301261204 0.2513457569561797
-0.21387354808101774 0.2834834614962013
-0.20467693314942342 0.2727708933161941
-0.20467693314942342 0.2406331887761725
-0.24146339287580068 0.21920805241615812
-0.22307016301261204 0.19778291605614373
-0.22307016301261204 0.21920805241615812
-0.22307016301261204 0.2299206205961653
-0.20467693314942342 0.2513457569561797
-0.18628370328623478 0.2834834614962013
-0.17708708835464046 0.2941960296762085
-0.15869385849145184 0.3049085978562157
-0.16789047342304614 0.31562116603622287
-0.14949724355985752 0.3049085978562157
-0.18628370328623478 0.2727708933161941
-0.15869385849145184 0.3049085978562157
-0.12190739876507457 0.31562116603622287
-0.06672770917550866 0.3477588705762445
-0.04833447931232003 0.42274684783629485
-0.011548019585942766 0.49773482509634526
0.043631670003623134 0.5834353705364028
0.06202489986681177 0.647710779616446
0.10800797452478335 0.6691359159764604
0.1355978193195663 0.6905610523364748
0.14479443425116062 0.6584233477964532
0.16318766411434926 0.6369982114364388
0.18158089397753788 0.5727228023563956
0.20917073877232084 0.5298725296363668
0.27354704329348106 0.47630968873633084
0.3471199627462356 0.4548845523763165
0.39310303740420716 0.37989657511626607
0.42988949713058444 0.36918400693625886
0.43908611206217874 0.3370463023962373
0.4022996523358015 0.2941960296762085
0.38390642247261286 0.2834834614962013
0.3379233478146413 0.2513457569561797
0.32872673288304693 0.2406331887761725
0.31953011795145264 0.2299206205961653
0.32872673288304693 0.19778291605614373
0.3379233478146413 0.16564521151612213
0.3563165776778299 0.12279493879609335
0.31953011795145264 0.07994466607606457
0.27354704329348106 0.06923209789605736
0.1907775089091322 0.047806961536042976
0.1355978193195663 0.026381825176028578
0.06202489986681177 0.06923209789605736
-0.0023514046543484488 0.11208237061608615
-0.0023514046543484488 0.15493264333611495
-0.039137864380725716 0.17635777969612934
-0.039137864380725716 0.18707034787613652
-0.07592432410710298 0.19778291605614373
-0.11271078383348025 0.15493264333611495
-0.15869385849145184 0.17635777969612934
-0.1954803182178291 0.14422007515610774
-0.2598566227389893 0.16564521151612213
-0.2874464675337723 0.17635777969612934
-0.2874464675337723 0.16564521151612213
-0.27824985260217794 0.16564521151612213
-0.27824985260217794 0.18707034787613652
-0.24146339287580068 0.16564521151612213
-0.23226677794420636 0.16564521151612213
-0.24146339287580068 0.19778291605614373
-0.23226677794420636 0.17635777969612934
-0.20467693314942342 0.14422007515610774
-0.1954803182178291 0.14422007515610774
-0.20467693314942342 0.15493264333611495
-0.22307016301261204 0.18707034787613652
-0.20467693314942342 0.26205832513618693
-0.17708708835464046 0.36918400693625886
-0.11271078383348025 0.5298725296363668
0.03443505507202882 0.6262856432564315
0.2551538134302924 0.6798484841564676
0.5862319509676879 0.5834353705364028
0.9816863930262434 0.3370463023962373
1.404730679879582 -0.048606152084021796
1.809381736869732 -0.55209685654436
2.1956395639966932 -1.1198629700847416
2.563504161260466 -1.8911678790452597
2.885385683866267 -2.7588859016258427
3.152087516882502 -3.6694541969264542
3.3176265856511997 -4.45147167406698
3.400396120035549 -4.9871000830673395
3.299233355788011 -5.158501173947455
3.124497672087719 -5.0620880603273894
2.7842229196187294 -4.762136151287188
2.3151955581074195 -4.312208287726886
1.7082189726221944 -3.7980050150865408
1.1380288468633468 -3.273089174266188
0.6690014853520366 -2.726748197085821
0.31033350301985835 -2.1696946517254467
0.15399104918275494 -1.7411919245251588
0.07122151479840609 -1.3876771745849215
0.006845210277245868 -1.0770126973647127
-0.039137864380725716 -0.8413361974045543
-0.10351416890188593 -0.6270848338044104
-0.1954803182178291 -0.4342586065642809
-0.2966430824653666 -0.2628575156841657
-0.4070024616444984 -0.08074385662404339
-0.4621821512340643 0.047806961536042976
-0.48977199602884725 0.14422007515610774
-0.5081652258920358 0.18707034787613652
-0.5081652258920358 0.19778291605614373
-0.5081652258920358 0.2406331887761725
-0.5449516856184131 0.2513457569561797
-0.5449516856184131 0.2834834614962013
-0.5633449154816018 0.3370463023962373
-0.5541483005500074 0.37989657511626607
-0.5817381453447904 0.4013217114762805
-0.5633449154816018 0.44417198419630927
-0.5633449154816018 0.44417198419630927
-0.5633449154816018 0.4548845523763165
-0.5817381453447904 0.46559712055632363
-0.600131375207979 0.47630968873633084
-0.6185246050711677 0.47630968873633084
-0.6369178349343563 0.5084473932763525
-0.6461144498659506 0.5512976659963812
-0.6369178349343563 0.5834353705364028
-0.600131375207979 0.6048605068964172
-0.6185246050711677 0.6155730750764244
-0.6093279901395734 0.6262856432564315
-0.6093279901395734 0.6048605068964172
-0.627721220002762 0.6262856432564315
-0.6461144498659506 0.6262856432564315
-0.6461144498659506 0.6048605068964172
-0.655311064797545 0.6048605068964172
-0.6737042946607336 0.59414793871641
-0.6829009095923279 0.6369982114364388
-0.7104907543871108 0.6798484841564676
-0.6920975245239223 0.701273620516482
-0.6645076797291393 0.7334113250565035
-0.6645076797291393 0.7762615977765324
-0.6737042946607336 0.7869741659565396
-0.6369178349343563 0.7762615977765324
-0.6829009095923279 0.7976867341365468
-0.7012941394555166 0.8191118704965611
-0.7472772141134881 0.8298244386765683
-0.7840636738398654 0.8298244386765683
-0.8116535186346483 0.8833872795766043
-0.8484399783610256 0.8619621432165899
-0.8668332082242142 0.8940998477566116
-0.9036196679505915 0.9369501204766403
-0.9404061276769687 0.9583752568366547
-0.9312095127453744 0.9905129613766763
-0.9587993575401574 1.0440758022767123
-0.9955858172665346 1.0333632340967052
-1.032372276992912 1.0547883704567194
-1.0507655068561006 1.0655009386367267
-1.0599621217876949 1.0655009386367267
-1.1059451964456664 1.0762135068167338
-1.1243384263088552 1.0655009386367267
-1.1611248860352323 1.1190637795367626
-1.1703215009668266 1.1083512113567555
-1.1979113457616095 1.1619140522567915
-1.1979113457616095 1.1726266204367986
-1.207107960693204 1.194051756796813
-1.2255011905563926 1.2047643249768203
-1.2438944204195812 1.2047643249768203
-1.2622876502827698 1.2047643249768203
-1.271484265214364 1.1833391886168059
-1.2806808801459584 1.194051756796813
-1.2990741100091472 1.1726266204367986
-1.271484265214364 1.1512014840767841
-1.271484265214364 1.1833391886168059
-1.234697805487987 1.2154768931568274
-1.2255011905563926 1.2369020295168418
-1.1979113457616095 1.247614597696849
-1.1703215009668266 1.2154768931568274
-1.1335350412404495 1.1833391886168059
-1.0783553516508835 1.140488915896777
-1.0507655068561006 1.1190637795367626
-0.9955858172665346 1.086926074996741
-0.949602742608563 1.0333632340967052
-0.8944230530189972 0.9583752568366547
-0.8484399783610256 0.9262375522966331
-0.8116535186346483 0.8833872795766043
-0.7564738290450824 0.8512495750365827
-0.6920975245239223 0.7976867341365468
-0.6369178349343563 0.754836461416518
-0.5725415304131961 0.6905610523364748
-0.5081652258920358 0.6798484841564676
-0.4713787661656586 0.6369982114364388
-0.4345923064392813 0.5727228023563956
-0.3978058467129041 0.5191599614563597
-0.4070024616444984 0.47630968873633084
-0.3518227720549325 0.42274684783629485
-0.34262615712333816 0.36918400693625886
-0.2966430824653666 0.36918400693625886
-0.2966430824653666 0.3263337342162301
-0.26905323767058364 0.2941960296762085
-0.21387354808101774 0.3263337342162301
-0.24146339287580068 0.3370463023962373
-0.22307016301261204 0.2834834614962013
-0.17708708835464046 0.31562116603622287
-0.20467693314942342 0.2727708933161941
-0.1954803182178291 0.2406331887761725
-0.16789047342304614 0.2084954842361509
-0.1954803182178291 0.19778291605614373
-0.21387354808101774 0.18707034787613652
-0.20467693314942342 0.17635777969612934
-0.17708708835464046 0.2084954842361509
-0.18628370328623478 0.2406331887761725
-0.15869385849145184 0.2299206205961653
-0.1403006286282632 0.26205832513618693
-0.1403006286282632 0.2941960296762085
-0.13110401369666888 0.2941960296762085
-0.12190739876507457 0.31562116603622287
-0.1403006286282632 0.26205832513618693
-0.15869385849145184 0.2299206205961653
-0.16789047342304614 0.21920805241615812
-0.1954803182178291 0.2299206205961653
-0.20467693314942342 0.2513457569561797
-0.21387354808101774 0.2727708933161941
-0.20467693314942342 0.2727708933161941
-0.1954803182178291 0.2941960296762085
-0.15869385849145184 0.2834834614962013
-0.14949724355985752 0.31562116603622287
-0.12190739876507457 0.3263337342162301
-0.13110401369666888 0.3049085978562157
-0.13110401369666888 0.2941960296762085
-0.14949724355985752 0.2834834614962013
-0.16789047342304614 0.2727708933161941
-0.16789047342304614 0.26205832513618693
-0.17708708835464046 0.2727708933161941
-0.14949724355985752 0.2727708933161941
-0.13110401369666888 0.31562116603622287
-0.09431755397029161 0.3263337342162301
-0.06672770917550866 0.3906091432962733
-0.0299412494491314 0.44417198419630927
0.006845210277245868 0.48702225691633805
0.043631670003623134 0.5191599614563597
0.05282828493521745 0.5727228023563956
0.06202489986681177 0.59414793871641
0.07122151479840609 0.6155730750764244
0.09881135959318904 0.6155730750764244
0.08961474466159472 0.6048605068964172
0.09881135959318904 0.6155730750764244
0.16318766411434926 0.6369982114364388
0.21836735370391516 0.6262856432564315
0.27354704329348106 0.6048605068964172
0.3471199627462356 0.5727228023563956
0.42069288219899015 0.47630968873633084
0.42069288219899015 0.4013217114762805
0.4666759568569617 0.3263337342162301
0.42988949713058444 0.2513457569561797
0.4022996523358015 0.2084954842361509
0.3471199627462356 0.19778291605614373
0.3379233478146413 0.18707034787613652
0.31033350301985835 0.19778291605614373
0.3379233478146413 0.2084954842361509
0.3563165776778299 0.18707034787613652
0.39310303740420716 0.17635777969612934
0.39310303740420716 0.14422007515610774
0.3747098075410185 0.10136980243607896
0.3379233478146413 0.06923209789605736
0.28274365822507536 0.047806961536042976
0.22756396863550946 0.026381825176028578
0.16318766411434926 0.037094393356035774
0.0804181297300004 0.07994466607606457
0.006845210277245868 0.12279493879609335
-0.0299412494491314 0.17635777969612934
-0.04833447931232003 0.19778291605614373
-0.05753109424391435 0.18707034787613652
-0.07592432410710298 0.18707034787613652
-0.09431755397029161 0.19778291605614373
-0.10351416890188593 0.13350750697610056
-0.16789047342304614 0.14422007515610774
-0.1403006286282632 0.11208237061608615
-0.20467693314942342 0.10136980243607896
-0.21387354808101774 0.09065723425607176
-0.21387354808101774 0.07994466607606457
-0.20467693314942342 0.09065723425607176
-0.17708708835464046 0.11208237061608615
-0.14949724355985752 0.12279493879609335
-0.13110401369666888 0.13350750697610056
-0.07592432410710298 0.12279493879609335
-0.06672770917550866 0.11208237061608615
-0.0851209390386973 0.09065723425607176
-0.10351416890188593 0.10136980243607896
-0.13110401369666888 0.13350750697610056
-0.1403006286282632 0.16564521151612213
-0.13110401369666888 0.2513457569561797
-0.05753109424391435 0.3263337342162301
-0.0023514046543484488 0.46559712055632363
0.15399104918275494 0.5620102341763884
0.42069288219899015 0.59414793871641
0.7793608645311685 0.5191599614563597
1.1656186916581297 0.3049085978562157
1.5886629785114683 -0.0378935839040146
2.0025106504332126 -0.45568374292429525
2.361178632765391 -1.0234498564646768
2.6922567703027864 -1.7519044927051661
2.9681552182506157 -2.555347106205706
3.234857051266851 -3.444490265146303
3.400396120035549 -4.2050826059268145
3.4463791946935203 -4.71928587856716
3.372806275240766 -4.954962378527318
3.1612841318140963 -4.86926183308726
2.8669924540030784 -4.590735060407074
2.4163583223549567 -4.194370037746807
1.892151271254081 -3.7444421741865046
1.3679442201532048 -3.262376606086181
0.8713270138471116 -2.780311037985857
0.5678387211044992 -2.30895803806554
0.3747098075410185 -1.9340181517652884
0.2459571984986981 -1.591215970005058
0.15399104918275494 -1.312689197324871
0.11720458945637767 -1.0770126973647127
0.0804181297300004 -0.8520487655845616
-0.0023514046543484488 -0.6485099701644248
-0.0851209390386973 -0.4449711747442881
-0.18628370328623478 -0.28428265204418013
-0.250660007807395 -0.10216899298405778
-0.3058396973969609 0.037094393356035774
-0.3518227720549325 0.11208237061608615
-0.3518227720549325 0.14422007515610774
-0.3518227720549325 0.17635777969612934
-0.3610193869865268 0.17635777969612934
-0.3702160019181211 0.17635777969612934
-0.37941261684971544 0.19778291605614373
-0.4070024616444984 0.2513457569561797
-0.425395691507687 0.26205832513618693
-0.4345923064392813 0.3263337342162301
-0.425395691507687 0.3477588705762445
-0.425395691507687 0.36918400693625886
-0.38860923178130974 0.37989657511626607
-0.37941261684971544 0.3906091432962733
-0.3702160019181211 0.42274684783629485
-0.3702160019181211 0.4013217114762805
-0.38860923178130974 0.44417198419630927
-0.4070024616444984 0.44417198419630927
-0.4161990765760927 0.47630968873633084
-0.44378892137087567 0.47630968873633084
-0.4621821512340643 0.5191599614563597
-0.4805753810972529 0.5298725296363668
-0.4713787661656586 0.540585097816374
-0.425395691507687 0.5620102341763884
-0.4161990765760927 0.5834353705364028
-0.4161990765760927 0.59414793871641
-0.4345923064392813 0.5727228023563956
-0.45298553630246996 0.5834353705364028
-0.45298553630246996 0.5834353705364028
-0.4621821512340643 0.6048605068964172
-0.48977199602884725 0.6155730750764244
-0.4713787661656586 0.6369982114364388
-0.48977199602884725 0.6798484841564676
-0.5173618408236302 0.6905610523364748
-0.5265584557552245 0.7441238932365107
-0.5081652258920358 0.7869741659565396
-0.5081652258920358 0.7869741659565396
-0.5357550706868188 0.8405370068565755
-0.5173618408236302 0.8405370068565755
-0.5357550706868188 0.808399302316554
-0.5725415304131961 0.808399302316554
-0.5817381453447904 0.8512495750365827
-0.6185246050711677 0.8726747113965971
-0.6369178349343563 0.9048124159366188
-0.6645076797291393 0.9690878250166619
-0.6920975245239223 1.0226506659166978
-0.7104907543871108 1.0762135068167338
-0.6920975245239223 1.0655009386367267
-0.7012941394555166 1.0547883704567194
-0.7012941394555166 1.0655009386367267
-0.7104907543871108 1.0762135068167338
-0.7472772141134881 1.0655009386367267
-0.774867058908271 1.0655009386367267
-0.8208501335662426 1.086926074996741
-0.8668332082242142 1.1083512113567555
-0.8944230530189972 1.140488915896777
-0.9036196679505915 1.1833391886168059
-0.8852264380874029 1.2154768931568274
-0.8668332082242142 1.2583271658768562
-0.8208501335662426 1.2261894613368347
-0.8116535186346483 1.247614597696849
-0.7840636738398654 1.2154768931568274
-0.7472772141134881 1.1833391886168059
-0.7288839842502994 1.1619140522567915
-0.7380805991818938 1.1190637795367626
-0.7104907543871108 1.0976386431767482
-0.6920975245239223 1.0655009386367267
-0.655311064797545 1.0333632340967052
-0.5817381453447904 1.0226506659166978
-0.5449516856184131 0.9476626886566475
-0.4621821512340643 0.9369501204766403
-0.3978058467129041 0.8833872795766043
-0.3610193869865268 0.8405370068565755
-0.3150363123285552 0.7762615977765324
-0.2598566227389893 0.701273620516482
-0.22307016301261204 0.647710779616446
-0.23226677794420636 0.5727228023563956
-0.20467693314942342 0.5084473932763525
-0.21387354808101774 0.48702225691633805
-0.21387354808101774 0.42274684783629485
-0.20467693314942342 0.41203427965628764
-0.1954803182178291 0.3906091432962733
-0.1403006286282632 0.36918400693625886
-0.09431755397029161 0.3477588705762445
-0.07592432410710298 0.3263337342162301
-0.05753109424391435 0.2941960296762085
-0.0299412494491314 0.2513457569561797
-0.05753109424391435 0.2513457569561797
-0.05753109424391435 0.2406331887761725
-0.06672770917550866 0.19778291605614373
-0.0851209390386973 0.2084954842361509
-0.12190739876507457 0.2084954842361509
-0.1403006286282632 0.21920805241615812
-0.10351416890188593 0.2084954842361509
-0.10351416890188593 0.2406331887761725
-0.06672770917550866 0.26205832513618693
-0.04833447931232003 0.21920805241615812
-0.04833447931232003 0.2084954842361509
-0.05753109424391435 0.18707034787613652
-0.06672770917550866 0.17635777969612934
-0.06672770917550866 0.17635777969612934
-0.0851209390386973 0.14422007515610774
-0.09431755397029161 0.16564521151612213
-0.09431755397029161 0.16564521151612213
-0.10351416890188593 0.18707034787613652
-0.0851209390386973 0.19778291605614373
-0.07592432410710298 0.17635777969612934
-0.05753109424391435 0.2084954842361509
-0.039137864380725716 0.18707034787613652
-0.039137864380725716 0.2084954842361509
-0.05753109424391435 0.19778291605614373
-0.0851209390386973 0.19778291605614373
-0.11271078383348025 0.17635777969612934
-0.1403006286282632 0.16564521151612213
-0.11271078383348025 0.18707034787613652
-0.11271078383348025 0.18707034787613652
-0.0851209390386973 0.19778291605614373
-0.07592432410710298 0.18707034787613652
-0.039137864380725716 0.19778291605614373
-0.020744634517537084 0.2299206205961653
-0.011548019585942766 0.2406331887761725
-0.011548019585942766 0.2513457569561797
-0.011548019585942766 0.2406331887761725
-0.0023514046543484488 0.2513457569561797
-0.011548019585942766 0.2834834614962013
0.006845210277245868 0.3049085978562157
0.043631670003623134 0.37989657511626607
0.0804181297300004 0.44417198419630927
0.1355978193195663 0.5084473932763525
0.17238427904594356 0.5512976659963812
0.17238427904594356 0.540585097816374
0.18158089397753788 0.5512976659963812
0.19997412384072652 0.5298725296363668
0.23676058356710378 0.49773482509634526
0.27354704329348106 0.46559712055632363
0.31953011795145264 0.3906091432962733
0.3655131926094242 0.3584714387562517
0.43908611206217874 0.2941960296762085
0.4850691867201503 0.2513457569561797
0.5218556464465276 0.19778291605614373
0.5310522613781219 0.17635777969612934
0.49426580165174466 0.14422007515610774
0.4574793419253674 0.13350750697610056
0.4482827269937731 0.11208237061608615
0.4114962672673958 0.12279493879609335
0.4022996523358015 0.11208237061608615
0.42069288219899015 0.09065723425607176
0.4574793419253674 0.047806961536042976
0.4482827269937731 0.004956688816014186
0.4482827269937731 -0.016468447544000207
0.38390642247261286 -0.05931872026402899
0.31953011795145264 -0.0700312884440362
0.2643504283618867 -0.048606152084021796
0.20917073877232084 -0.00575587936399301
0.14479443425116062 0.015669256996021383
0.11720458945637767 0.026381825176028578
0.10800797452478335 0.07994466607606457
0.11720458945637767 0.09065723425607176
0.08961474466159472 0.07994466607606457
0.06202489986681177 0.05851952971605017
0.016041825208840184 0.05851952971605017
-0.011548019585942766 0.015669256996021383
-0.05753109424391435 0.037094393356035774
-0.05753109424391435 0.047806961536042976
-0.07592432410710298 0.015669256996021383
-0.05753109424391435 0.037094393356035774
-0.039137864380725716 0.047806961536042976
-0.020744634517537084 0.06923209789605736
-0.011548019585942766 0.05851952971605017
-0.011548019585942766 0.06923209789605736
-0.0299412494491314 0.05851952971605017
-0.039137864380725716 0.047806961536042976
-0.04833447931232003 0.015669256996021383
-0.020744634517537084 0.015669256996021383
-0.05753109424391435 0.047806961536042976
-0.039137864380725716 0.10136980243607896
-0.0299412494491314 0.19778291605614373
0.07122151479840609 0.2834834614962013
0.17238427904594356 0.41203427965628764
0.3471199627462356 0.540585097816374
0.6138217957624708 0.5620102341763884
0.9357033183682718 0.43345941601630206
1.3035679156320445 0.2084954842361509
1.6714325128958172 -0.17715697024410815
2.048493725091184 -0.5735219929043744
2.3795718626285796 -1.1091504019047342
2.683060155371192 -1.7840421972451876
2.9681552182506157 -2.5446345380256985
3.2808401259248225 -3.3373645833462313
3.5107554992146803 -4.044394083226706
3.575131803735841 -4.558597355867052
3.5567385738726522 -4.815698992187224
3.38200289017236 -4.826411560367232
3.1336942870193134 -4.590735060407074
2.7658296897555408 -4.312208287726886
2.2876057133126366 -3.926555833246627
1.7450054323485718 -3.5194782424063535
1.2391916111108843 -3.0802629470260583
0.8161473242575458 -2.651760219825771
0.5310522613781219 -2.244682628985497
0.3471199627462356 -1.8376050381452236
0.28274365822507536 -1.5055154245650006
0.2551538134302924 -1.2377012200648205
0.21836735370391516 -1.0020247201046624
0.1907775089091322 -0.8306236292245471
0.11720458945637767 -0.659222538344432
0.016041825208840184 -0.4771088792843097
-0.12190739876507457 -0.3378454929442161
-0.23226677794420636 -0.17715697024410815
-0.2966430824653666 -0.048606152084021796
-0.3150363123285552 0.047806961536042976
-0.33342954219174387 0.13350750697610056
-0.3242329272601495 0.14422007515610774
-0.3150363123285552 0.18707034787613652
-0.3058396973969609 0.21920805241615812
-0.3058396973969609 0.2299206205961653
-0.3058396973969609 0.2406331887761725
-0.3058396973969609 0.26205832513618693
-0.2966430824653666 0.26205832513618693
-0.3242329272601495 0.2727708933161941
-0.3242329272601495 0.2727708933161941
-0.3518227720549325 0.2727708933161941
-0.3610193869865268 0.3049085978562157
-0.33342954219174387 0.3370463023962373
-0.3058396973969609 0.3584714387562517
-0.3242329272601495 0.4013217114762805
-0.3242329272601495 0.41203427965628764
-0.3242329272601495 0.44417198419630927
-0.3518227720549325 0.46559712055632363
-0.3518227720549325 0.46559712055632363
-0.3610193869865268 0.4548845523763165
-0.3702160019181211 0.5084473932763525
-0.3978058467129041 0.47630968873633084
-0.3978058467129041 0.48702225691633805
-0.38860923178130974 0.5084473932763525
-0.3978058467129041 0.5298725296363668
-0.38860923178130974 0.5620102341763884
-0.3518227720549325 0.59414793871641
-0.3702160019181211 0.6262856432564315
-0.3518227720549325 0.6369982114364388
-0.3702160019181211 0.6584233477964532
-0.3610193869865268 0.6691359159764604
-0.38860923178130974 0.6798484841564676
-0.4345923064392813 0.7119861886964892
-0.45298553630246996 0.7119861886964892
-0.49896861096044154 0.754836461416518
-0.4805753810972529 0.7441238932365107
-0.4713787661656586 0.7655490295965252
-0.5081652258920358 0.7655490295965252
-0.48977199602884725 0.808399302316554
-0.48977199602884725 0.8191118704965611
-0.49896861096044154 0.8512495750365827
-0.5449516856184131 0.8726747113965971
-0.5725415304131961 0.8940998477566116
-0.5817381453447904 0.9048124159366188
-0.6093279901395734 0.9155249841166259
-0.627721220002762 0.9155249841166259
-0.6369178349343563 0.9262375522966331
-0.6737042946607336 0.9583752568366547
-0.6737042946607336 0.9905129613766763
-0.6920975245239223 1.0333632340967052
-0.7288839842502994 1.0547883704567194
-0.7380805991818938 1.086926074996741
-0.7380805991818938 1.1512014840767841
-0.774867058908271 1.1726266204367986
-0.774867058908271 1.1619140522567915
-0.8208501335662426 1.1619140522567915
-0.8208501335662426 1.140488915896777
-0.8392433634294313 1.140488915896777
-0.8392433634294313 1.140488915896777
-0.8392433634294313 1.1619140522567915
-0.8116535186346483 1.1833391886168059
-0.8116535186346483 1.1726266204367986
-0.7380805991818938 1.1833391886168059
-0.6920975245239223 1.1726266204367986
-0.655311064797545 1.1833391886168059
-0.627721220002762 1.12977634771677
-0.5817381453447904 1.086926074996741
-0.5725415304131961 1.0440758022767123
-0.5541483005500074 0.9690878250166619
-0.5357550706868188 0.8940998477566116
-0.49896861096044154 0.8298244386765683
-0.4621821512340643 0.808399302316554
-0.4161990765760927 0.7869741659565396
-0.37941261684971544 0.7441238932365107
-0.2874464675337723 0.7334113250565035
-0.23226677794420636 0.701273620516482
-0.1954803182178291 0.6691359159764604
-0.1403006286282632 0.6262856432564315
-0.13110401369666888 0.540585097816374
-0.09431755397029161 0.46559712055632363
-0.07592432410710298 0.41203427965628764
-0.05753109424391435 0.36918400693625886
-0.06672770917550866 0.31562116603622287
-0.04833447931232003 0.3263337342162301
-0.039137864380725716 0.3049085978562157
-0.020744634517537084 0.31562116603622287
0.006845210277245868 0.3263337342162301
0.03443505507202882 0.2941960296762085
0.043631670003623134 0.26205832513618693
0.06202489986681177 0.2727708933161941
0.06202489986681177 0.21920805241615812
0.0804181297300004 0.18707034787613652
0.07122151479840609 0.16564521151612213
0.05282828493521745 0.16564521151612213
0.043631670003623134 0.15493264333611495
0.016041825208840184 0.15493264333611495
0.006845210277245868 0.17635777969612934
0.043631670003623134 0.21920805241615812
0.07122151479840609 0.17635777969612934
0.09881135959318904 0.2084954842361509
0.15399104918275494 0.17635777969612934
0.1907775089091322 0.16564521151612213
0.21836735370391516 0.16564521151612213
0.2459571984986981 0.16564521151612213
0.28274365822507536 0.16564521151612213
0.3563165776778299 0.15493264333611495
0.42069288219899015 0.14422007515610774
0.5218556464465276 0.14422007515610774
0.623018410694065 0.15493264333611495
0.7425744048047912 0.12279493879609335
0.8805236287787059 0.14422007515610774
0.9908830079578378 0.12279493879609335
1.1472254617949411 0.11208237061608615
1.3035679156320445 0.10136980243607896
1.5150900590587137 0.06923209789605736
1.7266122024853832 0.047806961536042976
1.9013478861856752 -0.016468447544000207
1.9749208056384298 -0.10216899298405778
1.9013478861856752 -0.17715697024410815
1.63464605316944 -0.23071981114414414
1.1380288468633468 -0.3164203565842017
0.4482827269937731 -0.3057077884041945
-0.2874464675337723 -0.28428265204418013
-1.0599621217876949 -0.17715697024410815
-1.703725166999297 -0.05931872026402899
-2.2095389882369845 0.015669256996021383
-2.577403585500757 0.09065723425607176
-2.8808918782433697 0.11208237061608615
-3.101610636601633 0.16564521151612213
-3.331526009891491 0.21920805241615812
-3.451082004002217 0.37989657511626607
-3.5430481533181606 0.540585097816374
-3.589031227976132 0.8405370068565755
-3.5706379981129435 1.1726266204367986
-3.4970650786601887 1.5047162340170217
-3.3959023144126514 1.8046681430572233
-3.2487564755071423 2.0403446430173817
-3.064824176875256 2.2331708702575113
-2.8716952633117754 2.393859392957619
-2.6509765049535114 2.500985074757691
-2.430257746595248 2.5759730520177415
-2.2371288330317673 2.5973981883777557
-2.108376223989447 2.672386165637806
-1.9888202298787208 2.7580867110778637
-1.878460850699589 2.768799279257871
-1.7497082416572687 2.768799279257871
-1.6025624027517595 2.6830987338178134
-1.409433489188279 2.500985074757691
-1.1887147308300152 2.2010331657174893
-0.9312095127453744 1.74039273397718
-0.7196873693187051 1.12977634771677
-0.5449516856184131 0.48702225691633805
-0.4161990765760927 -0.10216899298405778
-0.3702160019181211 -0.5735219929043744
-0.3150363123285552 -0.8199110610445399
-0.24146339287580068 -0.8520487655845616
-0.11271078383348025 -0.7770607883245112
0.07122151479840609 -0.6270848338044104
0.27354704329348106 -0.46639631110430246
0.475872571788556 -0.3592706293042305
0.678198100283631 -0.25214494750415856
0.7885574794627628 -0.23071981114414414
0.852933783983923 -0.23071981114414414
0.852933783983923 -0.23071981114414414
0.8161473242575458 -0.24143237932415135
0.7793608645311685 -0.28428265204418013
0.7701642495995742 -0.29499522022418734
0.7425744048047912 -0.29499522022418734
0.7793608645311685 -0.29499522022418734
0.7977540943943571 -0.29499522022418734
0.8713270138471116 -0.3057077884041945
0.9173100885050832 -0.29499522022418734
0.9632931631630548 -0.29499522022418734
0.9908830079578378 -0.3057077884041945
1.0184728527526208 -0.3057077884041945
1.0184728527526208 -0.34855806112422333
1.0460626975474037 -0.3699831974842377
1.0460626975474037 -0.4128334702042665
1.055259312478998 -0.4235460383842737
1.0736525423421865 -0.4128334702042665
1.1196356170001582 -0.4342586065642809
1.1472254617949411 -0.4342586065642809
1.1656186916581297 -0.4128334702042665
1.2116017663161014 -0.4235460383842737
1.2391916111108843 -0.3806957656642449
1.285174685768856 -0.4342586065642809
1.3035679156320445 -0.45568374292429525
1.3311577604268274 -0.4771088792843097
1.3587476052216105 -0.49853401564432404
1.3771408350847991 -0.5199591520043384
1.3955340649479877 -0.5306717201843456
1.404730679879582 -0.5199591520043384
1.4691069844007423 -0.5092465838243313
1.4966968291955252 -0.5306717201843456
1.5518765187850911 -0.5199591520043384
1.6254494382378457 -0.5199591520043384
1.6806291278274115 -0.5413842883643528
1.7174155875537889 -0.55209685654436
1.7450054323485718 -0.5735219929043744
1.7909885070065432 -0.5949471292643889
1.8185783518013263 -0.6270848338044104
1.8277749667329206 -0.6377974019844176
1.8553648115277035 -0.6485099701644248
1.9105445011172695 -0.659222538344432
1.9197411160488638 -0.6913602428844536
1.9381343459120524 -0.6699351065244392
1.9473309608436467 -0.6806476747044464
1.956527575775241 -0.7127853792444679
1.9749208056384298 -0.6806476747044464
1.984117420570024 -0.7020728110644608
1.984117420570024 -0.7020728110644608
1.9657241907068352 -0.7127853792444679
1.9197411160488638 -0.7342105156044824
1.873758041390892 -0.766348220144504
1.8277749667329206 -0.7449230837844896
1.8001851219381377 -0.7449230837844896
1.7450054323485718 -0.7127853792444679
1.7174155875537889 -0.7127853792444679
1.6622358979642229 -0.7127853792444679
1.607056208374657 -0.6806476747044464
1.579466363579874 -0.6270848338044104
1.4966968291955252 -0.6377974019844176
1.4323205246743649 -0.5842345610843817
1.3587476052216105 -0.5842345610843817
1.2759780708372617 -0.5735219929043744
1.202405151384507 -0.5735219929043744
1.1380288468633468 -0.5306717201843456
1.055259312478998 -0.5092465838243313
1.000079622889432 -0.4342586065642809
0.9265067034366775 -0.40212090202425926
0.9081134735734889 -0.3592706293042305
0.8437371690523287 -0.3057077884041945
0.8161473242575458 -0.24143237932415135
0.7333777898731969 -0.17715697024410815
0.6965913301468196 -0.13430669752407937
0.6322150256256595 -0.14501926570408658
0.5770353360360935 -0.09145642480405058
0.5310522613781219 -0.048606152084021796
0.4850691867201503 -0.00575587936399301
0.4482827269937731 0.026381825176028578
0.4022996523358015 0.10136980243607896
0.38390642247261286 0.13350750697610056
0.3747098075410185 0.19778291605614373
0.3563165776778299 0.2084954842361509
0.31953011795145264 0.2084954842361509
0.2919402731566697 0.2299206205961653
0.27354704329348106 0.2406331887761725
0.22756396863550946 0.2513457569561797
0.23676058356710378 0.2727708933161941
0.22756396863550946 0.2513457569561797
0.20917073877232084 0.2299206205961653
0.20917073877232084 0.2299206205961653
0.20917073877232084 0.2406331887761725
0.19997412384072652 0.2513457569561797
0.1907775089091322 0.2513457569561797
0.19997412384072652 0.26205832513618693
0.20917073877232084 0.26205832513618693
0.1907775089091322 0.2727708933161941
0.20917073877232084 0.26205832513618693
0.19997412384072652 0.2406331887761725
0.1907775089091322 0.2299206205961653
0.19997412384072652 0.21920805241615812
0.18158089397753788 0.2299206205961653
0.1907775089091322 0.21920805241615812
0.17238427904594356 0.21920805241615812
0.17238427904594356 0.21920805241615812
0.18158089397753788 0.2406331887761725
0.19997412384072652 0.2513457569561797
0.22756396863550946 0.26205832513618693
0.23676058356710378 0.2513457569561797
0.20917073877232084 0.2513457569561797
0.22756396863550946 0.2406331887761725
0.22756396863550946 0.2406331887761725
0.21836735370391516 0.19778291605614373
0.20917073877232084 0.18707034787613652
0.18158089397753788 0.16564521151612213
0.18158089397753788 0.17635777969612934
0.1907775089091322 0.2084954842361509
0.19997412384072652 0.21920805241615812
0.1907775089091322 0.2299206205961653
0.19997412384072652 0.2406331887761725
0.1907775089091322 0.2299206205961653
0.18158089397753788 0.2406331887761725
0.17238427904594356 0.21920805241615812
0.15399104918275494 0.2084954842361509
0.1355978193195663 0.18707034787613652
0.11720458945637767 0.19778291605614373
0.11720458945637767 0.19778291605614373
0.12640120438797198 0.19778291605614373
0.11720458945637767 0.21920805241615812
0.16318766411434926 0.2406331887761725
0.1907775089091322 0.2406331887761725
0.1907775089091322 0.2299206205961653
0.1907775089091322 0.21920805241615812
0.18158089397753788 0.18707034787613652
0.15399104918275494 0.18707034787613652
0.16318766411434926 0.15493264333611495
0.14479443425116062 0.15493264333611495
0.14479443425116062 0.12279493879609335
0.1355978193195663 0.16564521151612213
0.1355978193195663 0.14422007515610774
0.1355978193195663 0.16564521151612213
0.14479443425116062 0.17635777969612934
0.14479443425116062 0.19778291605614373
0.17238427904594356 0.18707034787613652
0.16318766411434926 0.18707034787613652
0.16318766411434926 0.17635777969612934
0.18158089397753788 0.19778291605614373
0.15399104918275494 0.14422007515610774
0.14479443425116062 0.12279493879609335
0.11720458945637767 0.13350750697610056
0.10800797452478335 0.13350750697610056
0.10800797452478335 0.13350750697610056
0.11720458945637767 0.13350750697610056
0.12640120438797198 0.16564521151612213
0.1355978193195663 0.15493264333611495
0.15399104918275494 0.18707034787613652
0.16318766411434926 0.17635777969612934
0.17238427904594356 0.15493264333611495
0.16318766411434926 0.14422007515610774
0.15399104918275494 0.10136980243607896
0.15399104918275494 0.11208237061608615
0.10800797452478335 0.07994466607606457
0.11720458945637767 0.07994466607606457
0.09881135959318904 0.12279493879609335
0.09881135959318904 0.12279493879609335
0.09881135959318904 0.13350750697610056
0.11720458945637767 0.13350750697610056
0.14479443425116062 0.14422007515610774
0.1355978193195663 0.16564521151612213
0.15399104918275494 0.16564521151612213
0.15399104918275494 0.15493264333611495
0.14479443425116062 0.12279493879609335
0.15399104918275494 0.11208237061608615
0.1355978193195663 0.11208237061608615
0.15399104918275494 0.11208237061608615
0.10800797452478335 0.11208237061608615
0.1355978193195663 0.12279493879609335
0.11720458945637767 0.14422007515610774
0.11720458945637767 0.15493264333611495
0.1355978193195663 0.18707034787613652
0.15399104918275494 0.18707034787613652
0.17238427904594356 0.18707034787613652
0.1907775089091322 0.16564521151612213
0.20917073877232084 0.16564521151612213
0.2459571984986981 0.18707034787613652
0.23676058356710378 0.2084954842361509
0.27354704329348106 0.2406331887761725
0.28274365822507536 0.2941960296762085
0.32872673288304693 0.3906091432962733
0.3747098075410185 0.4548845523763165
0.4022996523358015 0.5191599614563597
0.4022996523358015 0.5298725296363668
0.39310303740420716 0.49773482509634526
0.42069288219899015 0.47630968873633084
0.42069288219899015 0.44417198419630927
0.475872571788556 0.3584714387562517
0.5310522613781219 0.3049085978562157
0.5954285658992822 0.2406331887761725
0.650608255488848 0.21920805241615812
0.7057879450784139 0.19778291605614373
0.7333777898731969 0.16564521151612213
0.7517710197363855 0.15493264333611495
0.7057879450784139 0.12279493879609335
0.678198100283631 0.09065723425607176
0.6598048704204423 0.06923209789605736
0.6414116405572537 0.07994466607606457
0.6322150256256595 0.07994466607606457
0.6322150256256595 0.05851952971605017
0.6322150256256595 0.026381825176028578
0.623018410694065 -0.016468447544000207
0.623018410694065 -0.048606152084021796
0.5494454912413106 -0.09145642480405058
0.503462416583339 -0.10216899298405778
0.4482827269937731 -0.09145642480405058
0.3655131926094242 -0.0378935839040146
0.31953011795145264 0.026381825176028578
0.31953011795145264 0.047806961536042976
0.2919402731566697 0.06923209789605736
0.2643504283618867 0.09065723425607176
0.22756396863550946 0.07994466607606457
0.20917073877232084 0.047806961536042976
0.14479443425116062 0.026381825176028578
0.11720458945637767 0.047806961536042976
0.08961474466159472 0.026381825176028578
0.08961474466159472 0.026381825176028578
0.0804181297300004 0.05851952971605017
0.08961474466159472 0.05851952971605017
0.11720458945637767 0.05851952971605017
0.14479443425116062 0.047806961536042976
0.16318766411434926 0.047806961536042976
0.14479443425116062 0.015669256996021383
0.14479443425116062 -0.00575587936399301
0.1355978193195663 0.004956688816014186
0.11720458945637767 -0.016468447544000207
0.12640120438797198 0.015669256996021383
0.08961474466159472 0.037094393356035774
0.0804181297300004 0.06923209789605736
0.10800797452478335 0.15493264333611495
0.10800797452478335 0.2513457569561797
0.18158089397753788 0.36918400693625886
0.31033350301985835 0.48702225691633805
0.49426580165174466 0.540585097816374
0.8069507093259515 0.47630968873633084
1.1656186916581297 0.2834834614962013
1.607056208374657 -0.016468447544000207
1.984117420570024 -0.4342586065642809
2.324392173039014 -0.9270367428446119
2.6922567703027864 -1.5697908336450437
3.023334907840182 -2.3839460153255905
3.372806275240766 -3.273089174266188
3.611918263462218 -4.065819219586721
3.759064102367727 -4.67643560584713
3.7682607172993214 -5.029950355787368
3.648704723188595 -5.019237787607361
3.400396120035549 -4.826411560367232
3.032531522771776 -4.494321946787008
2.6094872359184373 -4.119382060486757
2.0668869549543727 -3.658741628746447
1.5610731337166854 -3.208813765186145
1.1012423871369696 -2.737460765265828
0.7977540943943571 -2.2553951971655044
0.5862319509676879 -1.8268924699652165
0.49426580165174466 -1.4840902882049862
0.4574793419253674 -1.2162760837048063
0.39310303740420716 -1.0234498564646768
0.31953011795145264 -0.8413361974045543
0.20917073877232084 -0.6699351065244392
0.09881135959318904 -0.5199591520043384
-0.0299412494491314 -0.3592706293042305
-0.1403006286282632 -0.22000724296413696
-0.24146339287580068 -0.048606152084021796
-0.2598566227389893 0.015669256996021383
-0.23226677794420636 0.10136980243607896
-0.21387354808101774 0.13350750697610056
-0.21387354808101774 0.15493264333611495
-0.17708708835464046 0.17635777969612934
-0.18628370328623478 0.18707034787613652
-0.1954803182178291 0.2084954842361509
-0.21387354808101774 0.26205832513618693
-0.24146339287580068 0.2406331887761725
-0.24146339287580068 0.2513457569561797
-0.2598566227389893 0.2727708933161941
-0.2598566227389893 0.2727708933161941
-0.250660007807395 0.31562116603622287
-0.26905323767058364 0.31562116603622287
-0.27824985260217794 0.3584714387562517
-0.27824985260217794 0.4013217114762805
-0.2966430824653666 0.43345941601630206
-0.27824985260217794 0.4548845523763165
-0.3150363123285552 0.4548845523763165
-0.3058396973969609 0.43345941601630206
-0.3242329272601495 0.44417198419630927
-0.3150363123285552 0.41203427965628764
-0.3610193869865268 0.43345941601630206
-0.3518227720549325 0.46559712055632363
-0.3518227720549325 0.48702225691633805
-0.3702160019181211 0.5191599614563597
-0.3518227720549325 0.540585097816374
-0.3518227720549325 0.5834353705364028
-0.3610193869865268 0.5620102341763884
-0.3518227720549325 0.59414793871641
-0.37941261684971544 0.5727228023563956
-0.3610193869865268 0.5834353705364028
-0.37941261684971544 0.59414793871641
-0.4161990765760927 0.5727228023563956
-0.4345923064392813 0.6155730750764244
-0.45298553630246996 0.6584233477964532
-0.45298553630246996 0.6584233477964532
-0.4621821512340643 0.6905610523364748
-0.4621821512340643 0.7441238932365107
-0.49896861096044154 0.754836461416518
-0.4713787661656586 0.7762615977765324
-0.5081652258920358 0.7869741659565396
-0.5357550706868188 0.808399302316554
-0.5725415304131961 0.808399302316554
-0.5909347602763847 0.8298244386765683
-0.627721220002762 0.8298244386765683
-0.6645076797291393 0.8619621432165899
-0.7012941394555166 0.8833872795766043
-0.7288839842502994 0.8940998477566116
-0.7380805991818938 0.9155249841166259
-0.7472772141134881 0.9369501204766403
-0.774867058908271 0.9798003931966691
-0.774867058908271 1.0012255295566834
-0.7932602887714597 0.9905129613766763
-0.8484399783610256 1.0333632340967052
-0.8668332082242142 1.0226506659166978
-0.9036196679505915 1.0226506659166978
-0.9312095127453744 1.0226506659166978
-0.949602742608563 1.0547883704567194
-0.9955858172665346 1.0440758022767123
-0.9679959724717517 1.0547883704567194
-0.977192587403346 1.0762135068167338
-0.9863892023349403 1.1083512113567555
-0.9679959724717517 1.0976386431767482
-0.949602742608563 1.0976386431767482
-0.9312095127453744 1.1083512113567555
-0.9220128978137802 1.1083512113567555
-0.9036196679505915 1.0762135068167338
-0.8852264380874029 1.0762135068167338
-0.8944230530189972 1.0333632340967052
-0.8852264380874029 0.9905129613766763
-0.8484399783610256 0.9905129613766763
-0.7840636738398654 0.9798003931966691
-0.7472772141134881 0.9048124159366188
-0.6645076797291393 0.9048124159366188
-0.5909347602763847 0.8619621432165899
-0.5265584557552245 0.8405370068565755
-0.4805753810972529 0.7869741659565396
-0.425395691507687 0.7334113250565035
-0.3702160019181211 0.6584233477964532
-0.3242329272601495 0.5727228023563956
-0.2598566227389893 0.5084473932763525
-0.23226677794420636 0.4548845523763165
-0.18628370328623478 0.42274684783629485
-0.1403006286282632 0.3906091432962733
-0.0851209390386973 0.3477588705762445
-0.04833447931232003 0.3263337342162301
-0.011548019585942766 0.3049085978562157
0.043631670003623134 0.2834834614962013
0.043631670003623134 0.2299206205961653
0.0804181297300004 0.2084954842361509
0.0804181297300004 0.18707034787613652
0.0804181297300004 0.16564521151612213
0.0804181297300004 0.15493264333611495
0.06202489986681177 0.12279493879609335
0.08961474466159472 0.11208237061608615
0.08961474466159472 0.09065723425607176
0.0804181297300004 0.10136980243607896
0.08961474466159472 0.11208237061608615
0.08961474466159472 0.09065723425607176
0.11720458945637767 0.13350750697610056
0.12640120438797198 0.14422007515610774
0.12640120438797198 0.16564521151612213
0.12640120438797198 0.16564521151612213
0.11720458945637767 0.16564521151612213
0.12640120438797198 0.14422007515610774
0.09881135959318904 0.11208237061608615
0.09881135959318904 0.10136980243607896
0.11720458945637767 0.10136980243607896
0.10800797452478335 0.11208237061608615
0.11720458945637767 0.14422007515610774
0.10800797452478335 0.16564521151612213
0.11720458945637767 0.18707034787613652
0.10800797452478335 0.19778291605614373
0.12640120438797198 0.19778291605614373
0.1355978193195663 0.2084954842361509
0.11720458945637767 0.16564521151612213
0.12640120438797198 0.14422007515610774
0.11720458945637767 0.15493264333611495
0.08961474466159472 0.16564521151612213
0.10800797452478335 0.18707034787613652
0.08961474466159472 0.19778291605614373
0.10800797452478335 0.2084954842361509
0.11720458945637767 0.2299206205961653
0.14479443425116062 0.2084954842361509
0.1907775089091322 0.19778291605614373
0.1907775089091322 0.2299206205961653
0.18158089397753788 0.2834834614962013
0.21836735370391516 0.2941960296762085
0.23676058356710378 0.36918400693625886
0.23676058356710378 0.44417198419630927
0.2643504283618867 0.49773482509634526
0.28274365822507536 0.5298725296363668
0.3655131926094242 0.5512976659963812
0.3471199627462356 0.5727228023563956
0.38390642247261286 0.5727228023563956
0.4022996523358015 0.5727228023563956
0.42069288219899015 0.5620102341763884
0.4574793419253674 0.540585097816374
0.5310522613781219 0.5084473932763525
0.5954285658992822 0.41203427965628764
0.650608255488848 0.3263337342162301
0.7057879450784139 0.2299206205961653
0.7241811749416026 0.17635777969612934
0.7241811749416026 0.09065723425607176
0.678198100283631 0.07994466607606457
0.650608255488848 0.09065723425607176
0.6138217957624708 0.10136980243607896
0.623018410694065 0.11208237061608615
0.6322150256256595 0.09065723425607176
0.6414116405572537 0.10136980243607896
0.6598048704204423 0.06923209789605736
0.6322150256256595 -0.027181015724007405
0.5862319509676879 -0.08074385662404339
0.5126590315149333 -0.10216899298405778
0.43908611206217874 -0.08074385662404339
0.39310303740420716 -0.0700312884440362
0.31953011795145264 -0.016468447544000207
0.28274365822507536 0.05851952971605017
0.2551538134302924 0.10136980243607896
0.23676058356710378 0.14422007515610774
0.20917073877232084 0.10136980243607896
0.18158089397753788 0.09065723425607176
0.15399104918275494 0.06923209789605736
0.10800797452478335 0.047806961536042976
0.07122151479840609 0.06923209789605736
0.05282828493521745 0.037094393356035774
0.043631670003623134 0.026381825176028578
0.06202489986681177 0.037094393356035774
0.0804181297300004 0.037094393356035774
0.09881135959318904 0.037094393356035774
0.11720458945637767 0.026381825176028578
0.12640120438797198 0.047806961536042976
0.15399104918275494 0.015669256996021383
0.14479443425116062 0.015669256996021383
0.14479443425116062 0.026381825176028578
0.1355978193195663 0.026381825176028578
0.12640120438797198 0.037094393356035774
0.11720458945637767 0.10136980243607896
0.11720458945637767 0.15493264333611495
0.14479443425116062 0.31562116603622287
0.21836735370391516 0.43345941601630206
0.4022996523358015 0.540585097816374
0.650608255488848 0.5620102341763884
1.027669467684215 0.42274684783629485
1.4231239097427706 0.07994466607606457
1.8461681965961092 -0.34855806112422333
2.2324260237230704 -0.873473901944576
2.5910940060552488 -1.5590782654650366
2.91297552866105 -2.3196706062455474
3.225660436335257 -3.262376606086181
3.5107554992146803 -4.162232333206785
3.6854911829149724 -4.9228246739872965
3.7130810277097557 -5.3834651057276055
3.6670979530517838 -5.4477405148076485
3.5107554992146803 -5.254914287567519
3.2716435109932283 -4.890686969447275
2.8761890689346727 -4.483609378607001
2.425554937286551 -4.0122563786866845
1.9105445011172695 -3.5837536514863966
1.4323205246743649 -3.101688083386073
1.0368660826158094 -2.651760219825771
0.7701642495995742 -2.180407219905454
0.5954285658992822 -1.7840421972451876
0.5218556464465276 -1.473377720024979
0.4574793419253674 -1.194850947344792
0.42988949713058444 -0.9484618792046263
0.38390642247261286 -0.7342105156044824
0.28274365822507536 -0.5306717201843456
0.14479443425116062 -0.3592706293042305
0.016041825208840184 -0.16644440206410097
-0.07592432410710298 -0.0700312884440362
-0.1403006286282632 0.047806961536042976
-0.15869385849145184 0.09065723425607176
-0.14949724355985752 0.13350750697610056
-0.14949724355985752 0.14422007515610774
-0.13110401369666888 0.18707034787613652
-0.12190739876507457 0.18707034787613652
-0.11271078383348025 0.2406331887761725
-0.11271078383348025 0.2727708933161941
-0.1403006286282632 0.2834834614962013
-0.13110401369666888 0.3263337342162301
-0.17708708835464046 0.3263337342162301
-0.16789047342304614 0.36918400693625886
-0.16789047342304614 0.3584714387562517
-0.18628370328623478 0.31562116603622287
-0.20467693314942342 0.3477588705762445
-0.24146339287580068 0.36918400693625886
-0.22307016301261204 0.36918400693625886
-0.22307016301261204 0.43345941601630206
-0.22307016301261204 0.42274684783629485
-0.20467693314942342 0.46559712055632363
-0.18628370328623478 0.49773482509634526
-0.18628370328623478 0.5298725296363668
-0.17708708835464046 0.5620102341763884
-0.17708708835464046 0.540585097816374
-0.22307016301261204 0.540585097816374
-0.23226677794420636 0.5512976659963812
-0.2874464675337723 0.5620102341763884
-0.2874464675337723 0.59414793871641
-0.2874464675337723 0.6155730750764244
-0.2966430824653666 0.6584233477964532
-0.27824985260217794 0.6905610523364748
-0.2598566227389893 0.7119861886964892
-0.26905323767058364 0.7334113250565035
-0.26905323767058364 0.7869741659565396
-0.3058396973969609 0.808399302316554
-0.3150363123285552 0.808399302316554
-0.3058396973969609 0.7976867341365468
-0.34262615712333816 0.8298244386765683
-0.3610193869865268 0.8298244386765683
-0.38860923178130974 0.8940998477566116
-0.425395691507687 0.9369501204766403
-0.44378892137087567 0.9583752568366547
-0.45298553630246996 1.0012255295566834
-0.4621821512340643 1.0440758022767123
-0.45298553630246996 1.0655009386367267
-0.4713787661656586 1.086926074996741
-0.48977199602884725 1.1083512113567555
-0.5173618408236302 1.1190637795367626
-0.5449516856184131 1.1190637795367626
-0.5633449154816018 1.12977634771677
-0.600131375207979 1.1512014840767841
-0.6093279901395734 1.1833391886168059
-0.6369178349343563 1.2154768931568274
-0.6369178349343563 1.247614597696849
-0.6645076797291393 1.301177438596885
-0.627721220002762 1.301177438596885
-0.6185246050711677 1.3118900067768922
-0.6461144498659506 1.3333151431369066
-0.6461144498659506 1.3226025749568995
-0.6369178349343563 1.3761654158569354
-0.6369178349343563 1.3440277113169137
-0.6461144498659506 1.3333151431369066
-0.627721220002762 1.301177438596885
-0.6093279901395734 1.2904648704168777
-0.5817381453447904 1.2690397340568633
-0.5357550706868188 1.2369020295168418
-0.49896861096044154 1.2154768931568274
-0.4805753810972529 1.1833391886168059
-0.3978058467129041 1.140488915896777
-0.3518227720549325 1.1083512113567555
-0.2966430824653666 1.0226506659166978
-0.2598566227389893 0.9690878250166619
-0.21387354808101774 0.8940998477566116
-0.20467693314942342 0.7869741659565396
-0.18628370328623478 0.7441238932365107
-0.14949724355985752 0.647710779616446
-0.11271078383348025 0.59414793871641
-0.07592432410710298 0.5512976659963812
-0.039137864380725716 0.48702225691633805
-0.0023514046543484488 0.4548845523763165
0.03443505507202882 0.43345941601630206
0.05282828493521745 0.37989657511626607
0.0804181297300004 0.3584714387562517
0.09881135959318904 0.31562116603622287
0.09881135959318904 0.26205832513618693
0.08961474466159472 0.18707034787613652
0.08961474466159472 0.14422007515610774
0.06202489986681177 0.13350750697610056
0.0804181297300004 0.12279493879609335
0.0804181297300004 0.15493264333611495
0.08961474466159472 0.15493264333611495
0.10800797452478335 0.17635777969612934
0.12640120438797198 0.14422007515610774
0.1355978193195663 0.12279493879609335
0.11720458945637767 0.12279493879609335
0.11720458945637767 0.10136980243607896
0.12640120438797198 0.05851952971605017
0.11720458945637767 0.06923209789605736
0.10800797452478335 0.047806961536042976
0.11720458945637767 0.05851952971605017
0.11720458945637767 0.06923209789605736
0.12640120438797198 0.06923209789605736
0.10800797452478335 0.09065723425607176
0.1355978193195663 0.11208237061608615
0.1355978193195663 0.12279493879609335
0.1355978193195663 0.12279493879609335
0.1355978193195663 0.11208237061608615
0.1355978193195663 0.10136980243607896
0.10800797452478335 0.10136980243607896
0.11720458945637767 0.07994466607606457
0.10800797452478335 0.09065723425607176
0.09881135959318904 0.06923209789605736
0.0804181297300004 0.047806961536042976
0.0804181297300004 0.07994466607606457
0.09881135959318904 0.09065723425607176
0.1355978193195663 0.12279493879609335
0.15399104918275494 0.14422007515610774
0.14479443425116062 0.14422007515610774
0.1355978193195663 0.11208237061608615
0.09881135959318904 0.10136980243607896
0.10800797452478335 0.09065723425607176
0.11720458945637767 0.06923209789605736
0.12640120438797198 0.06923209789605736
0.12640120438797198 0.07994466607606457
0.15399104918275494 0.10136980243607896
0.15399104918275494 0.15493264333611495
0.1907775089091322 0.21920805241615812
0.22756396863550946 0.2727708933161941
0.28274365822507536 0.3370463023962373
0.31033350301985835 0.42274684783629485
0.32872673288304693 0.46559712055632363
0.3655131926094242 0.49773482509634526
0.38390642247261286 0.49773482509634526
0.4022996523358015 0.48702225691633805
0.42069288219899015 0.47630968873633084
0.4666759568569617 0.44417198419630927
0.5126590315149333 0.3906091432962733
0.5862319509676879 0.3263337342162301
0.6598048704204423 0.2834834614962013
0.7241811749416026 0.21920805241615812
0.7701642495995742 0.19778291605614373
0.7517710197363855 0.12279493879609335
0.7149845600100082 0.07994466607606457
0.6690014853520366 0.026381825176028578
0.6138217957624708 0.004956688816014186
0.5678387211044992 -0.016468447544000207
0.5770353360360935 -0.016468447544000207
0.6046251808308765 -0.048606152084021796
0.6138217957624708 -0.09145642480405058
0.6046251808308765 -0.11288156116406498
0.5678387211044992 -0.14501926570408658
0.503462416583339 -0.14501926570408658
0.475872571788556 -0.15573183388409376
0.3747098075410185 -0.12359412934407217
0.31953011795145264 -0.05931872026402899
0.27354704329348106 -0.0378935839040146
0.22756396863550946 -0.00575587936399301
0.16318766411434926 0.004956688816014186
0.1355978193195663 0.004956688816014186
0.08961474466159472 -0.00575587936399301
0.07122151479840609 -0.00575587936399301
0.06202489986681177 0.004956688816014186
0.03443505507202882 0.004956688816014186
0.05282828493521745 0.004956688816014186
0.03443505507202882 0.015669256996021383
0.07122151479840609 -0.016468447544000207
0.06202489986681177 -0.027181015724007405
0.043631670003623134 -0.027181015724007405
0.043631670003623134 -0.0378935839040146
0.05282828493521745 -0.048606152084021796
0.043631670003623134 -0.0700312884440362
0.05282828493521745 -0.08074385662404339
0.07122151479840609 -0.05931872026402899
0.06202489986681177 -0.048606152084021796
0.09881135959318904 0.004956688816014186
0.12640120438797198 0.047806961536042976
0.12640120438797198 0.10136980243607896
0.15399104918275494 0.19778291605614373
0.22756396863550946 0.31562116603622287
0.31953011795145264 0.43345941601630206
0.503462416583339 0.47630968873633084
0.7793608645311685 0.41203427965628764
1.1656186916581297 0.19778291605614373
1.5610731337166854 -0.17715697024410815
1.9933140355016183 -0.6699351065244392
2.4071617074233624 -1.2698389246048423
2.7842229196187294 -2.0304312653853533
3.1428909019509077 -2.9302869925059576
3.4279859648303317 -3.8944181287066053
3.6579013381201895 -4.762136151287188
3.7406708725045386 -5.351327401187584
3.694687797846567 -5.587003901147742
3.547541958941058 -5.5120159238876925
3.2716435109932283 -5.201351446667483
2.91297552866105 -4.783561287647203
2.425554937286551 -4.3336334240869006
1.9197411160488638 -3.7980050150865408
1.4231239097427706 -3.2945143106262025
1.055259312478998 -2.780311037985857
0.7793608645311685 -2.2768203335255186
0.6046251808308765 -1.848317606325231
0.5310522613781219 -1.5483656972850293
0.4482827269937731 -1.3019766291448638
0.38390642247261286 -1.1091504019047342
0.3379233478146413 -0.9270367428446119
0.2459571984986981 -0.766348220144504
0.11720458945637767 -0.5949471292643889
-0.020744634517537084 -0.4449711747442881
-0.14949724355985752 -0.24143237932415135
-0.23226677794420636 -0.08074385662404339
-0.2598566227389893 0.037094393356035774
-0.24146339287580068 0.09065723425607176
-0.20467693314942342 0.12279493879609335
-0.17708708835464046 0.11208237061608615
-0.18628370328623478 0.15493264333611495
-0.1954803182178291 0.17635777969612934
-0.22307016301261204 0.15493264333611495
-0.24146339287580068 0.17635777969612934
-0.27824985260217794 0.19778291605614373
-0.27824985260217794 0.17635777969612934
-0.27824985260217794 0.2513457569561797
-0.26905323767058364 0.2727708933161941
-0.2598566227389893 0.2941960296762085
-0.250660007807395 0.36918400693625886
-0.23226677794420636 0.37989657511626607
-0.24146339287580068 0.41203427965628764
-0.22307016301261204 0.43345941601630206
-0.22307016301261204 0.43345941601630206
-0.2598566227389893 0.42274684783629485
-0.27824985260217794 0.4013217114762805
-0.2874464675337723 0.4013217114762805
-0.27824985260217794 0.41203427965628764
-0.2874464675337723 0.46559712055632363
-0.3058396973969609 0.48702225691633805
-0.3150363123285552 0.5298725296363668
-0.3150363123285552 0.5512976659963812
-0.3058396973969609 0.5834353705364028
-0.2966430824653666 0.59414793871641
-0.2966430824653666 0.59414793871641
-0.3518227720549325 0.5727228023563956
-0.34262615712333816 0.6155730750764244
-0.3702160019181211 0.6262856432564315
-0.3978058467129041 0.6369982114364388
-0.4161990765760927 0.6798484841564676
-0.4161990765760927 0.6905610523364748
-0.4161990765760927 0.754836461416518
-0.38860923178130974 0.7762615977765324
-0.4070024616444984 0.808399302316554
-0.4161990765760927 0.8405370068565755
-0.4161990765760927 0.8940998477566116
-0.4713787661656586 0.9155249841166259
-0.48977199602884725 0.9369501204766403
-0.5265584557552245 0.9476626886566475
-0.5725415304131961 0.9690878250166619
-0.5725415304131961 0.9798003931966691
-0.5817381453447904 1.0119380977366907
-0.6185246050711677 1.0440758022767123
-0.6369178349343563 1.0655009386367267
-0.655311064797545 1.086926074996741
-0.6369178349343563 1.1190637795367626
-0.6461144498659506 1.12977634771677
-0.655311064797545 1.1833391886168059
-0.6829009095923279 1.1833391886168059
-0.6920975245239223 1.2047643249768203
-0.7104907543871108 1.1726266204367986
-0.7564738290450824 1.1726266204367986
-0.7840636738398654 1.2047643249768203
-0.802456903703054 1.194051756796813
-0.802456903703054 1.2154768931568274
-0.7656704439766767 1.2261894613368347
-0.7196873693187051 1.2369020295168418
-0.7012941394555166 1.2583271658768562
-0.655311064797545 1.2261894613368347
-0.627721220002762 1.2154768931568274
-0.6093279901395734 1.1726266204367986
-0.5541483005500074 1.12977634771677
-0.5357550706868188 1.0547883704567194
-0.5173618408236302 0.9905129613766763
-0.4621821512340643 0.9476626886566475
-0.425395691507687 0.8726747113965971
-0.3702160019181211 0.8298244386765683
-0.3058396973969609 0.7869741659565396
-0.250660007807395 0.7334113250565035
-0.16789047342304614 0.6798484841564676
-0.12190739876507457 0.6262856432564315
-0.06672770917550866 0.5512976659963812
-0.04833447931232003 0.46559712055632363
-0.0299412494491314 0.43345941601630206
-0.0299412494491314 0.37989657511626607
-0.011548019585942766 0.3263337342162301
0.006845210277245868 0.2727708933161941
0.043631670003623134 0.2406331887761725
0.06202489986681177 0.19778291605614373
0.0804181297300004 0.17635777969612934
0.10800797452478335 0.15493264333611495
0.11720458945637767 0.14422007515610774
0.14479443425116062 0.15493264333611495
0.15399104918275494 0.13350750697610056
0.14479443425116062 0.15493264333611495
0.16318766411434926 0.12279493879609335
0.1355978193195663 0.09065723425607176
0.1355978193195663 0.047806961536042976
0.12640120438797198 0.037094393356035774
0.12640120438797198 0.047806961536042976
0.1355978193195663 0.047806961536042976
0.14479443425116062 0.07994466607606457
0.18158089397753788 0.047806961536042976
0.2459571984986981 0.06923209789605736
0.27354704329348106 0.06923209789605736
0.31953011795145264 0.06923209789605736
0.3563165776778299 0.07994466607606457
0.42069288219899015 0.05851952971605017
0.4666759568569617 0.06923209789605736
0.5126590315149333 0.047806961536042976
0.6046251808308765 0.037094393356035774
0.6873947152152253 0.047806961536042976
0.8069507093259515 0.05851952971605017
0.9357033183682718 0.047806961536042976
1.0736525423421865 0.026381825176028578
1.2116017663161014 0.037094393356035774
1.3771408350847991 0.026381825176028578
1.5426799038534968 -0.00575587936399301
1.7082189726221944 -0.016468447544000207
1.8185783518013263 -0.09145642480405058
1.8001851219381377 -0.18786953842411536
1.5702697486482797 -0.3057077884041945
1.174815306589724 -0.40212090202425926
0.5218556464465276 -0.4449711747442881
-0.26905323767058364 -0.46639631110430246
-1.1059451964456664 -0.3914083338442521
-1.8324777760416175 -0.25214494750415856
-2.4118645167320594 -0.12359412934407217
-2.8441054185169925 0.015669256996021383
-3.129200481396416 0.09065723425607176
-3.3499192397546795 0.15493264333611495
-3.4970650786601887 0.2084954842361509
-3.616621072770915 0.3049085978562157
-3.6626041474288864 0.49773482509634526
-3.6718007623604807 0.7441238932365107
-3.644210917565698 1.1190637795367626
-3.589031227976132 1.4297282567569713
-3.4970650786601887 1.783243006697209
-3.331526009891491 2.126045188457439
-3.1475937112596046 2.3510091202375905
-2.9452681827645297 2.5331227792977127
-2.7061561945430777 2.6830987338178134
-2.47624082125322 2.779511847437878
-2.255522062894956 2.8437872565179214
-2.089982994126258 2.940200370137986
-2.0072134597419096 2.9616255064980006
-1.878460850699589 3.0151883473980363
-1.758904856588863 3.0151883473980363
-1.6117590176833538 2.9080626655979644
-1.4370233339830618 2.7366615747178495
-1.2163045756247983 2.393859392957619
-0.977192587403346 1.9010812566772881
-0.7380805991818938 1.2261894613368347
-0.5725415304131961 0.5191599614563597
-0.4713787661656586 -0.18786953842411536
-0.3702160019181211 -0.7342105156044824
-0.3242329272601495 -1.0555875610046983
-0.24146339287580068 -1.1841383791647846
-0.1403006286282632 -1.1412881064447558
0.07122151479840609 -0.980599583744648
0.31033350301985835 -0.8306236292245471
0.5402488763097162 -0.6806476747044464
0.7609676346679798 -0.5949471292643889
0.9540965482314605 -0.5092465838243313
1.055259312478998 -0.46639631110430246
1.0920457722053751 -0.4878214474643169
1.0736525423421865 -0.49853401564432404
1.0368660826158094 -0.49853401564432404
0.9908830079578378 -0.49853401564432404
0.9632931631630548 -0.5092465838243313
0.9632931631630548 -0.55209685654436
0.9724897780946491 -0.5199591520043384
1.0184728527526208 -0.5306717201843456
1.0460626975474037 -0.5628094247243672
1.1012423871369696 -0.5413842883643528
1.1288322319317525 -0.5413842883643528
1.174815306589724 -0.5735219929043744
1.2116017663161014 -0.5735219929043744
1.22999499617929 -0.5628094247243672
1.2575848409740729 -0.5735219929043744
1.2575848409740729 -0.5949471292643889
1.285174685768856 -0.6699351065244392
1.3127645305636388 -0.6699351065244392
1.3219611454952331 -0.6699351065244392
1.3587476052216105 -0.6699351065244392
1.3771408350847991 -0.659222538344432
1.3863374500163934 -0.6377974019844176
1.4231239097427706 -0.6485099701644248
1.459910369469148 -0.6699351065244392
1.5058934441271195 -0.6699351065244392
1.5058934441271195 -0.6699351065244392
1.5702697486482797 -0.7234979474244752
1.5978595934430626 -0.7234979474244752
1.6622358979642229 -0.7449230837844896
1.6714325128958172 -0.766348220144504
1.7266122024853832 -0.7770607883245112
1.7450054323485718 -0.7877733565045184
1.7725952771433546 -0.8091984928645327
1.809381736869732 -0.7770607883245112
1.8461681965961092 -0.8199110610445399
1.892151271254081 -0.7984859246845256
1.928937730980458 -0.8091984928645327
1.9657241907068352 -0.8306236292245471
1.9933140355016183 -0.8306236292245471
2.0301004952279955 -0.8520487655845616
2.0301004952279955 -0.8948990383045904
2.048493725091184 -0.8948990383045904
2.048493725091184 -0.9484618792046263
2.076083569885967 -0.9270367428446119
2.0852801848175613 -0.9163241746646047
2.0944767997491556 -0.9056116064845975
2.1496564893387218 -0.9377493110246191
2.1404598744071275 -0.9270367428446119
2.1404598744071275 -0.9484618792046263
2.0944767997491556 -0.9591744473846335
2.0668869549543727 -0.9913121519246552
2.0301004952279955 -0.9913121519246552
2.0209038802964012 -1.044874992824691
1.9473309608436467 -1.044874992824691
1.9105445011172695 -1.0127372882846695
1.8277749667329206 -1.0234498564646768
1.781791892074949 -0.980599583744648
1.7174155875537889 -0.9484618792046263
1.6622358979642229 -0.9270367428446119
1.6162528233062512 -0.9163241746646047
1.5610731337166854 -0.9163241746646047
1.5058934441271195 -0.8520487655845616
1.4323205246743649 -0.8520487655845616
1.349550990290016 -0.8199110610445399
1.2759780708372617 -0.7877733565045184
1.1932085364529128 -0.7449230837844896
1.1288322319317525 -0.7127853792444679
1.0736525423421865 -0.6270848338044104
0.9816863930262434 -0.5842345610843817
0.9540965482314605 -0.5199591520043384
0.9081134735734889 -0.4771088792843097
0.852933783983923 -0.3914083338442521
0.8253439391891401 -0.3699831974842377
0.7517710197363855 -0.3271329247642089
0.7149845600100082 -0.2628575156841657
0.6598048704204423 -0.22000724296413696
0.6322150256256595 -0.19858210660412254
0.5678387211044992 -0.17715697024410815
0.5218556464465276 -0.11288156116406498
0.475872571788556 -0.0700312884440362
0.43908611206217874 -0.05931872026402899
0.42069288219899015 0.015669256996021383
0.4114962672673958 0.05851952971605017
0.4114962672673958 0.05851952971605017
0.39310303740420716 0.07994466607606457
0.39310303740420716 0.07994466607606457
0.4022996523358015 0.09065723425607176
0.3563165776778299 0.05851952971605017
0.31953011795145264 0.05851952971605017
0.31033350301985835 0.047806961536042976
0.301136888088264 0.015669256996021383
0.301136888088264 0.05851952971605017
0.27354704329348106 0.05851952971605017
0.2643504283618867 0.10136980243607896
0.27354704329348106 0.09065723425607176
0.2643504283618867 0.10136980243607896
0.301136888088264 0.06923209789605736
0.28274365822507536 0.10136980243607896
0.27354704329348106 0.07994466607606457
0.27354704329348106 0.05851952971605017
0.2919402731566697 0.037094393356035774
0.28274365822507536 0.026381825176028578
0.28274365822507536 0.05851952971605017
0.27354704329348106 0.026381825176028578
0.2919402731566697 0.037094393356035774
0.2919402731566697 0.037094393356035774
0.301136888088264 0.07994466607606457
0.2919402731566697 0.06923209789605736
0.31033350301985835 0.037094393356035774
0.28274365822507536 0.026381825176028578
0.2919402731566697 0.037094393356035774
0.27354704329348106 0.004956688816014186
0.2551538134302924 0.004956688816014186
0.2551538134302924 -0.00575587936399301
0.22756396863550946 0.037094393356035774
0.23676058356710378 0.037094393356035774
0.2459571984986981 0.026381825176028578
0.2459571984986981 0.026381825176028578
0.2459571984986981 0.015669256996021383
0.21836735370391516 0.026381825176028578
0.2551538134302924 0.026381825176028578
0.2551538134302924 0.037094393356035774
0.2643504283618867 0.026381825176028578
0.22756396863550946 0.026381825176028578
0.21836735370391516 0.015669256996021383
0.19997412384072652 -0.016468447544000207
0.20917073877232084 0.004956688816014186
0.19997412384072652 -0.0378935839040146
0.20917073877232084 -0.016468447544000207
0.21836735370391516 0.004956688816014186
0.20917073877232084 0.026381825176028578
0.22756396863550946 0.037094393356035774
0.2459571984986981 0.015669256996021383
0.21836735370391516 0.026381825176028578
0.20917073877232084 -0.00575587936399301
0.20917073877232084 -0.016468447544000207
0.21836735370391516 -0.027181015724007405
0.1907775089091322 -0.0378935839040146
0.17238427904594356 -0.027181015724007405
0.18158089397753788 -0.0378935839040146
0.16318766411434926 -0.0378935839040146
0.18158089397753788 -0.016468447544000207
0.18158089397753788 -0.00575587936399301
0.19997412384072652 0.004956688816014186
0.1907775089091322 0.004956688816014186
0.1907775089091322 -0.016468447544000207
0.1907775089091322 -0.0378935839040146
0.15399104918275494 -0.05931872026402899
0.18158089397753788 -0.05931872026402899
0.15399104918275494 -0.048606152084021796
0.14479443425116062 -0.048606152084021796
0.16318766411434926 -0.048606152084021796
0.16318766411434926 -0.016468447544000207
0.1907775089091322 -0.016468447544000207
0.1907775089091322 -0.0378935839040146
0.19997412384072652 -0.027181015724007405
0.20917073877232084 -0.05931872026402899
0.19997412384072652 -0.048606152084021796
0.19997412384072652 -0.0700312884440362
0.20917073877232084 -0.08074385662404339
0.1907775089091322 -0.05931872026402899
0.18158089397753788 -0.0700312884440362
0.14479443425116062 -0.048606152084021796
0.15399104918275494 -0.0378935839040146
0.1355978193195663 -0.027181015724007405
0.15399104918275494 -0.00575587936399301
0.16318766411434926 0.004956688816014186
0.19997412384072652 0.004956688816014186
0.20917073877232084 -0.016468447544000207
0.20917073877232084 -0.016468447544000207
0.1907775089091322 -0.0378935839040146
0.18158089397753788 -0.05931872026402899
0.17238427904594356 -0.05931872026402899
0.11720458945637767 -0.0700312884440362
0.10800797452478335 -0.05931872026402899
0.11720458945637767 -0.048606152084021796
0.1355978193195663 -0.048606152084021796
0.18158089397753788 -0.027181015724007405
0.20917073877232084 0.004956688816014186
0.2643504283618867 -0.016468447544000207
0.2551538134302924 -0.016468447544000207
0.2919402731566697 0.015669256996021383
0.32872673288304693 0.015669256996021383
0.32872673288304693 0.026381825176028578
0.3471199627462356 0.06923209789605736
0.3563165776778299 0.13350750697610056
0.3563165776778299 0.15493264333611495
0.4022996523358015 0.2299206205961653
0.42069288219899015 0.2941960296762085
0.4482827269937731 0.36918400693625886
0.475872571788556 0.37989657511626607
0.503462416583339 0.4013217114762805
0.5126590315149333 0.3584714387562517
0.5310522613781219 0.3370463023962373
0.5862319509676879 0.2941960296762085
0.6414116405572537 0.2406331887761725
0.6965913301468196 0.17635777969612934
0.7425744048047912 0.10136980243607896
0.7701642495995742 0.047806961536042976
0.7701642495995742 0.037094393356035774
0.7517710197363855 -0.00575587936399301
0.6965913301468196 -0.0378935839040146
0.6690014853520366 -0.027181015724007405
0.678198100283631 -0.0378935839040146
0.6965913301468196 -0.027181015724007405
0.6873947152152253 -0.0378935839040146
0.7609676346679798 -0.08074385662404339
0.7609676346679798 -0.14501926570408658
0.7425744048047912 -0.22000724296413696
0.6690014853520366 -0.23071981114414414
0.5954285658992822 -0.2628575156841657
0.5402488763097162 -0.25214494750415856
0.4666759568569617 -0.22000724296413696
0.4114962672673958 -0.16644440206410097
0.3655131926094242 -0.13430669752407937
0.3563165776778299 -0.08074385662404339
0.31953011795145264 -0.09145642480405058
0.28274365822507536 -0.05931872026402899
0.2459571984986981 -0.09145642480405058
0.19997412384072652 -0.10216899298405778
0.16318766411434926 -0.12359412934407217
0.1355978193195663 -0.11288156116406498
0.10800797452478335 -0.10216899298405778
0.10800797452478335 -0.11288156116406498
0.12640120438797198 -0.09145642480405058
0.15399104918275494 -0.11288156116406498
0.15399104918275494 -0.09145642480405058
0.1907775089091322 -0.11288156116406498
0.19997412384072652 -0.10216899298405778
0.17238427904594356 -0.12359412934407217
0.16318766411434926 -0.12359412934407217
0.14479443425116062 -0.12359412934407217
0.15399104918275494 -0.14501926570408658
0.1355978193195663 -0.14501926570408658
0.12640120438797198 -0.09145642480405058
0.15399104918275494 -0.027181015724007405
0.18158089397753788 0.06923209789605736
0.23676058356710378 0.2084954842361509
0.3747098075410185 0.3370463023962373
0.5862319509676879 0.37989657511626607
0.8713270138471116 0.3477588705762445
1.202405151384507 0.17635777969612934
1.6254494382378457 -0.14501926570408658
2.03929711015959 -0.5199591520043384
2.4163583223549567 -1.0020247201046624
2.747436459892352 -1.6126411063650725
3.0785145974297476 -2.3625208789655763
3.400396120035549 -3.2516640379061736
3.6303114933254066 -4.0765317877667275
3.7958505620941043 -4.697860742207145
3.78665394716251 -5.115650901227426
3.676294567983378 -5.190638878487476
3.4279859648303317 -5.029950355787368
3.0969078272929362 -4.740711014927174
2.646273695644815 -4.365771128626922
2.0944767997491556 -3.937268401426634
1.5610731337166854 -3.5194782424063535
1.1472254617949411 -3.058837810666044
0.8069507093259515 -2.5981973789257347
0.623018410694065 -2.1482695153654325
0.503462416583339 -1.794754765425195
0.43908611206217874 -1.473377720024979
0.4022996523358015 -1.2269886518848134
0.3379233478146413 -1.0020247201046624
0.28274365822507536 -0.7984859246845256
0.19997412384072652 -0.659222538344432
0.08961474466159472 -0.5092465838243313
-0.011548019585942766 -0.3699831974842377
-0.09431755397029161 -0.24143237932415135
-0.14949724355985752 -0.16644440206410097
-0.14949724355985752 -0.08074385662404339
-0.16789047342304614 -0.0378935839040146
-0.16789047342304614 -0.016468447544000207
-0.1403006286282632 0.004956688816014186
-0.14949724355985752 0.015669256996021383
-0.12190739876507457 0.05851952971605017
-0.12190739876507457 0.06923209789605736
-0.13110401369666888 0.09065723425607176
-0.13110401369666888 0.10136980243607896
-0.1403006286282632 0.10136980243607896
-0.16789047342304614 0.12279493879609335
-0.16789047342304614 0.13350750697610056
-0.18628370328623478 0.15493264333611495
-0.21387354808101774 0.15493264333611495
-0.23226677794420636 0.18707034787613652
-0.250660007807395 0.21920805241615812
-0.23226677794420636 0.2513457569561797
-0.21387354808101774 0.2834834614962013
-0.21387354808101774 0.3049085978562157
-0.21387354808101774 0.31562116603622287
-0.23226677794420636 0.2834834614962013
-0.22307016301261204 0.2941960296762085
-0.1954803182178291 0.2941960296762085
-0.20467693314942342 0.3049085978562157
-0.22307016301261204 0.31562116603622287
-0.23226677794420636 0.31562116603622287
-0.250660007807395 0.37989657511626607
-0.250660007807395 0.37989657511626607
-0.26905323767058364 0.37989657511626607
-0.2874464675337723 0.4013217114762805
-0.2874464675337723 0.44417198419630927
-0.2598566227389893 0.4548845523763165
-0.2874464675337723 0.44417198419630927
-0.3058396973969609 0.4548845523763165
-0.3242329272601495 0.47630968873633084
-0.34262615712333816 0.43345941601630206
-0.37941261684971544 0.4548845523763165
-0.38860923178130974 0.47630968873633084
-0.38860923178130974 0.5084473932763525
-0.38860923178130974 0.5512976659963812
-0.3702160019181211 0.5620102341763884
-0.3978058467129041 0.6155730750764244
-0.38860923178130974 0.6048605068964172
-0.425395691507687 0.6048605068964172
-0.45298553630246996 0.647710779616446
-0.49896861096044154 0.6155730750764244
-0.5173618408236302 0.6262856432564315
-0.5633449154816018 0.6262856432564315
-0.600131375207979 0.6584233477964532
-0.6093279901395734 0.6905610523364748
-0.627721220002762 0.7334113250565035
-0.655311064797545 0.754836461416518
-0.6829009095923279 0.7869741659565396
-0.7104907543871108 0.8298244386765683
-0.7288839842502994 0.8298244386765683
-0.7656704439766767 0.8191118704965611
-0.7656704439766767 0.8298244386765683
-0.802456903703054 0.8405370068565755
-0.8116535186346483 0.8298244386765683
-0.8484399783610256 0.808399302316554
-0.8668332082242142 0.808399302316554
-0.8944230530189972 0.8298244386765683
-0.8852264380874029 0.8726747113965971
-0.8852264380874029 0.8833872795766043
-0.8668332082242142 0.8940998477566116
-0.8484399783610256 0.9155249841166259
-0.830046748497837 0.9155249841166259
-0.830046748497837 0.8940998477566116
-0.8576365932926199 0.8726747113965971
-0.8576365932926199 0.8619621432165899
-0.8484399783610256 0.8512495750365827
-0.830046748497837 0.8512495750365827
-0.7840636738398654 0.8405370068565755
-0.7472772141134881 0.808399302316554
-0.655311064797545 0.808399302316554
-0.5817381453447904 0.7976867341365468
-0.5357550706868188 0.7762615977765324
-0.4805753810972529 0.7226987568764963
-0.4345923064392813 0.6691359159764604
-0.3978058467129041 0.6369982114364388
-0.3518227720549325 0.6048605068964172
-0.33342954219174387 0.5512976659963812
-0.2874464675337723 0.47630968873633084
-0.250660007807395 0.4013217114762805
-0.1954803182178291 0.3477588705762445
-0.15869385849145184 0.31562116603622287
-0.07592432410710298 0.3049085978562157
-0.020744634517537084 0.26205832513618693
0.006845210277245868 0.2941960296762085
0.06202489986681177 0.2513457569561797
0.08961474466159472 0.2084954842361509
0.1355978193195663 0.19778291605614373
0.1355978193195663 0.15493264333611495
0.14479443425116062 0.09065723425607176
0.15399104918275494 0.06923209789605736
0.17238427904594356 0.026381825176028578
0.16318766411434926 0.004956688816014186
0.1907775089091322 -0.027181015724007405
0.20917073877232084 -0.016468447544000207
0.1907775089091322 0.015669256996021383
0.19997412384072652 0.037094393356035774
0.20917073877232084 0.037094393356035774
0.1907775089091322 0.015669256996021383
0.1907775089091322 0.004956688816014186
0.20917073877232084 -0.016468447544000207
0.20917073877232084 -0.027181015724007405
0.20917073877232084 -0.048606152084021796
0.18158089397753788 -0.05931872026402899
0.19997412384072652 -0.048606152084021796
0.1907775089091322 -0.0378935839040146
0.19997412384072652 -0.027181015724007405
0.21836735370391516 0.015669256996021383
0.23676058356710378 0.026381825176028578
0.2643504283618867 0.05851952971605017
0.27354704329348106 0.05851952971605017
0.28274365822507536 0.037094393356035774
0.2551538134302924 0.047806961536042976
0.2459571984986981 0.047806961536042976
0.23676058356710378 0.047806961536042976
0.21836735370391516 0.026381825176028578
0.22756396863550946 0.037094393356035774
0.20917073877232084 0.026381825176028578
0.1907775089091322 0.026381825176028578
0.20917073877232084 0.037094393356035774
0.22756396863550946 0.06923209789605736
0.2459571984986981 0.09065723425607176
0.2459571984986981 0.10136980243607896
0.23676058356710378 0.11208237061608615
0.2459571984986981 0.11208237061608615
0.21836735370391516 0.07994466607606457
0.22756396863550946 0.06923209789605736
0.21836735370391516 0.07994466607606457
0.22756396863550946 0.07994466607606457
0.2459571984986981 0.10136980243607896
0.2643504283618867 0.14422007515610774
0.31033350301985835 0.15493264333611495
0.3471199627462356 0.2406331887761725
0.4114962672673958 0.2834834614962013
0.42069288219899015 0.31562116603622287
0.4574793419253674 0.36918400693625886
0.4666759568569617 0.36918400693625886
0.475872571788556 0.3906091432962733
0.475872571788556 0.36918400693625886
0.503462416583339 0.3370463023962373
0.475872571788556 0.3584714387562517
0.503462416583339 0.3477588705762445
0.5586421061729049 0.3263337342162301
0.623018410694065 0.3049085978562157
0.6965913301468196 0.3049085978562157
0.7885574794627628 0.2299206205961653
0.852933783983923 0.15493264333611495
0.8437371690523287 0.09065723425607176
0.8345405541207344 0.026381825176028578
0.8069507093259515 -0.027181015724007405
0.7425744048047912 -0.0700312884440362
0.7149845600100082 -0.08074385662404339
0.7241811749416026 -0.05931872026402899
0.7425744048047912 -0.048606152084021796
0.7609676346679798 -0.0700312884440362
0.7885574794627628 -0.09145642480405058
0.7701642495995742 -0.14501926570408658
0.7609676346679798 -0.15573183388409376
0.678198100283631 -0.18786953842411536
0.6046251808308765 -0.22000724296413696
0.5310522613781219 -0.20929467478412975
0.475872571788556 -0.17715697024410815
0.4022996523358015 -0.17715697024410815
0.3655131926094242 -0.12359412934407217
0.31953011795145264 -0.11288156116406498
0.301136888088264 -0.11288156116406498
0.2643504283618867 -0.08074385662404339
0.2643504283618867 -0.048606152084021796
0.20917073877232084 -0.0378935839040146
0.1907775089091322 -0.05931872026402899
0.17238427904594356 -0.0700312884440362
0.18158089397753788 -0.0700312884440362
0.20917073877232084 -0.10216899298405778
0.19997412384072652 -0.13430669752407937
0.18158089397753788 -0.13430669752407937
0.18158089397753788 -0.14501926570408658
0.18158089397753788 -0.14501926570408658
0.18158089397753788 -0.13430669752407937
0.1907775089091322 -0.13430669752407937
0.20917073877232084 -0.13430669752407937
0.22756396863550946 -0.10216899298405778
0.22756396863550946 -0.048606152084021796
0.2551538134302924 0.026381825176028578
0.27354704329348106 0.13350750697610056
0.31953011795145264 0.2406331887761725
0.43908611206217874 0.3370463023962373
0.6414116405572537 0.3477588705762445
1.000079622889432 0.2406331887761725
1.4507137545375537 -0.00575587936399301
1.9013478861856752 -0.3699831974842377
2.333588787970608 -0.8413361974045543
2.738239844960758 -1.4412400154849574
3.1061044422245305 -2.191119788085461
3.4187893498987374 -3.0695503788460514
3.6670979530517838 -4.0122563786866845
3.8050471770256986 -4.772848719467196
3.8326370218204815 -5.233489151207505
3.694687797846567 -5.362039969367592
3.473969039488303 -5.179926310307469
3.124497672087719 -4.815698992187224
2.6646669255080035 -4.355058560446915
2.122066644543939 -3.8515678559865765
1.6162528233062512 -3.348077151526238
1.174815306589724 -2.8231613107058857
0.8621303989155173 -2.3303831744255548
0.6322150256256595 -1.8697427426852453
0.5126590315149333 -1.5697908336450437
0.4574793419253674 -1.2698389246048423
0.38390642247261286 -1.0555875610046983
0.32872673288304693 -0.8627613337645688
0.23676058356710378 -0.7127853792444679
0.10800797452478335 -0.5199591520043384
0.016041825208840184 -0.3699831974842377
-0.07592432410710298 -0.19858210660412254
-0.09431755397029161 -0.09145642480405058
-0.09431755397029161 -0.016468447544000207
-0.06672770917550866 0.004956688816014186
-0.04833447931232003 0.026381825176028578
-0.05753109424391435 0.06923209789605736
-0.07592432410710298 0.07994466607606457
-0.07592432410710298 0.06923209789605736
-0.09431755397029161 0.07994466607606457
-0.12190739876507457 0.10136980243607896
-0.1403006286282632 0.09065723425607176
-0.14949724355985752 0.09065723425607176
-0.15869385849145184 0.13350750697610056
-0.15869385849145184 0.17635777969612934
-0.13110401369666888 0.2084954842361509
-0.11271078383348025 0.2513457569561797
-0.11271078383348025 0.2513457569561797
-0.10351416890188593 0.2727708933161941
-0.15869385849145184 0.2834834614962013
-0.18628370328623478 0.2834834614962013
-0.21387354808101774 0.2834834614962013
-0.1954803182178291 0.2406331887761725
-0.21387354808101774 0.2941960296762085
-0.21387354808101774 0.3049085978562157
-0.20467693314942342 0.3370463023962373
-0.20467693314942342 0.36918400693625886
-0.18628370328623478 0.42274684783629485
-0.1954803182178291 0.4548845523763165
-0.16789047342304614 0.4548845523763165
-0.18628370328623478 0.47630968873633084
-0.20467693314942342 0.48702225691633805
-0.23226677794420636 0.48702225691633805
-0.24146339287580068 0.48702225691633805
-0.250660007807395 0.49773482509634526
-0.2598566227389893 0.5191599614563597
-0.2966430824653666 0.5298725296363668
-0.3058396973969609 0.5727228023563956
-0.3242329272601495 0.6155730750764244
-0.3242329272601495 0.6584233477964532
-0.3150363123285552 0.7119861886964892
-0.34262615712333816 0.754836461416518
-0.34262615712333816 0.7762615977765324
-0.3518227720549325 0.7976867341365468
-0.38860923178130974 0.8191118704965611
-0.425395691507687 0.808399302316554
-0.4621821512340643 0.808399302316554
-0.5173618408236302 0.8405370068565755
-0.5357550706868188 0.8512495750365827
-0.5449516856184131 0.8940998477566116
-0.5541483005500074 0.9262375522966331
-0.5449516856184131 0.9476626886566475
-0.5449516856184131 0.9583752568366547
-0.5449516856184131 0.9798003931966691
-0.5449516856184131 0.9905129613766763
-0.5725415304131961 1.0333632340967052
-0.5817381453447904 1.0012255295566834
-0.600131375207979 1.0226506659166978
-0.600131375207979 1.0333632340967052
-0.6185246050711677 1.0226506659166978
-0.5909347602763847 1.0119380977366907
-0.5725415304131961 1.0119380977366907
-0.5541483005500074 1.0226506659166978
-0.5173618408236302 1.0119380977366907
-0.45298553630246996 1.0012255295566834
-0.4161990765760927 0.9690878250166619
-0.3702160019181211 0.9583752568366547
-0.34262615712333816 0.9048124159366188
-0.2966430824653666 0.8512495750365827
-0.26905323767058364 0.7762615977765324
-0.24146339287580068 0.7226987568764963
-0.20467693314942342 0.6369982114364388
-0.14949724355985752 0.5727228023563956
-0.12190739876507457 0.5512976659963812
-0.07592432410710298 0.48702225691633805
-0.039137864380725716 0.4548845523763165
0.0252384401404345 0.41203427965628764
0.05282828493521745 0.3477588705762445
0.08961474466159472 0.31562116603622287
0.10800797452478335 0.2406331887761725
0.12640120438797198 0.19778291605614373
0.12640120438797198 0.14422007515610774
0.14479443425116062 0.10136980243607896
0.12640120438797198 0.06923209789605736
0.15399104918275494 0.037094393356035774
0.14479443425116062 0.037094393356035774
0.16318766411434926 0.026381825176028578
0.18158089397753788 0.037094393356035774
0.1907775089091322 0.004956688816014186
0.19997412384072652 0.015669256996021383
0.2459571984986981 -0.00575587936399301
0.2459571984986981 0.026381825176028578
0.22756396863550946 -0.00575587936399301
0.21836735370391516 -0.0378935839040146
0.20917073877232084 -0.048606152084021796
0.19997412384072652 -0.05931872026402899
0.19997412384072652 -0.09145642480405058
0.20917073877232084 -0.08074385662404339
0.23676058356710378 -0.08074385662404339
0.23676058356710378 -0.048606152084021796
0.2459571984986981 -0.0378935839040146
0.21836735370391516 -0.048606152084021796
0.23676058356710378 -0.0378935839040146
0.23676058356710378 -0.016468447544000207
0.22756396863550946 -0.016468447544000207
0.22756396863550946 -0.08074385662404339
0.23676058356710378 -0.09145642480405058
0.23676058356710378 -0.12359412934407217
0.21836735370391516 -0.12359412934407217
0.21836735370391516 -0.10216899298405778
0.1907775089091322 -0.0700312884440362
0.20917073877232084 -0.048606152084021796
0.19997412384072652 -0.016468447544000207
0.20917073877232084 -0.00575587936399301
0.22756396863550946 -0.016468447544000207
0.22756396863550946 -0.027181015724007405
0.22756396863550946 -0.048606152084021796
0.21836735370391516 -0.08074385662404339
0.21836735370391516 -0.09145642480405058
0.19997412384072652 -0.09145642480405058
0.20917073877232084 -0.09145642480405058
0.20917073877232084 -0.05931872026402899
0.21836735370391516 -0.0378935839040146
0.23676058356710378 -0.0378935839040146
0.23676058356710378 -0.016468447544000207
0.2459571984986981 -0.027181015724007405
0.27354704329348106 -0.016468447544000207
0.2643504283618867 -0.016468447544000207
0.2919402731566697 -0.00575587936399301
0.31953011795145264 0.004956688816014186
0.3471199627462356 0.037094393356035774
0.3471199627462356 0.12279493879609335
0.4022996523358015 0.18707034787613652
0.42988949713058444 0.2406331887761725
0.4574793419253674 0.2727708933161941
0.49426580165174466 0.2941960296762085
0.5126590315149333 0.3049085978562157
0.5310522613781219 0.2941960296762085
0.5494454912413106 0.2834834614962013
0.6046251808308765 0.2513457569561797
0.6414116405572537 0.19778291605614373
0.7057879450784139 0.13350750697610056
0.7701642495995742 0.06923209789605736
0.7977540943943571 0.026381825176028578
0.7977540943943571 -0.0700312884440362
0.8069507093259515 -0.08074385662404339
0.7885574794627628 -0.11288156116406498
0.7425744048047912 -0.13430669752407937
0.7425744048047912 -0.11288156116406498
0.7609676346679798 -0.11288156116406498
0.7425744048047912 -0.10216899298405778
0.7793608645311685 -0.14501926570408658
0.7885574794627628 -0.17715697024410815
0.7701642495995742 -0.23071981114414414
0.7425744048047912 -0.29499522022418734
0.6965913301468196 -0.3057077884041945
0.6414116405572537 -0.34855806112422333
0.5770353360360935 -0.34855806112422333
0.5218556464465276 -0.3057077884041945
0.475872571788556 -0.2735700838641729
0.42069288219899015 -0.23071981114414414
0.39310303740420716 -0.15573183388409376
0.39310303740420716 -0.12359412934407217
0.3563165776778299 -0.14501926570408658
0.32872673288304693 -0.15573183388409376
0.28274365822507536 -0.19858210660412254
0.21836735370391516 -0.20929467478412975
0.14479443425116062 -0.20929467478412975
0.11720458945637767 -0.22000724296413696
0.07122151479840609 -0.16644440206410097
0.09881135959318904 -0.14501926570408658
0.10800797452478335 -0.14501926570408658
0.12640120438797198 -0.15573183388409376
0.1907775089091322 -0.17715697024410815
0.20917073877232084 -0.19858210660412254
0.20917073877232084 -0.19858210660412254
0.22756396863550946 -0.19858210660412254
0.20917073877232084 -0.23071981114414414
0.20917073877232084 -0.23071981114414414
0.18158089397753788 -0.24143237932415135
0.16318766411434926 -0.19858210660412254
0.17238427904594356 -0.13430669752407937
0.18158089397753788 -0.048606152084021796
0.23676058356710378 0.06923209789605736
0.301136888088264 0.2084954842361509
0.4666759568569617 0.2727708933161941
0.7241811749416026 0.3049085978562157
1.055259312478998 0.2084954842361509
1.4691069844007423 -0.05931872026402899
1.8829546563224864 -0.4449711747442881
2.278409098381042 -0.9377493110246191
2.6094872359184373 -1.591215970005058
2.9865484481138047 -2.405371151685605
3.3084299707196054 -3.3587897197062455
3.5567385738726522 -4.2693580150068575
3.7406708725045386 -5.019237787607361
3.78665394716251 -5.415602810267627
3.7038844127781614 -5.501303355707685
3.4831656544198975 -5.287051992107541
3.1796773616772853 -4.9228246739872965
2.7658296897555408 -4.462184242246987
2.2416226386546647 -3.980118674146663
1.7358088174169775 -3.4980531060463393
1.2575848409740729 -3.0267001061260226
0.9448999332998662 -2.5339219698456916
0.7149845600100082 -2.137556947185425
0.5770353360360935 -1.7733296290651805
0.503462416583339 -1.5055154245650006
0.475872571788556 -1.2912640609648567
0.4022996523358015 -1.0770126973647127
0.3471199627462356 -0.8841864701245832
0.2459571984986981 -0.7127853792444679
0.12640120438797198 -0.5842345610843817
-0.011548019585942766 -0.4235460383842737
-0.07592432410710298 -0.3057077884041945
-0.1403006286282632 -0.20929467478412975
-0.13110401369666888 -0.14501926570408658
-0.14949724355985752 -0.08074385662404339
-0.13110401369666888 -0.0378935839040146
-0.11271078383348025 0.037094393356035774
-0.09431755397029161 0.05851952971605017
-0.11271078383348025 0.07994466607606457
-0.11271078383348025 0.06923209789605736
-0.15869385849145184 0.09065723425607176
-0.1403006286282632 0.06923209789605736
-0.15869385849145184 0.09065723425607176
-0.16789047342304614 0.12279493879609335
-0.16789047342304614 0.15493264333611495
-0.18628370328623478 0.16564521151612213
-0.18628370328623478 0.17635777969612934
-0.21387354808101774 0.2299206205961653
-0.18628370328623478 0.2406331887761725
-0.18628370328623478 0.26205832513618693
-0.16789047342304614 0.2941960296762085
-0.15869385849145184 0.2941960296762085
-0.17708708835464046 0.3477588705762445
-0.17708708835464046 0.31562116603622287
-0.17708708835464046 0.3370463023962373
-0.18628370328623478 0.3584714387562517
-0.1954803182178291 0.3477588705762445
-0.1954803182178291 0.3906091432962733
-0.20467693314942342 0.4013217114762805
-0.21387354808101774 0.44417198419630927
-0.22307016301261204 0.44417198419630927
-0.21387354808101774 0.49773482509634526
-0.20467693314942342 0.5298725296363668
-0.21387354808101774 0.5512976659963812
-0.24146339287580068 0.5620102341763884
-0.2874464675337723 0.5727228023563956
-0.2874464675337723 0.5834353705364028
-0.3058396973969609 0.5834353705364028
-0.3242329272601495 0.59414793871641
-0.3518227720549325 0.6155730750764244
-0.3702160019181211 0.6691359159764604
-0.3610193869865268 0.7226987568764963
-0.3978058467129041 0.7976867341365468
-0.4070024616444984 0.8512495750365827
-0.3978058467129041 0.8940998477566116
-0.4345923064392813 0.9048124159366188
-0.4805753810972529 0.9155249841166259
-0.49896861096044154 0.9048124159366188
-0.5265584557552245 0.9262375522966331
-0.5541483005500074 0.9155249841166259
-0.5909347602763847 0.9583752568366547
-0.6093279901395734 0.9476626886566475
-0.6093279901395734 0.9905129613766763
-0.6369178349343563 1.0333632340967052
-0.6369178349343563 1.0655009386367267
-0.6461144498659506 1.0762135068167338
-0.6461144498659506 1.1083512113567555
-0.655311064797545 1.12977634771677
-0.6461144498659506 1.12977634771677
-0.655311064797545 1.1190637795367626
-0.7012941394555166 1.1190637795367626
-0.6829009095923279 1.0762135068167338
-0.655311064797545 1.086926074996741
-0.655311064797545 1.0762135068167338
-0.6093279901395734 1.0762135068167338
-0.5633449154816018 1.0440758022767123
-0.5081652258920358 1.0333632340967052
-0.4621821512340643 0.9798003931966691
-0.4161990765760927 0.9369501204766403
-0.3702160019181211 0.9155249841166259
-0.33342954219174387 0.8619621432165899
-0.3150363123285552 0.808399302316554
-0.26905323767058364 0.7226987568764963
-0.20467693314942342 0.6798484841564676
-0.16789047342304614 0.5727228023563956
-0.1403006286282632 0.5084473932763525
-0.10351416890188593 0.44417198419630927
-0.07592432410710298 0.41203427965628764
-0.011548019585942766 0.3906091432962733
0.043631670003623134 0.3370463023962373
0.06202489986681177 0.3263337342162301
0.12640120438797198 0.26205832513618693
0.1355978193195663 0.2299206205961653
0.15399104918275494 0.18707034787613652
0.14479443425116062 0.12279493879609335
0.15399104918275494 0.09065723425607176
0.12640120438797198 0.026381825176028578
0.14479443425116062 0.037094393356035774
0.14479443425116062 0.015669256996021383
0.16318766411434926 0.004956688816014186
0.18158089397753788 0.026381825176028578
0.21836735370391516 0.05851952971605017
0.22756396863550946 0.06923209789605736
0.2459571984986981 0.05851952971605017
0.2459571984986981 0.026381825176028578
0.2551538134302924 -0.00575587936399301
0.2643504283618867 -0.0378935839040146
0.28274365822507536 -0.0378935839040146
0.2919402731566697 -0.048606152084021796
0.301136888088264 -0.048606152084021796
0.3471199627462356 -0.0378935839040146
0.42069288219899015 0.004956688816014186
0.503462416583339 0.004956688816014186
0.5770353360360935 0.004956688816014186
0.678198100283631 0.015669256996021383
0.7977540943943571 0.004956688816014186
0.9081134735734889 -0.016468447544000207
1.0368660826158094 -0.0378935839040146
1.1380288468633468 -0.0700312884440362
1.2667814559056672 -0.10216899298405778
1.404730679879582 -0.10216899298405778
1.579466363579874 -0.12359412934407217
1.7266122024853832 -0.16644440206410097
1.7358088174169775 -0.23071981114414414
1.5978595934430626 -0.3057077884041945
1.2207983812476957 -0.3592706293042305
0.6046251808308765 -0.4128334702042665
-0.1954803182178291 -0.46639631110430246
-1.032372276992912 -0.40212090202425926
-1.8048879312468344 -0.34855806112422333
-2.4394543615268423 -0.28428265204418013
-2.8992851081065583 -0.18786953842411536
-3.1843801709859823 -0.13430669752407937
-3.3959023144126514 -0.12359412934407217
-3.5154583085233773 -0.048606152084021796
-3.644210917565698 0.047806961536042976
-3.6901939922236693 0.21920805241615812
-3.6718007623604807 0.47630968873633084
-3.616621072770915 0.808399302316554
-3.5706379981129435 1.1512014840767841
-3.4878684637285944 1.5475665067370505
-3.4050989293442457 1.847518415777252
-3.2579530904387366 2.1367577566374463
-3.0556275619436617 2.3188714156975685
-2.853302033448587 2.4795599383976765
-2.6141900452271343 2.5866856201977484
-2.4118645167320594 2.6830987338178134
-2.2187356031685788 2.768799279257871
-2.0348033045366924 2.833074688337914
-1.8692642357679947 2.875924961057943
-1.7497082416572687 2.897350097417957
-1.6025624027517595 2.8116495519779
-1.4738097937094392 2.608110756557763
-1.271484265214364 2.2331708702575113
-1.032372276992912 1.6654047567171297
-0.8392433634294313 0.9369501204766403
-0.6645076797291393 0.13350750697610056
-0.5541483005500074 -0.5306717201843456
-0.45298553630246996 -1.0341624246446839
-0.3518227720549325 -1.259126356424835
-0.22307016301261204 -1.2377012200648205
-0.039137864380725716 -1.1091504019047342
0.1907775089091322 -0.9270367428446119
0.43908611206217874 -0.7770607883245112
0.678198100283631 -0.6699351065244392
0.8805236287787059 -0.5628094247243672
1.000079622889432 -0.5413842883643528
1.0368660826158094 -0.5306717201843456
1.0460626975474037 -0.5413842883643528
0.9908830079578378 -0.5199591520043384
0.9632931631630548 -0.55209685654436
0.9448999332998662 -0.5413842883643528
0.9540965482314605 -0.5306717201843456
0.9632931631630548 -0.5199591520043384
1.0368660826158094 -0.49853401564432404
1.0460626975474037 -0.5306717201843456
1.0736525423421865 -0.55209685654436
1.1012423871369696 -0.55209685654436
1.1288322319317525 -0.6056596974443961
1.1472254617949411 -0.6270848338044104
1.1564220767265354 -0.6485099701644248
1.1656186916581297 -0.6163722656244032
1.2116017663161014 -0.6270848338044104
1.2207983812476957 -0.6377974019844176
1.2575848409740729 -0.6270848338044104
1.2943713007004503 -0.6270848338044104
1.3311577604268274 -0.6485099701644248
1.3771408350847991 -0.6270848338044104
1.3679442201532048 -0.6377974019844176
1.4139272948111763 -0.6806476747044464
1.4323205246743649 -0.7020728110644608
1.459910369469148 -0.7234979474244752
1.4783035993323366 -0.7127853792444679
1.5058934441271195 -0.7449230837844896
1.5334832889219026 -0.7342105156044824
1.5518765187850911 -0.7127853792444679
1.5978595934430626 -0.7127853792444679
1.6530392830326286 -0.6913602428844536
1.6898257427590058 -0.7127853792444679
1.7082189726221944 -0.7449230837844896
1.754202047280166 -0.7342105156044824
1.8001851219381377 -0.7770607883245112
1.8461681965961092 -0.8199110610445399
1.8553648115277035 -0.8413361974045543
1.892151271254081 -0.8306236292245471
1.9105445011172695 -0.8520487655845616
1.9657241907068352 -0.8627613337645688
2.0025106504332126 -0.8306236292245471
2.0301004952279955 -0.8413361974045543
2.0668869549543727 -0.8413361974045543
2.0852801848175613 -0.8520487655845616
2.131263259475533 -0.8948990383045904
2.131263259475533 -0.9056116064845975
2.1404598744071275 -0.9270367428446119
2.131263259475533 -0.9591744473846335
2.10367341468075 -0.9698870155646407
2.076083569885967 -0.9913121519246552
2.0576903400227784 -1.0127372882846695
2.03929711015959 -1.0341624246446839
2.0301004952279955 -0.980599583744648
2.011707265364807 -1.0020247201046624
1.9749208056384298 -0.9591744473846335
1.928937730980458 -0.9698870155646407
1.9013478861856752 -0.9377493110246191
1.836971581664515 -0.9698870155646407
1.7909885070065432 -0.9377493110246191
1.7082189726221944 -0.9591744473846335
1.6530392830326286 -0.9591744473846335
1.5886629785114683 -0.9484618792046263
1.5058934441271195 -0.9163241746646047
1.4415171396059592 -0.9163241746646047
1.3863374500163934 -0.8627613337645688
1.3403543753584217 -0.8091984928645327
1.285174685768856 -0.7556356519644968
1.2391916111108843 -0.7127853792444679
1.202405151384507 -0.6913602428844536
1.1196356170001582 -0.6377974019844176
1.0644559274105923 -0.6270848338044104
1.000079622889432 -0.5842345610843817
0.9357033183682718 -0.5628094247243672
0.8805236287787059 -0.5092465838243313
0.8253439391891401 -0.45568374292429525
0.7609676346679798 -0.4235460383842737
0.7241811749416026 -0.34855806112422333
0.6965913301468196 -0.2735700838641729
0.650608255488848 -0.22000724296413696
0.623018410694065 -0.17715697024410815
0.5954285658992822 -0.12359412934407217
0.5678387211044992 -0.12359412934407217
0.5310522613781219 -0.05931872026402899
0.5126590315149333 -0.05931872026402899
0.4666759568569617 -0.05931872026402899
0.4114962672673958 -0.027181015724007405
0.3655131926094242 -0.0378935839040146
0.3471199627462356 0.015669256996021383
0.301136888088264 0.026381825176028578
0.301136888088264 0.037094393356035774
0.301136888088264 0.037094393356035774
0.3471199627462356 0.037094393356035774
0.32872673288304693 0.037094393356035774
0.3379233478146413 0.015669256996021383
0.31953011795145264 0.015669256996021383
0.301136888088264 0.026381825176028578
0.2919402731566697 -0.00575587936399301
0.27354704329348106 -0.00575587936399301
0.2551538134302924 -0.00575587936399301
0.2551538134302924 0.004956688816014186
0.2643504283618867 -0.00575587936399301
0.28274365822507536 -0.027181015724007405
0.2919402731566697 -0.00575587936399301
0.31953011795145264 -0.00575587936399301
0.31953011795145264 0.015669256996021383
0.2919402731566697 0.004956688816014186
0.31953011795145264 0.015669256996021383
0.31033350301985835 0.004956688816014186
0.301136888088264 -0.016468447544000207
0.28274365822507536 -0.016468447544000207
0.28274365822507536 -0.0378935839040146
0.27354704329348106 -0.05931872026402899
0.2643504283618867 -0.05931872026402899
0.2551538134302924 -0.0378935839040146
0.27354704329348106 -0.016468447544000207
0.27354704329348106 -0.00575587936399301
0.2551538134302924 -0.00575587936399301
0.2551538134302924 -0.00575587936399301
0.2459571984986981 -0.00575587936399301
0.23676058356710378 -0.0378935839040146
0.22756396863550946 -0.027181015724007405
0.22756396863550946 -0.05931872026402899
0.21836735370391516 -0.0378935839040146
0.22756396863550946 -0.0378935839040146
0.21836735370391516 -0.027181015724007405
0.21836735370391516 -0.027181015724007405
0.22756396863550946 0.015669256996021383
0.22756396863550946 -0.00575587936399301
0.21836735370391516 -0.027181015724007405
0.20917073877232084 -0.027181015724007405
0.19997412384072652 -0.0378935839040146
0.17238427904594356 -0.05931872026402899
0.20917073877232084 -0.05931872026402899
0.18158089397753788 -0.0700312884440362
0.17238427904594356 -0.0700312884440362
0.15399104918275494 -0.08074385662404339
0.14479443425116062 -0.05931872026402899
0.1355978193195663 -0.048606152084021796
0.15399104918275494 -0.0378935839040146
0.18158089397753788 -0.08074385662404339
0.18158089397753788 -0.08074385662404339
0.19997412384072652 -0.0700312884440362
0.17238427904594356 -0.08074385662404339
0.18158089397753788 -0.0700312884440362
0.16318766411434926 -0.10216899298405778
0.15399104918275494 -0.09145642480405058
0.12640120438797198 -0.12359412934407217
0.14479443425116062 -0.10216899298405778
0.16318766411434926 -0.09145642480405058
0.14479443425116062 -0.09145642480405058
0.17238427904594356 -0.05931872026402899
0.17238427904594356 -0.016468447544000207
0.18158089397753788 -0.0700312884440362
0.18158089397753788 -0.0378935839040146
0.16318766411434926 -0.048606152084021796
0.14479443425116062 -0.09145642480405058
0.14479443425116062 -0.11288156116406498
0.1355978193195663 -0.11288156116406498
0.12640120438797198 -0.13430669752407937
0.1355978193195663 -0.10216899298405778
0.12640120438797198 -0.0700312884440362
0.12640120438797198 -0.048606152084021796
0.12640120438797198 -0.0378935839040146
0.1355978193195663 -0.0378935839040146
0.15399104918275494 -0.048606152084021796
0.14479443425116062 -0.048606152084021796
0.16318766411434926 -0.08074385662404339
0.16318766411434926 -0.11288156116406498
0.14479443425116062 -0.13430669752407937
0.15399104918275494 -0.11288156116406498
0.16318766411434926 -0.11288156116406498
0.16318766411434926 -0.11288156116406498
0.1907775089091322 -0.09145642480405058
0.19997412384072652 -0.0700312884440362
0.22756396863550946 -0.0700312884440362
0.20917073877232084 -0.0378935839040146
0.2643504283618867 -0.0378935839040146
0.2919402731566697 -0.0378935839040146
0.301136888088264 0.015669256996021383
0.3379233478146413 0.06923209789605736
0.3471199627462356 0.13350750697610056
0.3747098075410185 0.17635777969612934
0.39310303740420716 0.2513457569561797
0.43908611206217874 0.26205832513618693
0.4574793419253674 0.2834834614962013
0.475872571788556 0.26205832513618693
0.5126590315149333 0.2727708933161941
0.5586421061729049 0.2513457569561797
0.6046251808308765 0.2084954842361509
0.6690014853520366 0.17635777969612934
0.7333777898731969 0.11208237061608615
0.7701642495995742 0.05851952971605017
0.7701642495995742 0.004956688816014186
0.7517710197363855 -0.05931872026402899
0.7149845600100082 -0.10216899298405778
0.6873947152152253 -0.13430669752407937
0.650608255488848 -0.14501926570408658
0.6873947152152253 -0.13430669752407937
0.6965913301468196 -0.13430669752407937
0.7425744048047912 -0.15573183388409376
0.7425744048047912 -0.20929467478412975
0.6873947152152253 -0.23071981114414414
0.623018410694065 -0.2735700838641729
0.5678387211044992 -0.3164203565842017
0.49426580165174466 -0.34855806112422333
0.42069288219899015 -0.3164203565842017
0.38390642247261286 -0.3057077884041945
0.3563165776778299 -0.23071981114414414
0.32872673288304693 -0.17715697024410815
0.32872673288304693 -0.14501926570408658
0.31033350301985835 -0.15573183388409376
0.28274365822507536 -0.15573183388409376
0.2551538134302924 -0.15573183388409376
0.19997412384072652 -0.15573183388409376
0.1355978193195663 -0.15573183388409376
0.09881135959318904 -0.17715697024410815
0.09881135959318904 -0.20929467478412975
0.07122151479840609 -0.19858210660412254
0.06202489986681177 -0.20929467478412975
0.07122151479840609 -0.18786953842411536
0.09881135959318904 -0.19858210660412254
0.11720458945637767 -0.16644440206410097
0.1355978193195663 -0.18786953842411536
0.16318766411434926 -0.16644440206410097
0.17238427904594356 -0.16644440206410097
0.14479443425116062 -0.14501926570408658
0.1355978193195663 -0.11288156116406498
0.15399104918275494 -0.05931872026402899
0.16318766411434926 0.037094393356035774
0.20917073877232084 0.14422007515610774
0.3379233478146413 0.2834834614962013
0.5862319509676879 0.3049085978562157
0.9448999332998662 0.21920805241615812
1.349550990290016 0.004956688816014186
1.7909885070065432 -0.3806957656642449
2.1956395639966932 -0.873473901944576
2.5543075463288716 -1.473377720024979
2.91297552866105 -2.223257492625483
3.1888739766088796 -3.123113219746087
3.473969039488303 -4.097956924126742
3.6027216485306237 -4.912112105807289
3.6854911829149724 -5.458453082987656
3.5935250335990294 -5.661991878407793
3.437182579761926 -5.5762913329677355
3.1336942870193134 -5.244201719387513
2.738239844960758 -4.804986424007217
2.2416226386546647 -4.280070583186864
1.6898257427590058 -3.7872924469065334
1.22999499617929 -3.2516640379061736
0.8621303989155173 -2.7053230607258065
0.6414116405572537 -2.2553951971655044
0.4850691867201503 -1.8697427426852453
0.42069288219899015 -1.580503401825051
0.3563165776778299 -1.3448269018648926
0.2919402731566697 -1.1412881064447558
0.21836735370391516 -0.9484618792046263
0.10800797452478335 -0.7449230837844896
0.006845210277245868 -0.5413842883643528
-0.11271078383348025 -0.3806957656642449
-0.15869385849145184 -0.23071981114414414
-0.14949724355985752 -0.14501926570408658
-0.15869385849145184 -0.10216899298405778
-0.1403006286282632 -0.08074385662404339
-0.14949724355985752 -0.027181015724007405
-0.1403006286282632 -0.0378935839040146
-0.18628370328623478 -0.016468447544000207
-0.18628370328623478 -0.027181015724007405
-0.21387354808101774 0.015669256996021383
-0.23226677794420636 0.047806961536042976
-0.22307016301261204 0.06923209789605736
-0.20467693314942342 0.07994466607606457
-0.20467693314942342 0.11208237061608615
-0.1954803182178291 0.14422007515610774
-0.21387354808101774 0.14422007515610774
-0.22307016301261204 0.15493264333611495
-0.250660007807395 0.17635777969612934
-0.250660007807395 0.17635777969612934
-0.2598566227389893 0.17635777969612934
-0.26905323767058364 0.2084954842361509
-0.2598566227389893 0.2299206205961653
-0.2598566227389893 0.2406331887761725
-0.2598566227389893 0.2941960296762085
-0.2598566227389893 0.2727708933161941
-0.2598566227389893 0.31562116603622287
-0.23226677794420636 0.3370463023962373
-0.26905323767058364 0.36918400693625886
-0.26905323767058364 0.3584714387562517
-0.3058396973969609 0.3477588705762445
-0.3242329272601495 0.3477588705762445
-0.34262615712333816 0.3370463023962373
-0.34262615712333816 0.3584714387562517
-0.3518227720549325 0.3906091432962733
-0.3610193869865268 0.3906091432962733
-0.33342954219174387 0.41203427965628764
-0.33342954219174387 0.48702225691633805
-0.34262615712333816 0.5298725296363668
-0.3610193869865268 0.5084473932763525
-0.3610193869865268 0.5298725296363668
-0.37941261684971544 0.5191599614563597
-0.4161990765760927 0.540585097816374
-0.45298553630246996 0.5512976659963812
-0.4713787661656586 0.5512976659963812
-0.5081652258920358 0.5620102341763884
-0.49896861096044154 0.59414793871641
-0.5633449154816018 0.6584233477964532
-0.5541483005500074 0.6691359159764604
-0.5909347602763847 0.701273620516482
-0.6185246050711677 0.7119861886964892
-0.627721220002762 0.7119861886964892
-0.6645076797291393 0.7441238932365107
-0.6829009095923279 0.7441238932365107
-0.6920975245239223 0.7334113250565035
-0.7564738290450824 0.754836461416518
-0.774867058908271 0.7655490295965252
-0.8208501335662426 0.7655490295965252
-0.8484399783610256 0.7976867341365468
-0.8576365932926199 0.808399302316554
