-0.17776119527220854 0.07284653229718785
-0.17776119527220854 0.07284653229718785
-0.2788077289375293 0.09288410031746826
-0.2788077289375293 0.11292166833774865
-0.2788077289375293 0.15299680437830945
-0.24993729074743767 0.17303437239858985
-0.24993729074743767 0.17303437239858985
-0.22106685255734604 0.17303437239858985
-0.22106685255734604 0.15299680437830945
-0.2643725098424835 0.20309072442901044
-0.35098382441275844 0.18305315640873004
-0.3221133862226668 0.22312829244929083
-0.3654190435078043 0.22312829244929083
-0.42315991988798757 0.18305315640873004
-0.42315991988798757 0.21310950843915064
-0.4375951389830334 0.25318464447971145
-0.42315991988798757 0.27322221249999185
-0.3654190435078043 0.31329734854055263
-0.3654190435078043 0.283240996510132
-0.3942894816978959 0.2632034284898516
-0.45203035807807923 0.23314707645943103
-0.4953360153632167 0.25318464447971145
-0.5097712344582626 0.283240996510132
-0.46646557717312503 0.3032785645304124
-0.5242064535533083 0.3032785645304124
-0.4953360153632167 0.27322221249999185
-0.4809007962681709 0.283240996510132
-0.4809007962681709 0.3032785645304124
-0.45203035807807923 0.34335370057097325
-0.4953360153632167 0.3734100526013938
-0.4953360153632167 0.36339126859125365
-0.5386416726483542 0.34335370057097325
-0.5819473299334916 0.3032785645304124
-0.6108177681235833 0.3032785645304124
-0.5675121108384459 0.31329734854055263
-0.5242064535533083 0.32331613255069286
-0.5097712344582626 0.32331613255069286
-0.46646557717312503 0.34335370057097325
-0.4953360153632167 0.32331613255069286
-0.5386416726483542 0.32331613255069286
-0.5386416726483542 0.33333491656083303
-0.5819473299334916 0.31329734854055263
-0.5819473299334916 0.3032785645304124
-0.6108177681235833 0.23314707645943103
-0.6108177681235833 0.24316586046957123
-0.5963825490285375 0.25318464447971145
-0.5963825490285375 0.27322221249999185
-0.4953360153632167 0.29325978052027224
-0.46646557717312503 0.29325978052027224
-0.4809007962681709 0.283240996510132
-0.5242064535533083 0.24316586046957123
-0.5963825490285375 0.23314707645943103
-0.5386416726483542 0.23314707645943103
-0.5530768917434 0.25318464447971145
-0.5097712344582626 0.2632034284898516
-0.4953360153632167 0.21310950843915064
-0.4809007962681709 0.19307194041887024
-0.5097712344582626 0.21310950843915064
-0.4809007962681709 0.21310950843915064
-0.4375951389830334 0.20309072442901044
-0.46646557717312503 0.17303437239858985
-0.5242064535533083 0.18305315640873004
-0.5242064535533083 0.16301558838844965
-0.5675121108384459 0.18305315640873004
-0.5386416726483542 0.20309072442901044
-0.4953360153632167 0.22312829244929083
-0.4809007962681709 0.22312829244929083
-0.42315991988798757 0.18305315640873004
-0.4375951389830334 0.15299680437830945
-0.45203035807807923 0.12294045234788885
-0.4375951389830334 0.13295923635802906
-0.40872470079294176 0.15299680437830945
-0.3942894816978959 0.15299680437830945
-0.45203035807807923 0.12294045234788885
-0.4375951389830334 0.11292166833774865
-0.46646557717312503 0.08286531630732805
-0.4375951389830334 0.11292166833774865
-0.3798542626028501 0.07284653229718785
-0.33654860531771263 0.07284653229718785
-0.33654860531771263 0.022752612246486857
-0.3654190435078043 0.022752612246486857
-0.40872470079294176 0.04279018026676725
-0.3798542626028501 0.09288410031746826
-0.3798542626028501 0.13295923635802906
-0.3654190435078043 0.17303437239858985
-0.35098382441275844 0.18305315640873004
-0.3221133862226668 0.19307194041887024
-0.3221133862226668 0.19307194041887024
-0.2788077289375293 0.25318464447971145
-0.22106685255734604 0.25318464447971145
-0.23550207165239184 0.27322221249999185
-0.19219641436725438 0.27322221249999185
-0.22106685255734604 0.2632034284898516
-0.2643725098424835 0.2632034284898516
-0.24993729074743767 0.3032785645304124
-0.17776119527220854 0.32331613255069286
-0.1633259761771627 0.31329734854055263
-0.22106685255734604 0.27322221249999185
-0.2643725098424835 0.22312829244929083
-0.24993729074743767 0.17303437239858985
-0.24993729074743767 0.16301558838844965
-0.2788077289375293 0.12294045234788885
-0.2788077289375293 0.052808964276907455
-0.29324294803257517 0.012733828236346657
-0.3221133862226668 -0.04737887582449454
-0.3221133862226668 -0.07743522785491513
-0.2788077289375293 -0.05739765983463474
-0.23550207165239184 -0.07743522785491513
-0.2643725098424835 -0.09747279587519554
-0.29324294803257517 -0.10749157988533574
-0.3942894816978959 -0.16760428394617694
-0.4953360153632167 -0.17762306795631713
-0.5386416726483542 -0.15758549993603674
-0.6108177681235833 -0.14756671592589654
-0.6252529872186291 -0.15758549993603674
-0.5819473299334916 -0.17762306795631713
-0.6108177681235833 -0.17762306795631713
-0.6108177681235833 -0.22771698800701812
-0.5675121108384459 -0.23773577201715831
-0.5386416726483542 -0.2677921240475789
-0.5386416726483542 -0.2978484760779995
-0.5963825490285375 -0.34794239612870054
-0.6252529872186291 -0.3779987481591211
-0.5963825490285375 -0.3579611801388407
-0.6108177681235833 -0.32790482810842014
-0.5675121108384459 -0.2978484760779995
-0.5386416726483542 -0.27781090805771913
-0.5675121108384459 -0.27781090805771913
-0.6108177681235833 -0.2878296920678593
-0.5386416726483542 -0.2978484760779995
-0.5242064535533083 -0.2978484760779995
-0.4953360153632167 -0.2878296920678593
-0.5097712344582626 -0.22771698800701812
-0.4809007962681709 -0.27781090805771913
-0.4953360153632167 -0.24775455602729854
-0.5242064535533083 -0.23773577201715831
-0.46646557717312503 -0.20767941998673772
-0.40872470079294176 -0.15758549993603674
-0.3798542626028501 -0.14756671592589654
-0.3798542626028501 -0.13754793191575634
-0.33654860531771263 -0.12752914790561615
-0.35098382441275844 -0.07743522785491513
-0.29324294803257517 0.002715044226206457
-0.2788077289375293 0.07284653229718785
-0.24993729074743767 0.09288410031746826
-0.23550207165239184 0.09288410031746826
-0.2643725098424835 0.08286531630732805
-0.2643725098424835 0.11292166833774865
-0.22106685255734604 0.10290288432760845
-0.2066316334623002 0.13295923635802906
-0.13445553798707108 0.16301558838844965
-0.1633259761771627 0.10290288432760845
-0.1488907570821169 0.10290288432760845
-0.19219641436725438 0.09288410031746826
-0.12002031889202525 0.13295923635802906
-0.0911498807019336 0.13295923635802906
-0.12002031889202525 0.16301558838844965
-0.0911498807019336 0.14297802036816926
-0.2066316334623002 0.14297802036816926
-0.22106685255734604 0.11292166833774865
-0.1633259761771627 0.14297802036816926
-0.13445553798707108 0.13295923635802906
-0.12002031889202525 0.13295923635802906
-0.07671466160688777 0.13295923635802906
-0.10558509979697943 0.13295923635802906
-0.1488907570821169 0.18305315640873004
-0.2066316334623002 0.21310950843915064
-0.2066316334623002 0.21310950843915064
-0.22106685255734604 0.15299680437830945
-0.30767816712762097 0.15299680437830945
-0.42315991988798757 0.14297802036816926
-0.4953360153632167 0.14297802036816926
-0.5242064535533083 -0.17762306795631713
-0.45203035807807923 -0.7887688925748693
-0.3654190435078043 -1.5301589093252441
-0.29324294803257517 -2.2114362220147776
-0.2643725098424835 -2.8626571826738907
-0.22106685255734604 -3.5138781433330033
-0.1488907570821169 -4.094967615921135
-0.0911498807019336 -4.595906816428145
0.009896652963387181 -4.986639392823613
0.09650796753366213 -5.187015073026417
0.16868406300889127 -5.297221697137959
0.2552953775791662 -5.277184129117678
0.4718236640048536 -5.146939936985856
0.7749632650008159 -4.746188576580248
1.10697330418687 -4.034854911860294
1.438983343372924 -2.8426196146536102
1.6266411916085197 -1.5702340453658048
1.6410764107035654 -0.5483180763315045
1.6266411916085197 -0.05739765983463474
1.4967242197531072 0.18305315640873004
1.3235015906125573 0.31329734854055263
1.0636676469017325 0.38342883661153404
0.8182689222859534 0.38342883661153404
0.5584349785751286 0.4435415406723752
0.41408278762467027 0.6138608688447587
0.28416581576925787 0.7140487089461606
0.21198972029402874 0.7541238449867214
0.11094318662870796 0.7240674929563008
0.03876709115347883 0.7240674929563008
0.03876709115347883 0.7040299249360205
0.06763752934357048 0.7140487089461606
0.12537840572375378 0.7741614130070018
0.16868406300889127 0.784180197017142
0.16868406300889127 0.7741614130070018
0.11094318662870796 0.7541238449867214
0.09650796753366213 0.7641426289968616
0.06763752934357048 0.7941989810272821
0.06763752934357048 0.8242553330577028
0.09650796753366213 0.8242553330577028
0.1398136248187996 0.8142365490475626
0.1398136248187996 0.7941989810272821
0.11094318662870796 0.8042177650374224
0.18311928210393708 0.834274117067843
0.2408601584841204 0.834274117067843
0.22642493938907457 0.8643304690982636
0.21198972029402874 0.8142365490475626
0.16868406300889127 0.7741614130070018
0.1398136248187996 0.8042177650374224
0.18311928210393708 0.8643304690982636
0.1975545011989829 0.8743492531084038
0.2408601584841204 0.884368037118544
0.2408601584841204 0.8543116850881234
0.2408601584841204 0.8142365490475626
0.22642493938907457 0.784180197017142
0.2552953775791662 0.784180197017142
0.29860103486430367 0.7941989810272821
0.356341911244487 0.8142365490475626
0.31303625395934953 0.834274117067843
0.29860103486430367 0.834274117067843
0.2552953775791662 0.8442929010779832
0.28416581576925787 0.8543116850881234
0.32747147305439533 0.884368037118544
0.356341911244487 0.8643304690982636
0.3419066921494412 0.834274117067843
0.356341911244487 0.834274117067843
0.29860103486430367 0.834274117067843
0.3419066921494412 0.8643304690982636
0.3707771303395328 0.884368037118544
0.3707771303395328 0.9144243891489646
0.39964756852962446 0.9044056051388244
0.356341911244487 0.8743492531084038
0.356341911244487 0.8643304690982636
0.3419066921494412 0.8643304690982636
0.4285180067197161 0.834274117067843
0.4718236640048536 0.834274117067843
0.4718236640048536 0.8142365490475626
0.4285180067197161 0.8142365490475626
0.4285180067197161 0.834274117067843
0.4573884449098078 0.8643304690982636
0.4862588830998994 0.9144243891489646
0.4862588830998994 0.9144243891489646
0.5006941021949453 0.8743492531084038
0.4862588830998994 0.834274117067843
0.4573884449098078 0.7641426289968616
0.4862588830998994 0.7741614130070018
0.4862588830998994 0.7641426289968616
0.5295645403850369 0.7441050609765812
0.5151293212899911 0.6739735729055998
0.5151293212899911 0.6940111409258802
0.5151293212899911 0.7040299249360205
0.5584349785751286 0.7240674929563008
0.5728701976701743 0.7741614130070018
0.6161758549553118 0.7441050609765812
0.6306110740503577 0.68399235691574
0.5584349785751286 0.6038420848346184
0.5873054167652202 0.5537481647839174
0.6161758549553118 0.5136730287433566
0.6594815122404494 0.533710596763637
0.6450462931454035 0.533710596763637
0.688351950430541 0.483616676712936
0.6306110740503577 0.4635791086926556
0.6450462931454035 0.4134851886419546
0.6306110740503577 0.40346640463181443
0.6306110740503577 0.4134851886419546
0.6739167313354951 0.3533724845811134
0.6594815122404494 0.31329734854055263
0.6161758549553118 0.24316586046957123
0.601740635860266 0.24316586046957123
0.6306110740503577 0.24316586046957123
0.6739167313354951 0.27322221249999185
0.7172223886206326 0.24316586046957123
0.7172223886206326 0.22312829244929083
0.6739167313354951 0.20309072442901044
0.6594815122404494 0.15299680437830945
0.6450462931454035 0.18305315640873004
0.688351950430541 0.17303437239858985
0.7027871695255868 0.12294045234788885
0.6739167313354951 0.09288410031746826
0.6450462931454035 0.032771396256627054
0.6161758549553118 0.052808964276907455
0.6450462931454035 0.06282774828704765
0.6594815122404494 0.09288410031746826
0.6450462931454035 0.08286531630732805
0.5873054167652202 0.032771396256627054
0.5439997594800827 0.022752612246486857
0.4718236640048536 0.012733828236346657
0.4573884449098078 0.012733828236346657
0.44295322581476193 0.012733828236346657
0.4285180067197161 0.032771396256627054
0.39964756852962446 0.002715044226206457
0.3707771303395328 0.022752612246486857
0.28416581576925787 0.002715044226206457
0.2408601584841204 0.06282774828704765
0.2408601584841204 0.06282774828704765
0.22642493938907457 0.07284653229718785
0.18311928210393708 0.052808964276907455
0.09650796753366213 0.032771396256627054
0.06763752934357048 0.04279018026676725
0.08207274843861631 0.052808964276907455
0.08207274843861631 0.11292166833774865
0.03876709115347883 0.10290288432760845
0.053202310248524655 0.11292166833774865
0.024331872058433006 0.09288410031746826
-0.03340900432175029 0.08286531630732805
-0.047844223416796124 0.12294045234788885
-0.047844223416796124 0.14297802036816926
-0.0911498807019336 0.13295923635802906
-0.1488907570821169 0.10290288432760845
-0.19219641436725438 0.11292166833774865
-0.22106685255734604 0.12294045234788885
-0.2643725098424835 0.15299680437830945
-0.19219641436725438 0.16301558838844965
-0.1633259761771627 0.18305315640873004
-0.17776119527220854 0.15299680437830945
-0.23550207165239184 0.17303437239858985
-0.3221133862226668 0.15299680437830945
-0.2788077289375293 0.20309072442901044
-0.2788077289375293 0.21310950843915064
-0.30767816712762097 0.21310950843915064
-0.30767816712762097 0.23314707645943103
-0.3654190435078043 0.21310950843915064
-0.3221133862226668 0.22312829244929083
-0.33654860531771263 0.25318464447971145
-0.2788077289375293 0.27322221249999185
-0.23550207165239184 0.3032785645304124
-0.24993729074743767 0.27322221249999185
-0.2788077289375293 0.283240996510132
-0.30767816712762097 0.27322221249999185
-0.30767816712762097 0.29325978052027224
-0.29324294803257517 0.31329734854055263
-0.30767816712762097 0.3533724845811134
-0.30767816712762097 0.34335370057097325
-0.30767816712762097 0.3734100526013938
-0.30767816712762097 0.3533724845811134
-0.24993729074743767 0.43352275666223505
-0.22106685255734604 0.42350397265209483
-0.22106685255734604 0.4134851886419546
-0.24993729074743767 0.38342883661153404
-0.2788077289375293 0.3734100526013938
-0.3221133862226668 0.34335370057097325
-0.2788077289375293 0.36339126859125365
-0.2643725098424835 0.3734100526013938
-0.23550207165239184 0.3734100526013938
-0.22106685255734604 0.3734100526013938
-0.2066316334623002 0.3533724845811134
-0.22106685255734604 0.34335370057097325
-0.22106685255734604 0.3533724845811134
-0.2066316334623002 0.38342883661153404
-0.1633259761771627 0.3734100526013938
-0.2066316334623002 0.34335370057097325
-0.23550207165239184 0.33333491656083303
-0.24993729074743767 0.33333491656083303
-0.22106685255734604 0.34335370057097325
-0.17776119527220854 0.34335370057097325
-0.12002031889202525 0.3032785645304124
-0.047844223416796124 0.2632034284898516
-0.03340900432175029 0.21310950843915064
-0.004538566131658644 0.19307194041887024
0.024331872058433006 0.17303437239858985
0.18311928210393708 0.14297802036816926
0.26973059667421206 0.11292166833774865
0.3419066921494412 0.07284653229718785
0.39964756852962446 0.032771396256627054
0.4573884449098078 -0.007303739783933743
0.5295645403850369 -0.01732252379407394
0.6161758549553118 0.002715044226206457
0.601740635860266 0.022752612246486857
0.5006941021949453 -0.007303739783933743
0.38521234943457866 0.032771396256627054
0.3419066921494412 0.16301558838844965
0.32747147305439533 0.43352275666223505
0.26973059667421206 0.7641426289968616
0.1398136248187996 1.2049691254430304
-0.07671466160688777 1.635776837879059
-0.3798542626028501 2.006471846254246
-0.7407347399789957 2.3571292866091533
-1.1449208746402788 2.747861863004621
-1.476930913826333 3.1185568713798086
-1.8089409530123868 3.499270663765136
-2.0687748967232116 3.900022024170744
-2.429655374099357 4.3408485206169125
-2.6750540987151363 4.741599881022521
-2.848276727855686 5.092257321377428
-2.9348880424259614 5.402839625691774
-2.9348880424259614 5.653309225945279
-2.9204528233309155 5.843666122137942
-2.8049710705705486 5.963891530259625
-2.7327949750953198 6.044041802340747
-2.7472301941903656 6.104154506401588
-2.689489317810182 6.1542484264522885
-2.689489317810182 6.184304778482709
-2.689489317810182 6.204342346502989
-2.689489317810182 6.22437991452327
-2.689489317810182 6.22437991452327
-2.6317484414299988 6.264455050563831
-2.55957234595477 6.194323562492849
-2.429655374099357 6.104154506401588
-2.3574792786241283 5.963891530259625
-2.2564327449588073 5.883741258178503
-2.140950992198441 5.783553418077101
-2.03990445853312 5.773534634066961
-1.8233761721074326 5.783553418077101
-1.7512000766322036 5.783553418077101
-1.6501535429668828 5.763515850056821
-1.621283104776791 5.783553418077101
-1.5635422283966078 5.803590986097382
-1.4336252565411953 5.763515850056821
-1.2892730655907372 5.663328009955419
-1.130485655545233 5.452933545742475
-1.0294391218799122 5.2225015135092505
-0.8995221500244999 4.931956777215184
-0.7840403972641332 4.481111496758875
-0.6252529872186291 3.9200595921910244
-0.4809007962681709 3.148613223410229
-0.3798542626028501 2.337091718588873
-0.30767816712762097 1.4754762937168158
-0.24993729074743767 0.633898436865039
-0.19219641436725438 -0.04737887582449454
0.009896652963387181 -0.4681678042503829
0.2408601584841204 -0.7186374045038879
0.5151293212899911 -0.9190130847066919
0.6739167313354951 -1.1093699808993556
0.7027871695255868 -1.269670525061599
0.7316576077156784 -1.3898959331832812
0.7460928268107243 -1.4399898532339823
0.7893984840958618 -1.4900837732846832
0.7605280459057701 -1.580252829375945
0.7027871695255868 -1.6704218854672068
0.688351950430541 -1.780628509578749
0.6306110740503577 -1.9008539177004313
0.6306110740503577 -1.970985405771413
0.6594815122404494 -1.9910229737916931
0.6739167313354951 -2.031098109832254
0.7027871695255868 -2.1012295979032354
0.6739167313354951 -2.1413047339437963
0.6306110740503577 -2.2114362220147776
0.601740635860266 -2.281567710085759
0.601740635860266 -2.32164284612632
0.5584349785751286 -2.4118119022175817
0.601740635860266 -2.481943390288563
0.5439997594800827 -2.5420560943494044
0.5584349785751286 -2.582131230389965
0.6450462931454035 -2.6021687984102453
0.688351950430541 -2.632225150440666
0.7172223886206326 -2.6723002864812266
0.7172223886206326 -2.732412990542068
0.688351950430541 -2.83260083064347
0.6306110740503577 -2.892713534704311
0.6306110740503577 -2.9127511027245916
0.7316576077156784 -2.932788670744872
0.8471393604760451 -2.9628450227752925
0.9048802368562283 -3.022957726836134
0.9481858941413658 -3.1231455669375356
0.9914915514265034 -3.1532019189679565
1.0781028659967782 -3.1732394869882365
1.1502789614720075 -3.223333407038938
1.2224550569472366 -3.2533897590693583
1.1935846187571448 -3.3235212471403397
1.2080198378521907 -3.3736151671910406
1.1502789614720075 -3.3736151671910406
1.2224550569472366 -3.3635963831809006
1.2513254951373283 -3.3635963831809006
1.2513254951373283 -3.4036715192214615
1.3379368097076032 -3.433727871251882
1.3668072478976947 -3.473803007292443
1.3523720288026488 -3.5339157113532838
1.3812424669927406 -3.5238969273431437
1.3812424669927406 -3.5339157113532838
1.438983343372924 -3.584009631403985
1.4101129051828323 -3.6541411194749664
1.4245481242778781 -3.6641599034851065
1.4678537815630155 -3.694216255515527
1.511159438848153 -3.7042350395256674
1.5833355343233821 -3.7142538235358074
1.5833355343233821 -3.724272607545948
1.5544650961332904 -3.7643477435865087
1.4967242197531072 -3.804422879627069
1.4678537815630155 -3.8244604476473496
1.4678537815630155 -3.7743665275966487
1.4822890006580614 -3.7443101755662282
1.4822890006580614 -3.7843853116067887
1.4822890006580614 -3.804422879627069
1.4822890006580614 -3.8144416636372096
1.4678537815630155 -3.804422879627069
1.438983343372924 -3.7843853116067887
1.4534185624679696 -3.7643477435865087
1.438983343372924 -3.7443101755662282
1.3523720288026488 -3.724272607545948
1.2801959333274198 -3.694216255515527
1.265760714232374 -3.674178687495247
1.2368902760422824 -3.634103551454686
1.2801959333274198 -3.594028415414125
1.2224550569472366 -3.5339157113532838
1.1935846187571448 -3.5339157113532838
1.1358437423769616 -3.5038593593228633
1.0781028659967782 -3.443746655262022
1.0347972087116408 -3.34355881516062
1.020361989616595 -3.2533897590693583
1.0347972087116408 -3.1732394869882365
0.9626211132364116 -3.1532019189679565
0.93375067504632 -3.0830704308969747
0.8760097986661367 -3.0530140788665543
0.8615745795710908 -2.942807454755012
0.8615745795710908 -2.8125632626231893
0.8327041413809992 -2.7223942065319275
0.7460928268107243 -2.6723002864812266
0.6739167313354951 -2.6121875824203857
0.6161758549553118 -2.532037310339264
0.5873054167652202 -2.4017931182074412
0.601740635860266 -2.2515113580553385
0.5439997594800827 -2.191398653994497
0.5295645403850369 -2.131285949933656
0.41408278762467027 -2.0611544618626745
0.41408278762467027 -1.9910229737916931
0.41408278762467027 -1.890835133690291
0.38521234943457866 -1.7104970215077677
0.39964756852962446 -1.5902716133860852
0.356341911244487 -1.520140125315104
0.29860103486430367 -1.4500086372441225
0.2408601584841204 -1.3398020131325803
0.26973059667421206 -1.2095578210007576
0.28416581576925787 -1.1093699808993556
0.29860103486430367 -1.029219708818234
0.22642493938907457 -0.9490694367371125
0.21198972029402874 -0.8589003806458507
0.15424884391384544 -0.7887688925748693
0.18311928210393708 -0.6685434844531869
0.18311928210393708 -0.5683556443517849
0.16868406300889127 -0.4781865882605231
0.12537840572375378 -0.3779987481591211
0.06763752934357048 -0.36797996414898093
0.03876709115347883 -0.3178860440982799
-0.004538566131658644 -0.25777334003743874
0.03876709115347883 -0.17762306795631713
0.03876709115347883 -0.14756671592589654
0.06763752934357048 -0.13754793191575634
0.03876709115347883 -0.08745401186505533
0.03876709115347883 -0.05739765983463474
0.009896652963387181 0.032771396256627054
0.009896652963387181 0.10290288432760845
0.009896652963387181 0.14297802036816926
-0.018973785226704468 0.11292166833774865
-0.018973785226704468 0.13295923635802906
-0.03340900432175029 0.14297802036816926
-0.047844223416796124 0.19307194041887024
0.053202310248524655 0.25318464447971145
0.08207274843861631 0.283240996510132
0.024331872058433006 0.283240996510132
0.009896652963387181 0.29325978052027224
-0.07671466160688777 0.27322221249999185
-0.07671466160688777 0.31329734854055263
-0.06227944251184195 0.3533724845811134
-0.018973785226704468 0.34335370057097325
-0.004538566131658644 0.31329734854055263
-0.018973785226704468 0.31329734854055263
-0.03340900432175029 0.31329734854055263
0.024331872058433006 0.36339126859125365
-0.004538566131658644 0.3533724845811134
-0.03340900432175029 0.3734100526013938
-0.03340900432175029 0.3934476206216742
-0.12002031889202525 0.3734100526013938
-0.1488907570821169 0.36339126859125365
-0.12002031889202525 0.36339126859125365
-0.06227944251184195 0.4134851886419546
-0.018973785226704468 0.40346640463181443
0.009896652963387181 0.3934476206216742
-0.018973785226704468 0.36339126859125365
-0.06227944251184195 0.33333491656083303
-0.10558509979697943 0.3934476206216742
-0.0911498807019336 0.40346640463181443
-0.07671466160688777 0.40346640463181443
-0.07671466160688777 0.38342883661153404
-0.0911498807019336 0.3934476206216742
-0.0911498807019336 0.3934476206216742
-0.047844223416796124 0.45356032468251545
-0.06227944251184195 0.483616676712936
-0.03340900432175029 0.4134851886419546
-0.10558509979697943 0.38342883661153404
-0.1488907570821169 0.3934476206216742
-0.17776119527220854 0.38342883661153404
-0.17776119527220854 0.4435415406723752
-0.07671466160688777 0.43352275666223505
-0.018973785226704468 0.42350397265209483
-0.03340900432175029 0.42350397265209483
-0.018973785226704468 0.3934476206216742
-0.0911498807019336 0.3734100526013938
-0.12002031889202525 0.42350397265209483
-0.12002031889202525 0.4134851886419546
-0.12002031889202525 0.42350397265209483
-0.07671466160688777 0.43352275666223505
-0.12002031889202525 0.42350397265209483
-0.06227944251184195 0.3934476206216742
0.009896652963387181 0.40346640463181443
0.009896652963387181 0.42350397265209483
0.009896652963387181 0.42350397265209483
0.009896652963387181 0.40346640463181443
-0.07671466160688777 0.3734100526013938
-0.1488907570821169 0.3533724845811134
-0.12002031889202525 0.3734100526013938
-0.10558509979697943 0.42350397265209483
-0.0911498807019336 0.40346640463181443
-0.03340900432175029 0.43352275666223505
-0.018973785226704468 0.3934476206216742
-0.0911498807019336 0.34335370057097325
-0.0911498807019336 0.3734100526013938
-0.07671466160688777 0.42350397265209483
-0.07671466160688777 0.4134851886419546
-0.07671466160688777 0.3934476206216742
-0.06227944251184195 0.3934476206216742
-0.07671466160688777 0.36339126859125365
0.009896652963387181 0.40346640463181443
0.03876709115347883 0.40346640463181443
0.03876709115347883 0.42350397265209483
0.053202310248524655 0.3934476206216742
-0.004538566131658644 0.38342883661153404
-0.07671466160688777 0.3734100526013938
-0.07671466160688777 0.43352275666223505
-0.047844223416796124 0.4435415406723752
-0.047844223416796124 0.42350397265209483
-0.047844223416796124 0.40346640463181443
-0.07671466160688777 0.36339126859125365
-0.06227944251184195 0.3533724845811134
-0.004538566131658644 0.3934476206216742
0.024331872058433006 0.42350397265209483
0.009896652963387181 0.3934476206216742
-0.004538566131658644 0.42350397265209483
-0.07671466160688777 0.4134851886419546
-0.10558509979697943 0.3934476206216742
-0.0911498807019336 0.4134851886419546
-0.047844223416796124 0.43352275666223505
-0.047844223416796124 0.42350397265209483
-0.03340900432175029 0.40346640463181443
-0.018973785226704468 0.3934476206216742
-0.06227944251184195 0.42350397265209483
-0.047844223416796124 0.47359789270279584
-0.018973785226704468 0.47359789270279584
-0.004538566131658644 0.45356032468251545
0.009896652963387181 0.40346640463181443
-0.03340900432175029 0.3934476206216742
-0.03340900432175029 0.3934476206216742
-0.03340900432175029 0.3934476206216742
-0.004538566131658644 0.40346640463181443
0.053202310248524655 0.4134851886419546
-0.018973785226704468 0.3734100526013938
-0.004538566131658644 0.38342883661153404
-0.018973785226704468 0.3533724845811134
0.053202310248524655 0.42350397265209483
0.053202310248524655 0.4435415406723752
0.08207274843861631 0.43352275666223505
0.06763752934357048 0.40346640463181443
0.03876709115347883 0.3934476206216742
0.009896652963387181 0.36339126859125365
0.03876709115347883 0.40346640463181443
0.03876709115347883 0.45356032468251545
0.06763752934357048 0.45356032468251545
0.053202310248524655 0.42350397265209483
0.009896652963387181 0.42350397265209483
-0.018973785226704468 0.3934476206216742
0.024331872058433006 0.4134851886419546
0.053202310248524655 0.42350397265209483
0.06763752934357048 0.4134851886419546
0.06763752934357048 0.4134851886419546
0.09650796753366213 0.4134851886419546
0.06763752934357048 0.40346640463181443
0.12537840572375378 0.43352275666223505
0.09650796753366213 0.4134851886419546
0.11094318662870796 0.4435415406723752
0.06763752934357048 0.3934476206216742
0.053202310248524655 0.34335370057097325
0.053202310248524655 0.31329734854055263
0.053202310248524655 0.32331613255069286
0.08207274843861631 0.3934476206216742
0.12537840572375378 0.40346640463181443
0.12537840572375378 0.4134851886419546
0.09650796753366213 0.3934476206216742
0.08207274843861631 0.38342883661153404
0.08207274843861631 0.43352275666223505
0.09650796753366213 0.45356032468251545
0.08207274843861631 0.43352275666223505
0.08207274843861631 0.38342883661153404
0.06763752934357048 0.38342883661153404
0.024331872058433006 0.3734100526013938
0.06763752934357048 0.42350397265209483
0.12537840572375378 0.45356032468251545
0.1398136248187996 0.4435415406723752
0.12537840572375378 0.40346640463181443
0.053202310248524655 0.38342883661153404
-0.018973785226704468 0.34335370057097325
-0.004538566131658644 0.3533724845811134
-0.018973785226704468 0.4134851886419546
0.08207274843861631 0.4134851886419546
0.06763752934357048 0.3934476206216742
0.08207274843861631 0.3934476206216742
0.09650796753366213 0.40346640463181443
0.15424884391384544 0.42350397265209483
0.15424884391384544 0.4435415406723752
0.21198972029402874 0.4435415406723752
0.18311928210393708 0.43352275666223505
0.11094318662870796 0.40346640463181443
0.09650796753366213 0.3734100526013938
0.12537840572375378 0.40346640463181443
0.09650796753366213 0.4435415406723752
0.18311928210393708 0.4635791086926556
0.18311928210393708 0.4134851886419546
0.1975545011989829 0.40346640463181443
0.15424884391384544 0.3934476206216742
0.16868406300889127 0.40346640463181443
0.12537840572375378 0.4134851886419546
0.16868406300889127 0.42350397265209483
0.11094318662870796 0.3934476206216742
0.06763752934357048 0.3533724845811134
0.053202310248524655 0.3734100526013938
0.09650796753366213 0.4134851886419546
0.18311928210393708 0.45356032468251545
0.22642493938907457 0.47359789270279584
0.22642493938907457 0.5136730287433566
0.22642493938907457 0.5136730287433566
0.21198972029402874 0.5036542447332164
0.18311928210393708 0.5737857328041979
0.1975545011989829 0.6038420848346184
0.2552953775791662 0.5938233008244782
0.2552953775791662 0.5637669487940576
0.32747147305439533 0.5437293807737772
0.31303625395934953 0.5737857328041979
0.32747147305439533 0.5737857328041979
0.31303625395934953 0.5938233008244782
0.28416581576925787 0.6138608688447587
0.22642493938907457 0.5537481647839174
0.16868406300889127 0.483616676712936
0.12537840572375378 0.40346640463181443
0.1398136248187996 0.36339126859125365
0.11094318662870796 0.31329734854055263
0.11094318662870796 0.29325978052027224
0.15424884391384544 0.25318464447971145
0.16868406300889127 0.21310950843915064
0.11094318662870796 0.18305315640873004
0.09650796753366213 0.20309072442901044
0.09650796753366213 0.19307194041887024
0.08207274843861631 0.17303437239858985
0.024331872058433006 0.12294045234788885
0.03876709115347883 0.12294045234788885
-0.004538566131658644 0.08286531630732805
0.024331872058433006 0.13295923635802906
0.03876709115347883 0.11292166833774865
0.053202310248524655 0.11292166833774865
0.024331872058433006 0.06282774828704765
-0.004538566131658644 0.04279018026676725
-0.0911498807019336 -0.01732252379407394
-0.12002031889202525 -0.007303739783933743
-0.1488907570821169 0.002715044226206457
-0.12002031889202525 -0.007303739783933743
-0.06227944251184195 0.002715044226206457
-0.10558509979697943 -0.03736009181435434
-0.1488907570821169 -0.08745401186505533
-0.13445553798707108 -0.05739765983463474
-0.10558509979697943 -0.04737887582449454
-0.1488907570821169 -0.027341307804214142
-0.1488907570821169 -0.027341307804214142
-0.19219641436725438 -0.01732252379407394
-0.17776119527220854 -0.007303739783933743
-0.1488907570821169 0.04279018026676725
-0.06227944251184195 0.07284653229718785
-0.004538566131658644 0.10290288432760845
0.03876709115347883 0.07284653229718785
0.03876709115347883 0.07284653229718785
0.06763752934357048 0.06282774828704765
0.11094318662870796 0.13295923635802906
0.12537840572375378 0.16301558838844965
0.18311928210393708 0.18305315640873004
0.16868406300889127 0.18305315640873004
0.12537840572375378 0.23314707645943103
0.06763752934357048 0.283240996510132
0.053202310248524655 0.31329734854055263
0.06763752934357048 0.32331613255069286
0.11094318662870796 0.32331613255069286
0.15424884391384544 0.283240996510132
0.1398136248187996 0.27322221249999185
0.11094318662870796 0.283240996510132
0.16868406300889127 0.33333491656083303
0.21198972029402874 0.36339126859125365
0.1975545011989829 0.3533724845811134
0.22642493938907457 0.32331613255069286
0.15424884391384544 0.29325978052027224
0.1398136248187996 0.2632034284898516
0.12537840572375378 0.25318464447971145
0.18311928210393708 0.3032785645304124
0.21198972029402874 0.31329734854055263
0.22642493938907457 0.3032785645304124
0.2408601584841204 0.2632034284898516
0.22642493938907457 0.25318464447971145
0.22642493938907457 0.27322221249999185
0.2552953775791662 0.29325978052027224
0.2408601584841204 0.27322221249999185
0.1975545011989829 0.27322221249999185
0.1398136248187996 0.22312829244929083
0.09650796753366213 0.17303437239858985
0.03876709115347883 0.14297802036816926
-0.06227944251184195 0.10290288432760845
-0.1488907570821169 0.002715044226206457
-0.13445553798707108 -0.5082429402909437
-0.07671466160688777 -1.1895202529804774
0.024331872058433006 -1.8207036456193098
0.18311928210393708 -2.371736766177021
0.3707771303395328 -2.982882590795573
0.5584349785751286 -3.694216255515527
0.6161758549553118 -4.275305728103659
0.688351950430541 -4.605925600438285
0.6739167313354951 -4.656019520488986
0.8182689222859534 -4.495718976326743
1.1647141805670531 -4.155080319981976
1.6988172870837488 -3.5138781433330033
2.2040499554103525 -2.582131230389965
2.435013460931086 -1.4399898532339823
2.42057824183604 -0.5883932123720653
2.2329203936004443 -0.09747279587519554
1.9586512307945736 0.16301558838844965
1.597770753418428 0.29325978052027224
1.092538085091824 0.34335370057097325
0.6739167313354951 0.3734100526013938
0.39964756852962446 0.43352275666223505
0.29860103486430367 0.5637669487940576
0.2408601584841204 0.6639547888954596
0.26973059667421206 0.6940111409258802
0.2552953775791662 0.7040299249360205
0.1975545011989829 0.7040299249360205
0.15424884391384544 0.68399235691574
0.16868406300889127 0.7140487089461606
0.18311928210393708 0.7441050609765812
0.1398136248187996 0.734086276966441
0.1975545011989829 0.734086276966441
0.1975545011989829 0.7240674929563008
0.18311928210393708 0.7240674929563008
0.2552953775791662 0.7641426289968616
0.26973059667421206 0.7741614130070018
0.28416581576925787 0.7641426289968616
0.2408601584841204 0.7641426289968616
0.16868406300889127 0.7240674929563008
0.11094318662870796 0.6940111409258802
0.15424884391384544 0.7641426289968616
0.18311928210393708 0.7941989810272821
0.26973059667421206 0.8242553330577028
0.356341911244487 0.784180197017142
0.32747147305439533 0.7641426289968616
0.31303625395934953 0.7541238449867214
0.28416581576925787 0.7741614130070018
0.26973059667421206 0.8042177650374224
0.31303625395934953 0.784180197017142
0.29860103486430367 0.7541238449867214
0.28416581576925787 0.7541238449867214
0.2552953775791662 0.7541238449867214
0.356341911244487 0.784180197017142
0.39964756852962446 0.7741614130070018
0.3707771303395328 0.7941989810272821
0.356341911244487 0.7641426289968616
0.31303625395934953 0.7541238449867214
0.26973059667421206 0.7441050609765812
0.3419066921494412 0.7941989810272821
0.38521234943457866 0.8042177650374224
0.44295322581476193 0.7641426289968616
0.41408278762467027 0.7741614130070018
0.41408278762467027 0.734086276966441
0.356341911244487 0.7441050609765812
0.3707771303395328 0.7441050609765812
0.38521234943457866 0.8042177650374224
0.38521234943457866 0.7941989810272821
0.39964756852962446 0.784180197017142
0.39964756852962446 0.7641426289968616
0.4285180067197161 0.7441050609765812
0.4573884449098078 0.7441050609765812
0.4862588830998994 0.7741614130070018
0.5151293212899911 0.7441050609765812
0.5006941021949453 0.734086276966441
0.4862588830998994 0.7140487089461606
0.4862588830998994 0.68399235691574
0.5006941021949453 0.68399235691574
0.5151293212899911 0.6940111409258802
0.5295645403850369 0.6739735729055998
0.5006941021949453 0.6238796528548988
0.5295645403850369 0.5938233008244782
0.5151293212899911 0.5437293807737772
0.5151293212899911 0.5537481647839174
0.601740635860266 0.5938233008244782
0.5873054167652202 0.583804516814338
0.601740635860266 0.533710596763637
0.5873054167652202 0.49363546072307624
0.5728701976701743 0.4435415406723752
0.5584349785751286 0.45356032468251545
0.5728701976701743 0.4635791086926556
0.5728701976701743 0.43352275666223505
0.5873054167652202 0.3934476206216742
0.5873054167652202 0.38342883661153404
0.5728701976701743 0.3533724845811134
0.5873054167652202 0.3734100526013938
0.601740635860266 0.3934476206216742
0.601740635860266 0.36339126859125365
0.601740635860266 0.31329734854055263
0.6306110740503577 0.283240996510132
0.5873054167652202 0.24316586046957123
0.6161758549553118 0.283240996510132
0.6450462931454035 0.3032785645304124
0.601740635860266 0.3032785645304124
0.601740635860266 0.25318464447971145
0.5584349785751286 0.23314707645943103
0.5584349785751286 0.19307194041887024
0.5873054167652202 0.20309072442901044
0.601740635860266 0.22312829244929083
0.6161758549553118 0.23314707645943103
0.6306110740503577 0.18305315640873004
0.5873054167652202 0.19307194041887024
0.5584349785751286 0.18305315640873004
0.5439997594800827 0.19307194041887024
0.5584349785751286 0.24316586046957123
0.5295645403850369 0.2632034284898516
0.4862588830998994 0.22312829244929083
0.44295322581476193 0.20309072442901044
0.38521234943457866 0.18305315640873004
0.39964756852962446 0.20309072442901044
0.41408278762467027 0.22312829244929083
0.41408278762467027 0.23314707645943103
0.38521234943457866 0.21310950843915064
0.29860103486430367 0.21310950843915064
0.1975545011989829 0.21310950843915064
0.16868406300889127 0.20309072442901044
0.11094318662870796 0.2632034284898516
0.12537840572375378 0.2632034284898516
0.1398136248187996 0.23314707645943103
0.11094318662870796 0.22312829244929083
0.11094318662870796 0.23314707645943103
0.11094318662870796 0.283240996510132
0.08207274843861631 0.32331613255069286
0.009896652963387181 0.283240996510132
-0.018973785226704468 0.23314707645943103
-0.03340900432175029 0.20309072442901044
-0.0911498807019336 0.22312829244929083
-0.004538566131658644 0.283240996510132
0.053202310248524655 0.31329734854055263
0.08207274843861631 0.33333491656083303
0.03876709115347883 0.31329734854055263
-0.018973785226704468 0.3032785645304124
-0.06227944251184195 0.27322221249999185
-0.0911498807019336 0.31329734854055263
-0.0911498807019336 0.34335370057097325
-0.047844223416796124 0.34335370057097325
-0.07671466160688777 0.3533724845811134
-0.12002031889202525 0.3533724845811134
-0.06227944251184195 0.3734100526013938
-0.047844223416796124 0.40346640463181443
-0.06227944251184195 0.4435415406723752
-0.06227944251184195 0.43352275666223505
-0.12002031889202525 0.40346640463181443
-0.1488907570821169 0.3934476206216742
-0.1633259761771627 0.3934476206216742
-0.13445553798707108 0.45356032468251545
-0.07671466160688777 0.49363546072307624
-0.06227944251184195 0.49363546072307624
-0.0911498807019336 0.4635791086926556
-0.12002031889202525 0.47359789270279584
-0.17776119527220854 0.47359789270279584
-0.2066316334623002 0.483616676712936
-0.23550207165239184 0.5036542447332164
-0.23550207165239184 0.533710596763637
-0.23550207165239184 0.5036542447332164
-0.2643725098424835 0.5236918127534969
-0.24993729074743767 0.5036542447332164
-0.17776119527220854 0.5637669487940576
-0.1633259761771627 0.5637669487940576
-0.19219641436725438 0.5537481647839174
-0.24993729074743767 0.5437293807737772
-0.33654860531771263 0.5236918127534969
-0.3942894816978959 0.483616676712936
-0.35098382441275844 0.5537481647839174
-0.29324294803257517 0.5637669487940576
-0.29324294803257517 0.5537481647839174
-0.2066316334623002 0.5236918127534969
-0.23550207165239184 0.5236918127534969
-0.2788077289375293 0.5236918127534969
-0.2788077289375293 0.533710596763637
-0.2788077289375293 0.533710596763637
-0.2788077289375293 0.5236918127534969
-0.2643725098424835 0.5036542447332164
-0.29324294803257517 0.483616676712936
-0.3798542626028501 0.483616676712936
-0.35098382441275844 0.5136730287433566
-0.23550207165239184 0.5036542447332164
-0.19219641436725438 0.47359789270279584
-0.22106685255734604 0.4435415406723752
-0.2788077289375293 0.4134851886419546
-0.33654860531771263 0.42350397265209483
-0.3221133862226668 0.4435415406723752
-0.29324294803257517 0.47359789270279584
-0.24993729074743767 0.4435415406723752
-0.23550207165239184 0.4435415406723752
-0.23550207165239184 0.40346640463181443
-0.2788077289375293 0.3533724845811134
-0.24993729074743767 0.3734100526013938
-0.2643725098424835 0.40346640463181443
-0.23550207165239184 0.40346640463181443
-0.2643725098424835 0.38342883661153404
-0.2788077289375293 0.34335370057097325
-0.29324294803257517 0.34335370057097325
-0.30767816712762097 0.36339126859125365
-0.2643725098424835 0.3533724845811134
-0.19219641436725438 0.33333491656083303
-0.22106685255734604 0.3032785645304124
-0.2066316334623002 0.27322221249999185
-0.2788077289375293 0.2632034284898516
-0.2643725098424835 0.31329734854055263
-0.2066316334623002 0.33333491656083303
-0.2066316334623002 0.3533724845811134
-0.22106685255734604 0.3032785645304124
-0.22106685255734604 0.2632034284898516
-0.23550207165239184 0.2632034284898516
-0.2066316334623002 0.3032785645304124
-0.1488907570821169 0.36339126859125365
-0.12002031889202525 0.38342883661153404
-0.06227944251184195 0.4134851886419546
-0.0911498807019336 0.38342883661153404
-0.10558509979697943 0.36339126859125365
-0.07671466160688777 0.3934476206216742
-0.03340900432175029 0.4134851886419546
0.03876709115347883 0.38342883661153404
0.009896652963387181 0.3734100526013938
-0.047844223416796124 0.33333491656083303
-0.047844223416796124 0.38342883661153404
-0.07671466160688777 0.4134851886419546
-0.07671466160688777 0.40346640463181443
-0.07671466160688777 0.32331613255069286
-0.10558509979697943 0.19307194041887024
-0.19219641436725438 0.07284653229718785
-0.23550207165239184 0.022752612246486857
-0.2066316334623002 -0.007303739783933743
-0.1488907570821169 0.04279018026676725
-0.12002031889202525 0.052808964276907455
-0.13445553798707108 0.002715044226206457
-0.2066316334623002 -0.027341307804214142
-0.23550207165239184 -0.06741644384477494
-0.23550207165239184 -0.11751036389547594
-0.2788077289375293 -0.11751036389547594
-0.2643725098424835 -0.11751036389547594
-0.2788077289375293 -0.13754793191575634
-0.2788077289375293 -0.16760428394617694
-0.33654860531771263 -0.15758549993603674
-0.3221133862226668 -0.12752914790561615
-0.30767816712762097 -0.11751036389547594
-0.3654190435078043 -0.11751036389547594
-0.42315991988798757 -0.19766063597659753
-0.45203035807807923 -0.25777334003743874
-0.5097712344582626 -0.30786726008813975
-0.5097712344582626 -0.32790482810842014
-0.4375951389830334 -0.2978484760779995
-0.3942894816978959 -0.25777334003743874
-0.3798542626028501 -0.25777334003743874
-0.3798542626028501 -0.24775455602729854
-0.3654190435078043 -0.25777334003743874
-0.33654860531771263 -0.22771698800701812
-0.33654860531771263 -0.23773577201715831
-0.30767816712762097 -0.22771698800701812
-0.30767816712762097 -0.20767941998673772
-0.30767816712762097 -0.21769820399687792
-0.2788077289375293 -0.18764185196645733
-0.23550207165239184 -0.14756671592589654
-0.19219641436725438 -0.11751036389547594
-0.10558509979697943 -0.07743522785491513
-0.06227944251184195 -0.07743522785491513
-0.10558509979697943 -0.05739765983463474
-0.19219641436725438 -0.04737887582449454
-0.22106685255734604 0.022752612246486857
-0.2066316334623002 0.09288410031746826
-0.10558509979697943 0.09288410031746826
-0.047844223416796124 0.12294045234788885
-0.018973785226704468 0.13295923635802906
-0.03340900432175029 0.11292166833774865
-0.004538566131658644 0.09288410031746826
0.024331872058433006 0.13295923635802906
0.009896652963387181 0.14297802036816926
-0.03340900432175029 0.08286531630732805
-0.047844223416796124 0.052808964276907455
-0.06227944251184195 0.07284653229718785
0.009896652963387181 0.09288410031746826
0.06763752934357048 0.09288410031746826
0.1398136248187996 0.14297802036816926
0.12537840572375378 0.06282774828704765
0.08207274843861631 0.04279018026676725
-0.004538566131658644 0.012733828236346657
-0.047844223416796124 0.052808964276907455
0.024331872058433006 0.09288410031746826
0.024331872058433006 0.09288410031746826
0.03876709115347883 0.09288410031746826
0.009896652963387181 0.07284653229718785
-0.0911498807019336 -0.007303739783933743
-0.17776119527220854 -0.03736009181435434
-0.3654190435078043 -0.06741644384477494
-0.45203035807807923 -0.22771698800701812
-0.4809007962681709 -0.7286561885140281
-0.3798542626028501 -1.3698583651630007
-0.2643725098424835 -2.0110605418119736
-0.07671466160688777 -2.632225150440666
0.06763752934357048 -3.3034836791200592
0.21198972029402874 -3.924648287748752
0.29860103486430367 -4.435606272265902
0.3419066921494412 -4.696094656529547
0.3419066921494412 -4.826338848661369
0.5151293212899911 -4.796282496630949
0.8182689222859534 -4.635981952468706
1.2513254951373283 -4.255268160083379
1.7998638207490696 -3.5339157113532838
2.2329203936004443 -2.441868254248002
2.406143022740994 -1.3197644451122998
2.3484021463608107 -0.5082429402909437
2.1318738599351237 -0.11751036389547594
1.756558163463932 0.06282774828704765
1.2946311524224656 0.13295923635802906
0.8327041413809992 0.18305315640873004
0.5006941021949453 0.25318464447971145
0.3419066921494412 0.36339126859125365
0.28416581576925787 0.4435415406723752
0.28416581576925787 0.49363546072307624
0.26973059667421206 0.49363546072307624
0.22642493938907457 0.4635791086926556
0.1975545011989829 0.43352275666223505
0.21198972029402874 0.49363546072307624
0.22642493938907457 0.5437293807737772
0.2408601584841204 0.5737857328041979
0.2552953775791662 0.5537481647839174
0.18311928210393708 0.583804516814338
0.18311928210393708 0.5637669487940576
0.22642493938907457 0.5637669487940576
0.2408601584841204 0.6138608688447587
0.29860103486430367 0.6038420848346184
0.29860103486430367 0.5938233008244782
0.28416581576925787 0.5938233008244782
0.22642493938907457 0.583804516814338
0.22642493938907457 0.5938233008244782
0.2552953775791662 0.6238796528548988
0.31303625395934953 0.6038420848346184
0.31303625395934953 0.5637669487940576
0.2408601584841204 0.5437293807737772
0.22642493938907457 0.5437293807737772
0.2552953775791662 0.6038420848346184
0.31303625395934953 0.6539360048853194
0.38521234943457866 0.6739735729055998
0.356341911244487 0.6739735729055998
0.29860103486430367 0.6739735729055998
0.2408601584841204 0.6539360048853194
0.29860103486430367 0.633898436865039
0.29860103486430367 0.6539360048853194
0.31303625395934953 0.68399235691574
0.31303625395934953 0.68399235691574
0.31303625395934953 0.6639547888954596
0.3419066921494412 0.6539360048853194
0.32747147305439533 0.68399235691574
0.356341911244487 0.6739735729055998
0.38521234943457866 0.6439172208751792
0.3707771303395328 0.6138608688447587
0.3707771303395328 0.6038420848346184
0.356341911244487 0.6138608688447587
0.38521234943457866 0.6238796528548988
0.4285180067197161 0.6639547888954596
0.4285180067197161 0.68399235691574
0.44295322581476193 0.6739735729055998
0.3707771303395328 0.6238796528548988
0.38521234943457866 0.5938233008244782
0.4285180067197161 0.6639547888954596
0.5439997594800827 0.6739735729055998
0.601740635860266 0.68399235691574
0.5873054167652202 0.6439172208751792
0.5439997594800827 0.6138608688447587
0.4862588830998994 0.5537481647839174
0.5006941021949453 0.5537481647839174
0.5151293212899911 0.6038420848346184
0.5439997594800827 0.583804516814338
0.601740635860266 0.5637669487940576
0.5873054167652202 0.5036542447332164
0.5873054167652202 0.47359789270279584
0.6594815122404494 0.49363546072307624
0.6450462931454035 0.5036542447332164
0.6594815122404494 0.45356032468251545
0.6739167313354951 0.40346640463181443
0.6450462931454035 0.3734100526013938
0.6161758549553118 0.33333491656083303
0.6739167313354951 0.34335370057097325
0.7172223886206326 0.3734100526013938
0.7893984840958618 0.36339126859125365
0.7893984840958618 0.3032785645304124
0.7605280459057701 0.3032785645304124
0.7027871695255868 0.22312829244929083
0.6739167313354951 0.16301558838844965
0.7172223886206326 0.11292166833774865
0.7605280459057701 0.15299680437830945
0.7605280459057701 0.11292166833774865
0.8038337031909076 0.12294045234788885
0.7749632650008159 0.09288410031746826
0.8038337031909076 0.10290288432760845
0.7749632650008159 0.09288410031746826
0.7893984840958618 0.06282774828704765
0.7172223886206326 0.06282774828704765
0.6739167313354951 0.022752612246486857
0.688351950430541 0.012733828236346657
0.7027871695255868 0.04279018026676725
0.7027871695255868 0.04279018026676725
0.7316576077156784 0.052808964276907455
0.6594815122404494 0.04279018026676725
0.5728701976701743 0.052808964276907455
0.5006941021949453 -0.007303739783933743
0.44295322581476193 0.032771396256627054
0.4573884449098078 0.052808964276907455
0.5151293212899911 0.08286531630732805
0.4862588830998994 0.09288410031746826
0.41408278762467027 0.08286531630732805
0.3707771303395328 0.07284653229718785
0.3419066921494412 0.09288410031746826
0.28416581576925787 0.07284653229718785
0.26973059667421206 0.10290288432760845
0.2408601584841204 0.08286531630732805
0.2408601584841204 0.09288410031746826
0.21198972029402874 0.09288410031746826
0.21198972029402874 0.10290288432760845
0.1975545011989829 0.14297802036816926
0.16868406300889127 0.11292166833774865
0.15424884391384544 0.13295923635802906
0.1398136248187996 0.14297802036816926
0.12537840572375378 0.13295923635802906
0.15424884391384544 0.18305315640873004
0.15424884391384544 0.17303437239858985
0.21198972029402874 0.15299680437830945
0.18311928210393708 0.14297802036816926
0.1398136248187996 0.10290288432760845
0.08207274843861631 0.09288410031746826
0.12537840572375378 0.12294045234788885
0.09650796753366213 0.16301558838844965
0.12537840572375378 0.17303437239858985
0.11094318662870796 0.12294045234788885
0.11094318662870796 0.11292166833774865
0.024331872058433006 0.10290288432760845
-0.004538566131658644 0.16301558838844965
0.053202310248524655 0.18305315640873004
0.08207274843861631 0.21310950843915064
0.06763752934357048 0.19307194041887024
-0.004538566131658644 0.16301558838844965
-0.004538566131658644 0.15299680437830945
-0.004538566131658644 0.15299680437830945
-0.004538566131658644 0.19307194041887024
0.03876709115347883 0.19307194041887024
0.03876709115347883 0.17303437239858985
-0.004538566131658644 0.15299680437830945
-0.06227944251184195 0.14297802036816926
-0.047844223416796124 0.18305315640873004
-0.03340900432175029 0.19307194041887024
-0.018973785226704468 0.18305315640873004
-0.047844223416796124 0.13295923635802906
-0.07671466160688777 0.11292166833774865
-0.10558509979697943 0.09288410031746826
-0.07671466160688777 0.16301558838844965
-0.03340900432175029 0.18305315640873004
-0.018973785226704468 0.19307194041887024
-0.018973785226704468 0.14297802036816926
-0.0911498807019336 0.08286531630732805
-0.13445553798707108 0.07284653229718785
-0.12002031889202525 0.09288410031746826
-0.13445553798707108 0.10290288432760845
-0.047844223416796124 0.10290288432760845
-0.018973785226704468 0.08286531630732805
-0.03340900432175029 0.052808964276907455
-0.07671466160688777 0.07284653229718785
-0.12002031889202525 0.08286531630732805
-0.07671466160688777 0.08286531630732805
-0.06227944251184195 0.06282774828704765
-0.0911498807019336 0.022752612246486857
-0.07671466160688777 0.032771396256627054
-0.06227944251184195 0.032771396256627054
-0.07671466160688777 0.032771396256627054
-0.018973785226704468 0.052808964276907455
-0.004538566131658644 0.07284653229718785
-0.018973785226704468 0.032771396256627054
-0.07671466160688777 -0.01732252379407394
-0.10558509979697943 -0.03736009181435434
-0.0911498807019336 -0.03736009181435434
-0.07671466160688777 -0.007303739783933743
-0.018973785226704468 -0.007303739783933743
0.053202310248524655 0.002715044226206457
0.03876709115347883 -0.027341307804214142
-0.004538566131658644 -0.05739765983463474
-0.07671466160688777 -0.03736009181435434
-0.10558509979697943 -0.03736009181435434
-0.0911498807019336 -0.007303739783933743
-0.0911498807019336 -0.03736009181435434
-0.0911498807019336 -0.04737887582449454
-0.06227944251184195 -0.06741644384477494
-0.018973785226704468 -0.04737887582449454
0.06763752934357048 -0.03736009181435434
0.053202310248524655 -0.03736009181435434
-0.047844223416796124 -0.07743522785491513
-0.1633259761771627 -0.09747279587519554
-0.1633259761771627 -0.07743522785491513
-0.12002031889202525 -0.01732252379407394
-0.06227944251184195 0.022752612246486857
0.03876709115347883 0.052808964276907455
0.12537840572375378 0.08286531630732805
0.12537840572375378 0.08286531630732805
0.06763752934357048 0.06282774828704765
0.08207274843861631 0.09288410031746826
0.11094318662870796 0.09288410031746826
0.11094318662870796 0.07284653229718785
0.11094318662870796 0.022752612246486857
0.09650796753366213 0.07284653229718785
0.053202310248524655 0.08286531630732805
0.053202310248524655 0.11292166833774865
0.08207274843861631 0.032771396256627054
0.08207274843861631 -0.04737887582449454
-0.03340900432175029 -0.18764185196645733
-0.12002031889202525 -0.2878296920678593
-0.1488907570821169 -0.30786726008813975
-0.10558509979697943 -0.2677921240475789
-0.06227944251184195 -0.25777334003743874
0.03876709115347883 -0.23773577201715831
0.024331872058433006 -0.2878296920678593
-0.047844223416796124 -0.34794239612870054
-0.12002031889202525 -0.3980363161794015
-0.17776119527220854 -0.43811145221996234
-0.17776119527220854 -0.4681678042503829
-0.22106685255734604 -0.4180738841996819
-0.23550207165239184 -0.45814902024024273
-0.24993729074743767 -0.4481302362301025
-0.2643725098424835 -0.4882053722706633
-0.2643725098424835 -0.4982241562808035
-0.2643725098424835 -0.5082429402909437
-0.23550207165239184 -0.5282805083112241
-0.3221133862226668 -0.5382992923213643
-0.42315991988798757 -0.5984119963822055
-0.42315991988798757 -0.5984119963822055
-0.40872470079294176 -0.5883932123720653
-0.3798542626028501 -0.5483180763315045
-0.3221133862226668 -0.5282805083112241
-0.3654190435078043 -0.5483180763315045
-0.40872470079294176 -0.5483180763315045
-0.40872470079294176 -0.5583368603416448
-0.3654190435078043 -0.5282805083112241
-0.3221133862226668 -0.5182617243010839
-0.2788077289375293 -0.4681678042503829
-0.2788077289375293 -0.4481302362301025
-0.2788077289375293 -0.4481302362301025
-0.22106685255734604 -0.45814902024024273
-0.1633259761771627 -0.4080551001895417
-0.10558509979697943 -0.4080551001895417
-0.12002031889202525 -0.36797996414898093
-0.0911498807019336 -0.36797996414898093
-0.13445553798707108 -0.32790482810842014
-0.19219641436725438 -0.2978484760779995
-0.13445553798707108 -0.23773577201715831
-0.10558509979697943 -0.18764185196645733
-0.047844223416796124 -0.16760428394617694
-0.03340900432175029 -0.17762306795631713
-0.06227944251184195 -0.20767941998673772
-0.047844223416796124 -0.20767941998673772
-0.047844223416796124 -0.17762306795631713
0.009896652963387181 -0.13754793191575634
0.053202310248524655 -0.11751036389547594
0.024331872058433006 -0.09747279587519554
0.03876709115347883 -0.12752914790561615
0.053202310248524655 -0.14756671592589654
0.053202310248524655 -0.13754793191575634
0.06763752934357048 -0.17762306795631713
0.09650796753366213 -0.19766063597659753
0.11094318662870796 -0.19766063597659753
0.08207274843861631 -0.20767941998673772
0.053202310248524655 -0.22771698800701812
0.009896652963387181 -0.18764185196645733
-0.03340900432175029 -0.14756671592589654
-0.018973785226704468 -0.12752914790561615
-0.12002031889202525 -0.12752914790561615
-0.1488907570821169 -0.11751036389547594
-0.30767816712762097 -0.14756671592589654
-0.45203035807807923 -0.11751036389547594
-0.46646557717312503 -0.12752914790561615
-0.46646557717312503 -0.3880175321692613
-0.40872470079294176 -0.9390506527269723
-0.3654190435078043 -1.6103091814063657
-0.24993729074743767 -2.3116240621161794
-0.10558509979697943 -3.022957726836134
0.09650796753366213 -3.734291391556088
0.26973059667421206 -4.35545600018478
0.41408278762467027 -4.7762449286106685
0.5439997594800827 -4.996658176833753
0.6594815122404494 -5.006676960843893
0.9914915514265034 -4.826338848661369
1.4245481242778781 -4.455643840286182
1.9442160116995277 -3.7643477435865087
2.3195317081707194 -2.742431774552208
2.435013460931086 -1.630346749426646
2.3484021463608107 -0.7687313245545889
2.1318738599351237 -0.34794239612870054
1.843169478034207 -0.11751036389547594
1.4101129051828323 0.002715044226206457
0.9914915514265034 0.032771396256627054
0.6450462931454035 0.08286531630732805
0.356341911244487 0.08286531630732805
0.21198972029402874 0.17303437239858985
0.21198972029402874 0.22312829244929083
0.21198972029402874 0.283240996510132
0.21198972029402874 0.3032785645304124
0.22642493938907457 0.3032785645304124
0.2408601584841204 0.33333491656083303
0.22642493938907457 0.3533724845811134
0.22642493938907457 0.283240996510132
0.1975545011989829 0.283240996510132
0.1398136248187996 0.27322221249999185
0.15424884391384544 0.27322221249999185
0.16868406300889127 0.27322221249999185
0.21198972029402874 0.31329734854055263
0.26973059667421206 0.3533724845811134
0.29860103486430367 0.36339126859125365
0.38521234943457866 0.3533724845811134
0.31303625395934953 0.34335370057097325
0.2408601584841204 0.34335370057097325
0.2552953775791662 0.36339126859125365
0.22642493938907457 0.40346640463181443
0.28416581576925787 0.42350397265209483
0.31303625395934953 0.42350397265209483
0.32747147305439533 0.4134851886419546
0.3419066921494412 0.38342883661153404
0.38521234943457866 0.4134851886419546
0.44295322581476193 0.45356032468251545
0.44295322581476193 0.4635791086926556
0.44295322581476193 0.4134851886419546
0.3707771303395328 0.38342883661153404
0.3419066921494412 0.3734100526013938
0.41408278762467027 0.4134851886419546
0.4862588830998994 0.483616676712936
0.5439997594800827 0.47359789270279584
0.6161758549553118 0.43352275666223505
0.5728701976701743 0.42350397265209483
0.5873054167652202 0.4134851886419546
0.5439997594800827 0.43352275666223505
0.5295645403850369 0.4635791086926556
0.4862588830998994 0.45356032468251545
0.41408278762467027 0.42350397265209483
0.44295322581476193 0.43352275666223505
0.4285180067197161 0.4134851886419546
0.44295322581476193 0.43352275666223505
0.4862588830998994 0.49363546072307624
0.5006941021949453 0.47359789270279584
0.4573884449098078 0.45356032468251545
0.356341911244487 0.45356032468251545
0.29860103486430367 0.47359789270279584
0.28416581576925787 0.5036542447332164
0.356341911244487 0.5537481647839174
0.356341911244487 0.5437293807737772
0.41408278762467027 0.5236918127534969
0.38521234943457866 0.5136730287433566
0.39964756852962446 0.5136730287433566
0.38521234943457866 0.5537481647839174
0.44295322581476193 0.533710596763637
0.4573884449098078 0.49363546072307624
0.4718236640048536 0.43352275666223505
0.4862588830998994 0.43352275666223505
0.4573884449098078 0.42350397265209483
0.5151293212899911 0.4435415406723752
0.5584349785751286 0.4134851886419546
0.6306110740503577 0.34335370057097325
0.601740635860266 0.31329734854055263
0.601740635860266 0.2632034284898516
0.601740635860266 0.22312829244929083
0.601740635860266 0.21310950843915064
0.6161758549553118 0.19307194041887024
0.688351950430541 0.16301558838844965
0.688351950430541 0.13295923635802906
0.6594815122404494 0.12294045234788885
0.6306110740503577 0.09288410031746826
0.7027871695255868 0.06282774828704765
0.7460928268107243 0.06282774828704765
0.8038337031909076 0.022752612246486857
0.8182689222859534 -0.007303739783933743
0.8471393604760451 -0.05739765983463474
0.8471393604760451 -0.07743522785491513
0.8471393604760451 -0.05739765983463474
0.8760097986661367 -0.04737887582449454
0.8904450177611826 -0.09747279587519554
0.9193154559512742 -0.16760428394617694
0.9626211132364116 -0.20767941998673772
1.10697330418687 -0.23773577201715831
1.2080198378521907 -0.22771698800701812
1.2946311524224656 -0.22771698800701812
1.2224550569472366 -0.21769820399687792
1.005926770521549 -0.20767941998673772
0.7027871695255868 -0.20767941998673772
0.4862588830998994 -0.20767941998673772
0.3419066921494412 -0.14756671592589654
0.18311928210393708 -0.10749157988533574
0.16868406300889127 -0.09747279587519554
0.21198972029402874 -0.14756671592589654
0.21198972029402874 -0.20767941998673772
0.2552953775791662 -0.22771698800701812
0.29860103486430367 -0.23773577201715831
0.26973059667421206 -0.23773577201715831
0.28416581576925787 -0.21769820399687792
0.2552953775791662 -0.22771698800701812
0.22642493938907457 -0.21769820399687792
0.1398136248187996 -0.20767941998673772
0.09650796753366213 -0.15758549993603674
0.09650796753366213 -0.16760428394617694
0.11094318662870796 -0.16760428394617694
0.08207274843861631 -0.18764185196645733
0.06763752934357048 -0.20767941998673772
0.009896652963387181 -0.20767941998673772
-0.018973785226704468 -0.15758549993603674
-0.004538566131658644 -0.15758549993603674
0.03876709115347883 -0.17762306795631713
0.024331872058433006 -0.17762306795631713
-0.07671466160688777 -0.15758549993603674
-0.0911498807019336 -0.14756671592589654
-0.047844223416796124 -0.10749157988533574
0.024331872058433006 -0.09747279587519554
0.09650796753366213 -0.07743522785491513
0.09650796753366213 -0.11751036389547594
-0.03340900432175029 -0.17762306795631713
-0.10558509979697943 -0.19766063597659753
-0.10558509979697943 -0.14756671592589654
-0.12002031889202525 -0.08745401186505533
-0.12002031889202525 -0.12752914790561615
-0.13445553798707108 -0.06741644384477494
-0.07671466160688777 -0.027341307804214142
-0.004538566131658644 -0.027341307804214142
0.024331872058433006 -0.08745401186505533
0.06763752934357048 -0.10749157988533574
0.053202310248524655 -0.13754793191575634
0.053202310248524655 -0.13754793191575634
-0.018973785226704468 -0.17762306795631713
-0.10558509979697943 -0.14756671592589654
-0.10558509979697943 -0.10749157988533574
-0.07671466160688777 -0.06741644384477494
-0.07671466160688777 -0.05739765983463474
-0.12002031889202525 -0.03736009181435434
-0.19219641436725438 -0.01732252379407394
-0.30767816712762097 -0.007303739783933743
-0.4375951389830334 0.012733828236346657
-0.5097712344582626 0.052808964276907455
-0.5097712344582626 0.10290288432760845
-0.5097712344582626 0.12294045234788885
-0.5097712344582626 0.08286531630732805
-0.4953360153632167 0.08286531630732805
-0.46646557717312503 0.07284653229718785
-0.40872470079294176 0.10290288432760845
-0.3942894816978959 0.11292166833774865
-0.42315991988798757 0.07284653229718785
-0.4375951389830334 0.052808964276907455
-0.4953360153632167 0.002715044226206457
-0.5097712344582626 0.022752612246486857
-0.42315991988798757 0.04279018026676725
-0.3798542626028501 0.032771396256627054
-0.40872470079294176 0.022752612246486857
-0.3798542626028501 0.012733828236346657
-0.42315991988798757 -0.007303739783933743
-0.42315991988798757 -0.03736009181435434
-0.3798542626028501 -0.05739765983463474
-0.33654860531771263 -0.027341307804214142
-0.30767816712762097 -0.01732252379407394
-0.33654860531771263 -0.01732252379407394
-0.3942894816978959 -0.01732252379407394
-0.3798542626028501 0.022752612246486857
-0.29324294803257517 0.002715044226206457
-0.1488907570821169 -0.05739765983463474
-0.1633259761771627 -0.10749157988533574
-0.22106685255734604 -0.11751036389547594
-0.3221133862226668 -0.07743522785491513
-0.46646557717312503 0.002715044226206457
-0.5097712344582626 0.04279018026676725
-0.5675121108384459 -0.007303739783933743
-0.5242064535533083 -0.11751036389547594
-0.46646557717312503 -0.13754793191575634
-0.4375951389830334 -0.16760428394617694
-0.3798542626028501 -0.13754793191575634
-0.3942894816978959 -0.12752914790561615
-0.45203035807807923 -0.11751036389547594
-0.4809007962681709 -0.10749157988533574
-0.45203035807807923 -0.09747279587519554
-0.40872470079294176 -0.10749157988533574
-0.45203035807807923 -0.08745401186505533
-0.3942894816978959 -0.09747279587519554
-0.3798542626028501 -0.13754793191575634
-0.3221133862226668 -0.18764185196645733
-0.3798542626028501 -0.20767941998673772
-0.46646557717312503 -0.25777334003743874
-0.6108177681235833 -0.16760428394617694
-0.6252529872186291 -0.05739765983463474
-0.6252529872186291 -0.04737887582449454
-0.5819473299334916 -0.15758549993603674
-0.4953360153632167 -0.27781090805771913
-0.4375951389830334 -0.3178860440982799
-0.3798542626028501 -0.27781090805771913
-0.29324294803257517 -0.21769820399687792
-0.22106685255734604 -0.16760428394617694
-0.19219641436725438 -0.17762306795631713
-0.23550207165239184 -0.15758549993603674
-0.2643725098424835 -0.15758549993603674
-0.23550207165239184 -0.10749157988533574
-0.1633259761771627 -0.08745401186505533
-0.06227944251184195 -0.10749157988533574
-0.047844223416796124 -0.10749157988533574
-0.1633259761771627 -0.09747279587519554
-0.29324294803257517 -0.10749157988533574
-0.30767816712762097 -0.05739765983463474
-0.3654190435078043 -0.03736009181435434
-0.40872470079294176 -0.06741644384477494
-0.4953360153632167 -0.15758549993603674
-0.5386416726483542 -0.2978484760779995
-0.5242064535533083 -0.4280926682098221
-0.4375951389830334 -0.4280926682098221
-0.33654860531771263 -0.36797996414898093
-0.3221133862226668 -0.34794239612870054
-0.42315991988798757 -0.3880175321692613
-0.5242064535533083 -0.4681678042503829
-0.5819473299334916 -0.5082429402909437
-0.5097712344582626 -0.5182617243010839
-0.4809007962681709 -0.5483180763315045
-0.46646557717312503 -0.5984119963822055
-0.5386416726483542 -0.6384871324227663
-0.5963825490285375 -0.6084307803923457
-0.6685586445037666 -0.5883932123720653
-0.6685586445037666 -0.5783744283619251
-0.6541234254087208 -0.6184495644024859
-0.6541234254087208 -0.6985998364836075
-0.5963825490285375 -0.7186374045038879
-0.5819473299334916 -0.7587125405444487
-0.6252529872186291 -0.7987876765850095
-0.6108177681235833 -0.7587125405444487
-0.5963825490285375 -0.6985998364836075
-0.6252529872186291 -0.6985998364836075
-0.6541234254087208 -0.7386749725241682
-0.6974290826938583 -0.7386749725241682
-0.7262995208839499 -0.7286561885140281
-0.7118643017889041 -0.6885810524734673
-0.6974290826938583 -0.6184495644024859
-0.639688206313675 -0.6184495644024859
-0.6252529872186291 -0.6685434844531869
-0.6252529872186291 -0.6685434844531869
-0.6108177681235833 -0.6585247004430467
-0.5386416726483542 -0.6284683484126261
-0.5097712344582626 -0.6284683484126261
-0.4809007962681709 -0.6184495644024859
-0.45203035807807923 -0.6284683484126261
-0.45203035807807923 -0.6284683484126261
-0.5097712344582626 -0.5483180763315045
-0.5097712344582626 -0.4481302362301025
-0.45203035807807923 -0.3779987481591211
-0.42315991988798757 -0.34794239612870054
-0.3654190435078043 -0.3579611801388407
-0.3798542626028501 -0.3379236121185603
-0.40872470079294176 -0.3178860440982799
-0.3942894816978959 -0.25777334003743874
-0.3654190435078043 -0.27781090805771913
-0.3221133862226668 -0.3178860440982799
-0.30767816712762097 -0.3779987481591211
-0.3654190435078043 -0.3880175321692613
-0.3798542626028501 -0.32790482810842014
-0.33654860531771263 -0.2677921240475789
-0.22106685255734604 -0.24775455602729854
-0.17776119527220854 -0.32790482810842014
-0.2066316334623002 -0.3779987481591211
-0.2788077289375293 -0.4080551001895417
-0.33654860531771263 -0.4180738841996819
-0.35098382441275844 -0.3579611801388407
-0.30767816712762097 -0.3178860440982799
-0.24993729074743767 -0.2878296920678593
-0.2788077289375293 -0.2677921240475789
-0.30767816712762097 -0.24775455602729854
-0.3654190435078043 -0.27781090805771913
-0.46646557717312503 -0.22771698800701812
-0.5675121108384459 -0.19766063597659753
-0.7407347399789957 -0.15758549993603674
-0.7984756163591791 -0.20767941998673772
-0.7696051781690874 -0.5883932123720653
-0.6829938635988124 -1.269670525061599
-0.5097712344582626 -1.9509478377511325
-0.35098382441275844 -2.6723002864812266
-0.2066316334623002 -3.443746655262022
-0.13445553798707108 -4.215193024042818
-0.0911498807019336 -4.816320064651229
-0.07671466160688777 -5.156958720995997
-0.004538566131658644 -5.267165345107538
0.1398136248187996 -5.287202913127818
0.5006941021949453 -5.2371089930771175
0.8904450177611826 -5.006676960843893
1.3235015906125573 -4.445625056276042
1.684382067988703 -3.34355881516062
1.8864751353193445 -2.071173245872815
1.843169478034207 -0.9590882207472526
1.684382067988703 -0.4481302362301025
1.3956776860877864 -0.2677921240475789
0.9626211132364116 -0.17762306795631713
0.601740635860266 -0.16760428394617694
0.32747147305439533 -0.14756671592589654
0.15424884391384544 -0.07743522785491513
0.03876709115347883 0.032771396256627054
-0.07671466160688777 0.08286531630732805
-0.17776119527220854 0.12294045234788885
-0.17776119527220854 0.11292166833774865
-0.1488907570821169 0.16301558838844965
-0.10558509979697943 0.22312829244929083
-0.03340900432175029 0.3032785645304124
0.009896652963387181 0.3032785645304124
0.009896652963387181 0.23314707645943103
-0.047844223416796124 0.12294045234788885
-0.07671466160688777 0.12294045234788885
-0.13445553798707108 0.17303437239858985
-0.10558509979697943 0.21310950843915064
-0.07671466160688777 0.22312829244929083
-0.047844223416796124 0.25318464447971145
-0.018973785226704468 0.25318464447971145
-0.018973785226704468 0.29325978052027224
0.053202310248524655 0.283240996510132
0.053202310248524655 0.3032785645304124
0.009896652963387181 0.283240996510132
-0.047844223416796124 0.27322221249999185
-0.03340900432175029 0.29325978052027224
-0.018973785226704468 0.33333491656083303
-0.03340900432175029 0.3533724845811134
0.024331872058433006 0.33333491656083303
0.053202310248524655 0.34335370057097325
0.053202310248524655 0.33333491656083303
0.024331872058433006 0.31329734854055263
-0.018973785226704468 0.34335370057097325
0.06763752934357048 0.3533724845811134
0.15424884391384544 0.32331613255069286
0.1398136248187996 0.283240996510132
0.15424884391384544 0.283240996510132
0.15424884391384544 0.34335370057097325
0.1398136248187996 0.3934476206216742
0.12537840572375378 0.4435415406723752
0.11094318662870796 0.4435415406723752
0.053202310248524655 0.4134851886419546
0.024331872058433006 0.3934476206216742
-0.018973785226704468 0.3934476206216742
-0.004538566131658644 0.38342883661153404
0.009896652963387181 0.3734100526013938
0.15424884391384544 0.36339126859125365
0.21198972029402874 0.38342883661153404
0.21198972029402874 0.3734100526013938
0.22642493938907457 0.3734100526013938
0.28416581576925787 0.3934476206216742
0.29860103486430367 0.3934476206216742
0.29860103486430367 0.33333491656083303
0.28416581576925787 0.31329734854055263
0.22642493938907457 0.32331613255069286
0.1975545011989829 0.34335370057097325
0.22642493938907457 0.40346640463181443
0.2408601584841204 0.3934476206216742
0.26973059667421206 0.36339126859125365
0.29860103486430367 0.283240996510132
0.28416581576925787 0.21310950843915064
0.28416581576925787 0.17303437239858985
0.31303625395934953 0.20309072442901044
0.41408278762467027 0.24316586046957123
0.4573884449098078 0.3032785645304124
0.4285180067197161 0.3032785645304124
0.4285180067197161 0.2632034284898516
0.3707771303395328 0.16301558838844965
0.3707771303395328 0.11292166833774865
0.4285180067197161 0.11292166833774865
0.5295645403850369 0.06282774828704765
0.601740635860266 0.012733828236346657
0.7172223886206326 -0.03736009181435434
0.7172223886206326 -0.06741644384477494
0.6450462931454035 -0.06741644384477494
0.5439997594800827 -0.06741644384477494
0.5006941021949453 -0.07743522785491513
0.4285180067197161 -0.08745401186505533
0.356341911244487 -0.13754793191575634
0.41408278762467027 -0.15758549993603674
0.5151293212899911 -0.13754793191575634
0.6306110740503577 -0.15758549993603674
0.7460928268107243 -0.17762306795631713
0.7893984840958618 -0.22771698800701812
0.7605280459057701 -0.27781090805771913
0.7172223886206326 -0.27781090805771913
0.6594815122404494 -0.24775455602729854
0.6161758549553118 -0.23773577201715831
0.6161758549553118 -0.27781090805771913
0.601740635860266 -0.2878296920678593
0.5873054167652202 -0.27781090805771913
0.5151293212899911 -0.27781090805771913
0.4718236640048536 -0.32790482810842014
0.4718236640048536 -0.30786726008813975
0.5006941021949453 -0.34794239612870054
0.4285180067197161 -0.3880175321692613
0.3707771303395328 -0.3880175321692613
0.21198972029402874 -0.3880175321692613
0.15424884391384544 -0.3178860440982799
0.11094318662870796 -0.27781090805771913
0.12537840572375378 -0.20767941998673772
0.12537840572375378 -0.24775455602729854
0.12537840572375378 -0.30786726008813975
0.15424884391384544 -0.3379236121185603
0.2408601584841204 -0.34794239612870054
0.2552953775791662 -0.32790482810842014
0.32747147305439533 -0.3579611801388407
0.16868406300889127 -0.3579611801388407
0.053202310248524655 -0.3579611801388407
-0.0911498807019336 -0.2878296920678593
-0.12002031889202525 -0.22771698800701812
-0.047844223416796124 -0.21769820399687792
0.03876709115347883 -0.25777334003743874
0.053202310248524655 -0.3379236121185603
-0.03340900432175029 -0.3880175321692613
-0.0911498807019336 -0.4080551001895417
-0.1633259761771627 -0.2978484760779995
-0.22106685255734604 -0.2677921240475789
-0.22106685255734604 -0.21769820399687792
-0.23550207165239184 -0.21769820399687792
-0.30767816712762097 -0.20767941998673772
-0.2643725098424835 -0.21769820399687792
-0.24993729074743767 -0.19766063597659753
-0.23550207165239184 -0.21769820399687792
-0.23550207165239184 -0.21769820399687792
-0.24993729074743767 -0.23773577201715831
-0.2788077289375293 -0.24775455602729854
-0.29324294803257517 -0.22771698800701812
-0.23550207165239184 -0.18764185196645733
-0.22106685255734604 -0.18764185196645733
-0.2066316334623002 -0.15758549993603674
-0.24993729074743767 -0.19766063597659753
-0.29324294803257517 -0.22771698800701812
-0.33654860531771263 -0.19766063597659753
-0.33654860531771263 -0.14756671592589654
-0.2788077289375293 -0.06741644384477494
-0.1633259761771627 -0.007303739783933743
-0.1488907570821169 -0.06741644384477494
-0.1488907570821169 -0.12752914790561615
-0.19219641436725438 -0.13754793191575634
-0.24993729074743767 -0.11751036389547594
-0.19219641436725438 -0.12752914790561615
-0.17776119527220854 -0.18764185196645733
-0.1633259761771627 -0.19766063597659753
-0.29324294803257517 -0.16760428394617694
-0.3654190435078043 -0.11751036389547594
-0.42315991988798757 -0.027341307804214142
-0.42315991988798757 0.04279018026676725
-0.4375951389830334 0.06282774828704765
-0.4809007962681709 0.002715044226206457
-0.5819473299334916 -0.05739765983463474
-0.6252529872186291 -0.06741644384477494
-0.6541234254087208 -0.09747279587519554
-0.6829938635988124 -0.10749157988533574
-0.6541234254087208 -0.07743522785491513
-0.5530768917434 -0.06741644384477494
-0.5386416726483542 -0.07743522785491513
-0.5819473299334916 -0.08745401186505533
-0.5386416726483542 -0.08745401186505533
-0.4953360153632167 -0.06741644384477494
-0.4953360153632167 -0.05739765983463474
-0.5386416726483542 -0.13754793191575634
-0.5242064535533083 -0.14756671592589654
-0.5242064535533083 -0.14756671592589654
-0.4953360153632167 -0.11751036389547594
-0.40872470079294176 -0.09747279587519554
-0.4375951389830334 -0.10749157988533574
-0.45203035807807923 -0.12752914790561615
-0.46646557717312503 -0.14756671592589654
-0.5242064535533083 -0.15758549993603674
-0.5242064535533083 -0.15758549993603674
-0.4809007962681709 -0.13754793191575634
-0.40872470079294176 -0.12752914790561615
-0.3798542626028501 -0.16760428394617694
-0.3654190435078043 -0.19766063597659753
-0.40872470079294176 -0.21769820399687792
-0.40872470079294176 -0.16760428394617694
-0.3654190435078043 -0.15758549993603674
-0.3654190435078043 -0.14756671592589654
-0.33654860531771263 -0.14756671592589654
-0.3798542626028501 -0.17762306795631713
-0.3942894816978959 -0.18764185196645733
-0.35098382441275844 -0.19766063597659753
-0.33654860531771263 -0.18764185196645733
-0.24993729074743767 -0.18764185196645733
-0.22106685255734604 -0.18764185196645733
-0.2066316334623002 -0.17762306795631713
-0.3221133862226668 -0.19766063597659753
-0.2788077289375293 -0.18764185196645733
-0.2788077289375293 -0.16760428394617694
-0.2643725098424835 -0.16760428394617694
-0.23550207165239184 -0.20767941998673772
-0.23550207165239184 -0.25777334003743874
-0.2643725098424835 -0.25777334003743874
-0.22106685255734604 -0.21769820399687792
-0.2066316334623002 -0.17762306795631713
-0.12002031889202525 -0.16760428394617694
-0.1633259761771627 -0.15758549993603674
-0.2643725098424835 -0.23773577201715831
-0.3654190435078043 -0.3178860440982799
-0.3798542626028501 -0.27781090805771913
-0.3221133862226668 -0.23773577201715831
-0.1633259761771627 -0.21769820399687792
-0.0911498807019336 -0.18764185196645733
-0.047844223416796124 -0.14756671592589654
-0.10558509979697943 -0.13754793191575634
-0.06227944251184195 -0.11751036389547594
-0.12002031889202525 -0.03736009181435434
-0.10558509979697943 -0.007303739783933743
-0.12002031889202525 -0.01732252379407394
-0.13445553798707108 -0.04737887582449454
-0.12002031889202525 -0.06741644384477494
-0.06227944251184195 -0.027341307804214142
0.009896652963387181 0.002715044226206457
0.009896652963387181 0.002715044226206457
-0.03340900432175029 -0.007303739783933743
-0.07671466160688777 -0.05739765983463474
-0.1633259761771627 -0.10749157988533574
-0.2066316334623002 -0.18764185196645733
-0.19219641436725438 -0.2978484760779995
-0.12002031889202525 -0.3779987481591211
-0.1488907570821169 -0.4481302362301025
-0.12002031889202525 -0.4882053722706633
-0.06227944251184195 -0.4882053722706633
-0.07671466160688777 -0.4681678042503829
-0.10558509979697943 -0.45814902024024273
-0.1633259761771627 -0.4681678042503829
-0.3221133862226668 -0.4882053722706633
-0.4375951389830334 -0.4781865882605231
-0.4953360153632167 -0.5082429402909437
-0.46646557717312503 -0.5082429402909437
-0.40872470079294176 -0.5082429402909437
-0.33654860531771263 -0.5182617243010839
-0.3221133862226668 -0.5883932123720653
-0.35098382441275844 -0.6284683484126261
-0.3798542626028501 -0.6785622684633271
-0.42315991988798757 -0.6384871324227663
-0.40872470079294176 -0.6184495644024859
-0.45203035807807923 -0.6384871324227663
-0.45203035807807923 -0.6084307803923457
-0.4809007962681709 -0.6485059164329064
-0.5386416726483542 -0.6485059164329064
-0.5386416726483542 -0.6585247004430467
-0.5242064535533083 -0.6685434844531869
-0.5097712344582626 -0.6384871324227663
-0.45203035807807923 -0.6184495644024859
-0.45203035807807923 -0.6284683484126261
-0.46646557717312503 -0.6384871324227663
-0.40872470079294176 -0.6284683484126261
-0.35098382441275844 -0.6284683484126261
-0.2643725098424835 -0.5783744283619251
-0.2066316334623002 -0.5984119963822055
-0.23550207165239184 -0.6084307803923457
-0.23550207165239184 -0.5984119963822055
-0.2066316334623002 -0.5683556443517849
-0.17776119527220854 -0.5082429402909437
-0.1633259761771627 -0.4982241562808035
-0.2066316334623002 -0.45814902024024273
-0.23550207165239184 -0.4681678042503829
-0.2788077289375293 -0.4180738841996819
-0.2788077289375293 -0.3379236121185603
-0.22106685255734604 -0.2978484760779995
-0.17776119527220854 -0.2677921240475789
-0.1488907570821169 -0.25777334003743874
-0.2066316334623002 -0.2878296920678593
-0.22106685255734604 -0.3178860440982799
-0.22106685255734604 -0.2978484760779995
-0.13445553798707108 -0.27781090805771913
-0.12002031889202525 -0.2677921240475789
-0.0911498807019336 -0.24775455602729854
-0.0911498807019336 -0.22771698800701812
-0.13445553798707108 -0.25777334003743874
-0.0911498807019336 -0.25777334003743874
-0.03340900432175029 -0.2878296920678593
-0.004538566131658644 -0.30786726008813975
0.024331872058433006 -0.3178860440982799
-0.03340900432175029 -0.3779987481591211
-0.07671466160688777 -0.3178860440982799
-0.10558509979697943 -0.23773577201715831
-0.12002031889202525 -0.21769820399687792
-0.12002031889202525 -0.21769820399687792
-0.1633259761771627 -0.20767941998673772
-0.19219641436725438 -0.18764185196645733
-0.3221133862226668 -0.19766063597659753
-0.40872470079294176 -0.18764185196645733
-0.4953360153632167 -0.15758549993603674
-0.5530768917434 -0.15758549993603674
-0.5530768917434 -0.3980363161794015
-0.5242064535533083 -1.0392384928283742
-0.4375951389830334 -1.730534589528048
-0.33654860531771263 -2.3917743341973012
-0.22106685255734604 -3.022957726836134
-0.12002031889202525 -3.6240847674445456
-0.018973785226704468 -4.175117888002257
-0.018973785226704468 -4.615944384448426
0.09650796753366213 -4.886451552722211
0.1975545011989829 -4.956583040793192
0.3707771303395328 -4.936545472772912
0.7027871695255868 -4.826338848661369
1.1358437423769616 -4.525775328357164
1.5544650961332904 -3.924648287748752
1.8576046971292528 -2.9227698867347316
1.9442160116995277 -1.7906472935888893
1.9153455735094362 -0.9490694367371125
1.8720399162242987 -0.4982241562808035
1.684382067988703 -0.2878296920678593
1.3379368097076032 -0.12752914790561615
0.9481858941413658 -0.01732252379407394
0.601740635860266 0.06282774828704765
0.39964756852962446 0.09288410031746826
0.2408601584841204 0.15299680437830945
0.12537840572375378 0.22312829244929083
-0.004538566131658644 0.24316586046957123
-0.004538566131658644 0.27322221249999185
0.009896652963387181 0.3032785645304124
0.009896652963387181 0.32331613255069286
0.06763752934357048 0.32331613255069286
0.11094318662870796 0.33333491656083303
0.08207274843861631 0.3533724845811134
0.03876709115347883 0.38342883661153404
0.03876709115347883 0.43352275666223505
0.053202310248524655 0.43352275666223505
0.06763752934357048 0.40346640463181443
0.08207274843861631 0.36339126859125365
0.06763752934357048 0.34335370057097325
0.11094318662870796 0.3533724845811134
0.12537840572375378 0.3934476206216742
0.11094318662870796 0.3934476206216742
0.1398136248187996 0.3934476206216742
0.16868406300889127 0.43352275666223505
0.1975545011989829 0.4635791086926556
0.22642493938907457 0.483616676712936
0.2552953775791662 0.483616676712936
0.31303625395934953 0.483616676712936
0.38521234943457866 0.45356032468251545
0.356341911244487 0.3934476206216742
0.2552953775791662 0.4134851886419546
0.11094318662870796 0.3934476206216742
0.009896652963387181 0.4134851886419546
-0.018973785226704468 0.4435415406723752
-0.018973785226704468 0.5036542447332164
0.024331872058433006 0.5136730287433566
0.08207274843861631 0.533710596763637
0.08207274843861631 0.5136730287433566
0.1398136248187996 0.49363546072307624
0.1398136248187996 0.5236918127534969
0.12537840572375378 0.5136730287433566
0.1398136248187996 0.5236918127534969
0.1398136248187996 0.533710596763637
0.12537840572375378 0.5437293807737772
0.21198972029402874 0.5737857328041979
0.22642493938907457 0.6138608688447587
0.28416581576925787 0.6138608688447587
0.29860103486430367 0.5637669487940576
0.26973059667421206 0.533710596763637
0.21198972029402874 0.5236918127534969
0.2552953775791662 0.533710596763637
0.29860103486430367 0.583804516814338
0.356341911244487 0.5537481647839174
0.32747147305439533 0.5136730287433566
0.3707771303395328 0.5036542447332164
0.3419066921494412 0.483616676712936
0.4285180067197161 0.5236918127534969
0.5006941021949453 0.5236918127534969
0.5439997594800827 0.47359789270279584
0.5151293212899911 0.483616676712936
0.44295322581476193 0.5036542447332164
0.4285180067197161 0.5036542447332164
0.4285180067197161 0.5136730287433566
0.44295322581476193 0.5236918127534969
0.5006941021949453 0.49363546072307624
0.5151293212899911 0.43352275666223505
0.5295645403850369 0.4134851886419546
0.5006941021949453 0.36339126859125365
0.5295645403850369 0.36339126859125365
0.5439997594800827 0.3934476206216742
0.5873054167652202 0.38342883661153404
0.601740635860266 0.3533724845811134
0.5728701976701743 0.25318464447971145
0.5728701976701743 0.18305315640873004
0.601740635860266 0.16301558838844965
0.6306110740503577 0.15299680437830945
0.6306110740503577 0.13295923635802906
0.6450462931454035 0.10290288432760845
0.6306110740503577 0.06282774828704765
0.6161758549553118 0.04279018026676725
0.6161758549553118 0.07284653229718785
0.688351950430541 0.022752612246486857
0.7027871695255868 -0.027341307804214142
0.688351950430541 -0.01732252379407394
0.6739167313354951 -0.007303739783933743
0.601740635860266 -0.027341307804214142
0.5873054167652202 -0.05739765983463474
0.6161758549553118 -0.08745401186505533
0.601740635860266 -0.10749157988533574
0.6161758549553118 -0.10749157988533574
0.5584349785751286 -0.10749157988533574
0.5006941021949453 -0.15758549993603674
0.44295322581476193 -0.14756671592589654
0.4285180067197161 -0.16760428394617694
0.44295322581476193 -0.16760428394617694
0.39964756852962446 -0.16760428394617694
0.3707771303395328 -0.12752914790561615
0.32747147305439533 -0.12752914790561615
0.32747147305439533 -0.12752914790561615
0.29860103486430367 -0.12752914790561615
0.29860103486430367 -0.11751036389547594
0.2552953775791662 -0.14756671592589654
0.1975545011989829 -0.13754793191575634
0.16868406300889127 -0.13754793191575634
0.15424884391384544 -0.09747279587519554
0.18311928210393708 -0.01732252379407394
0.21198972029402874 0.022752612246486857
0.21198972029402874 -0.07743522785491513
0.12537840572375378 -0.14756671592589654
0.03876709115347883 -0.16760428394617694
0.03876709115347883 -0.14756671592589654
0.009896652963387181 -0.15758549993603674
0.024331872058433006 -0.10749157988533574
-0.004538566131658644 -0.11751036389547594
-0.004538566131658644 -0.07743522785491513
-0.018973785226704468 -0.05739765983463474
-0.03340900432175029 -0.03736009181435434
-0.018973785226704468 -0.027341307804214142
-0.03340900432175029 -0.01732252379407394
-0.10558509979697943 -0.06741644384477494
-0.10558509979697943 -0.11751036389547594
-0.19219641436725438 -0.11751036389547594
-0.1488907570821169 -0.027341307804214142
-0.12002031889202525 0.032771396256627054
-0.12002031889202525 0.032771396256627054
-0.0911498807019336 0.052808964276907455
-0.13445553798707108 0.032771396256627054
-0.19219641436725438 0.022752612246486857
-0.2066316334623002 0.022752612246486857
-0.22106685255734604 0.032771396256627054
-0.17776119527220854 -0.007303739783933743
-0.23550207165239184 -0.007303739783933743
-0.19219641436725438 0.002715044226206457
-0.17776119527220854 0.002715044226206457
-0.1488907570821169 0.012733828236346657
-0.13445553798707108 0.08286531630732805
-0.1488907570821169 0.08286531630732805
-0.17776119527220854 0.09288410031746826
-0.23550207165239184 0.06282774828704765
-0.33654860531771263 0.07284653229718785
-0.30767816712762097 0.13295923635802906
-0.2643725098424835 0.15299680437830945
-0.17776119527220854 0.18305315640873004
-0.1633259761771627 0.15299680437830945
-0.1633259761771627 0.14297802036816926
-0.2066316334623002 0.07284653229718785
-0.2066316334623002 0.032771396256627054
-0.23550207165239184 0.052808964276907455
-0.23550207165239184 0.052808964276907455
-0.2643725098424835 0.032771396256627054
-0.29324294803257517 0.032771396256627054
-0.33654860531771263 0.09288410031746826
-0.3221133862226668 0.11292166833774865
-0.23550207165239184 0.13295923635802906
-0.2066316334623002 0.14297802036816926
-0.2066316334623002 0.09288410031746826
-0.2788077289375293 0.04279018026676725
-0.35098382441275844 0.052808964276907455
-0.35098382441275844 0.052808964276907455
-0.35098382441275844 0.032771396256627054
-0.3221133862226668 0.012733828236346657
-0.33654860531771263 -0.01732252379407394
-0.35098382441275844 -0.03736009181435434
-0.3654190435078043 0.002715044226206457
-0.29324294803257517 0.032771396256627054
-0.24993729074743767 0.032771396256627054
-0.23550207165239184 0.032771396256627054
-0.29324294803257517 0.022752612246486857
-0.35098382441275844 -0.01732252379407394
-0.3942894816978959 -0.04737887582449454
-0.40872470079294176 -0.007303739783933743
-0.3654190435078043 0.002715044226206457
-0.35098382441275844 -0.03736009181435434
-0.3654190435078043 -0.16760428394617694
-0.4375951389830334 -0.43811145221996234
-0.5530768917434 -0.6384871324227663
-0.6108177681235833 -0.7987876765850095
-0.5819473299334916 -0.9290318687168321
-0.46646557717312503 -1.0592760608486547
-0.40872470079294176 -1.2997268770920194
-0.2066316334623002 -1.5101213413049637
-0.004538566131658644 -1.7205158055179077
0.3419066921494412 -1.930910269730852
0.688351950430541 -2.071173245872815
0.8904450177611826 -2.2114362220147776
1.005926770521549 -2.4017931182074412
1.1502789614720075 -2.7223942065319275
1.3956776860877864 -3.103107998917255
1.7854286016540237 -3.34355881516062
2.3195317081707194 -3.4036715192214615
2.824764376497323 -3.2533897590693583
3.2289505111586063 -2.942807454755012
3.5465253312496143 -2.5420560943494044
3.7774888367703476 -2.191398653994497
4.037322780481173 -1.9208914857207118
4.282721505096951 -1.5501964773455243
4.5858611060929135 -1.0893324128790753
4.831259830708693 -0.5984119963822055
5.105528993514564 -0.05739765983463474
5.336492499035296 0.4134851886419546
5.697372976411442 0.8042177650374224
5.986077358312359 1.1548752053923295
6.1737352065479545 1.4253823736661149
6.231476082928138 1.5255702137675167
6.144864768357863 1.385307237625554
5.8561603864569465 1.2450442614835913
5.480844689985755 1.2751006135140117
4.990047240754197 1.3953260216356942
4.412638476952364 1.385307237625554
3.748618398580256 1.2250066934633108
2.997987005637873 0.9544995251895254
2.24735561269549 0.68399235691574
1.6122059725134739 0.5537481647839174
1.092538085091824 0.47359789270279584
0.7460928268107243 0.3934476206216742
0.39964756852962446 0.29325978052027224
0.06763752934357048 0.23314707645943103
-0.2066316334623002 0.15299680437830945
-0.35098382441275844 0.11292166833774865
-0.5530768917434 0.04279018026676725
-0.7984756163591791 -0.01732252379407394
-0.9716982454997289 -0.05739765983463474
-1.1449208746402788 -0.11751036389547594
-1.2459674083055996 -0.16760428394617694
-1.2459674083055996 -0.20767941998673772
-1.2459674083055996 -0.19766063597659753
-1.2459674083055996 -0.20767941998673772
-1.2604026274006455 -0.18764185196645733
-1.3181435037808287 -0.17762306795631713
-1.390319599256058 -0.18764185196645733
-1.375884380161012 -0.19766063597659753
-1.3614491610659663 -0.24775455602729854
-1.375884380161012 -0.2978484760779995
-1.4191900374461495 -0.3379236121185603
-1.4913661329213788 -0.3779987481591211
-1.5202365711114703 -0.3980363161794015
-1.5202365711114703 -0.36797996414898093
-1.4913661329213788 -0.3379236121185603
-1.4191900374461495 -0.34794239612870054
-1.4336252565411953 -0.3779987481591211
-1.4913661329213788 -0.3779987481591211
-1.5202365711114703 -0.3980363161794015
-1.5779774474916537 -0.3379236121185603
-1.5924126665866993 -0.3379236121185603
-1.5346717902065161 -0.30786726008813975
-1.5635422283966078 -0.32790482810842014
-1.5635422283966078 -0.3379236121185603
-1.5924126665866993 -0.3379236121185603
-1.5635422283966078 -0.30786726008813975
-1.5635422283966078 -0.27781090805771913
-1.5058013520164244 -0.2878296920678593
-1.5058013520164244 -0.2878296920678593
-1.549107009301562 -0.2878296920678593
-1.5635422283966078 -0.27781090805771913
-1.5779774474916537 -0.20767941998673772
-1.5635422283966078 -0.13754793191575634
-1.549107009301562 -0.09747279587519554
-1.5635422283966078 -0.07743522785491513
-1.5635422283966078 -0.07743522785491513
-1.6068478856817452 -0.09747279587519554
-1.6068478856817452 -0.06741644384477494
-1.621283104776791 -0.08745401186505533
-1.6068478856817452 -0.09747279587519554
-1.621283104776791 -0.13754793191575634
-1.635718323871837 -0.18764185196645733
-1.6501535429668828 -0.23773577201715831
-1.621283104776791 -0.22771698800701812
-1.5635422283966078 -0.22771698800701812
-1.549107009301562 -0.24775455602729854
-1.621283104776791 -0.2878296920678593
-1.621283104776791 -0.34794239612870054
-1.707894419347066 -0.34794239612870054
-1.7367648575371577 -0.3579611801388407
-1.7223296384421118 -0.3579611801388407
-1.635718323871837 -0.3579611801388407
-1.6790239811569745 -0.3579611801388407
-1.6790239811569745 -0.43811145221996234
-1.6934592002520201 -0.4681678042503829
-1.6645887620619286 -0.5282805083112241
-1.6068478856817452 -0.5683556443517849
-1.5924126665866993 -0.6084307803923457
-1.6068478856817452 -0.6485059164329064
-1.621283104776791 -0.6685434844531869
-1.6934592002520201 -0.6585247004430467
-1.7223296384421118 -0.6485059164329064
-1.6790239811569745 -0.6485059164329064
-1.6645887620619286 -0.6785622684633271
-1.6501535429668828 -0.6785622684633271
-1.6645887620619286 -0.7186374045038879
-1.6790239811569745 -0.7687313245545889
-1.707894419347066 -0.7687313245545889
-1.6068478856817452 -0.7587125405444487
-1.5924126665866993 -0.7486937565343085
-1.5635422283966078 -0.7687313245545889
-1.549107009301562 -0.778750108564729
-1.5202365711114703 -0.7987876765850095
-1.476930913826333 -0.7386749725241682
-1.390319599256058 -0.7086186204937477
-1.3325787228758745 -0.6985998364836075
-1.2892730655907372 -0.7386749725241682
-1.3181435037808287 -0.7987876765850095
-1.3470139419709204 -0.8088064605951497
-1.3470139419709204 -0.82884402861543
-1.3325787228758745 -0.8088064605951497
-1.3181435037808287 -0.7687313245545889
-1.2892730655907372 -0.7186374045038879
-1.303708284685783 -0.6985998364836075
-1.2892730655907372 -0.6985998364836075
-1.2604026274006455 -0.6485059164329064
-1.2170969701155079 -0.6485059164329064
-1.1737913128303705 -0.6184495644024859
-1.1593560937353247 -0.6184495644024859
-1.1593560937353247 -0.6184495644024859
-1.2026617510204622 -0.5583368603416448
-1.1593560937353247 -0.5082429402909437
-1.1016152173551415 -0.4481302362301025
-1.043874340974958 -0.3880175321692613
-1.0294391218799122 -0.4180738841996819
-0.9572630264046831 -0.4280926682098221
-0.9283925882145915 -0.4080551001895417
-0.8706517118344081 -0.2978484760779995
-0.8129108354542248 -0.21769820399687792
-0.7262995208839499 -0.15758549993603674
-0.7118643017889041 -0.14756671592589654
-0.6685586445037666 -0.14756671592589654
-0.6541234254087208 -0.11751036389547594
-0.5819473299334916 0.002715044226206457
-0.4953360153632167 0.04279018026676725
-0.4809007962681709 0.08286531630732805
-0.46646557717312503 0.08286531630732805
-0.42315991988798757 0.10290288432760845
-0.45203035807807923 0.10290288432760845
-0.3798542626028501 0.13295923635802906
-0.3221133862226668 0.19307194041887024
-0.3221133862226668 0.24316586046957123
-0.33654860531771263 0.24316586046957123
-0.3654190435078043 0.22312829244929083
-0.40872470079294176 0.23314707645943103
-0.4375951389830334 0.283240996510132
-0.3942894816978959 0.3032785645304124
-0.3654190435078043 0.29325978052027224
-0.33654860531771263 0.3032785645304124
-0.35098382441275844 0.3032785645304124
-0.33654860531771263 0.27322221249999185
-0.30767816712762097 0.29325978052027224
-0.2643725098424835 0.283240996510132
-0.22106685255734604 0.283240996510132
-0.2066316334623002 0.283240996510132
-0.2066316334623002 0.25318464447971145
-0.2788077289375293 0.22312829244929083
-0.22106685255734604 0.2632034284898516
-0.1633259761771627 0.29325978052027224
-0.17776119527220854 0.3032785645304124
-0.17776119527220854 0.283240996510132
-0.30767816712762097 0.21310950843915064
-0.30767816712762097 0.19307194041887024
-0.33654860531771263 0.22312829244929083
-0.2788077289375293 0.24316586046957123
-0.2788077289375293 0.23314707645943103
-0.2643725098424835 0.21310950843915064
-0.3221133862226668 0.17303437239858985
-0.35098382441275844 0.15299680437830945
-0.3654190435078043 0.15299680437830945
-0.2788077289375293 0.16301558838844965
-0.2066316334623002 0.18305315640873004
-0.19219641436725438 0.18305315640873004
-0.17776119527220854 0.16301558838844965
-0.19219641436725438 0.15299680437830945
-0.19219641436725438 0.18305315640873004
-0.17776119527220854 0.18305315640873004
-0.1488907570821169 0.15299680437830945
-0.19219641436725438 0.13295923635802906
-0.24993729074743767 0.09288410031746826
-0.22106685255734604 0.08286531630732805
-0.22106685255734604 0.12294045234788885
-0.1488907570821169 0.15299680437830945
-0.10558509979697943 0.14297802036816926
-0.1488907570821169 0.13295923635802906
-0.2066316334623002 0.11292166833774865
-0.24993729074743767 0.10290288432760845
-0.29324294803257517 0.09288410031746826
-0.23550207165239184 0.12294045234788885
-0.2066316334623002 0.10290288432760845
-0.22106685255734604 0.10290288432760845
-0.19219641436725438 0.07284653229718785
-0.2066316334623002 0.07284653229718785
-0.10558509979697943 0.07284653229718785
-0.06227944251184195 0.10290288432760845
-0.07671466160688777 0.12294045234788885
-0.06227944251184195 0.11292166833774865
-0.1488907570821169 0.04279018026676725
-0.22106685255734604 0.052808964276907455
-0.23550207165239184 0.052808964276907455
-0.2066316334623002 0.04279018026676725
-0.1488907570821169 0.04279018026676725
-0.1488907570821169 0.052808964276907455
-0.13445553798707108 0.06282774828704765
-0.17776119527220854 0.07284653229718785
-0.1488907570821169 0.11292166833774865
-0.1633259761771627 0.16301558838844965
-0.1633259761771627 0.11292166833774865
-0.1633259761771627 0.06282774828704765
-0.2066316334623002 0.012733828236346657
-0.17776119527220854 0.012733828236346657
-0.1488907570821169 0.04279018026676725
-0.06227944251184195 0.09288410031746826
-0.03340900432175029 0.09288410031746826
-0.018973785226704468 0.08286531630732805
-0.06227944251184195 0.032771396256627054
-0.12002031889202525 0.002715044226206457
-0.0911498807019336 0.032771396256627054
-0.13445553798707108 0.04279018026676725
-0.12002031889202525 0.06282774828704765
-0.13445553798707108 0.052808964276907455
-0.1488907570821169 0.06282774828704765
-0.0911498807019336 0.04279018026676725
-0.06227944251184195 0.07284653229718785
-0.03340900432175029 0.07284653229718785
-0.03340900432175029 0.052808964276907455
0.009896652963387181 0.022752612246486857
-0.047844223416796124 0.002715044226206457
-0.07671466160688777 0.032771396256627054
-0.12002031889202525 0.08286531630732805
-0.06227944251184195 0.11292166833774865
0.08207274843861631 0.06282774828704765
0.09650796753366213 0.022752612246486857
0.06763752934357048 0.002715044226206457
-0.018973785226704468 0.002715044226206457
-0.07671466160688777 0.04279018026676725
-0.17776119527220854 0.07284653229718785
-0.19219641436725438 0.052808964276907455
-0.2066316334623002 0.032771396256627054
-0.24993729074743767 -0.007303739783933743
-0.23550207165239184 0.002715044226206457
-0.17776119527220854 -0.007303739783933743
-0.1633259761771627 0.002715044226206457
-0.10558509979697943 0.012733828236346657
-0.06227944251184195 -0.007303739783933743
-0.10558509979697943 0.002715044226206457
-0.12002031889202525 -0.007303739783933743
-0.1633259761771627 0.012733828236346657
-0.13445553798707108 0.022752612246486857
-0.13445553798707108 -0.007303739783933743
-0.17776119527220854 -0.04737887582449454
-0.1633259761771627 -0.05739765983463474
-0.19219641436725438 -0.027341307804214142
-0.12002031889202525 0.002715044226206457
-0.10558509979697943 -0.01732252379407394
-0.06227944251184195 -0.04737887582449454
-0.004538566131658644 -0.05739765983463474
0.009896652963387181 -0.08745401186505533
0.024331872058433006 -0.05739765983463474
0.06763752934357048 0.022752612246486857
0.053202310248524655 0.07284653229718785
0.11094318662870796 0.052808964276907455
0.11094318662870796 0.032771396256627054
0.03876709115347883 -0.007303739783933743
-0.018973785226704468 -0.027341307804214142
-0.047844223416796124 -0.04737887582449454
-0.047844223416796124 -0.05739765983463474
-0.06227944251184195 -0.05739765983463474
-0.047844223416796124 -0.05739765983463474
-0.03340900432175029 -0.04737887582449454
-0.018973785226704468 -0.01732252379407394
-0.047844223416796124 0.022752612246486857
-0.0911498807019336 0.10290288432760845
-0.0911498807019336 0.16301558838844965
-0.1633259761771627 0.10290288432760845
-0.2066316334623002 -0.01732252379407394
-0.19219641436725438 -0.10749157988533574
-0.10558509979697943 -0.11751036389547594
-0.004538566131658644 -0.05739765983463474
0.009896652963387181 -0.01732252379407394
0.024331872058433006 0.022752612246486857
0.024331872058433006 0.052808964276907455
-0.03340900432175029 0.002715044226206457
-0.12002031889202525 -0.01732252379407394
-0.0911498807019336 -0.03736009181435434
-0.06227944251184195 -0.07743522785491513
-0.0911498807019336 -0.09747279587519554
-0.12002031889202525 -0.06741644384477494
-0.13445553798707108 -0.07743522785491513
-0.12002031889202525 -0.03736009181435434
-0.0911498807019336 0.012733828236346657
-0.06227944251184195 0.012733828236346657
-0.07671466160688777 -0.01732252379407394
-0.06227944251184195 -0.07743522785491513
-0.018973785226704468 -0.14756671592589654
0.024331872058433006 -0.11751036389547594
0.11094318662870796 -0.07743522785491513
0.1398136248187996 -0.05739765983463474
0.08207274843861631 -0.01732252379407394
-0.0911498807019336 0.012733828236346657
-0.2066316334623002 0.04279018026676725
-0.30767816712762097 0.012733828236346657
-0.2788077289375293 -0.04737887582449454
-0.29324294803257517 -0.08745401186505533
-0.24993729074743767 -0.09747279587519554
-0.2066316334623002 -0.15758549993603674
-0.17776119527220854 -0.12752914790561615
-0.13445553798707108 -0.08745401186505533
-0.10558509979697943 -0.04737887582449454
-0.10558509979697943 -0.027341307804214142
-0.12002031889202525 0.012733828236346657
-0.1488907570821169 -0.01732252379407394
-0.17776119527220854 -0.01732252379407394
-0.17776119527220854 -0.027341307804214142
-0.1488907570821169 -0.04737887582449454
-0.06227944251184195 -0.07743522785491513
-0.06227944251184195 -0.12752914790561615
-0.047844223416796124 -0.17762306795631713
-0.0911498807019336 -0.16760428394617694
-0.12002031889202525 -0.09747279587519554
-0.13445553798707108 -0.05739765983463474
-0.12002031889202525 -0.027341307804214142
-0.1488907570821169 -0.03736009181435434
-0.2066316334623002 -0.06741644384477494
-0.19219641436725438 -0.06741644384477494
-0.13445553798707108 -0.05739765983463474
-0.13445553798707108 -0.06741644384477494
-0.06227944251184195 -0.04737887582449454
-0.004538566131658644 -0.03736009181435434
-0.018973785226704468 0.012733828236346657
-0.018973785226704468 0.012733828236346657
-0.018973785226704468 0.07284653229718785
0.009896652963387181 0.11292166833774865
0.024331872058433006 0.12294045234788885
0.03876709115347883 0.10290288432760845
0.053202310248524655 0.08286531630732805
0.03876709115347883 0.052808964276907455
0.03876709115347883 0.08286531630732805
0.053202310248524655 0.14297802036816926
0.053202310248524655 0.18305315640873004
0.03876709115347883 0.19307194041887024
-0.018973785226704468 0.17303437239858985
-0.06227944251184195 0.09288410031746826
-0.13445553798707108 -0.027341307804214142
-0.1488907570821169 -0.10749157988533574
-0.047844223416796124 -0.18764185196645733
-0.018973785226704468 -0.22771698800701812
0.009896652963387181 -0.2677921240475789
-0.03340900432175029 -0.3178860440982799
-0.12002031889202525 -0.3178860440982799
-0.17776119527220854 -0.2978484760779995
-0.22106685255734604 -0.2978484760779995
-0.23550207165239184 -0.3178860440982799
-0.22106685255734604 -0.3779987481591211
-0.22106685255734604 -0.3980363161794015
-0.19219641436725438 -0.3779987481591211
-0.19219641436725438 -0.3379236121185603
-0.17776119527220854 -0.32790482810842014
-0.22106685255734604 -0.3880175321692613
-0.33654860531771263 -0.45814902024024273
-0.3654190435078043 -0.5082429402909437
-0.3798542626028501 -0.4781865882605231
-0.30767816712762097 -0.45814902024024273
-0.23550207165239184 -0.4781865882605231
-0.17776119527220854 -0.5483180763315045
-0.2066316334623002 -0.5483180763315045
-0.33654860531771263 -0.5583368603416448
-0.45203035807807923 -0.4882053722706633
-0.4375951389830334 -0.4280926682098221
-0.3942894816978959 -0.4080551001895417
-0.30767816712762097 -0.3980363161794015
-0.24993729074743767 -0.36797996414898093
-0.24993729074743767 -0.3379236121185603
-0.22106685255734604 -0.3379236121185603
-0.19219641436725438 -0.3579611801388407
-0.12002031889202525 -0.34794239612870054
-0.0911498807019336 -0.3779987481591211
-0.10558509979697943 -0.3579611801388407
-0.1633259761771627 -0.32790482810842014
-0.17776119527220854 -0.24775455602729854
-0.17776119527220854 -0.18764185196645733
-0.22106685255734604 -0.13754793191575634
-0.23550207165239184 -0.10749157988533574
-0.24993729074743767 -0.10749157988533574
-0.2788077289375293 -0.11751036389547594
-0.2066316334623002 -0.11751036389547594
-0.1633259761771627 -0.08745401186505533
-0.047844223416796124 -0.06741644384477494
-0.03340900432175029 -0.07743522785491513
-0.004538566131658644 -0.06741644384477494
-0.047844223416796124 -0.05739765983463474
-0.047844223416796124 -0.01732252379407394
0.009896652963387181 0.002715044226206457
0.03876709115347883 0.012733828236346657
0.024331872058433006 -0.04737887582449454
-0.018973785226704468 -0.09747279587519554
-0.06227944251184195 -0.09747279587519554
-0.004538566131658644 -0.09747279587519554
0.009896652963387181 -0.08745401186505533
0.024331872058433006 -0.06741644384477494
0.08207274843861631 -0.06741644384477494
0.03876709115347883 -0.10749157988533574
-0.004538566131658644 -0.08745401186505533
-0.018973785226704468 -0.06741644384477494
-0.047844223416796124 -0.027341307804214142
-0.03340900432175029 -0.01732252379407394
-0.10558509979697943 -0.03736009181435434
-0.1488907570821169 -0.04737887582449454
-0.22106685255734604 -0.11751036389547594
-0.3221133862226668 -0.09747279587519554
-0.3798542626028501 -0.04737887582449454
-0.42315991988798757 -0.2677921240475789
-0.3654190435078043 -0.8989755166864115
-0.3221133862226668 -1.7505721575483284
-0.24993729074743767 -2.5520748783595444
-0.13445553798707108 -3.2533897590693583
0.03876709115347883 -3.894591935718331
0.2408601584841204 -4.515756544347023
0.29860103486430367 -4.986639392823613
0.3419066921494412 -5.2070526410466975
0.5006941021949453 -5.2070526410466975
0.7605280459057701 -5.056770880894594
1.2946311524224656 -4.676057088509267
1.7998638207490696 -3.84449801566763
2.088568202649986 -2.572112446379825
2.1318738599351237 -1.2997268770920194
1.9586512307945736 -0.4681678042503829
1.756558163463932 -0.18764185196645733
1.4678537815630155 -0.007303739783933743
1.1358437423769616 0.12294045234788885
0.8327041413809992 0.15299680437830945
0.5584349785751286 0.17303437239858985
0.3419066921494412 0.20309072442901044
0.1975545011989829 0.31329734854055263
0.15424884391384544 0.4134851886419546
0.1398136248187996 0.47359789270279584
0.12537840572375378 0.49363546072307624
0.09650796753366213 0.47359789270279584
0.03876709115347883 0.483616676712936
0.08207274843861631 0.5136730287433566
0.11094318662870796 0.533710596763637
0.16868406300889127 0.5136730287433566
0.15424884391384544 0.533710596763637
0.18311928210393708 0.5437293807737772
0.16868406300889127 0.5637669487940576
0.1975545011989829 0.5537481647839174
0.2552953775791662 0.583804516814338
0.28416581576925787 0.6038420848346184
0.29860103486430367 0.583804516814338
0.1975545011989829 0.583804516814338
0.15424884391384544 0.5938233008244782
0.2408601584841204 0.6138608688447587
0.2552953775791662 0.5938233008244782
0.29860103486430367 0.633898436865039
0.31303625395934953 0.6038420848346184
0.31303625395934953 0.583804516814338
0.29860103486430367 0.5737857328041979
0.38521234943457866 0.583804516814338
0.356341911244487 0.633898436865039
0.3707771303395328 0.6238796528548988
0.3419066921494412 0.6238796528548988
0.31303625395934953 0.5938233008244782
0.2552953775791662 0.5938233008244782
0.28416581576925787 0.6238796528548988
0.29860103486430367 0.6539360048853194
0.32747147305439533 0.6439172208751792
0.32747147305439533 0.6539360048853194
0.29860103486430367 0.5938233008244782
0.2408601584841204 0.5737857328041979
0.2408601584841204 0.5737857328041979
0.2408601584841204 0.6038420848346184
0.2552953775791662 0.5938233008244782
0.28416581576925787 0.5938233008244782
0.22642493938907457 0.5737857328041979
0.22642493938907457 0.5637669487940576
0.21198972029402874 0.5938233008244782
0.32747147305439533 0.6639547888954596
0.356341911244487 0.6439172208751792
0.356341911244487 0.583804516814338
0.32747147305439533 0.5437293807737772
0.28416581576925787 0.533710596763637
0.26973059667421206 0.5537481647839174
0.2552953775791662 0.583804516814338
0.29860103486430367 0.5938233008244782
0.3419066921494412 0.6038420848346184
0.356341911244487 0.6138608688447587
0.3707771303395328 0.583804516814338
0.39964756852962446 0.5437293807737772
0.44295322581476193 0.5136730287433566
0.4285180067197161 0.5136730287433566
0.41408278762467027 0.4635791086926556
0.4285180067197161 0.4435415406723752
0.41408278762467027 0.483616676712936
0.4862588830998994 0.47359789270279584
0.5439997594800827 0.5036542447332164
0.6161758549553118 0.4635791086926556
0.601740635860266 0.42350397265209483
0.5584349785751286 0.38342883661153404
0.5151293212899911 0.3934476206216742
0.4718236640048536 0.38342883661153404
0.5006941021949453 0.3934476206216742
0.5295645403850369 0.38342883661153404
0.5439997594800827 0.32331613255069286
0.5295645403850369 0.2632034284898516
0.5151293212899911 0.22312829244929083
0.5584349785751286 0.22312829244929083
0.5439997594800827 0.23314707645943103
0.6161758549553118 0.21310950843915064
0.6306110740503577 0.17303437239858985
0.6450462931454035 0.13295923635802906
0.6450462931454035 0.13295923635802906
0.6306110740503577 0.16301558838844965
0.6306110740503577 0.13295923635802906
0.688351950430541 0.11292166833774865
0.7027871695255868 0.11292166833774865
0.6306110740503577 0.032771396256627054
0.5584349785751286 -0.007303739783933743
0.5584349785751286 0.012733828236346657
0.5728701976701743 0.032771396256627054
0.5728701976701743 0.022752612246486857
0.5584349785751286 0.09288410031746826
0.5439997594800827 0.14297802036816926
0.4862588830998994 0.09288410031746826
0.5295645403850369 -0.01732252379407394
0.5439997594800827 -0.11751036389547594
0.5873054167652202 -0.19766063597659753
0.5728701976701743 -0.27781090805771913
0.5439997594800827 -0.2978484760779995
0.5006941021949453 -0.3178860440982799
0.4862588830998994 -0.21769820399687792
0.5006941021949453 -0.16760428394617694
0.5584349785751286 -0.16760428394617694
0.5439997594800827 -0.14756671592589654
0.5006941021949453 -0.15758549993603674
0.41408278762467027 -0.15758549993603674
0.38521234943457866 -0.16760428394617694
0.3419066921494412 -0.14756671592589654
0.356341911244487 -0.17762306795631713
0.3419066921494412 -0.19766063597659753
0.32747147305439533 -0.20767941998673772
0.28416581576925787 -0.19766063597659753
0.31303625395934953 -0.13754793191575634
0.3419066921494412 -0.10749157988533574
0.356341911244487 -0.09747279587519554
0.32747147305439533 -0.10749157988533574
0.18311928210393708 -0.09747279587519554
0.11094318662870796 -0.10749157988533574
0.06763752934357048 -0.07743522785491513
0.06763752934357048 -0.027341307804214142
0.1398136248187996 -0.05739765983463474
0.11094318662870796 -0.04737887582449454
0.08207274843861631 -0.07743522785491513
0.024331872058433006 -0.05739765983463474
-0.004538566131658644 0.002715044226206457
-0.03340900432175029 -0.007303739783933743
-0.06227944251184195 0.002715044226206457
-0.10558509979697943 0.012733828236346657
-0.1488907570821169 0.002715044226206457
-0.19219641436725438 0.032771396256627054
-0.0911498807019336 0.09288410031746826
-0.06227944251184195 0.09288410031746826
-0.018973785226704468 0.04279018026676725
-0.004538566131658644 -0.01732252379407394
-0.047844223416796124 0.002715044226206457
-0.07671466160688777 0.002715044226206457
-0.06227944251184195 0.022752612246486857
-0.018973785226704468 0.04279018026676725
0.06763752934357048 0.06282774828704765
0.08207274843861631 0.06282774828704765
0.11094318662870796 0.04279018026676725
0.11094318662870796 0.06282774828704765
0.053202310248524655 0.09288410031746826
-0.004538566131658644 0.14297802036816926
-0.06227944251184195 0.12294045234788885
-0.12002031889202525 0.08286531630732805
-0.2066316334623002 0.032771396256627054
-0.29324294803257517 -0.007303739783933743
-0.2788077289375293 0.04279018026676725
-0.2643725098424835 0.09288410031746826
-0.1633259761771627 0.14297802036816926
-0.1488907570821169 0.16301558838844965
-0.29324294803257517 0.15299680437830945
-0.3798542626028501 0.11292166833774865
-0.45203035807807923 0.14297802036816926
-0.5097712344582626 0.18305315640873004
-0.5097712344582626 0.20309072442901044
-0.5242064535533083 0.15299680437830945
-0.5242064535533083 0.13295923635802906
-0.5530768917434 0.12294045234788885
-0.4953360153632167 0.18305315640873004
-0.46646557717312503 0.19307194041887024
-0.45203035807807923 0.18305315640873004
-0.5242064535533083 0.14297802036816926
-0.5530768917434 0.11292166833774865
-0.639688206313675 0.10290288432760845
-0.6252529872186291 0.10290288432760845
-0.5530768917434 0.15299680437830945
-0.5530768917434 0.13295923635802906
-0.5675121108384459 0.12294045234788885
-0.5386416726483542 0.11292166833774865
-0.6252529872186291 0.11292166833774865
-0.6252529872186291 0.15299680437830945
-0.5819473299334916 0.19307194041887024
-0.5530768917434 0.16301558838844965
-0.5386416726483542 0.17303437239858985
-0.5386416726483542 0.17303437239858985
-0.5819473299334916 0.11292166833774865
-0.5530768917434 0.14297802036816926
-0.5530768917434 0.15299680437830945
-0.5530768917434 0.12294045234788885
-0.6108177681235833 0.08286531630732805
-0.639688206313675 0.032771396256627054
-0.6974290826938583 0.06282774828704765
-0.6541234254087208 0.06282774828704765
-0.5963825490285375 0.11292166833774865
-0.5386416726483542 0.16301558838844965
-0.4809007962681709 0.22312829244929083
-0.5097712344582626 0.24316586046957123
-0.5242064535533083 0.24316586046957123
-0.5097712344582626 0.27322221249999185
-0.4809007962681709 0.2632034284898516
-0.4953360153632167 0.22312829244929083
-0.46646557717312503 0.13295923635802906
-0.46646557717312503 0.06282774828704765
-0.46646557717312503 0.002715044226206457
-0.3654190435078043 0.012733828236346657
-0.33654860531771263 0.022752612246486857
-0.33654860531771263 0.002715044226206457
-0.35098382441275844 -0.03736009181435434
-0.40872470079294176 -0.09747279587519554
-0.4953360153632167 -0.11751036389547594
-0.5097712344582626 -0.11751036389547594
-0.4809007962681709 -0.09747279587519554
-0.4375951389830334 -0.05739765983463474
-0.4953360153632167 -0.04737887582449454
-0.4953360153632167 -0.027341307804214142
-0.4809007962681709 -0.03736009181435434
-0.4375951389830334 0.002715044226206457
-0.33654860531771263 0.04279018026676725
-0.23550207165239184 0.09288410031746826
-0.24993729074743767 0.13295923635802906
-0.24993729074743767 0.13295923635802906
-0.2788077289375293 0.13295923635802906
-0.2788077289375293 0.16301558838844965
-0.24993729074743767 0.17303437239858985
-0.2066316334623002 0.11292166833774865
-0.19219641436725438 0.09288410031746826
-0.24993729074743767 0.09288410031746826
-0.2788077289375293 0.12294045234788885
-0.35098382441275844 0.18305315640873004
-0.3942894816978959 0.19307194041887024
-0.42315991988798757 0.09288410031746826
-0.4375951389830334 -0.007303739783933743
-0.45203035807807923 -0.13754793191575634
-0.5386416726483542 -0.27781090805771913
-0.5097712344582626 -0.24775455602729854
-0.45203035807807923 -0.21769820399687792
-0.3942894816978959 -0.20767941998673772
-0.3942894816978959 -0.20767941998673772
-0.40872470079294176 -0.24775455602729854
-0.4809007962681709 -0.2978484760779995
-0.5242064535533083 -0.2878296920678593
-0.5097712344582626 -0.36797996414898093
-0.4953360153632167 -0.4180738841996819
-0.4953360153632167 -0.43811145221996234
-0.5819473299334916 -0.45814902024024273
-0.5530768917434 -0.4781865882605231
-0.5530768917434 -0.4681678042503829
-0.5386416726483542 -0.5082429402909437
-0.5530768917434 -0.5282805083112241
-0.5530768917434 -0.5683556443517849
-0.5963825490285375 -0.5583368603416448
-0.6108177681235833 -0.5583368603416448
-0.6252529872186291 -0.5382992923213643
-0.5963825490285375 -0.5783744283619251
-0.46646557717312503 -0.5583368603416448
-0.45203035807807923 -0.5282805083112241
-0.4809007962681709 -0.5382992923213643
-0.5530768917434 -0.5182617243010839
-0.5530768917434 -0.5182617243010839
-0.5963825490285375 -0.4681678042503829
-0.5963825490285375 -0.43811145221996234
-0.5963825490285375 -0.4180738841996819
-0.6541234254087208 -0.3779987481591211
-0.6541234254087208 -0.3579611801388407
-0.5963825490285375 -0.3178860440982799
-0.5097712344582626 -0.2878296920678593
-0.3942894816978959 -0.3178860440982799
-0.3221133862226668 -0.3379236121185603
-0.30767816712762097 -0.34794239612870054
-0.40872470079294176 -0.36797996414898093
-0.40872470079294176 -0.34794239612870054
-0.4375951389830334 -0.30786726008813975
-0.46646557717312503 -0.23773577201715831
-0.4809007962681709 -0.19766063597659753
-0.5097712344582626 -0.23773577201715831
-0.5819473299334916 -0.20767941998673772
-0.5963825490285375 -0.17762306795631713
-0.5097712344582626 -0.14756671592589654
-0.40872470079294176 -0.16760428394617694
-0.3798542626028501 -0.19766063597659753
-0.29324294803257517 -0.16760428394617694
-0.2643725098424835 -0.17762306795631713
-0.22106685255734604 -0.20767941998673772
-0.24993729074743767 -0.20767941998673772
-0.19219641436725438 -0.18764185196645733
-0.24993729074743767 -0.14756671592589654
-0.2788077289375293 -0.15758549993603674
-0.3798542626028501 -0.13754793191575634
-0.3798542626028501 -0.10749157988533574
-0.3942894816978959 -0.15758549993603674
-0.35098382441275844 -0.21769820399687792
-0.29324294803257517 -0.24775455602729854
-0.2788077289375293 -0.22771698800701812
-0.3221133862226668 -0.15758549993603674
-0.3221133862226668 -0.07743522785491513
-0.33654860531771263 -0.05739765983463474
-0.3654190435078043 -0.09747279587519554
-0.5097712344582626 -0.17762306795631713
-0.6829938635988124 -0.23773577201715831
-0.7840403972641332 -0.34794239612870054
-0.7551699590740416 -0.7186374045038879
-0.6541234254087208 -1.3097456611021596
-0.5386416726483542 -1.981004189781553
-0.45203035807807923 -2.6021687984102453
-0.40872470079294176 -3.233352191049078
-0.33654860531771263 -3.8745543676980505
-0.24993729074743767 -4.425587488255761
-0.10558509979697943 -4.86641398470193
-0.018973785226704468 -5.036733312874314
0.03876709115347883 -5.126902368965576
0.22642493938907457 -5.106864800945295
0.5584349785751286 -4.916507904752631
1.005926770521549 -4.425587488255761
1.4822890006580614 -3.5739908473938446
1.756558163463932 -2.4518870382581426
1.7709933825589779 -1.379877149173141
1.6122059725134739 -0.6985998364836075
1.4245481242778781 -0.3579611801388407
1.1647141805670531 -0.11751036389547594
0.8327041413809992 -0.007303739783933743
0.5439997594800827 0.032771396256627054
0.3419066921494412 0.04279018026676725
0.11094318662870796 0.09288410031746826
-0.004538566131658644 0.18305315640873004
-0.06227944251184195 0.29325978052027224
-0.10558509979697943 0.33333491656083303
-0.047844223416796124 0.33333491656083303
-0.018973785226704468 0.33333491656083303
-0.06227944251184195 0.31329734854055263
-0.10558509979697943 0.33333491656083303
-0.0911498807019336 0.3533724845811134
-0.06227944251184195 0.36339126859125365
-0.06227944251184195 0.40346640463181443
-0.018973785226704468 0.4134851886419546
-0.0911498807019336 0.40346640463181443
-0.0911498807019336 0.38342883661153404
-0.06227944251184195 0.42350397265209483
-0.004538566131658644 0.42350397265209483
0.06763752934357048 0.4635791086926556
0.06763752934357048 0.40346640463181443
0.06763752934357048 0.45356032468251545
-0.018973785226704468 0.45356032468251545
-0.004538566131658644 0.49363546072307624
0.024331872058433006 0.533710596763637
0.08207274843861631 0.5637669487940576
0.053202310248524655 0.5537481647839174
0.09650796753366213 0.5036542447332164
0.06763752934357048 0.4635791086926556
0.12537840572375378 0.49363546072307624
0.18311928210393708 0.533710596763637
0.1975545011989829 0.5136730287433566
0.21198972029402874 0.49363546072307624
0.18311928210393708 0.5036542447332164
0.18311928210393708 0.5036542447332164
0.21198972029402874 0.533710596763637
0.2552953775791662 0.5637669487940576
0.26973059667421206 0.5637669487940576
0.2552953775791662 0.533710596763637
0.31303625395934953 0.5136730287433566
0.32747147305439533 0.483616676712936
0.356341911244487 0.483616676712936
0.38521234943457866 0.5637669487940576
0.38521234943457866 0.5637669487940576
0.31303625395934953 0.5737857328041979
0.26973059667421206 0.5537481647839174
0.2408601584841204 0.5136730287433566
0.26973059667421206 0.5737857328041979
0.32747147305439533 0.5437293807737772
0.3707771303395328 0.5437293807737772
0.39964756852962446 0.5236918127534969
0.4718236640048536 0.5236918127534969
0.4718236640048536 0.533710596763637
0.5006941021949453 0.5637669487940576
0.5439997594800827 0.6038420848346184
0.5873054167652202 0.6138608688447587
