-0.6685586445037666 0.49363546072307624
-0.5675121108384459 0.483616676712936
-0.5675121108384459 0.4635791086926556
-0.5242064535533083 0.4435415406723752
-0.4809007962681709 0.4134851886419546
-0.4375951389830334 0.4635791086926556
-0.40872470079294176 0.49363546072307624
-0.33654860531771263 0.5537481647839174
-0.35098382441275844 0.5637669487940576
-0.3942894816978959 0.5938233008244782
-0.40872470079294176 0.583804516814338
-0.40872470079294176 0.6238796528548988
-0.3654190435078043 0.6439172208751792
-0.35098382441275844 0.5737857328041979
-0.3942894816978959 0.3934476206216742
-0.46646557717312503 0.27322221249999185
-0.4953360153632167 0.19307194041887024
-0.5097712344582626 0.20309072442901044
-0.4953360153632167 0.20309072442901044
-0.4953360153632167 0.14297802036816926
-0.5819473299334916 0.12294045234788885
-0.6829938635988124 0.12294045234788885
-0.8129108354542248 0.12294045234788885
-0.7984756163591791 0.17303437239858985
-0.7696051781690874 0.17303437239858985
-0.8129108354542248 0.18305315640873004
-0.7696051781690874 0.13295923635802906
-0.7840403972641332 0.12294045234788885
-0.8417812736443165 0.11292166833774865
-0.8562164927393623 0.17303437239858985
-0.7984756163591791 0.19307194041887024
-0.7840403972641332 0.20309072442901044
-0.8562164927393623 0.19307194041887024
-0.8995221500244999 0.17303437239858985
-0.9139573691195456 0.13295923635802906
-0.9572630264046831 0.11292166833774865
-0.9283925882145915 0.09288410031746826
-0.9139573691195456 0.032771396256627054
-0.885086930929454 0.022752612246486857
-0.8995221500244999 0.012733828236346657
-0.9428278073096373 0.04279018026676725
-0.9572630264046831 0.052808964276907455
-0.9572630264046831 0.08286531630732805
-0.9428278073096373 0.07284653229718785
-0.9861334645947748 0.022752612246486857
-1.0150039027848665 -0.03736009181435434
-1.043874340974958 -0.027341307804214142
-1.0150039027848665 0.032771396256627054
-0.9572630264046831 0.032771396256627054
-0.9716982454997289 0.012733828236346657
-0.9716982454997289 -0.027341307804214142
-0.9428278073096373 -0.027341307804214142
-0.9428278073096373 -0.007303739783933743
-0.9716982454997289 0.04279018026676725
-1.0005686836898207 0.052808964276907455
-1.0005686836898207 -0.007303739783933743
-1.0294391218799122 -0.027341307804214142
-1.0583095600700039 -0.05739765983463474
-1.043874340974958 -0.09747279587519554
-1.0294391218799122 -0.06741644384477494
-0.9283925882145915 0.002715044226206457
-0.8995221500244999 0.04279018026676725
-0.8706517118344081 0.032771396256627054
-0.8417812736443165 0.07284653229718785
-0.8562164927393623 0.06282774828704765
-0.885086930929454 0.14297802036816926
-0.8273460545492707 0.23314707645943103
-0.7984756163591791 0.23314707645943103
-0.7696051781690874 0.25318464447971145
-0.7551699590740416 0.283240996510132
-0.7262995208839499 0.32331613255069286
-0.6541234254087208 0.40346640463181443
-0.6252529872186291 0.3934476206216742
-0.6108177681235833 0.36339126859125365
-0.6252529872186291 0.32331613255069286
-0.6685586445037666 0.31329734854055263
-0.6974290826938583 0.27322221249999185
-0.6829938635988124 0.29325978052027224
-0.639688206313675 0.3032785645304124
-0.5963825490285375 0.3734100526013938
-0.5819473299334916 0.42350397265209483
-0.6252529872186291 0.40346640463181443
-0.5963825490285375 0.3734100526013938
-0.5386416726483542 0.36339126859125365
-0.5386416726483542 0.32331613255069286
-0.5386416726483542 0.3533724845811134
-0.5963825490285375 0.36339126859125365
-0.6252529872186291 0.3934476206216742
-0.6685586445037666 0.31329734854055263
-0.6685586445037666 0.32331613255069286
-0.7407347399789957 0.25318464447971145
-0.8417812736443165 0.23314707645943103
-0.9716982454997289 0.15299680437830945
-1.1016152173551415 -0.13754793191575634
-1.1016152173551415 -0.6485059164329064
-1.0583095600700039 -1.169482684960197
-0.9428278073096373 -1.730534589528048
-0.885086930929454 -2.371736766177021
-0.7696051781690874 -3.1632207029780965
-0.639688206313675 -3.934667071758892
-0.5386416726483542 -4.625963168458566
-0.4809007962681709 -5.066789664904735
-0.42315991988798757 -5.287202913127818
-0.3654190435078043 -5.297221697137959
-0.24993729074743767 -5.166977505006137
-0.004538566131658644 -4.826338848661369
0.31303625395934953 -4.094967615921135
0.8471393604760451 -2.82258204663333
1.3668072478976947 -1.5501964773455243
1.597770753418428 -0.27781090805771913
1.6266411916085197 0.4635791086926556
1.3812424669927406 0.784180197017142
1.1214085232819158 0.8543116850881234
0.8327041413809992 0.8543116850881234
0.5584349785751286 0.8543116850881234
0.28416581576925787 0.7541238449867214
0.08207274843861631 0.734086276966441
-0.10558509979697943 0.7541238449867214
-0.2643725098424835 0.8543116850881234
-0.33654860531771263 0.9044056051388244
-0.3798542626028501 0.984555877219946
-0.35098382441275844 0.984555877219946
-0.33654860531771263 0.9244431731591048
-0.3942894816978959 0.8442929010779832
-0.3942894816978959 0.8242553330577028
-0.3654190435078043 0.8442929010779832
-0.33654860531771263 0.884368037118544
-0.35098382441275844 0.9144243891489646
-0.3942894816978959 0.884368037118544
-0.3798542626028501 0.9044056051388244
-0.4375951389830334 0.8743492531084038
-0.3654190435078043 0.8643304690982636
-0.33654860531771263 0.8442929010779832
-0.30767816712762097 0.8442929010779832
-0.30767816712762097 0.8743492531084038
-0.29324294803257517 0.8543116850881234
-0.29324294803257517 0.884368037118544
-0.22106685255734604 0.934461957169245
-0.17776119527220854 0.9444807411793852
-0.2066316334623002 0.9645183091996656
-0.17776119527220854 0.9144243891489646
-0.23550207165239184 0.884368037118544
-0.24993729074743767 0.8442929010779832
-0.1633259761771627 0.8142365490475626
-0.10558509979697943 0.834274117067843
-0.12002031889202525 0.8643304690982636
-0.1488907570821169 0.8743492531084038
-0.17776119527220854 0.8543116850881234
-0.22106685255734604 0.8442929010779832
-0.1633259761771627 0.9144243891489646
-0.07671466160688777 0.8943868211286842
-0.07671466160688777 0.8442929010779832
-0.047844223416796124 0.8042177650374224
-0.047844223416796124 0.8142365490475626
-0.06227944251184195 0.8442929010779832
-0.03340900432175029 0.8442929010779832
0.009896652963387181 0.8643304690982636
0.053202310248524655 0.9044056051388244
0.03876709115347883 0.9244431731591048
0.053202310248524655 0.934461957169245
0.053202310248524655 0.8943868211286842
0.1398136248187996 0.8943868211286842
0.21198972029402874 0.884368037118544
0.16868406300889127 0.884368037118544
0.1398136248187996 0.884368037118544
0.11094318662870796 0.8643304690982636
0.08207274843861631 0.834274117067843
0.11094318662870796 0.8943868211286842
0.21198972029402874 0.9144243891489646
0.26973059667421206 0.9044056051388244
0.29860103486430367 0.8743492531084038
0.32747147305439533 0.8442929010779832
0.32747147305439533 0.8242553330577028
0.31303625395934953 0.884368037118544
0.356341911244487 0.8743492531084038
0.3707771303395328 0.884368037118544
0.31303625395934953 0.884368037118544
0.28416581576925787 0.8242553330577028
0.29860103486430367 0.7140487089461606
0.28416581576925787 0.6539360048853194
0.31303625395934953 0.6238796528548988
0.356341911244487 0.583804516814338
0.41408278762467027 0.5938233008244782
0.356341911244487 0.6238796528548988
0.32747147305439533 0.6038420848346184
0.32747147305439533 0.6138608688447587
0.3707771303395328 0.5938233008244782
0.38521234943457866 0.5236918127534969
0.38521234943457866 0.4435415406723752
0.356341911244487 0.4134851886419546
0.28416581576925787 0.3934476206216742
0.356341911244487 0.3934476206216742
0.3707771303395328 0.4134851886419546
0.44295322581476193 0.42350397265209483
0.39964756852962446 0.3533724845811134
0.38521234943457866 0.32331613255069286
0.356341911244487 0.31329734854055263
0.3707771303395328 0.32331613255069286
0.38521234943457866 0.32331613255069286
0.4285180067197161 0.283240996510132
0.4285180067197161 0.25318464447971145
0.38521234943457866 0.25318464447971145
0.31303625395934953 0.22312829244929083
0.38521234943457866 0.25318464447971145
0.38521234943457866 0.25318464447971145
0.39964756852962446 0.22312829244929083
0.39964756852962446 0.23314707645943103
0.31303625395934953 0.18305315640873004
0.2552953775791662 0.15299680437830945
0.26973059667421206 0.18305315640873004
0.28416581576925787 0.20309072442901044
0.356341911244487 0.20309072442901044
0.31303625395934953 0.18305315640873004
0.2552953775791662 0.15299680437830945
0.22642493938907457 0.21310950843915064
0.1975545011989829 0.24316586046957123
0.15424884391384544 0.20309072442901044
0.11094318662870796 0.17303437239858985
0.08207274843861631 0.15299680437830945
0.053202310248524655 0.15299680437830945
-0.03340900432175029 0.11292166833774865
-0.004538566131658644 0.21310950843915064
0.024331872058433006 0.23314707645943103
-0.004538566131658644 0.25318464447971145
-0.06227944251184195 0.17303437239858985
-0.12002031889202525 0.11292166833774865
-0.19219641436725438 0.052808964276907455
-0.17776119527220854 0.08286531630732805
-0.12002031889202525 0.11292166833774865
-0.1633259761771627 0.15299680437830945
-0.1633259761771627 0.20309072442901044
-0.17776119527220854 0.20309072442901044
-0.19219641436725438 0.17303437239858985
-0.17776119527220854 0.20309072442901044
-0.22106685255734604 0.3032785645304124
-0.19219641436725438 0.32331613255069286
-0.22106685255734604 0.27322221249999185
-0.24993729074743767 0.27322221249999185
-0.3221133862226668 0.24316586046957123
-0.2788077289375293 0.283240996510132
-0.2066316334623002 0.32331613255069286
-0.24993729074743767 0.3533724845811134
-0.30767816712762097 0.33333491656083303
-0.33654860531771263 0.34335370057097325
-0.40872470079294176 0.29325978052027224
-0.3942894816978959 0.29325978052027224
-0.4375951389830334 0.32331613255069286
-0.42315991988798757 0.3533724845811134
-0.3798542626028501 0.40346640463181443
-0.42315991988798757 0.40346640463181443
-0.42315991988798757 0.40346640463181443
-0.42315991988798757 0.42350397265209483
-0.42315991988798757 0.49363546072307624
-0.42315991988798757 0.533710596763637
-0.42315991988798757 0.5036542447332164
-0.4375951389830334 0.4635791086926556
-0.4953360153632167 0.47359789270279584
-0.42315991988798757 0.5537481647839174
-0.3798542626028501 0.5437293807737772
-0.35098382441275844 0.5437293807737772
-0.3942894816978959 0.5938233008244782
-0.45203035807807923 0.6739735729055998
-0.5242064535533083 0.6739735729055998
-0.5386416726483542 0.6940111409258802
-0.5530768917434 0.68399235691574
-0.5097712344582626 0.6739735729055998
-0.5242064535533083 0.6539360048853194
-0.5819473299334916 0.633898436865039
-0.6252529872186291 0.6439172208751792
-0.639688206313675 0.68399235691574
-0.6252529872186291 0.734086276966441
-0.5530768917434 0.7941989810272821
-0.5530768917434 0.8442929010779832
-0.5819473299334916 0.784180197017142
-0.6108177681235833 0.7040299249360205
-0.5963825490285375 0.7040299249360205
-0.5675121108384459 0.7441050609765812
-0.5675121108384459 0.7240674929563008
-0.5819473299334916 0.7040299249360205
-0.6829938635988124 0.7040299249360205
-0.7551699590740416 0.6739735729055998
-0.6974290826938583 0.6739735729055998
-0.6541234254087208 0.7240674929563008
-0.5819473299334916 0.6940111409258802
-0.5819473299334916 0.6639547888954596
-0.5675121108384459 0.633898436865039
-0.5097712344582626 0.6038420848346184
-0.4809007962681709 0.5637669487940576
-0.45203035807807923 0.5737857328041979
-0.45203035807807923 0.583804516814338
-0.4809007962681709 0.6238796528548988
-0.4809007962681709 0.6439172208751792
-0.5530768917434 0.6238796528548988
-0.5819473299334916 0.6038420848346184
-0.5675121108384459 0.583804516814338
-0.5963825490285375 0.5637669487940576
-0.5819473299334916 0.5938233008244782
-0.5963825490285375 0.5737857328041979
-0.5819473299334916 0.5437293807737772
-0.5675121108384459 0.6038420848346184
-0.5386416726483542 0.6539360048853194
-0.5675121108384459 0.6238796528548988
-0.5819473299334916 0.6238796528548988
-0.5675121108384459 0.5938233008244782
-0.5386416726483542 0.583804516814338
-0.46646557717312503 0.583804516814338
-0.35098382441275844 0.5537481647839174
-0.24993729074743767 0.5537481647839174
-0.24993729074743767 0.5637669487940576
-0.22106685255734604 0.6138608688447587
-0.2643725098424835 0.6138608688447587
-0.30767816712762097 0.6539360048853194
-0.2643725098424835 0.6739735729055998
-0.24993729074743767 0.6539360048853194
-0.2643725098424835 0.633898436865039
-0.24993729074743767 0.5938233008244782
-0.24993729074743767 0.5136730287433566
-0.23550207165239184 0.43352275666223505
-0.2066316334623002 0.38342883661153404
-0.2066316334623002 0.36339126859125365
-0.23550207165239184 0.3032785645304124
-0.2788077289375293 0.27322221249999185
-0.33654860531771263 0.23314707645943103
-0.3654190435078043 0.25318464447971145
-0.3942894816978959 0.25318464447971145
-0.42315991988798757 0.24316586046957123
-0.46646557717312503 0.22312829244929083
-0.5097712344582626 0.22312829244929083
-0.6108177681235833 0.25318464447971145
-0.5819473299334916 0.2632034284898516
-0.5530768917434 0.2632034284898516
-0.5530768917434 0.21310950843915064
-0.5675121108384459 0.17303437239858985
-0.6541234254087208 0.17303437239858985
-0.6541234254087208 0.15299680437830945
-0.6541234254087208 0.10290288432760845
-0.6685586445037666 0.08286531630732805
-0.6829938635988124 0.06282774828704765
-0.639688206313675 0.052808964276907455
-0.639688206313675 0.032771396256627054
-0.6541234254087208 0.002715044226206457
-0.6541234254087208 0.032771396256627054
-0.6252529872186291 0.032771396256627054
-0.6108177681235833 0.022752612246486857
-0.6541234254087208 -0.01732252379407394
-0.6829938635988124 -0.05739765983463474
-0.7262995208839499 -0.05739765983463474
-0.7407347399789957 0.002715044226206457
-0.7696051781690874 0.002715044226206457
-0.7840403972641332 -0.01732252379407394
-0.7551699590740416 -0.07743522785491513
-0.7840403972641332 -0.07743522785491513
-0.8706517118344081 -0.06741644384477494
-0.9139573691195456 -0.04737887582449454
-0.8706517118344081 -0.027341307804214142
-0.8706517118344081 -0.07743522785491513
-0.9139573691195456 -0.11751036389547594
-0.9572630264046831 -0.10749157988533574
-1.0005686836898207 -0.10749157988533574
-0.9428278073096373 -0.06741644384477494
-0.8995221500244999 -0.03736009181435434
-0.8273460545492707 0.032771396256627054
-0.7984756163591791 0.022752612246486857
-0.7984756163591791 0.022752612246486857
-0.7696051781690874 0.04279018026676725
-0.6829938635988124 0.06282774828704765
-0.6252529872186291 0.06282774828704765
-0.6108177681235833 0.022752612246486857
-0.5675121108384459 -0.01732252379407394
-0.6252529872186291 -0.027341307804214142
-0.6108177681235833 0.032771396256627054
-0.5819473299334916 0.07284653229718785
-0.4953360153632167 0.17303437239858985
-0.45203035807807923 0.27322221249999185
-0.4809007962681709 0.24316586046957123
-0.5242064535533083 0.2632034284898516
-0.6108177681235833 0.22312829244929083
-0.5819473299334916 0.25318464447971145
-0.5386416726483542 0.283240996510132
-0.5097712344582626 0.3032785645304124
-0.46646557717312503 0.29325978052027224
-0.46646557717312503 0.31329734854055263
-0.5097712344582626 0.33333491656083303
-0.4953360153632167 0.3734100526013938
-0.42315991988798757 0.3533724845811134
-0.3798542626028501 0.32331613255069286
-0.3942894816978959 0.2632034284898516
-0.45203035807807923 0.24316586046957123
-0.45203035807807923 0.23314707645943103
-0.42315991988798757 0.29325978052027224
-0.33654860531771263 0.32331613255069286
-0.33654860531771263 0.29325978052027224
-0.35098382441275844 0.27322221249999185
-0.3942894816978959 0.29325978052027224
-0.42315991988798757 0.2632034284898516
-0.40872470079294176 0.29325978052027224
-0.40872470079294176 0.34335370057097325
-0.3798542626028501 0.32331613255069286
-0.4375951389830334 0.2632034284898516
-0.5097712344582626 0.23314707645943103
-0.6541234254087208 0.15299680437830945
-0.7407347399789957 0.16301558838844965
-0.8417812736443165 -0.01732252379407394
-0.8273460545492707 -0.4481302362301025
-0.8273460545492707 -0.9791257887675331
-0.7984756163591791 -1.5001025572948234
-0.8129108354542248 -2.0611544618626745
-0.6974290826938583 -2.7023566385116475
-0.6252529872186291 -3.4136903032316015
-0.5242064535533083 -4.165099103992117
-0.45203035807807923 -4.7862637126208085
-0.3942894816978959 -5.176996289016277
-0.3654190435078043 -5.387390753229221
-0.33654860531771263 -5.427465889269781
-0.23550207165239184 -5.317259265158239
-0.03340900432175029 -5.187015073026417
0.28416581576925787 -4.87643276871207
0.7316576077156784 -4.235230592063098
1.2368902760422824 -3.273427327089639
1.684382067988703 -2.041116893842394
1.9586512307945736 -0.8488815966357105
1.9875216689846653 0.08286531630732805
1.7998638207490696 0.6138608688447587
1.5689003152283363 0.8643304690982636
1.3523720288026488 0.9044056051388244
1.1647141805670531 0.9144243891489646
0.93375067504632 0.8643304690982636
0.7172223886206326 0.8142365490475626
0.5151293212899911 0.8242553330577028
0.31303625395934953 0.8743492531084038
0.09650796753366213 0.8543116850881234
0.009896652963387181 0.8743492531084038
-0.03340900432175029 0.8543116850881234
-0.018973785226704468 0.8442929010779832
0.024331872058433006 0.8643304690982636
-0.004538566131658644 0.8442929010779832
-0.018973785226704468 0.8442929010779832
0.009896652963387181 0.8543116850881234
-0.03340900432175029 0.884368037118544
-0.03340900432175029 0.9444807411793852
-0.004538566131658644 0.9645183091996656
0.009896652963387181 0.934461957169245
0.009896652963387181 0.9244431731591048
0.053202310248524655 0.934461957169245
0.053202310248524655 0.9144243891489646
0.11094318662870796 0.8943868211286842
0.08207274843861631 0.9044056051388244
0.06763752934357048 0.884368037118544
0.03876709115347883 0.8643304690982636
0.009896652963387181 0.9044056051388244
0.053202310248524655 0.884368037118544
0.03876709115347883 0.884368037118544
0.024331872058433006 0.834274117067843
0.009896652963387181 0.8142365490475626
0.024331872058433006 0.8142365490475626
0.06763752934357048 0.8543116850881234
0.09650796753366213 0.8543116850881234
0.1975545011989829 0.9244431731591048
0.18311928210393708 0.9444807411793852
0.15424884391384544 0.9444807411793852
0.18311928210393708 0.9144243891489646
0.21198972029402874 0.9444807411793852
0.26973059667421206 0.9244431731591048
0.26973059667421206 0.9144243891489646
0.31303625395934953 0.884368037118544
0.31303625395934953 0.8543116850881234
0.29860103486430367 0.8242553330577028
0.32747147305439533 0.9044056051388244
0.356341911244487 0.9444807411793852
0.38521234943457866 0.984555877219946
0.39964756852962446 0.9544995251895254
0.3707771303395328 0.9244431731591048
0.3707771303395328 0.8943868211286842
0.38521234943457866 0.9544995251895254
0.3707771303395328 0.934461957169245
0.39964756852962446 0.9244431731591048
0.39964756852962446 0.8743492531084038
0.41408278762467027 0.8142365490475626
0.39964756852962446 0.784180197017142
0.4718236640048536 0.8142365490475626
0.5295645403850369 0.8643304690982636
0.5439997594800827 0.834274117067843
0.5151293212899911 0.8442929010779832
0.4862588830998994 0.8743492531084038
0.5439997594800827 0.8743492531084038
0.5295645403850369 0.884368037118544
0.5728701976701743 0.8743492531084038
0.6450462931454035 0.884368037118544
0.6450462931454035 0.8743492531084038
0.6739167313354951 0.8442929010779832
0.6739167313354951 0.8142365490475626
0.688351950430541 0.8142365490475626
0.7172223886206326 0.8042177650374224
0.7749632650008159 0.7541238449867214
0.7460928268107243 0.6439172208751792
0.7605280459057701 0.6138608688447587
0.7316576077156784 0.5938233008244782
0.7893984840958618 0.6439172208751792
0.8327041413809992 0.6639547888954596
0.8760097986661367 0.6539360048853194
0.9048802368562283 0.5938233008244782
0.9193154559512742 0.5036542447332164
0.9048802368562283 0.483616676712936
0.8760097986661367 0.483616676712936
0.8615745795710908 0.45356032468251545
0.8904450177611826 0.42350397265209483
0.8471393604760451 0.34335370057097325
0.9048802368562283 0.31329734854055263
0.8615745795710908 0.2632034284898516
0.8904450177611826 0.27322221249999185
0.93375067504632 0.25318464447971145
0.9481858941413658 0.21310950843915064
0.93375067504632 0.23314707645943103
0.9193154559512742 0.20309072442901044
0.8760097986661367 0.15299680437830945
0.8471393604760451 0.12294045234788885
0.8615745795710908 0.09288410031746826
0.93375067504632 0.07284653229718785
0.9626211132364116 0.052808964276907455
0.93375067504632 0.06282774828704765
0.8904450177611826 0.06282774828704765
0.8760097986661367 0.032771396256627054
0.8327041413809992 0.022752612246486857
0.8182689222859534 0.012733828236346657
0.8182689222859534 -0.027341307804214142
0.7605280459057701 -0.06741644384477494
0.7316576077156784 -0.05739765983463474
0.688351950430541 -0.04737887582449454
0.688351950430541 -0.007303739783933743
0.6594815122404494 0.06282774828704765
0.6739167313354951 0.06282774828704765
0.7027871695255868 0.022752612246486857
0.6306110740503577 -0.007303739783933743
0.5873054167652202 -0.04737887582449454
0.5151293212899911 -0.04737887582449454
0.4862588830998994 -0.05739765983463474
0.4718236640048536 -0.04737887582449454
0.39964756852962446 -0.07743522785491513
0.3419066921494412 0.002715044226206457
0.32747147305439533 0.09288410031746826
0.3419066921494412 0.14297802036816926
0.3707771303395328 0.12294045234788885
0.32747147305439533 0.07284653229718785
0.29860103486430367 0.07284653229718785
0.2552953775791662 0.07284653229718785
0.1975545011989829 0.10290288432760845
0.1975545011989829 0.14297802036816926
0.1398136248187996 0.16301558838844965
0.1398136248187996 0.13295923635802906
0.09650796753366213 0.11292166833774865
0.03876709115347883 0.08286531630732805
0.03876709115347883 0.10290288432760845
0.053202310248524655 0.11292166833774865
0.03876709115347883 0.14297802036816926
-0.004538566131658644 0.16301558838844965
-0.03340900432175029 0.19307194041887024
-0.06227944251184195 0.18305315640873004
-0.03340900432175029 0.18305315640873004
0.024331872058433006 0.18305315640873004
0.08207274843861631 0.23314707645943103
0.06763752934357048 0.2632034284898516
0.053202310248524655 0.3032785645304124
-0.018973785226704468 0.33333491656083303
-0.018973785226704468 0.3533724845811134
0.009896652963387181 0.36339126859125365
0.03876709115347883 0.3032785645304124
0.009896652963387181 0.24316586046957123
-0.047844223416796124 0.21310950843915064
-0.10558509979697943 0.21310950843915064
-0.19219641436725438 0.22312829244929083
-0.2066316334623002 0.25318464447971145
-0.1488907570821169 0.33333491656083303
-0.13445553798707108 0.33333491656083303
-0.12002031889202525 0.3734100526013938
-0.10558509979697943 0.40346640463181443
-0.07671466160688777 0.4435415406723752
-0.1488907570821169 0.40346640463181443
-0.1633259761771627 0.3934476206216742
-0.2066316334623002 0.33333491656083303
-0.2066316334623002 0.31329734854055263
-0.23550207165239184 0.31329734854055263
-0.22106685255734604 0.34335370057097325
-0.23550207165239184 0.4435415406723752
-0.3221133862226668 0.483616676712936
-0.42315991988798757 0.45356032468251545
-0.5530768917434 0.3734100526013938
-0.5530768917434 0.3533724845811134
-0.5242064535533083 0.34335370057097325
-0.45203035807807923 0.38342883661153404
-0.3942894816978959 0.38342883661153404
-0.35098382441275844 0.4134851886419546
-0.35098382441275844 0.4134851886419546
-0.42315991988798757 0.36339126859125365
-0.4809007962681709 0.34335370057097325
-0.45203035807807923 0.36339126859125365
-0.46646557717312503 0.34335370057097325
-0.4809007962681709 0.31329734854055263
-0.4375951389830334 0.27322221249999185
-0.42315991988798757 0.23314707645943103
-0.40872470079294176 0.283240996510132
-0.40872470079294176 0.3032785645304124
-0.42315991988798757 0.32331613255069286
-0.4375951389830334 0.32331613255069286
-0.5097712344582626 0.3032785645304124
-0.5242064535533083 0.29325978052027224
-0.5242064535533083 0.3032785645304124
-0.4953360153632167 0.31329734854055263
-0.4375951389830334 0.31329734854055263
-0.4375951389830334 0.29325978052027224
-0.4375951389830334 0.2632034284898516
-0.4375951389830334 0.25318464447971145
-0.42315991988798757 0.25318464447971145
-0.42315991988798757 0.24316586046957123
-0.3798542626028501 0.25318464447971145
-0.3798542626028501 0.20309072442901044
-0.3654190435078043 0.19307194041887024
-0.40872470079294176 0.16301558838844965
-0.42315991988798757 0.15299680437830945
-0.30767816712762097 0.18305315640873004
-0.22106685255734604 0.18305315640873004
-0.2066316334623002 0.18305315640873004
-0.2643725098424835 0.18305315640873004
-0.33654860531771263 0.19307194041887024
-0.35098382441275844 0.23314707645943103
-0.33654860531771263 0.23314707645943103
-0.3221133862226668 0.29325978052027224
-0.24993729074743767 0.38342883661153404
-0.1633259761771627 0.43352275666223505
-0.1488907570821169 0.45356032468251545
-0.13445553798707108 0.47359789270279584
-0.17776119527220854 0.4435415406723752
-0.13445553798707108 0.3533724845811134
-0.1488907570821169 0.33333491656083303
-0.19219641436725438 0.33333491656083303
-0.2066316334623002 0.34335370057097325
-0.2066316334623002 0.3734100526013938
-0.12002031889202525 0.38342883661153404
-0.018973785226704468 0.42350397265209483
-0.004538566131658644 0.42350397265209483
-0.018973785226704468 0.3533724845811134
-0.1488907570821169 0.2632034284898516
-0.24993729074743767 0.21310950843915064
-0.3221133862226668 0.12294045234788885
-0.3654190435078043 0.012733828236346657
-0.3654190435078043 -0.03736009181435434
-0.3798542626028501 -0.10749157988533574
-0.35098382441275844 -0.15758549993603674
-0.3942894816978959 -0.09747279587519554
-0.42315991988798757 -0.03736009181435434
-0.40872470079294176 0.04279018026676725
-0.45203035807807923 0.012733828236346657
-0.5097712344582626 0.002715044226206457
-0.5819473299334916 -0.04737887582449454
-0.6108177681235833 -0.06741644384477494
-0.6108177681235833 -0.11751036389547594
-0.6541234254087208 -0.12752914790561615
-0.6974290826938583 -0.12752914790561615
-0.6829938635988124 -0.10749157988533574
-0.639688206313675 -0.05739765983463474
-0.5675121108384459 -0.04737887582449454
-0.5675121108384459 -0.01732252379407394
-0.5097712344582626 -0.01732252379407394
-0.5675121108384459 -0.07743522785491513
-0.639688206313675 -0.13754793191575634
-0.6541234254087208 -0.19766063597659753
-0.6974290826938583 -0.21769820399687792
-0.6829938635988124 -0.22771698800701812
-0.639688206313675 -0.20767941998673772
-0.6685586445037666 -0.19766063597659753
-0.7407347399789957 -0.17762306795631713
-0.7407347399789957 -0.17762306795631713
-0.7262995208839499 -0.17762306795631713
-0.7262995208839499 -0.18764185196645733
-0.7118643017889041 -0.25777334003743874
-0.6541234254087208 -0.2878296920678593
-0.6252529872186291 -0.2878296920678593
-0.6829938635988124 -0.24775455602729854
-0.7696051781690874 -0.16760428394617694
-0.7696051781690874 -0.14756671592589654
-0.7407347399789957 -0.13754793191575634
-0.7262995208839499 -0.14756671592589654
-0.7840403972641332 -0.19766063597659753
-0.7262995208839499 -0.18764185196645733
-0.7118643017889041 -0.20767941998673772
-0.6252529872186291 -0.16760428394617694
-0.5819473299334916 -0.14756671592589654
-0.6108177681235833 -0.13754793191575634
-0.6541234254087208 -0.13754793191575634
-0.6685586445037666 -0.10749157988533574
-0.6829938635988124 -0.04737887582449454
-0.6685586445037666 0.04279018026676725
-0.6829938635988124 0.11292166833774865
-0.7551699590740416 0.12294045234788885
-0.7551699590740416 0.11292166833774865
-0.7551699590740416 0.11292166833774865
-0.6685586445037666 0.15299680437830945
-0.5963825490285375 0.17303437239858985
-0.5530768917434 0.20309072442901044
-0.5819473299334916 0.21310950843915064
-0.5819473299334916 0.16301558838844965
-0.5530768917434 0.16301558838844965
-0.5386416726483542 0.20309072442901044
-0.5386416726483542 0.22312829244929083
-0.5819473299334916 0.22312829244929083
-0.5819473299334916 0.17303437239858985
-0.5675121108384459 0.11292166833774865
-0.5097712344582626 0.13295923635802906
-0.45203035807807923 0.16301558838844965
-0.42315991988798757 0.13295923635802906
-0.42315991988798757 0.18305315640873004
-0.4809007962681709 0.18305315640873004
-0.5386416726483542 0.16301558838844965
-0.6252529872186291 0.09288410031746826
-0.639688206313675 0.07284653229718785
-0.6685586445037666 0.052808964276907455
-0.7407347399789957 -0.01732252379407394
-0.8995221500244999 -0.027341307804214142
-1.043874340974958 -0.027341307804214142
-1.130485655545233 -0.17762306795631713
-1.1449208746402788 -0.6284683484126261
-1.043874340974958 -1.1795014689703371
-0.9572630264046831 -1.780628509578749
-0.9283925882145915 -2.441868254248002
-0.8273460545492707 -3.223333407038938
-0.6974290826938583 -4.034854911860294
-0.5530768917434 -4.666038304499127
-0.3798542626028501 -5.026714528864174
-0.30767816712762097 -5.156958720995997
-0.2643725098424835 -5.076808448914875
-0.1633259761771627 -4.896470336732351
0.15424884391384544 -4.435606272265902
0.7172223886206326 -3.5339157113532838
1.3523720288026488 -2.2615301420654785
1.7998638207490696 -0.9891445727776733
1.9153455735094362 -0.05739765983463474
1.7132525061787947 0.47359789270279584
1.438983343372924 0.6639547888954596
1.179149399662099 0.7641426289968616
0.8471393604760451 0.784180197017142
0.4862588830998994 0.7240674929563008
0.15424884391384544 0.6639547888954596
-0.12002031889202525 0.6639547888954596
-0.22106685255734604 0.6739735729055998
-0.2643725098424835 0.734086276966441
-0.24993729074743767 0.8242553330577028
-0.22106685255734604 0.834274117067843
-0.24993729074743767 0.8442929010779832
-0.3798542626028501 0.8042177650374224
-0.46646557717312503 0.7641426289968616
-0.46646557717312503 0.7541238449867214
-0.3942894816978959 0.734086276966441
-0.29324294803257517 0.7741614130070018
-0.24993729074743767 0.7741614130070018
-0.24993729074743767 0.784180197017142
-0.33654860531771263 0.784180197017142
-0.33654860531771263 0.834274117067843
-0.29324294803257517 0.834274117067843
-0.2643725098424835 0.834274117067843
-0.2643725098424835 0.8042177650374224
-0.23550207165239184 0.7641426289968616
-0.2643725098424835 0.7441050609765812
-0.29324294803257517 0.7641426289968616
-0.3221133862226668 0.7641426289968616
-0.30767816712762097 0.8042177650374224
-0.3221133862226668 0.834274117067843
-0.2788077289375293 0.8543116850881234
-0.2788077289375293 0.8242553330577028
-0.22106685255734604 0.884368037118544
-0.1633259761771627 0.8643304690982636
-0.17776119527220854 0.8242553330577028
-0.19219641436725438 0.8242553330577028
-0.2788077289375293 0.8543116850881234
-0.2643725098424835 0.884368037118544
-0.22106685255734604 0.9144243891489646
-0.17776119527220854 0.934461957169245
-0.1633259761771627 0.9444807411793852
-0.12002031889202525 0.884368037118544
-0.10558509979697943 0.8142365490475626
-0.17776119527220854 0.8142365490475626
-0.12002031889202525 0.8543116850881234
-0.0911498807019336 0.8543116850881234
0.009896652963387181 0.8743492531084038
0.053202310248524655 0.8442929010779832
0.08207274843861631 0.7941989810272821
0.08207274843861631 0.784180197017142
0.12537840572375378 0.8543116850881234
0.1398136248187996 0.8543116850881234
0.12537840572375378 0.8543116850881234
0.03876709115347883 0.834274117067843
-0.004538566131658644 0.784180197017142
-0.047844223416796124 0.784180197017142
-0.06227944251184195 0.7741614130070018
0.009896652963387181 0.8242553330577028
0.053202310248524655 0.834274117067843
0.06763752934357048 0.8142365490475626
0.08207274843861631 0.7941989810272821
0.024331872058433006 0.7941989810272821
0.053202310248524655 0.8142365490475626
0.11094318662870796 0.834274117067843
0.1398136248187996 0.8042177650374224
0.11094318662870796 0.7541238449867214
0.11094318662870796 0.7641426289968616
0.12537840572375378 0.7641426289968616
0.2408601584841204 0.7941989810272821
0.28416581576925787 0.734086276966441
0.39964756852962446 0.7240674929563008
0.4285180067197161 0.7140487089461606
0.39964756852962446 0.6539360048853194
0.32747147305439533 0.6138608688447587
0.29860103486430367 0.583804516814338
0.32747147305439533 0.5437293807737772
0.29860103486430367 0.4635791086926556
0.32747147305439533 0.3734100526013938
0.3707771303395328 0.34335370057097325
0.39964756852962446 0.33333491656083303
0.4285180067197161 0.3934476206216742
0.5006941021949453 0.3934476206216742
0.4718236640048536 0.36339126859125365
0.4718236640048536 0.27322221249999185
0.4862588830998994 0.20309072442901044
0.44295322581476193 0.13295923635802906
0.44295322581476193 0.14297802036816926
0.4718236640048536 0.15299680437830945
0.4573884449098078 0.17303437239858985
0.41408278762467027 0.15299680437830945
0.32747147305439533 0.13295923635802906
0.2552953775791662 0.12294045234788885
0.26973059667421206 0.12294045234788885
0.32747147305439533 0.11292166833774865
0.38521234943457866 0.06282774828704765
0.3419066921494412 0.07284653229718785
0.31303625395934953 0.06282774828704765
0.29860103486430367 0.08286531630732805
0.28416581576925787 0.11292166833774865
0.28416581576925787 0.08286531630732805
0.28416581576925787 0.09288410031746826
0.2552953775791662 0.07284653229718785
0.21198972029402874 0.04279018026676725
0.11094318662870796 0.012733828236346657
0.053202310248524655 0.052808964276907455
0.053202310248524655 0.11292166833774865
0.06763752934357048 0.13295923635802906
0.03876709115347883 0.09288410031746826
-0.004538566131658644 0.09288410031746826
-0.03340900432175029 0.11292166833774865
-0.13445553798707108 0.10290288432760845
-0.1488907570821169 0.10290288432760845
-0.17776119527220854 0.10290288432760845
-0.1488907570821169 0.07284653229718785
-0.19219641436725438 0.06282774828704765
-0.23550207165239184 0.052808964276907455
-0.2788077289375293 0.13295923635802906
-0.33654860531771263 0.15299680437830945
-0.3798542626028501 0.16301558838844965
-0.3798542626028501 0.20309072442901044
-0.42315991988798757 0.21310950843915064
-0.42315991988798757 0.19307194041887024
-0.40872470079294176 0.21310950843915064
-0.33654860531771263 0.23314707645943103
-0.33654860531771263 0.29325978052027224
-0.35098382441275844 0.3032785645304124
-0.3654190435078043 0.29325978052027224
-0.3798542626028501 0.31329734854055263
-0.33654860531771263 0.34335370057097325
-0.3221133862226668 0.3533724845811134
-0.3654190435078043 0.32331613255069286
-0.35098382441275844 0.27322221249999185
-0.3798542626028501 0.2632034284898516
-0.42315991988798757 0.2632034284898516
-0.42315991988798757 0.3032785645304124
-0.3942894816978959 0.3533724845811134
-0.3942894816978959 0.4134851886419546
-0.46646557717312503 0.4134851886419546
-0.5386416726483542 0.3934476206216742
-0.5819473299334916 0.4134851886419546
-0.5819473299334916 0.4435415406723752
-0.5242064535533083 0.47359789270279584
-0.4953360153632167 0.4635791086926556
-0.4809007962681709 0.483616676712936
-0.5242064535533083 0.49363546072307624
-0.5963825490285375 0.49363546072307624
-0.639688206313675 0.5036542447332164
-0.6252529872186291 0.47359789270279584
-0.5819473299334916 0.47359789270279584
-0.5963825490285375 0.47359789270279584
-0.6252529872186291 0.483616676712936
-0.6541234254087208 0.49363546072307624
-0.6685586445037666 0.5136730287433566
-0.7118643017889041 0.5637669487940576
-0.7118643017889041 0.6038420848346184
-0.7407347399789957 0.5537481647839174
-0.7118643017889041 0.5136730287433566
-0.7262995208839499 0.5036542447332164
-0.7262995208839499 0.5537481647839174
-0.6252529872186291 0.5938233008244782
-0.6108177681235833 0.5437293807737772
-0.6108177681235833 0.533710596763637
-0.639688206313675 0.5036542447332164
-0.7262995208839499 0.49363546072307624
-0.7551699590740416 0.5236918127534969
-0.7840403972641332 0.5036542447332164
-0.7407347399789957 0.47359789270279584
-0.7407347399789957 0.4635791086926556
-0.7118643017889041 0.4435415406723752
-0.7262995208839499 0.5136730287433566
-0.7262995208839499 0.5236918127534969
-0.7407347399789957 0.5537481647839174
-0.7118643017889041 0.5236918127534969
-0.6685586445037666 0.483616676712936
-0.6829938635988124 0.45356032468251545
-0.7118643017889041 0.40346640463181443
-0.7262995208839499 0.38342883661153404
-0.6974290826938583 0.3734100526013938
-0.6829938635988124 0.38342883661153404
-0.6108177681235833 0.36339126859125365
-0.6108177681235833 0.36339126859125365
-0.7118643017889041 0.3533724845811134
-0.6974290826938583 0.4134851886419546
-0.6541234254087208 0.43352275666223505
-0.5963825490285375 0.42350397265209483
-0.6108177681235833 0.4134851886419546
-0.6108177681235833 0.40346640463181443
-0.5386416726483542 0.4435415406723752
-0.4953360153632167 0.5236918127534969
-0.40872470079294176 0.5737857328041979
-0.3221133862226668 0.5637669487940576
-0.30767816712762097 0.4635791086926556
-0.35098382441275844 0.38342883661153404
-0.3654190435078043 0.38342883661153404
-0.29324294803257517 0.45356032468251545
-0.24993729074743767 0.5236918127534969
-0.24993729074743767 0.6038420848346184
-0.2066316334623002 0.6439172208751792
-0.19219641436725438 0.5938233008244782
-0.17776119527220854 0.49363546072307624
-0.1633259761771627 0.4134851886419546
-0.1488907570821169 0.3032785645304124
-0.22106685255734604 0.22312829244929083
-0.3221133862226668 0.11292166833774865
-0.40872470079294176 0.06282774828704765
-0.5097712344582626 0.052808964276907455
-0.5242064535533083 0.09288410031746826
-0.5530768917434 0.13295923635802906
-0.5530768917434 0.15299680437830945
-0.5530768917434 0.15299680437830945
-0.5963825490285375 0.06282774828704765
-0.6108177681235833 -0.05739765983463474
-0.5963825490285375 -0.05739765983463474
-0.6252529872186291 -0.01732252379407394
-0.6108177681235833 0.04279018026676725
-0.6685586445037666 0.06282774828704765
-0.6974290826938583 0.04279018026676725
-0.7696051781690874 0.012733828236346657
-0.7696051781690874 0.022752612246486857
-0.7551699590740416 0.04279018026676725
-0.7262995208839499 0.052808964276907455
-0.7407347399789957 0.002715044226206457
-0.7262995208839499 -0.007303739783933743
-0.6974290826938583 -0.027341307804214142
-0.7407347399789957 -0.007303739783933743
-0.7118643017889041 -0.007303739783933743
-0.7407347399789957 -0.027341307804214142
-0.8273460545492707 -0.08745401186505533
-0.8706517118344081 -0.13754793191575634
-0.9428278073096373 -0.17762306795631713
-0.9572630264046831 -0.19766063597659753
-0.9428278073096373 -0.19766063597659753
-0.885086930929454 -0.15758549993603674
-0.9139573691195456 -0.14756671592589654
-0.9572630264046831 -0.15758549993603674
-1.0005686836898207 -0.16760428394617694
-1.0150039027848665 -0.10749157988533574
-0.9716982454997289 -0.05739765983463474
-0.8562164927393623 -0.027341307804214142
-0.8273460545492707 -0.03736009181435434
-0.8417812736443165 -0.03736009181435434
-0.8129108354542248 -0.027341307804214142
-0.7407347399789957 0.052808964276907455
-0.7262995208839499 0.10290288432760845
-0.639688206313675 0.13295923635802906
-0.6252529872186291 0.14297802036816926
-0.6252529872186291 0.15299680437830945
-0.5675121108384459 0.16301558838844965
-0.4809007962681709 0.22312829244929083
-0.4809007962681709 0.29325978052027224
-0.45203035807807923 0.31329734854055263
-0.5386416726483542 0.27322221249999185
-0.639688206313675 0.23314707645943103
-0.7407347399789957 0.21310950843915064
-0.7118643017889041 0.20309072442901044
-0.639688206313675 0.20309072442901044
-0.6108177681235833 0.22312829244929083
-0.6541234254087208 0.24316586046957123
-0.6108177681235833 0.24316586046957123
-0.6252529872186291 0.23314707645943103
-0.6252529872186291 0.21310950843915064
-0.639688206313675 0.22312829244929083
-0.5530768917434 0.20309072442901044
-0.5097712344582626 0.24316586046957123
-0.4809007962681709 0.25318464447971145
-0.5242064535533083 0.27322221249999185
-0.5386416726483542 0.29325978052027224
-0.5819473299334916 0.24316586046957123
-0.6974290826938583 0.21310950843915064
-0.8995221500244999 0.21310950843915064
-1.130485655545233 0.09288410031746826
-1.1882265319254164 -0.27781090805771913
-1.130485655545233 -0.8188252446052899
-0.9861334645947748 -1.3598395811528607
-0.885086930929454 -2.031098109832254
-0.8129108354542248 -2.8726759666840307
-0.7118643017889041 -3.734291391556088
-0.6541234254087208 -4.495718976326743
-0.6685586445037666 -4.956583040793192
-0.6252529872186291 -5.116883584955436
-0.5097712344582626 -5.096846016935155
-0.3221133862226668 -4.896470336732351
0.009896652963387181 -4.425587488255761
0.5584349785751286 -3.4036715192214615
1.179149399662099 -2.131285949933656
1.5833355343233821 -0.8589003806458507
1.597770753418428 0.40346640463181443
1.3090663715175115 0.633898436865039
0.93375067504632 0.6539360048853194
0.4862588830998994 0.6138608688447587
0.1398136248187996 0.5537481647839174
-0.0911498807019336 0.5737857328041979
-0.1633259761771627 0.6238796528548988
-0.2788077289375293 0.6038420848346184
-0.42315991988798757 0.6038420848346184
-0.5097712344582626 0.6940111409258802
-0.5530768917434 0.7541238449867214
-0.4953360153632167 0.7741614130070018
-0.3942894816978959 0.7941989810272821
-0.3221133862226668 0.734086276966441
-0.29324294803257517 0.734086276966441
-0.29324294803257517 0.7240674929563008
-0.35098382441275844 0.7541238449867214
-0.30767816712762097 0.7741614130070018
-0.30767816712762097 0.7541238449867214
-0.3221133862226668 0.734086276966441
-0.33654860531771263 0.6940111409258802
-0.3798542626028501 0.7140487089461606
-0.35098382441275844 0.7441050609765812
-0.29324294803257517 0.7240674929563008
-0.22106685255734604 0.7240674929563008
-0.24993729074743767 0.6940111409258802
-0.3798542626028501 0.7240674929563008
-0.3654190435078043 0.7240674929563008
-0.3221133862226668 0.734086276966441
-0.2643725098424835 0.7441050609765812
-0.2066316334623002 0.7140487089461606
-0.24993729074743767 0.6739735729055998
-0.22106685255734604 0.6940111409258802
-0.2066316334623002 0.7240674929563008
-0.2066316334623002 0.7441050609765812
-0.17776119527220854 0.784180197017142
-0.17776119527220854 0.8442929010779832
-0.1633259761771627 0.834274117067843
-0.1633259761771627 0.7741614130070018
-0.22106685255734604 0.6739735729055998
-0.13445553798707108 0.7240674929563008
-0.03340900432175029 0.7641426289968616
0.03876709115347883 0.8042177650374224
0.03876709115347883 0.8242553330577028
-0.03340900432175029 0.7941989810272821
-0.018973785226704468 0.7240674929563008
0.009896652963387181 0.7040299249360205
-0.004538566131658644 0.7441050609765812
0.024331872058433006 0.7641426289968616
0.06763752934357048 0.7541238449867214
0.06763752934357048 0.734086276966441
0.03876709115347883 0.7240674929563008
0.053202310248524655 0.7441050609765812
0.11094318662870796 0.7441050609765812
0.1398136248187996 0.7040299249360205
0.18311928210393708 0.6639547888954596
0.22642493938907457 0.6639547888954596
0.16868406300889127 0.633898436865039
0.22642493938907457 0.6238796528548988
0.22642493938907457 0.6238796528548988
0.31303625395934953 0.5938233008244782
0.2552953775791662 0.5737857328041979
0.2552953775791662 0.5136730287433566
0.1975545011989829 0.483616676712936
0.1975545011989829 0.5136730287433566
0.29860103486430367 0.533710596763637
0.356341911244487 0.5236918127534969
0.41408278762467027 0.483616676712936
0.41408278762467027 0.42350397265209483
0.3707771303395328 0.34335370057097325
0.41408278762467027 0.283240996510132
0.38521234943457866 0.27322221249999185
0.38521234943457866 0.20309072442901044
0.4573884449098078 0.15299680437830945
0.3707771303395328 0.09288410031746826
0.32747147305439533 0.07284653229718785
0.32747147305439533 0.13295923635802906
0.41408278762467027 0.14297802036816926
0.4718236640048536 0.15299680437830945
0.44295322581476193 0.11292166833774865
0.39964756852962446 0.06282774828704765
0.356341911244487 -0.03736009181435434
0.32747147305439533 -0.04737887582449454
0.3707771303395328 0.002715044226206457
0.39964756852962446 0.032771396256627054
0.4573884449098078 0.032771396256627054
0.4285180067197161 0.052808964276907455
0.32747147305439533 0.022752612246486857
0.22642493938907457 0.002715044226206457
0.18311928210393708 -0.01732252379407394
0.2408601584841204 -0.03736009181435434
0.2552953775791662 -0.04737887582449454
0.16868406300889127 -0.07743522785491513
0.11094318662870796 -0.05739765983463474
0.11094318662870796 0.022752612246486857
0.08207274843861631 0.052808964276907455
0.06763752934357048 0.09288410031746826
0.009896652963387181 0.07284653229718785
-0.03340900432175029 0.012733828236346657
-0.0911498807019336 0.012733828236346657
-0.10558509979697943 0.07284653229718785
-0.12002031889202525 0.14297802036816926
-0.1488907570821169 0.19307194041887024
-0.19219641436725438 0.17303437239858985
-0.22106685255734604 0.12294045234788885
-0.23550207165239184 0.11292166833774865
-0.2788077289375293 0.13295923635802906
-0.24993729074743767 0.15299680437830945
-0.2788077289375293 0.15299680437830945
-0.23550207165239184 0.13295923635802906
-0.29324294803257517 0.14297802036816926
-0.3221133862226668 0.18305315640873004
-0.3654190435078043 0.22312829244929083
-0.3654190435078043 0.24316586046957123
-0.40872470079294176 0.23314707645943103
-0.46646557717312503 0.22312829244929083
-0.5530768917434 0.19307194041887024
-0.5675121108384459 0.23314707645943103
-0.4953360153632167 0.24316586046957123
-0.4375951389830334 0.3032785645304124
-0.3654190435078043 0.34335370057097325
-0.3942894816978959 0.3533724845811134
-0.40872470079294176 0.283240996510132
-0.4809007962681709 0.283240996510132
-0.4953360153632167 0.31329734854055263
-0.5530768917434 0.33333491656083303
-0.5963825490285375 0.36339126859125365
-0.5386416726483542 0.4134851886419546
-0.5386416726483542 0.3533724845811134
-0.5530768917434 0.3533724845811134
-0.5097712344582626 0.40346640463181443
-0.4809007962681709 0.4635791086926556
-0.4809007962681709 0.533710596763637
-0.5386416726483542 0.5036542447332164
-0.5675121108384459 0.4635791086926556
-0.6108177681235833 0.4134851886419546
-0.6108177681235833 0.40346640463181443
-0.6108177681235833 0.45356032468251545
-0.6108177681235833 0.4635791086926556
-0.6685586445037666 0.49363546072307624
-0.6974290826938583 0.5236918127534969
-0.7118643017889041 0.533710596763637
-0.7118643017889041 0.5537481647839174
-0.6829938635988124 0.5437293807737772
-0.6252529872186291 0.5236918127534969
-0.6541234254087208 0.5136730287433566
-0.639688206313675 0.483616676712936
-0.6685586445037666 0.49363546072307624
-0.6974290826938583 0.5236918127534969
-0.6541234254087208 0.533710596763637
-0.639688206313675 0.5236918127534969
-0.6974290826938583 0.49363546072307624
-0.7407347399789957 0.49363546072307624
-0.7696051781690874 0.4435415406723752
-0.7551699590740416 0.4435415406723752
-0.7407347399789957 0.47359789270279584
-0.6829938635988124 0.483616676712936
-0.6974290826938583 0.49363546072307624
-0.7407347399789957 0.483616676712936
-0.7984756163591791 0.4635791086926556
-0.8129108354542248 0.45356032468251545
-0.7262995208839499 0.4635791086926556
-0.6541234254087208 0.43352275666223505
-0.6541234254087208 0.3734100526013938
-0.6829938635988124 0.4134851886419546
-0.7407347399789957 0.3934476206216742
-0.6974290826938583 0.3934476206216742
-0.6974290826938583 0.4134851886419546
-0.6685586445037666 0.38342883661153404
-0.7262995208839499 0.34335370057097325
-0.7551699590740416 0.32331613255069286
-0.7840403972641332 0.36339126859125365
-0.7551699590740416 0.42350397265209483
-0.639688206313675 0.47359789270279584
-0.5675121108384459 0.5136730287433566
-0.5097712344582626 0.49363546072307624
-0.4953360153632167 0.4435415406723752
-0.5097712344582626 0.43352275666223505
-0.5097712344582626 0.5036542447332164
-0.4809007962681709 0.5036542447332164
-0.3942894816978959 0.4635791086926556
-0.3654190435078043 0.42350397265209483
-0.3798542626028501 0.36339126859125365
-0.3798542626028501 0.3934476206216742
-0.33654860531771263 0.4435415406723752
-0.29324294803257517 0.533710596763637
-0.2788077289375293 0.5737857328041979
-0.30767816712762097 0.583804516814338
-0.3221133862226668 0.5437293807737772
-0.35098382441275844 0.4635791086926556
-0.33654860531771263 0.33333491656083303
-0.35098382441275844 0.24316586046957123
-0.3798542626028501 0.15299680437830945
-0.42315991988798757 0.13295923635802906
-0.4809007962681709 0.13295923635802906
-0.5386416726483542 0.09288410031746826
-0.5963825490285375 0.09288410031746826
-0.6108177681235833 0.10290288432760845
-0.6541234254087208 0.12294045234788885
-0.6974290826938583 0.14297802036816926
-0.7551699590740416 0.12294045234788885
-0.7840403972641332 0.10290288432760845
-0.7407347399789957 0.11292166833774865
-0.7407347399789957 0.13295923635802906
-0.7262995208839499 0.12294045234788885
-0.8273460545492707 0.06282774828704765
-0.885086930929454 0.09288410031746826
-0.9283925882145915 0.06282774828704765
-0.8995221500244999 0.052808964276907455
-0.8995221500244999 0.022752612246486857
-0.8562164927393623 0.022752612246486857
-0.885086930929454 0.002715044226206457
-0.8995221500244999 0.012733828236346657
-0.9861334645947748 0.022752612246486857
-0.9572630264046831 0.052808964276907455
-0.8417812736443165 0.07284653229718785
-0.8995221500244999 0.032771396256627054
-0.8995221500244999 -0.027341307804214142
-0.9572630264046831 -0.06741644384477494
-0.9861334645947748 -0.06741644384477494
-0.9139573691195456 -0.04737887582449454
-0.8995221500244999 -0.08745401186505533
-0.885086930929454 -0.10749157988533574
-0.9716982454997289 -0.11751036389547594
-1.0150039027848665 -0.10749157988533574
-1.0727447791650497 -0.05739765983463474
-1.0583095600700039 -0.04737887582449454
-1.0583095600700039 -0.06741644384477494
-1.0005686836898207 -0.05739765983463474
-0.9283925882145915 -0.05739765983463474
-0.9716982454997289 -0.05739765983463474
-0.9428278073096373 -0.007303739783933743
-0.9428278073096373 0.04279018026676725
-0.8562164927393623 0.07284653229718785
-0.8273460545492707 0.09288410031746826
-0.7840403972641332 0.06282774828704765
-0.7696051781690874 0.032771396256627054
-0.8129108354542248 0.08286531630732805
-0.7984756163591791 0.15299680437830945
-0.7696051781690874 0.23314707645943103
-0.7551699590740416 0.29325978052027224
-0.7118643017889041 0.27322221249999185
-0.7407347399789957 0.2632034284898516
-0.7840403972641332 0.29325978052027224
-0.7840403972641332 0.3533724845811134
-0.7551699590740416 0.38342883661153404
-0.7262995208839499 0.3934476206216742
-0.6829938635988124 0.3734100526013938
-0.6685586445037666 0.25318464447971145
-0.7118643017889041 0.23314707645943103
-0.6829938635988124 0.283240996510132
-0.6541234254087208 0.32331613255069286
-0.6108177681235833 0.36339126859125365
-0.6252529872186291 0.32331613255069286
-0.6685586445037666 0.25318464447971145
-0.7118643017889041 0.18305315640873004
-0.6252529872186291 0.24316586046957123
-0.5242064535533083 0.2632034284898516
-0.4953360153632167 0.32331613255069286
-0.5530768917434 0.38342883661153404
-0.5819473299334916 0.3734100526013938
-0.6541234254087208 0.3533724845811134
-0.7407347399789957 0.34335370057097325
-0.8417812736443165 0.34335370057097325
-0.9861334645947748 0.34335370057097325
-1.1016152173551415 0.15299680437830945
-1.2170969701155079 -0.3779987481591211
-1.2026617510204622 -0.9991633567878134
-1.0871799982600956 -1.620327965416506
-0.9572630264046831 -2.33166163013646
-0.8417812736443165 -3.0429952948564143
-0.7407347399789957 -3.7843853116067887
-0.7262995208839499 -4.445625056276042
-0.6829938635988124 -4.906489120742491
-0.6252529872186291 -5.096846016935155
-0.5097712344582626 -5.126902368965576
-0.30767816712762097 -5.016695744854033
0.009896652963387181 -4.7562073605903885
0.5006941021949453 -4.185136672012397
1.0492324278066867 -3.1532019189679565
1.4822890006580614 -1.880816349680151
1.756558163463932 -0.6084307803923457
1.669946848893657 0.4435415406723752
1.4245481242778781 0.8543116850881234
1.179149399662099 0.984555877219946
0.8760097986661367 0.9144243891489646
0.601740635860266 0.8743492531084038
0.29860103486430367 0.8142365490475626
0.08207274843861631 0.7741614130070018
-0.07671466160688777 0.8242553330577028
-0.2643725098424835 0.8543116850881234
-0.3798542626028501 0.8743492531084038
-0.42315991988798757 0.8643304690982636
-0.42315991988798757 0.8743492531084038
-0.33654860531771263 0.9144243891489646
-0.2643725098424835 0.9544995251895254
-0.29324294803257517 0.9645183091996656
-0.29324294803257517 1.0045934452402263
-0.29324294803257517 1.0546873652909274
-0.24993729074743767 1.0246310132605068
-0.24993729074743767 0.9645183091996656
-0.29324294803257517 0.8943868211286842
-0.3221133862226668 0.834274117067843
-0.33654860531771263 0.834274117067843
-0.2788077289375293 0.884368037118544
-0.2643725098424835 0.9244431731591048
-0.22106685255734604 0.9244431731591048
-0.23550207165239184 0.9144243891489646
-0.2643725098424835 0.9044056051388244
-0.30767816712762097 0.884368037118544
-0.3221133862226668 0.8943868211286842
-0.29324294803257517 0.9544995251895254
-0.22106685255734604 0.9645183091996656
-0.19219641436725438 0.9645183091996656
-0.13445553798707108 0.9544995251895254
-0.13445553798707108 0.9144243891489646
-0.0911498807019336 0.934461957169245
-0.12002031889202525 0.9544995251895254
-0.07671466160688777 0.9645183091996656
-0.06227944251184195 0.9544995251895254
-0.06227944251184195 0.9544995251895254
-0.10558509979697943 0.9144243891489646
-0.07671466160688777 0.934461957169245
-0.047844223416796124 0.9544995251895254
-0.018973785226704468 1.0045934452402263
0.024331872058433006 0.984555877219946
0.024331872058433006 0.9444807411793852
0.024331872058433006 0.9144243891489646
0.009896652963387181 0.9144243891489646
0.053202310248524655 0.9044056051388244
0.11094318662870796 0.934461957169245
0.15424884391384544 0.9244431731591048
0.16868406300889127 0.884368037118544
0.18311928210393708 0.8943868211286842
0.1975545011989829 0.9544995251895254
0.21198972029402874 0.9945746612300862
0.2408601584841204 0.984555877219946
0.22642493938907457 0.9444807411793852
0.1975545011989829 0.884368037118544
0.1975545011989829 0.8743492531084038
0.2408601584841204 0.8743492531084038
0.32747147305439533 0.8543116850881234
0.38521234943457866 0.8543116850881234
0.3419066921494412 0.8543116850881234
0.3419066921494412 0.8242553330577028
0.32747147305439533 0.8042177650374224
0.3707771303395328 0.784180197017142
0.41408278762467027 0.784180197017142
0.5006941021949453 0.7641426289968616
0.5151293212899911 0.784180197017142
0.4718236640048536 0.7140487089461606
0.4718236640048536 0.6639547888954596
0.4718236640048536 0.6238796528548988
0.5295645403850369 0.6038420848346184
0.601740635860266 0.583804516814338
0.5728701976701743 0.5637669487940576
0.5295645403850369 0.49363546072307624
0.4573884449098078 0.42350397265209483
0.4573884449098078 0.40346640463181443
0.5584349785751286 0.4134851886419546
0.688351950430541 0.38342883661153404
0.7172223886206326 0.3734100526013938
0.6739167313354951 0.3533724845811134
0.601740635860266 0.33333491656083303
0.5873054167652202 0.3032785645304124
0.5439997594800827 0.29325978052027224
0.5439997594800827 0.24316586046957123
0.5728701976701743 0.20309072442901044
0.5728701976701743 0.15299680437830945
0.6161758549553118 0.08286531630732805
0.5873054167652202 0.11292166833774865
0.6594815122404494 0.14297802036816926
0.5873054167652202 0.15299680437830945
0.6306110740503577 0.09288410031746826
0.5295645403850369 0.032771396256627054
0.39964756852962446 0.012733828236346657
0.3707771303395328 0.04279018026676725
0.3419066921494412 0.06282774828704765
0.41408278762467027 0.08286531630732805
0.3707771303395328 0.11292166833774865
0.356341911244487 0.14297802036816926
0.3419066921494412 0.16301558838844965
0.2408601584841204 0.16301558838844965
0.2408601584841204 0.18305315640873004
0.2552953775791662 0.14297802036816926
0.26973059667421206 0.10290288432760845
0.18311928210393708 0.11292166833774865
0.09650796753366213 0.12294045234788885
0.06763752934357048 0.19307194041887024
0.053202310248524655 0.23314707645943103
0.03876709115347883 0.22312829244929083
-0.06227944251184195 0.18305315640873004
-0.0911498807019336 0.15299680437830945
-0.17776119527220854 0.12294045234788885
-0.17776119527220854 0.19307194041887024
-0.13445553798707108 0.23314707645943103
-0.13445553798707108 0.23314707645943103
-0.17776119527220854 0.27322221249999185
-0.2066316334623002 0.27322221249999185
-0.24993729074743767 0.27322221249999185
-0.22106685255734604 0.3032785645304124
-0.23550207165239184 0.31329734854055263
-0.2066316334623002 0.283240996510132
-0.19219641436725438 0.27322221249999185
-0.17776119527220854 0.29325978052027224
-0.2788077289375293 0.3032785645304124
-0.2788077289375293 0.3533724845811134
-0.2643725098424835 0.38342883661153404
-0.2788077289375293 0.40346640463181443
-0.30767816712762097 0.3734100526013938
-0.3221133862226668 0.3533724845811134
-0.30767816712762097 0.38342883661153404
-0.29324294803257517 0.45356032468251545
-0.30767816712762097 0.5036542447332164
-0.33654860531771263 0.5437293807737772
-0.3798542626028501 0.533710596763637
-0.42315991988798757 0.4435415406723752
-0.5097712344582626 0.40346640463181443
-0.5242064535533083 0.40346640463181443
-0.5386416726483542 0.42350397265209483
-0.5097712344582626 0.5036542447332164
-0.4375951389830334 0.5537481647839174
-0.40872470079294176 0.5537481647839174
-0.4375951389830334 0.5437293807737772
-0.40872470079294176 0.5737857328041979
-0.3942894816978959 0.6138608688447587
-0.4375951389830334 0.5637669487940576
-0.46646557717312503 0.533710596763637
-0.5530768917434 0.5136730287433566
-0.5386416726483542 0.49363546072307624
-0.5242064535533083 0.5437293807737772
-0.5097712344582626 0.5537481647839174
-0.5386416726483542 0.5437293807737772
-0.5675121108384459 0.5236918127534969
-0.5819473299334916 0.49363546072307624
-0.6252529872186291 0.4435415406723752
-0.6685586445037666 0.4635791086926556
-0.6541234254087208 0.47359789270279584
-0.6108177681235833 0.49363546072307624
-0.5963825490285375 0.5236918127534969
-0.6252529872186291 0.4635791086926556
-0.6829938635988124 0.4134851886419546
-0.6974290826938583 0.4134851886419546
-0.7118643017889041 0.4435415406723752
-0.6974290826938583 0.483616676712936
-0.6685586445037666 0.49363546072307624
-0.639688206313675 0.42350397265209483
-0.6685586445037666 0.40346640463181443
-0.6541234254087208 0.42350397265209483
-0.6108177681235833 0.4134851886419546
-0.5530768917434 0.42350397265209483
-0.6252529872186291 0.4435415406723752
-0.6829938635988124 0.40346640463181443
-0.6974290826938583 0.33333491656083303
-0.6829938635988124 0.34335370057097325
-0.6541234254087208 0.36339126859125365
-0.639688206313675 0.3934476206216742
-0.5963825490285375 0.4435415406723752
-0.639688206313675 0.40346640463181443
-0.5675121108384459 0.40346640463181443
-0.5675121108384459 0.3934476206216742
-0.5242064535533083 0.43352275666223505
-0.46646557717312503 0.45356032468251545
-0.3942894816978959 0.45356032468251545
-0.3221133862226668 0.4435415406723752
-0.23550207165239184 0.45356032468251545
-0.23550207165239184 0.4635791086926556
-0.19219641436725438 0.49363546072307624
-0.2066316334623002 0.533710596763637
-0.22106685255734604 0.5236918127534969
-0.2788077289375293 0.5236918127534969
-0.30767816712762097 0.5236918127534969
-0.2788077289375293 0.5036542447332164
-0.24993729074743767 0.3934476206216742
-0.23550207165239184 0.283240996510132
-0.2643725098424835 0.19307194041887024
-0.3798542626028501 0.06282774828704765
-0.45203035807807923 0.04279018026676725
-0.45203035807807923 0.07284653229718785
-0.4809007962681709 0.09288410031746826
-0.5530768917434 0.07284653229718785
-0.5819473299334916 0.04279018026676725
-0.5675121108384459 0.022752612246486857
-0.6541234254087208 0.012733828236346657
-0.6108177681235833 0.07284653229718785
-0.5675121108384459 0.11292166833774865
-0.5675121108384459 0.07284653229718785
-0.639688206313675 0.052808964276907455
-0.6974290826938583 -0.03736009181435434
-0.7696051781690874 -0.007303739783933743
-0.7984756163591791 0.032771396256627054
-0.7840403972641332 0.08286531630732805
-0.7696051781690874 0.052808964276907455
-0.7262995208839499 -0.007303739783933743
-0.7118643017889041 -0.03736009181435434
-0.7696051781690874 -0.03736009181435434
-0.7984756163591791 0.002715044226206457
-0.7551699590740416 -0.007303739783933743
-0.7696051781690874 -0.04737887582449454
-0.7696051781690874 -0.09747279587519554
-0.7840403972641332 -0.09747279587519554
-0.8273460545492707 -0.09747279587519554
-0.8273460545492707 -0.06741644384477494
-0.8129108354542248 -0.07743522785491513
-0.8129108354542248 -0.03736009181435434
-0.8562164927393623 -0.08745401186505533
-0.9139573691195456 -0.14756671592589654
-0.9716982454997289 -0.18764185196645733
-0.9428278073096373 -0.21769820399687792
-0.8995221500244999 -0.24775455602729854
-0.8273460545492707 -0.18764185196645733
-0.8562164927393623 -0.17762306795631713
-0.8995221500244999 -0.14756671592589654
-0.9139573691195456 -0.11751036389547594
-0.9139573691195456 -0.11751036389547594
-0.8417812736443165 -0.08745401186505533
-0.7840403972641332 -0.07743522785491513
-0.7118643017889041 -0.08745401186505533
-0.7551699590740416 -0.07743522785491513
-0.7551699590740416 -0.04737887582449454
-0.7118643017889041 0.032771396256627054
-0.6685586445037666 0.14297802036816926
-0.5963825490285375 0.21310950843915064
-0.5963825490285375 0.24316586046957123
-0.5675121108384459 0.21310950843915064
-0.5963825490285375 0.22312829244929083
-0.6108177681235833 0.24316586046957123
-0.6108177681235833 0.21310950843915064
-0.5963825490285375 0.19307194041887024
-0.5530768917434 0.21310950843915064
-0.5242064535533083 0.19307194041887024
-0.5386416726483542 0.20309072442901044
-0.5675121108384459 0.20309072442901044
-0.5819473299334916 0.17303437239858985
-0.5675121108384459 0.17303437239858985
-0.5386416726483542 0.13295923635802906
-0.5675121108384459 0.08286531630732805
-0.5675121108384459 0.10290288432760845
-0.5819473299334916 0.15299680437830945
-0.5242064535533083 0.21310950843915064
-0.5242064535533083 0.283240996510132
-0.5386416726483542 0.33333491656083303
-0.5386416726483542 0.29325978052027224
-0.639688206313675 0.23314707645943103
-0.7118643017889041 0.18305315640873004
-0.8129108354542248 0.14297802036816926
-0.9716982454997289 0.12294045234788885
-1.0871799982600956 0.032771396256627054
-1.130485655545233 -0.25777334003743874
-1.1160504364501873 -0.7887688925748693
-1.0005686836898207 -1.32978322912244
-0.9139573691195456 -1.880816349680151
-0.8273460545492707 -2.5620936623696844
-0.7118643017889041 -3.3635963831809006
-0.6252529872186291 -4.185136672012397
-0.5675121108384459 -4.796282496630949
-0.4375951389830334 -5.096846016935155
-0.30767816712762097 -5.146939936985856
-0.10558509979697943 -5.006676960843893
0.12537840572375378 -4.696094656529547
0.5151293212899911 -4.074930047900855
0.9914915514265034 -2.9628450227752925
1.4101129051828323 -1.6904594534874873
1.6122059725134739 -0.4481302362301025
1.5689003152283363 0.24316586046957123
1.438983343372924 0.5437293807737772
1.2801959333274198 0.6539360048853194
1.0636676469017325 0.7040299249360205
0.7605280459057701 0.6940111409258802
0.39964756852962446 0.6539360048853194
0.16868406300889127 0.6138608688447587
-0.03340900432175029 0.583804516814338
-0.22106685255734604 0.583804516814338
-0.3798542626028501 0.6138608688447587
-0.42315991988798757 0.6539360048853194
-0.40872470079294176 0.6439172208751792
-0.29324294803257517 0.6639547888954596
-0.29324294803257517 0.6539360048853194
-0.29324294803257517 0.734086276966441
-0.3221133862226668 0.7741614130070018
-0.35098382441275844 0.8142365490475626
-0.33654860531771263 0.784180197017142
-0.29324294803257517 0.7741614130070018
-0.2788077289375293 0.7641426289968616
-0.29324294803257517 0.7240674929563008
-0.29324294803257517 0.7240674929563008
-0.3221133862226668 0.7441050609765812
-0.24993729074743767 0.7741614130070018
-0.10558509979697943 0.7941989810272821
-0.0911498807019336 0.7541238449867214
-0.12002031889202525 0.68399235691574
-0.19219641436725438 0.6639547888954596
-0.2066316334623002 0.6940111409258802
-0.2066316334623002 0.7641426289968616
-0.1633259761771627 0.7741614130070018
-0.1633259761771627 0.7741614130070018
-0.19219641436725438 0.734086276966441
-0.22106685255734604 0.7541238449867214
-0.24993729074743767 0.7641426289968616
-0.17776119527220854 0.7441050609765812
-0.1488907570821169 0.734086276966441
-0.0911498807019336 0.7441050609765812
-0.0911498807019336 0.7040299249360205
-0.10558509979697943 0.7140487089461606
-0.07671466160688777 0.7641426289968616
-0.03340900432175029 0.8142365490475626
-0.018973785226704468 0.7741614130070018
-0.047844223416796124 0.7140487089461606
-0.0911498807019336 0.6739735729055998
-0.13445553798707108 0.7040299249360205
-0.12002031889202525 0.7441050609765812
-0.03340900432175029 0.7441050609765812
0.03876709115347883 0.7240674929563008
0.09650796753366213 0.7140487089461606
0.08207274843861631 0.7140487089461606
0.03876709115347883 0.7240674929563008
0.08207274843861631 0.7240674929563008
0.03876709115347883 0.6940111409258802
0.08207274843861631 0.6739735729055998
0.08207274843861631 0.68399235691574
0.09650796753366213 0.6539360048853194
0.1398136248187996 0.6439172208751792
0.1975545011989829 0.6739735729055998
0.28416581576925787 0.6639547888954596
0.39964756852962446 0.6739735729055998
0.39964756852962446 0.6739735729055998
0.3419066921494412 0.6639547888954596
0.26973059667421206 0.633898436865039
0.28416581576925787 0.6138608688447587
0.29860103486430367 0.5537481647839174
0.39964756852962446 0.49363546072307624
0.44295322581476193 0.47359789270279584
0.44295322581476193 0.45356032468251545
0.4285180067197161 0.45356032468251545
0.39964756852962446 0.4435415406723752
0.3707771303395328 0.40346640463181443
0.39964756852962446 0.3734100526013938
0.41408278762467027 0.283240996510132
0.38521234943457866 0.2632034284898516
0.4573884449098078 0.22312829244929083
0.4718236640048536 0.24316586046957123
0.5295645403850369 0.24316586046957123
0.5873054167652202 0.21310950843915064
0.5584349785751286 0.14297802036816926
0.5006941021949453 0.08286531630732805
0.4573884449098078 0.022752612246486857
0.44295322581476193 0.012733828236346657
0.4718236640048536 0.04279018026676725
0.5151293212899911 0.07284653229718785
0.4862588830998994 0.032771396256627054
0.4862588830998994 0.022752612246486857
0.4718236640048536 -0.01732252379407394
0.44295322581476193 -0.007303739783933743
0.44295322581476193 -0.05739765983463474
0.5006941021949453 -0.12752914790561615
0.4285180067197161 -0.14756671592589654
0.41408278762467027 -0.12752914790561615
0.38521234943457866 -0.12752914790561615
0.356341911244487 -0.07743522785491513
0.32747147305439533 -0.03736009181435434
0.3707771303395328 -0.007303739783933743
0.3419066921494412 -0.007303739783933743
0.28416581576925787 -0.05739765983463474
0.2408601584841204 -0.06741644384477494
0.1975545011989829 -0.03736009181435434
0.1398136248187996 -0.027341307804214142
0.1398136248187996 -0.03736009181435434
0.09650796753366213 -0.027341307804214142
0.03876709115347883 -0.027341307804214142
-0.03340900432175029 -0.027341307804214142
-0.06227944251184195 -0.027341307804214142
-0.06227944251184195 0.04279018026676725
-0.07671466160688777 0.09288410031746826
-0.1488907570821169 0.09288410031746826
-0.1633259761771627 0.012733828236346657
-0.23550207165239184 -0.027341307804214142
-0.2066316334623002 0.012733828236346657
-0.1488907570821169 0.06282774828704765
-0.0911498807019336 0.08286531630732805
-0.1633259761771627 0.13295923635802906
-0.22106685255734604 0.12294045234788885
-0.30767816712762097 0.12294045234788885
-0.33654860531771263 0.16301558838844965
-0.33654860531771263 0.09288410031746826
-0.30767816712762097 0.04279018026676725
-0.2788077289375293 0.012733828236346657
-0.29324294803257517 0.06282774828704765
-0.33654860531771263 0.06282774828704765
-0.3221133862226668 0.13295923635802906
-0.3221133862226668 0.18305315640873004
-0.2788077289375293 0.18305315640873004
-0.3221133862226668 0.18305315640873004
-0.33654860531771263 0.15299680437830945
-0.42315991988798757 0.15299680437830945
-0.42315991988798757 0.17303437239858985
-0.3942894816978959 0.18305315640873004
-0.35098382441275844 0.21310950843915064
-0.33654860531771263 0.21310950843915064
-0.33654860531771263 0.25318464447971145
-0.3942894816978959 0.27322221249999185
-0.42315991988798757 0.32331613255069286
-0.40872470079294176 0.33333491656083303
-0.3798542626028501 0.32331613255069286
-0.3942894816978959 0.31329734854055263
-0.40872470079294176 0.283240996510132
-0.45203035807807923 0.29325978052027224
-0.42315991988798757 0.38342883661153404
-0.4375951389830334 0.40346640463181443
-0.3942894816978959 0.3934476206216742
-0.4375951389830334 0.3533724845811134
-0.46646557717312503 0.3032785645304124
-0.4953360153632167 0.32331613255069286
-0.5242064535533083 0.34335370057097325
-0.5097712344582626 0.3734100526013938
-0.46646557717312503 0.40346640463181443
-0.46646557717312503 0.3934476206216742
-0.45203035807807923 0.3734100526013938
-0.4953360153632167 0.34335370057097325
-0.4809007962681709 0.36339126859125365
-0.4953360153632167 0.4134851886419546
-0.5242064535533083 0.4635791086926556
-0.5675121108384459 0.45356032468251545
-0.6108177681235833 0.40346640463181443
-0.6108177681235833 0.36339126859125365
-0.5819473299334916 0.3734100526013938
-0.5530768917434 0.38342883661153404
-0.4953360153632167 0.40346640463181443
-0.5242064535533083 0.4134851886419546
-0.5386416726483542 0.3734100526013938
-0.5963825490285375 0.34335370057097325
-0.6252529872186291 0.34335370057097325
-0.6252529872186291 0.3533724845811134
-0.639688206313675 0.3734100526013938
-0.6252529872186291 0.33333491656083303
-0.6252529872186291 0.3032785645304124
-0.6108177681235833 0.25318464447971145
-0.5819473299334916 0.23314707645943103
-0.5675121108384459 0.2632034284898516
-0.5242064535533083 0.2632034284898516
-0.5675121108384459 0.25318464447971145
-0.5963825490285375 0.21310950843915064
-0.6541234254087208 0.16301558838844965
-0.6829938635988124 0.14297802036816926
-0.6252529872186291 0.14297802036816926
-0.5675121108384459 0.20309072442901044
-0.5386416726483542 0.20309072442901044
-0.5675121108384459 0.20309072442901044
-0.6108177681235833 0.23314707645943103
-0.6108177681235833 0.283240996510132
-0.5819473299334916 0.31329734854055263
-0.4953360153632167 0.31329734854055263
-0.46646557717312503 0.29325978052027224
-0.42315991988798757 0.283240996510132
-0.3942894816978959 0.27322221249999185
-0.3654190435078043 0.3032785645304124
-0.29324294803257517 0.32331613255069286
-0.19219641436725438 0.32331613255069286
-0.1633259761771627 0.31329734854055263
-0.2066316334623002 0.283240996510132
-0.19219641436725438 0.3032785645304124
-0.1488907570821169 0.31329734854055263
-0.1633259761771627 0.3533724845811134
-0.1633259761771627 0.3934476206216742
-0.1488907570821169 0.45356032468251545
-0.10558509979697943 0.45356032468251545
-0.06227944251184195 0.43352275666223505
-0.06227944251184195 0.3533724845811134
-0.07671466160688777 0.24316586046957123
-0.10558509979697943 0.14297802036816926
-0.17776119527220854 0.052808964276907455
-0.24993729074743767 0.002715044226206457
-0.2788077289375293 -0.027341307804214142
-0.35098382441275844 -0.05739765983463474
-0.33654860531771263 -0.07743522785491513
-0.3654190435078043 -0.06741644384477494
-0.40872470079294176 -0.06741644384477494
-0.4375951389830334 -0.06741644384477494
-0.5097712344582626 -0.09747279587519554
-0.5819473299334916 -0.06741644384477494
-0.5675121108384459 -0.05739765983463474
-0.639688206313675 -0.09747279587519554
-0.6829938635988124 -0.11751036389547594
-0.6829938635988124 -0.13754793191575634
-0.6974290826938583 -0.11751036389547594
-0.6541234254087208 -0.04737887582449454
-0.6685586445037666 0.012733828236346657
-0.5963825490285375 0.012733828236346657
-0.5675121108384459 -0.03736009181435434
-0.6108177681235833 -0.12752914790561615
-0.6541234254087208 -0.20767941998673772
-0.6974290826938583 -0.21769820399687792
-0.7407347399789957 -0.15758549993603674
-0.7407347399789957 -0.13754793191575634
-0.7696051781690874 -0.16760428394617694
-0.7840403972641332 -0.22771698800701812
-0.7984756163591791 -0.23773577201715831
-0.8273460545492707 -0.22771698800701812
-0.7551699590740416 -0.18764185196645733
-0.6829938635988124 -0.14756671592589654
-0.7262995208839499 -0.18764185196645733
-0.7551699590740416 -0.2677921240475789
-0.7840403972641332 -0.2978484760779995
-0.8273460545492707 -0.27781090805771913
-0.7840403972641332 -0.27781090805771913
-0.7262995208839499 -0.2878296920678593
-0.7551699590740416 -0.27781090805771913
-0.7407347399789957 -0.2978484760779995
-0.7551699590740416 -0.2878296920678593
-0.7551699590740416 -0.24775455602729854
-0.7551699590740416 -0.21769820399687792
-0.7407347399789957 -0.18764185196645733
-0.7696051781690874 -0.22771698800701812
-0.7696051781690874 -0.25777334003743874
-0.7551699590740416 -0.25777334003743874
-0.6974290826938583 -0.18764185196645733
-0.5675121108384459 -0.11751036389547594
-0.5097712344582626 -0.03736009181435434
-0.5097712344582626 0.022752612246486857
-0.5386416726483542 0.04279018026676725
-0.5386416726483542 0.012733828236346657
-0.5819473299334916 0.04279018026676725
-0.6108177681235833 0.08286531630732805
-0.6252529872186291 0.11292166833774865
-0.5963825490285375 0.07284653229718785
-0.5386416726483542 0.04279018026676725
-0.4953360153632167 0.052808964276907455
-0.45203035807807923 0.15299680437830945
-0.40872470079294176 0.21310950843915064
-0.4375951389830334 0.22312829244929083
-0.4809007962681709 0.19307194041887024
-0.4953360153632167 0.12294045234788885
-0.5097712344582626 0.08286531630732805
-0.46646557717312503 0.08286531630732805
-0.45203035807807923 0.12294045234788885
-0.30767816712762097 0.16301558838844965
-0.2643725098424835 0.18305315640873004
-0.2643725098424835 0.16301558838844965
-0.3221133862226668 0.12294045234788885
-0.29324294803257517 0.13295923635802906
-0.30767816712762097 0.17303437239858985
-0.33654860531771263 0.18305315640873004
-0.40872470079294176 0.19307194041887024
-0.45203035807807923 0.18305315640873004
-0.5819473299334916 0.16301558838844965
-0.639688206313675 0.19307194041887024
-0.639688206313675 0.20309072442901044
-0.6829938635988124 0.23314707645943103
-0.8417812736443165 0.23314707645943103
-0.9716982454997289 0.002715044226206457
-1.043874340974958 -0.4481302362301025
-1.0294391218799122 -0.9590882207472526
-0.9572630264046831 -1.379877149173141
-0.8995221500244999 -1.8006660775990295
-0.8562164927393623 -2.4518870382581426
-0.7551699590740416 -3.2533897590693583
-0.6541234254087208 -4.004798559829873
-0.5097712344582626 -4.595906816428145
-0.3942894816978959 -4.986639392823613
-0.2788077289375293 -5.2270902090669775
-0.17776119527220854 -5.287202913127818
-0.17776119527220854 -5.2070526410466975
0.024331872058433006 -4.966601824803332
0.356341911244487 -4.285324512113799
0.8904450177611826 -3.1632207029780965
1.438983343372924 -1.890835133690291
1.7854286016540237 -0.6284683484126261
1.7854286016540237 0.15299680437830945
1.6410764107035654 0.49363546072307624
1.4245481242778781 0.6739735729055998
1.1647141805670531 0.68399235691574
0.9481858941413658 0.5938233008244782
0.6161758549553118 0.5036542447332164
0.31303625395934953 0.5036542447332164
0.12537840572375378 0.5437293807737772
-0.03340900432175029 0.633898436865039
-0.07671466160688777 0.6739735729055998
-0.07671466160688777 0.7040299249360205
-0.10558509979697943 0.68399235691574
-0.1488907570821169 0.6639547888954596
-0.17776119527220854 0.6439172208751792
-0.19219641436725438 0.6439172208751792
-0.2066316334623002 0.6539360048853194
-0.17776119527220854 0.633898436865039
-0.19219641436725438 0.6238796528548988
-0.2066316334623002 0.6138608688447587
-0.17776119527220854 0.633898436865039
-0.13445553798707108 0.6439172208751792
-0.0911498807019336 0.68399235691574
-0.06227944251184195 0.7040299249360205
-0.0911498807019336 0.68399235691574
-0.07671466160688777 0.6539360048853194
-0.1633259761771627 0.6138608688447587
-0.1633259761771627 0.6138608688447587
-0.1633259761771627 0.633898436865039
-0.10558509979697943 0.6439172208751792
-0.10558509979697943 0.6639547888954596
-0.03340900432175029 0.6539360048853194
-0.03340900432175029 0.6539360048853194
-0.03340900432175029 0.6739735729055998
0.03876709115347883 0.7040299249360205
0.09650796753366213 0.7240674929563008
0.06763752934357048 0.6940111409258802
-0.004538566131658644 0.68399235691574
-0.018973785226704468 0.6639547888954596
0.024331872058433006 0.6739735729055998
0.053202310248524655 0.7040299249360205
0.12537840572375378 0.7140487089461606
0.15424884391384544 0.7641426289968616
0.15424884391384544 0.734086276966441
0.1398136248187996 0.7240674929563008
0.08207274843861631 0.68399235691574
0.12537840572375378 0.68399235691574
0.16868406300889127 0.6439172208751792
0.15424884391384544 0.6038420848346184
0.1398136248187996 0.5938233008244782
0.12537840572375378 0.6138608688447587
0.1398136248187996 0.6439172208751792
0.16868406300889127 0.7040299249360205
0.28416581576925787 0.6940111409258802
0.26973059667421206 0.6639547888954596
0.2552953775791662 0.6639547888954596
0.2408601584841204 0.6439172208751792
0.21198972029402874 0.6639547888954596
0.2552953775791662 0.6439172208751792
0.29860103486430367 0.6238796528548988
0.26973059667421206 0.6138608688447587
0.28416581576925787 0.583804516814338
0.31303625395934953 0.5938233008244782
0.3707771303395328 0.6038420848346184
0.38521234943457866 0.6038420848346184
0.38521234943457866 0.633898436865039
0.38521234943457866 0.6439172208751792
0.3419066921494412 0.6138608688447587
0.31303625395934953 0.5437293807737772
0.3419066921494412 0.533710596763637
0.39964756852962446 0.5637669487940576
0.4862588830998994 0.5537481647839174
0.5873054167652202 0.5737857328041979
0.6161758549553118 0.5437293807737772
0.6450462931454035 0.47359789270279584
0.6450462931454035 0.483616676712936
0.7172223886206326 0.5136730287433566
0.7027871695255868 0.4635791086926556
0.6739167313354951 0.4134851886419546
0.6594815122404494 0.33333491656083303
0.601740635860266 0.25318464447971145
0.6161758549553118 0.22312829244929083
0.6161758549553118 0.21310950843915064
0.7172223886206326 0.22312829244929083
0.7316576077156784 0.19307194041887024
0.7460928268107243 0.16301558838844965
0.7172223886206326 0.14297802036816926
0.688351950430541 0.13295923635802906
0.688351950430541 0.07284653229718785
0.6450462931454035 0.002715044226206457
0.601740635860266 0.022752612246486857
0.6161758549553118 0.04279018026676725
0.6161758549553118 0.032771396256627054
0.601740635860266 0.07284653229718785
0.6594815122404494 0.052808964276907455
0.7460928268107243 -0.01732252379407394
0.7460928268107243 -0.05739765983463474
0.7316576077156784 -0.10749157988533574
0.7316576077156784 -0.15758549993603674
0.7172223886206326 -0.14756671592589654
0.7316576077156784 -0.10749157988533574
0.7605280459057701 -0.09747279587519554
0.7172223886206326 -0.11751036389547594
0.6594815122404494 -0.15758549993603674
0.5873054167652202 -0.18764185196645733
0.5728701976701743 -0.19766063597659753
0.6161758549553118 -0.18764185196645733
0.6450462931454035 -0.18764185196645733
0.5728701976701743 -0.18764185196645733
0.5439997594800827 -0.23773577201715831
0.44295322581476193 -0.2978484760779995
0.38521234943457866 -0.2978484760779995
0.39964756852962446 -0.2878296920678593
0.3707771303395328 -0.24775455602729854
0.32747147305439533 -0.15758549993603674
0.31303625395934953 -0.15758549993603674
0.26973059667421206 -0.14756671592589654
0.2408601584841204 -0.13754793191575634
0.28416581576925787 -0.12752914790561615
0.2408601584841204 -0.09747279587519554
0.1975545011989829 -0.09747279587519554
0.09650796753366213 -0.13754793191575634
0.009896652963387181 -0.16760428394617694
-0.018973785226704468 -0.16760428394617694
0.053202310248524655 -0.16760428394617694
0.11094318662870796 -0.13754793191575634
0.09650796753366213 -0.10749157988533574
0.11094318662870796 -0.11751036389547594
-0.004538566131658644 -0.14756671592589654
0.024331872058433006 -0.09747279587519554
0.08207274843861631 -0.07743522785491513
0.08207274843861631 -0.06741644384477494
0.009896652963387181 -0.08745401186505533
-0.06227944251184195 -0.09747279587519554
-0.12002031889202525 -0.10749157988533574
-0.1633259761771627 -0.07743522785491513
-0.1633259761771627 0.002715044226206457
-0.0911498807019336 0.022752612246486857
-0.047844223416796124 0.022752612246486857
-0.03340900432175029 0.04279018026676725
-0.047844223416796124 0.06282774828704765
-0.047844223416796124 0.09288410031746826
-0.047844223416796124 0.07284653229718785
-0.06227944251184195 0.04279018026676725
-0.12002031889202525 0.022752612246486857
-0.2066316334623002 0.04279018026676725
-0.2066316334623002 0.06282774828704765
-0.2643725098424835 0.09288410031746826
-0.22106685255734604 0.11292166833774865
-0.1633259761771627 0.09288410031746826
-0.1488907570821169 0.052808964276907455
-0.1633259761771627 0.022752612246486857
-0.17776119527220854 0.002715044226206457
-0.2066316334623002 0.052808964276907455
-0.2643725098424835 0.13295923635802906
-0.19219641436725438 0.18305315640873004
-0.19219641436725438 0.16301558838844965
-0.23550207165239184 0.10290288432760845
-0.29324294803257517 0.06282774828704765
-0.2788077289375293 0.09288410031746826
-0.24993729074743767 0.14297802036816926
-0.22106685255734604 0.18305315640873004
-0.2066316334623002 0.22312829244929083
-0.23550207165239184 0.20309072442901044
-0.29324294803257517 0.17303437239858985
-0.3654190435078043 0.20309072442901044
-0.3942894816978959 0.22312829244929083
-0.33654860531771263 0.24316586046957123
-0.3798542626028501 0.20309072442901044
-0.45203035807807923 0.19307194041887024
-0.42315991988798757 0.18305315640873004
-0.45203035807807923 0.19307194041887024
-0.42315991988798757 0.21310950843915064
-0.3942894816978959 0.24316586046957123
-0.42315991988798757 0.22312829244929083
-0.4375951389830334 0.21310950843915064
-0.4953360153632167 0.20309072442901044
-0.46646557717312503 0.19307194041887024
-0.45203035807807923 0.22312829244929083
-0.42315991988798757 0.25318464447971145
-0.3798542626028501 0.2632034284898516
-0.3942894816978959 0.23314707645943103
-0.42315991988798757 0.22312829244929083
-0.3942894816978959 0.22312829244929083
-0.40872470079294176 0.23314707645943103
-0.40872470079294176 0.24316586046957123
-0.4809007962681709 0.20309072442901044
-0.5242064535533083 0.14297802036816926
-0.5675121108384459 0.10290288432760845
-0.5819473299334916 0.10290288432760845
-0.5386416726483542 0.09288410031746826
-0.4809007962681709 0.10290288432760845
-0.4375951389830334 0.11292166833774865
-0.40872470079294176 0.11292166833774865
-0.3942894816978959 0.11292166833774865
-0.46646557717312503 0.13295923635802906
-0.4375951389830334 0.12294045234788885
-0.45203035807807923 0.10290288432760845
-0.45203035807807923 0.06282774828704765
-0.5097712344582626 0.032771396256627054
-0.5097712344582626 0.002715044226206457
-0.5097712344582626 -0.007303739783933743
-0.45203035807807923 0.04279018026676725
-0.40872470079294176 0.07284653229718785
-0.3654190435078043 0.08286531630732805
-0.3942894816978959 0.04279018026676725
-0.45203035807807923 0.06282774828704765
-0.4809007962681709 0.10290288432760845
-0.46646557717312503 0.10290288432760845
-0.45203035807807923 0.12294045234788885
-0.4375951389830334 0.15299680437830945
-0.45203035807807923 0.15299680437830945
-0.45203035807807923 0.15299680437830945
-0.42315991988798757 0.17303437239858985
-0.2643725098424835 0.22312829244929083
-0.1488907570821169 0.23314707645943103
-0.12002031889202525 0.22312829244929083
-0.12002031889202525 0.22312829244929083
-0.1633259761771627 0.18305315640873004
-0.19219641436725438 0.19307194041887024
-0.12002031889202525 0.16301558838844965
-0.0911498807019336 0.13295923635802906
-0.12002031889202525 0.10290288432760845
-0.13445553798707108 0.09288410031746826
-0.10558509979697943 0.10290288432760845
-0.13445553798707108 0.13295923635802906
-0.10558509979697943 0.20309072442901044
-0.07671466160688777 0.27322221249999185
-0.06227944251184195 0.29325978052027224
-0.06227944251184195 0.283240996510132
-0.13445553798707108 0.20309072442901044
-0.13445553798707108 0.13295923635802906
-0.10558509979697943 0.032771396256627054
-0.13445553798707108 -0.06741644384477494
-0.19219641436725438 -0.12752914790561615
-0.22106685255734604 -0.13754793191575634
-0.29324294803257517 -0.12752914790561615
-0.3221133862226668 -0.11751036389547594
-0.35098382441275844 -0.15758549993603674
-0.3798542626028501 -0.15758549993603674
-0.40872470079294176 -0.20767941998673772
-0.4953360153632167 -0.22771698800701812
-0.5675121108384459 -0.25777334003743874
-0.6252529872186291 -0.23773577201715831
-0.5819473299334916 -0.17762306795631713
-0.5097712344582626 -0.13754793191575634
-0.4953360153632167 -0.19766063597659753
-0.5530768917434 -0.23773577201715831
-0.5963825490285375 -0.27781090805771913
-0.6829938635988124 -0.24775455602729854
-0.6108177681235833 -0.20767941998673772
-0.5675121108384459 -0.19766063597659753
-0.5963825490285375 -0.23773577201715831
-0.639688206313675 -0.2878296920678593
-0.6541234254087208 -0.30786726008813975
-0.7118643017889041 -0.2978484760779995
-0.6829938635988124 -0.23773577201715831
-0.6541234254087208 -0.20767941998673772
-0.6685586445037666 -0.22771698800701812
-0.6829938635988124 -0.23773577201715831
-0.6974290826938583 -0.25777334003743874
-0.7840403972641332 -0.3178860440982799
-0.7696051781690874 -0.3980363161794015
-0.7551699590740416 -0.4280926682098221
-0.7551699590740416 -0.4080551001895417
-0.8129108354542248 -0.43811145221996234
-0.8129108354542248 -0.4280926682098221
-0.8417812736443165 -0.3880175321692613
-0.7696051781690874 -0.3379236121185603
-0.7118643017889041 -0.32790482810842014
-0.7696051781690874 -0.3579611801388407
-0.8273460545492707 -0.3579611801388407
-0.8562164927393623 -0.3980363161794015
-0.885086930929454 -0.4180738841996819
-0.885086930929454 -0.3779987481591211
-0.8706517118344081 -0.34794239612870054
-0.9139573691195456 -0.3379236121185603
-0.9139573691195456 -0.3379236121185603
-0.9283925882145915 -0.32790482810842014
-0.8129108354542248 -0.2677921240475789
-0.7551699590740416 -0.22771698800701812
-0.6685586445037666 -0.20767941998673772
-0.639688206313675 -0.22771698800701812
-0.6252529872186291 -0.24775455602729854
-0.6829938635988124 -0.22771698800701812
-0.6541234254087208 -0.13754793191575634
-0.6541234254087208 -0.09747279587519554
-0.6108177681235833 -0.06741644384477494
-0.5675121108384459 -0.07743522785491513
-0.5963825490285375 -0.08745401186505533
-0.6108177681235833 -0.06741644384477494
-0.6108177681235833 -0.007303739783933743
-0.5963825490285375 0.002715044226206457
-0.5530768917434 -0.007303739783933743
-0.5530768917434 -0.027341307804214142
-0.639688206313675 -0.04737887582449454
-0.6252529872186291 -0.027341307804214142
-0.639688206313675 -0.007303739783933743
-0.6108177681235833 0.052808964276907455
-0.5530768917434 0.052808964276907455
-0.5386416726483542 0.04279018026676725
-0.5242064535533083 0.06282774828704765
-0.5386416726483542 0.06282774828704765
-0.5242064535533083 0.08286531630732805
-0.5097712344582626 0.11292166833774865
-0.46646557717312503 0.07284653229718785
-0.4953360153632167 0.022752612246486857
-0.5530768917434 -0.007303739783933743
-0.5819473299334916 -0.04737887582449454
-0.5819473299334916 -0.007303739783933743
-0.5675121108384459 0.08286531630732805
-0.5242064535533083 0.14297802036816926
-0.5386416726483542 0.15299680437830945
-0.5819473299334916 0.08286531630732805
-0.5963825490285375 0.052808964276907455
-0.7551699590740416 0.022752612246486857
-0.8562164927393623 -0.05739765983463474
-0.9572630264046831 -0.03736009181435434
-1.0583095600700039 -0.027341307804214142
-1.130485655545233 -0.17762306795631713
-1.1737913128303705 -0.5683556443517849
-1.130485655545233 -1.0793136288689351
-1.0150039027848665 -1.5501964773455243
-0.9283925882145915 -2.1112483819133754
-0.885086930929454 -2.782506910592769
-0.7984756163591791 -3.4938405753127233
-0.7840403972641332 -4.185136672012397
-0.7407347399789957 -4.7562073605903885
-0.6541234254087208 -5.126902368965576
-0.5530768917434 -5.327278049168379
-0.4953360153632167 -5.37737196921908
-0.3942894816978959 -5.34731561718866
-0.2788077289375293 -5.166977505006137
0.053202310248524655 -4.736169792570108
0.4862588830998994 -3.994779775819733
1.0492324278066867 -2.902732318714451
1.4101129051828323 -1.730534589528048
1.6410764107035654 -0.7286561885140281
1.5833355343233821 -0.04737887582449454
1.4245481242778781 0.32331613255069286
1.3235015906125573 0.533710596763637
1.1502789614720075 0.6138608688447587
0.7893984840958618 0.5637669487940576
0.4718236640048536 0.47359789270279584
0.22642493938907457 0.4435415406723752
0.08207274843861631 0.4635791086926556
0.11094318662870796 0.533710596763637
-0.004538566131658644 0.5637669487940576
-0.13445553798707108 0.5938233008244782
-0.19219641436725438 0.583804516814338
-0.2788077289375293 0.5537481647839174
-0.3221133862226668 0.5938233008244782
-0.3221133862226668 0.6639547888954596
-0.30767816712762097 0.6539360048853194
-0.33654860531771263 0.6439172208751792
-0.3654190435078043 0.583804516814338
-0.40872470079294176 0.583804516814338
-0.35098382441275844 0.5938233008244782
-0.29324294803257517 0.633898436865039
-0.2788077289375293 0.6639547888954596
-0.30767816712762097 0.6138608688447587
-0.29324294803257517 0.5637669487940576
-0.33654860531771263 0.5537481647839174
-0.35098382441275844 0.5737857328041979
-0.35098382441275844 0.6439172208751792
-0.2788077289375293 0.6639547888954596
-0.33654860531771263 0.6539360048853194
-0.30767816712762097 0.633898436865039
-0.2788077289375293 0.6138608688447587
-0.23550207165239184 0.6038420848346184
-0.1633259761771627 0.633898436865039
-0.1488907570821169 0.6739735729055998
-0.1633259761771627 0.6439172208751792
-0.2788077289375293 0.6238796528548988
-0.33654860531771263 0.633898436865039
-0.24993729074743767 0.6739735729055998
-0.23550207165239184 0.6940111409258802
-0.17776119527220854 0.6739735729055998
-0.1488907570821169 0.68399235691574
-0.10558509979697943 0.6038420848346184
-0.047844223416796124 0.6038420848346184
-0.0911498807019336 0.6238796528548988
-0.07671466160688777 0.6739735729055998
-0.047844223416796124 0.6940111409258802
-0.06227944251184195 0.6940111409258802
-0.07671466160688777 0.6639547888954596
-0.0911498807019336 0.6238796528548988
-0.13445553798707108 0.6138608688447587
-0.0911498807019336 0.633898436865039
-0.018973785226704468 0.6639547888954596
-0.018973785226704468 0.6639547888954596
0.03876709115347883 0.633898436865039
-0.004538566131658644 0.6138608688447587
-0.06227944251184195 0.633898436865039
0.009896652963387181 0.6539360048853194
0.06763752934357048 0.6639547888954596
0.053202310248524655 0.6539360048853194
0.06763752934357048 0.6539360048853194
0.024331872058433006 0.6439172208751792
0.024331872058433006 0.68399235691574
0.08207274843861631 0.7140487089461606
0.18311928210393708 0.68399235691574
0.16868406300889127 0.633898436865039
0.16868406300889127 0.6238796528548988
0.16868406300889127 0.5938233008244782
0.12537840572375378 0.6238796528548988
0.12537840572375378 0.6238796528548988
0.1398136248187996 0.6038420848346184
0.1398136248187996 0.6038420848346184
0.15424884391384544 0.5938233008244782
0.18311928210393708 0.5136730287433566
0.21198972029402874 0.5737857328041979
0.26973059667421206 0.5938233008244782
0.29860103486430367 0.6138608688447587
0.3419066921494412 0.5437293807737772
0.29860103486430367 0.5236918127534969
0.26973059667421206 0.483616676712936
0.2408601584841204 0.4635791086926556
0.29860103486430367 0.43352275666223505
0.356341911244487 0.4134851886419546
0.4285180067197161 0.3934476206216742
0.38521234943457866 0.38342883661153404
0.38521234943457866 0.33333491656083303
0.356341911244487 0.29325978052027224
0.4573884449098078 0.27322221249999185
0.4573884449098078 0.23314707645943103
0.4573884449098078 0.19307194041887024
0.41408278762467027 0.16301558838844965
0.3707771303395328 0.10290288432760845
0.28416581576925787 0.09288410031746826
0.3419066921494412 0.09288410031746826
0.39964756852962446 0.13295923635802906
0.44295322581476193 0.11292166833774865
0.5151293212899911 0.10290288432760845
0.5151293212899911 0.07284653229718785
0.5295645403850369 0.09288410031746826
0.5873054167652202 0.10290288432760845
0.6306110740503577 0.07284653229718785
0.6161758549553118 0.012733828236346657
0.5439997594800827 -0.05739765983463474
0.4718236640048536 -0.13754793191575634
0.41408278762467027 -0.17762306795631713
0.4285180067197161 -0.15758549993603674
0.44295322581476193 -0.13754793191575634
0.5151293212899911 -0.17762306795631713
0.4718236640048536 -0.21769820399687792
0.4285180067197161 -0.24775455602729854
0.356341911244487 -0.20767941998673772
0.3419066921494412 -0.19766063597659753
0.29860103486430367 -0.19766063597659753
0.31303625395934953 -0.17762306795631713
0.28416581576925787 -0.18764185196645733
0.2408601584841204 -0.18764185196645733
0.21198972029402874 -0.12752914790561615
0.28416581576925787 -0.09747279587519554
0.31303625395934953 -0.09747279587519554
0.2552953775791662 -0.09747279587519554
0.1975545011989829 -0.11751036389547594
0.12537840572375378 -0.12752914790561615
0.03876709115347883 -0.11751036389547594
-0.004538566131658644 -0.08745401186505533
-0.03340900432175029 -0.10749157988533574
-0.10558509979697943 -0.11751036389547594
-0.13445553798707108 -0.10749157988533574
-0.13445553798707108 -0.06741644384477494
-0.12002031889202525 -0.007303739783933743
-0.06227944251184195 0.022752612246486857
-0.03340900432175029 0.012733828236346657
-0.0911498807019336 -0.01732252379407394
-0.13445553798707108 -0.03736009181435434
-0.2066316334623002 -0.007303739783933743
-0.24993729074743767 0.012733828236346657
-0.2643725098424835 0.012733828236346657
-0.2643725098424835 0.022752612246486857
-0.24993729074743767 0.09288410031746826
-0.23550207165239184 0.04279018026676725
-0.2643725098424835 0.04279018026676725
-0.30767816712762097 0.07284653229718785
-0.30767816712762097 0.06282774828704765
-0.3221133862226668 0.06282774828704765
-0.40872470079294176 0.04279018026676725
-0.4375951389830334 0.052808964276907455
-0.46646557717312503 0.032771396256627054
-0.4375951389830334 0.06282774828704765
-0.3798542626028501 0.14297802036816926
-0.3221133862226668 0.19307194041887024
-0.29324294803257517 0.22312829244929083
-0.2788077289375293 0.16301558838844965
-0.29324294803257517 0.16301558838844965
-0.33654860531771263 0.16301558838844965
-0.3221133862226668 0.21310950843915064
-0.3654190435078043 0.19307194041887024
-0.3942894816978959 0.19307194041887024
-0.45203035807807923 0.15299680437830945
-0.5097712344582626 0.16301558838844965
-0.46646557717312503 0.22312829244929083
-0.46646557717312503 0.27322221249999185
-0.45203035807807923 0.31329734854055263
-0.46646557717312503 0.32331613255069286
-0.45203035807807923 0.27322221249999185
-0.5242064535533083 0.2632034284898516
-0.5386416726483542 0.29325978052027224
-0.5242064535533083 0.29325978052027224
-0.4953360153632167 0.32331613255069286
-0.5097712344582626 0.3533724845811134
-0.4809007962681709 0.31329734854055263
-0.5097712344582626 0.3032785645304124
-0.5242064535533083 0.34335370057097325
-0.5097712344582626 0.36339126859125365
-0.5530768917434 0.31329734854055263
-0.5963825490285375 0.29325978052027224
-0.6829938635988124 0.283240996510132
-0.6974290826938583 0.24316586046957123
-0.7407347399789957 0.283240996510132
-0.7118643017889041 0.32331613255069286
-0.6685586445037666 0.33333491656083303
-0.639688206313675 0.34335370057097325
-0.6108177681235833 0.34335370057097325
-0.6685586445037666 0.33333491656083303
-0.6541234254087208 0.31329734854055263
-0.6541234254087208 0.31329734854055263
-0.6541234254087208 0.34335370057097325
-0.6541234254087208 0.31329734854055263
-0.6974290826938583 0.283240996510132
-0.6974290826938583 0.2632034284898516
-0.6829938635988124 0.27322221249999185
-0.6252529872186291 0.2632034284898516
-0.6108177681235833 0.24316586046957123
-0.5819473299334916 0.2632034284898516
-0.6108177681235833 0.23314707645943103
-0.6541234254087208 0.20309072442901044
-0.7262995208839499 0.19307194041887024
-0.6974290826938583 0.23314707645943103
-0.6252529872186291 0.24316586046957123
-0.5819473299334916 0.23314707645943103
-0.639688206313675 0.22312829244929083
-0.5819473299334916 0.20309072442901044
-0.6252529872186291 0.25318464447971145
-0.5530768917434 0.27322221249999185
-0.5819473299334916 0.24316586046957123
-0.5530768917434 0.19307194041887024
-0.5963825490285375 0.16301558838844965
-0.6541234254087208 0.13295923635802906
-0.6829938635988124 0.18305315640873004
-0.6685586445037666 0.19307194041887024
-0.6541234254087208 0.20309072442901044
-0.5963825490285375 0.20309072442901044
-0.5819473299334916 0.20309072442901044
-0.5242064535533083 0.21310950843915064
-0.5386416726483542 0.27322221249999185
-0.4953360153632167 0.32331613255069286
-0.40872470079294176 0.3533724845811134
-0.3942894816978959 0.36339126859125365
-0.3654190435078043 0.3032785645304124
-0.3942894816978959 0.23314707645943103
-0.33654860531771263 0.24316586046957123
-0.23550207165239184 0.27322221249999185
-0.1633259761771627 0.283240996510132
-0.1488907570821169 0.29325978052027224
-0.19219641436725438 0.32331613255069286
-0.2066316334623002 0.34335370057097325
-0.22106685255734604 0.3533724845811134
-0.13445553798707108 0.40346640463181443
-0.0911498807019336 0.42350397265209483
-0.06227944251184195 0.3934476206216742
-0.0911498807019336 0.31329734854055263
-0.1488907570821169 0.20309072442901044
-0.2066316334623002 0.10290288432760845
-0.22106685255734604 0.04279018026676725
-0.2066316334623002 -0.007303739783933743
-0.2066316334623002 -0.03736009181435434
-0.30767816712762097 -0.09747279587519554
-0.40872470079294176 -0.15758549993603674
-0.4953360153632167 -0.15758549993603674
-0.5530768917434 -0.11751036389547594
-0.5242064535533083 -0.07743522785491513
-0.5530768917434 -0.07743522785491513
-0.5386416726483542 -0.06741644384477494
-0.5530768917434 -0.05739765983463474
-0.5530768917434 -0.08745401186505533
-0.5530768917434 -0.08745401186505533
-0.5675121108384459 -0.09747279587519554
-0.6108177681235833 -0.10749157988533574
-0.6252529872186291 -0.12752914790561615
-0.6685586445037666 -0.13754793191575634
-0.6974290826938583 -0.14756671592589654
-0.6829938635988124 -0.14756671592589654
-0.6685586445037666 -0.16760428394617694
-0.639688206313675 -0.16760428394617694
-0.6685586445037666 -0.17762306795631713
-0.7118643017889041 -0.19766063597659753
-0.7262995208839499 -0.15758549993603674
-0.7407347399789957 -0.14756671592589654
-0.7262995208839499 -0.17762306795631713
-0.7551699590740416 -0.21769820399687792
-0.7840403972641332 -0.24775455602729854
-0.7696051781690874 -0.2878296920678593
-0.7551699590740416 -0.25777334003743874
-0.7118643017889041 -0.23773577201715831
-0.6974290826938583 -0.20767941998673772
-0.639688206313675 -0.22771698800701812
-0.6252529872186291 -0.24775455602729854
-0.6974290826938583 -0.25777334003743874
-0.7407347399789957 -0.27781090805771913
-0.7407347399789957 -0.25777334003743874
-0.7407347399789957 -0.25777334003743874
-0.7984756163591791 -0.25777334003743874
-0.8417812736443165 -0.27781090805771913
-0.8706517118344081 -0.2878296920678593
-0.8995221500244999 -0.27781090805771913
-0.8706517118344081 -0.27781090805771913
-0.8273460545492707 -0.23773577201715831
-0.8129108354542248 -0.21769820399687792
-0.8129108354542248 -0.22771698800701812
-0.7984756163591791 -0.20767941998673772
-0.7551699590740416 -0.16760428394617694
-0.6829938635988124 -0.11751036389547594
-0.6108177681235833 -0.05739765983463474
-0.5819473299334916 -0.05739765983463474
-0.5963825490285375 -0.04737887582449454
-0.5963825490285375 -0.007303739783933743
-0.5819473299334916 0.032771396256627054
-0.5242064535533083 0.052808964276907455
-0.4953360153632167 0.09288410031746826
-0.45203035807807923 0.08286531630732805
-0.5097712344582626 0.052808964276907455
-0.5819473299334916 0.07284653229718785
-0.6252529872186291 0.06282774828704765
-0.6108177681235833 0.04279018026676725
-0.5242064535533083 0.04279018026676725
-0.5530768917434 0.052808964276907455
-0.5097712344582626 0.07284653229718785
-0.5675121108384459 0.11292166833774865
-0.5963825490285375 0.15299680437830945
-0.5097712344582626 0.18305315640873004
-0.45203035807807923 0.20309072442901044
-0.4809007962681709 0.18305315640873004
-0.5097712344582626 0.15299680437830945
-0.4953360153632167 0.12294045234788885
-0.45203035807807923 0.08286531630732805
-0.45203035807807923 0.10290288432760845
-0.3942894816978959 0.11292166833774865
-0.3654190435078043 0.11292166833774865
-0.40872470079294176 0.11292166833774865
-0.45203035807807923 0.14297802036816926
-0.5530768917434 0.17303437239858985
-0.6252529872186291 0.18305315640873004
-0.639688206313675 0.17303437239858985
-0.7118643017889041 0.14297802036816926
-0.7984756163591791 0.13295923635802906
-0.9428278073096373 0.16301558838844965
-1.0294391218799122 0.18305315640873004
-1.0005686836898207 -0.027341307804214142
-0.8995221500244999 -0.4280926682098221
-0.8129108354542248 -0.9089943006965516
-0.7551699590740416 -1.429971069223842
-0.6974290826938583 -2.021079325822114
-0.6108177681235833 -2.7223942065319275
-0.5097712344582626 -3.4237090872417415
-0.42315991988798757 -4.135042751961696
-0.3654190435078043 -4.746188576580248
-0.3798542626028501 -5.126902368965576
-0.3942894816978959 -5.277184129117678
-0.29324294803257517 -5.2371089930771175
-0.1488907570821169 -5.096846016935155
0.1398136248187996 -4.7862637126208085
0.5728701976701743 -4.175117888002257
1.0347972087116408 -3.2032958390186574
1.4534185624679696 -2.0110605418119736
1.6555116297986112 -0.8589003806458507
1.6555116297986112 -0.08745401186505533
1.4822890006580614 0.31329734854055263
1.3090663715175115 0.5236918127534969
1.092538085091824 0.6138608688447587
0.7172223886206326 0.5737857328041979
0.44295322581476193 0.5136730287433566
0.21198972029402874 0.43352275666223505
0.12537840572375378 0.4635791086926556
-0.0911498807019336 0.47359789270279584
-0.23550207165239184 0.49363546072307624
-0.3798542626028501 0.5036542447332164
-0.42315991988798757 0.533710596763637
-0.42315991988798757 0.5537481647839174
-0.3942894816978959 0.5537481647839174
-0.3942894816978959 0.5437293807737772
-0.3942894816978959 0.5437293807737772
-0.33654860531771263 0.5637669487940576
-0.35098382441275844 0.6038420848346184
-0.3221133862226668 0.6439172208751792
-0.30767816712762097 0.6439172208751792
-0.35098382441275844 0.6038420848346184
-0.3942894816978959 0.5737857328041979
-0.3798542626028501 0.5537481647839174
-0.40872470079294176 0.633898436865039
-0.3221133862226668 0.633898436865039
-0.23550207165239184 0.633898436865039
-0.22106685255734604 0.6238796528548988
-0.22106685255734604 0.6038420848346184
-0.29324294803257517 0.5437293807737772
-0.35098382441275844 0.5236918127534969
-0.3798542626028501 0.5236918127534969
-0.35098382441275844 0.5437293807737772
-0.3798542626028501 0.533710596763637
-0.3942894816978959 0.5437293807737772
-0.4375951389830334 0.5537481647839174
-0.40872470079294176 0.633898436865039
-0.29324294803257517 0.6739735729055998
-0.23550207165239184 0.6739735729055998
-0.13445553798707108 0.68399235691574
-0.0911498807019336 0.633898436865039
-0.0911498807019336 0.6238796528548988
-0.1633259761771627 0.6038420848346184
-0.19219641436725438 0.633898436865039
-0.0911498807019336 0.6138608688447587
-0.10558509979697943 0.6238796528548988
-0.07671466160688777 0.633898436865039
-0.0911498807019336 0.6038420848346184
-0.0911498807019336 0.633898436865039
-0.03340900432175029 0.6739735729055998
0.009896652963387181 0.6639547888954596
-0.047844223416796124 0.633898436865039
-0.047844223416796124 0.583804516814338
-0.03340900432175029 0.583804516814338
-0.0911498807019336 0.5537481647839174
-0.0911498807019336 0.5537481647839174
-0.07671466160688777 0.5938233008244782
-0.047844223416796124 0.5938233008244782
-0.03340900432175029 0.5938233008244782
-0.03340900432175029 0.5938233008244782
-0.018973785226704468 0.5737857328041979
-0.004538566131658644 0.6038420848346184
0.03876709115347883 0.6038420848346184
0.053202310248524655 0.5938233008244782
0.053202310248524655 0.5437293807737772
0.03876709115347883 0.533710596763637
0.009896652963387181 0.5637669487940576
0.024331872058433006 0.5737857328041979
0.09650796753366213 0.583804516814338
0.15424884391384544 0.5437293807737772
0.15424884391384544 0.5136730287433566
0.16868406300889127 0.5136730287433566
0.16868406300889127 0.5136730287433566
0.18311928210393708 0.5136730287433566
0.1975545011989829 0.4635791086926556
0.16868406300889127 0.4635791086926556
0.18311928210393708 0.42350397265209483
0.16868406300889127 0.3934476206216742
0.1975545011989829 0.38342883661153404
0.356341911244487 0.40346640463181443
0.4285180067197161 0.38342883661153404
0.4718236640048536 0.3734100526013938
0.4285180067197161 0.33333491656083303
0.356341911244487 0.29325978052027224
0.31303625395934953 0.24316586046957123
0.29860103486430367 0.20309072442901044
0.32747147305439533 0.16301558838844965
0.32747147305439533 0.10290288432760845
0.32747147305439533 0.12294045234788885
0.38521234943457866 0.13295923635802906
0.3707771303395328 0.16301558838844965
0.41408278762467027 0.14297802036816926
0.4718236640048536 0.10290288432760845
0.4718236640048536 0.10290288432760845
0.44295322581476193 0.022752612246486857
0.38521234943457866 -0.007303739783933743
0.32747147305439533 -0.007303739783933743
0.31303625395934953 -0.007303739783933743
0.32747147305439533 -0.04737887582449454
0.32747147305439533 -0.06741644384477494
0.29860103486430367 -0.10749157988533574
0.3419066921494412 -0.12752914790561615
0.3707771303395328 -0.12752914790561615
0.3707771303395328 -0.07743522785491513
0.38521234943457866 -0.04737887582449454
0.3707771303395328 -0.09747279587519554
0.3419066921494412 -0.14756671592589654
0.32747147305439533 -0.19766063597659753
0.2408601584841204 -0.15758549993603674
0.2408601584841204 -0.14756671592589654
0.2552953775791662 -0.15758549993603674
0.26973059667421206 -0.11751036389547594
0.28416581576925787 -0.13754793191575634
0.26973059667421206 -0.11751036389547594
0.21198972029402874 -0.06741644384477494
0.2408601584841204 -0.04737887582449454
0.1975545011989829 -0.03736009181435434
0.1398136248187996 -0.09747279587519554
0.03876709115347883 -0.12752914790561615
-0.047844223416796124 -0.14756671592589654
-0.12002031889202525 -0.11751036389547594
-0.13445553798707108 -0.09747279587519554
-0.1633259761771627 -0.08745401186505533
-0.1633259761771627 -0.07743522785491513
-0.1488907570821169 -0.08745401186505533
-0.1633259761771627 -0.08745401186505533
-0.24993729074743767 -0.05739765983463474
-0.24993729074743767 0.002715044226206457
-0.24993729074743767 -0.01732252379407394
-0.29324294803257517 -0.03736009181435434
-0.3221133862226668 -0.09747279587519554
-0.40872470079294176 -0.13754793191575634
-0.4375951389830334 -0.12752914790561615
-0.42315991988798757 -0.06741644384477494
-0.4375951389830334 -0.04737887582449454
-0.4375951389830334 -0.007303739783933743
-0.42315991988798757 -0.027341307804214142
-0.4809007962681709 -0.027341307804214142
-0.5242064535533083 0.002715044226206457
-0.5097712344582626 0.022752612246486857
-0.5097712344582626 0.012733828236346657
-0.5242064535533083 -0.01732252379407394
-0.5530768917434 0.002715044226206457
-0.5675121108384459 0.002715044226206457
-0.5530768917434 0.052808964276907455
-0.4809007962681709 0.07284653229718785
-0.45203035807807923 0.06282774828704765
-0.45203035807807923 0.04279018026676725
-0.4953360153632167 0.052808964276907455
-0.5242064535533083 0.06282774828704765
-0.6108177681235833 0.06282774828704765
-0.6108177681235833 0.08286531630732805
-0.6685586445037666 0.08286531630732805
-0.6829938635988124 0.07284653229718785
-0.639688206313675 0.052808964276907455
-0.6252529872186291 0.07284653229718785
-0.6108177681235833 0.12294045234788885
-0.5242064535533083 0.15299680437830945
-0.4953360153632167 0.17303437239858985
-0.4809007962681709 0.18305315640873004
-0.5097712344582626 0.18305315640873004
-0.5386416726483542 0.17303437239858985
-0.5819473299334916 0.16301558838844965
-0.6108177681235833 0.17303437239858985
-0.6108177681235833 0.17303437239858985
-0.6685586445037666 0.18305315640873004
-0.6974290826938583 0.23314707645943103
-0.7262995208839499 0.23314707645943103
-0.7262995208839499 0.27322221249999185
-0.7118643017889041 0.3032785645304124
-0.639688206313675 0.32331613255069286
-0.6541234254087208 0.283240996510132
-0.7118643017889041 0.22312829244929083
-0.7840403972641332 0.21310950843915064
-0.8129108354542248 0.24316586046957123
-0.7840403972641332 0.283240996510132
-0.7984756163591791 0.2632034284898516
-0.7984756163591791 0.24316586046957123
-0.8562164927393623 0.24316586046957123
-0.8562164927393623 0.24316586046957123
-0.8562164927393623 0.2632034284898516
-0.7984756163591791 0.2632034284898516
-0.7840403972641332 0.27322221249999185
-0.7984756163591791 0.31329734854055263
-0.8273460545492707 0.31329734854055263
-0.8562164927393623 0.29325978052027224
-0.8995221500244999 0.24316586046957123
-0.8706517118344081 0.2632034284898516
-0.8562164927393623 0.283240996510132
-0.8417812736443165 0.31329734854055263
-0.8562164927393623 0.27322221249999185
-0.885086930929454 0.22312829244929083
-0.8562164927393623 0.24316586046957123
-0.8273460545492707 0.31329734854055263
-0.8562164927393623 0.31329734854055263
-0.8706517118344081 0.283240996510132
-0.8995221500244999 0.21310950843915064
-0.9139573691195456 0.19307194041887024
-0.9572630264046831 0.20309072442901044
-0.9716982454997289 0.21310950843915064
-0.9428278073096373 0.24316586046957123
-0.9283925882145915 0.24316586046957123
-0.8706517118344081 0.20309072442901044
-0.8562164927393623 0.18305315640873004
-0.8417812736443165 0.17303437239858985
-0.7984756163591791 0.15299680437830945
-0.7984756163591791 0.13295923635802906
-0.7984756163591791 0.12294045234788885
-0.8562164927393623 0.11292166833774865
-0.8995221500244999 0.12294045234788885
-0.8995221500244999 0.14297802036816926
-0.8706517118344081 0.17303437239858985
-0.7984756163591791 0.20309072442901044
-0.7551699590740416 0.22312829244929083
-0.7551699590740416 0.21310950843915064
-0.7696051781690874 0.18305315640873004
-0.7696051781690874 0.19307194041887024
-0.7407347399789957 0.22312829244929083
-0.7262995208839499 0.23314707645943103
-0.7262995208839499 0.21310950843915064
-0.7262995208839499 0.21310950843915064
-0.6685586445037666 0.23314707645943103
-0.6541234254087208 0.29325978052027224
-0.5530768917434 0.29325978052027224
-0.5097712344582626 0.283240996510132
-0.45203035807807923 0.23314707645943103
-0.4953360153632167 0.17303437239858985
-0.5097712344582626 0.17303437239858985
-0.5386416726483542 0.24316586046957123
-0.4953360153632167 0.3032785645304124
-0.46646557717312503 0.3533724845811134
-0.4375951389830334 0.3734100526013938
-0.40872470079294176 0.3934476206216742
-0.3798542626028501 0.3032785645304124
-0.3654190435078043 0.23314707645943103
-0.3798542626028501 0.17303437239858985
-0.45203035807807923 0.10290288432760845
-0.5530768917434 -0.007303739783933743
-0.6108177681235833 -0.08745401186505533
-0.7262995208839499 -0.14756671592589654
-0.7984756163591791 -0.14756671592589654
-0.7696051781690874 -0.13754793191575634
-0.7551699590740416 -0.14756671592589654
-0.7696051781690874 -0.13754793191575634
-0.7407347399789957 -0.13754793191575634
-0.8273460545492707 -0.12752914790561615
-0.8706517118344081 -0.09747279587519554
-0.9139573691195456 -0.07743522785491513
-0.8995221500244999 -0.10749157988533574
-0.9716982454997289 -0.12752914790561615
-1.0150039027848665 -0.15758549993603674
-1.0150039027848665 -0.18764185196645733
-1.0005686836898207 -0.16760428394617694
-1.0005686836898207 -0.13754793191575634
-0.9861334645947748 -0.10749157988533574
-0.9139573691195456 -0.10749157988533574
-0.9572630264046831 -0.10749157988533574
-0.9572630264046831 -0.16760428394617694
-0.9861334645947748 -0.16760428394617694
-1.0150039027848665 -0.19766063597659753
-1.043874340974958 -0.19766063597659753
-1.0583095600700039 -0.21769820399687792
-1.043874340974958 -0.27781090805771913
-1.130485655545233 -0.2677921240475789
-1.1449208746402788 -0.2878296920678593
-1.1160504364501873 -0.24775455602729854
-1.0727447791650497 -0.2677921240475789
-1.0583095600700039 -0.25777334003743874
-1.1160504364501873 -0.2978484760779995
-1.1160504364501873 -0.30786726008813975
-1.1593560937353247 -0.3178860440982799
-1.1593560937353247 -0.30786726008813975
-1.130485655545233 -0.2978484760779995
-1.1016152173551415 -0.3178860440982799
-1.1160504364501873 -0.32790482810842014
-1.1016152173551415 -0.3178860440982799
-1.1016152173551415 -0.2978484760779995
-1.1016152173551415 -0.27781090805771913
-1.0871799982600956 -0.24775455602729854
-1.0871799982600956 -0.25777334003743874
-1.1016152173551415 -0.30786726008813975
-1.1593560937353247 -0.2878296920678593
-1.1737913128303705 -0.24775455602729854
-1.1160504364501873 -0.21769820399687792
-1.043874340974958 -0.18764185196645733
-0.9716982454997289 -0.18764185196645733
-0.9428278073096373 -0.18764185196645733
-0.9572630264046831 -0.15758549993603674
-0.9572630264046831 -0.08745401186505533
-0.9283925882145915 0.022752612246486857
-0.8706517118344081 0.002715044226206457
-0.8706517118344081 -0.007303739783933743
-0.9283925882145915 -0.01732252379407394
-0.9428278073096373 0.022752612246486857
-0.9139573691195456 0.052808964276907455
-0.8562164927393623 0.10290288432760845
-0.7840403972641332 0.07284653229718785
-0.7984756163591791 0.11292166833774865
-0.7696051781690874 0.09288410031746826
-0.8273460545492707 0.09288410031746826
-0.8273460545492707 0.052808964276907455
-0.8562164927393623 0.06282774828704765
-0.8562164927393623 0.11292166833774865
-0.7984756163591791 0.11292166833774865
-0.7840403972641332 0.07284653229718785
-0.7696051781690874 0.012733828236346657
-0.7551699590740416 0.06282774828704765
-0.6974290826938583 0.06282774828704765
-0.6974290826938583 0.10290288432760845
-0.6829938635988124 0.11292166833774865
-0.7551699590740416 0.08286531630732805
-0.7984756163591791 0.09288410031746826
-0.8273460545492707 0.16301558838844965
-0.8417812736443165 0.15299680437830945
-0.8995221500244999 0.13295923635802906
-0.9716982454997289 0.07284653229718785
-1.1016152173551415 0.002715044226206457
-1.2459674083055996 -0.027341307804214142
-1.3325787228758745 -0.21769820399687792
-1.3614491610659663 -0.6485059164329064
-1.2748378464956913 -1.229595389021038
-1.2604026274006455 -1.780628509578749
-1.1737913128303705 -2.4518870382581426
-1.1016152173551415 -3.2133146230287974
-1.0005686836898207 -3.9547046397791723
-0.8562164927393623 -4.615944384448426
-0.6974290826938583 -5.056770880894594
-0.6108177681235833 -5.297221697137959
-0.5242064535533083 -5.317259265158239
-0.3798542626028501 -5.176996289016277
0.009896652963387181 -4.84637641668165
0.5439997594800827 -4.165099103992117
1.1214085232819158 -3.0830704308969747
1.511159438848153 -1.8106848616091695
1.597770753418428 -0.6284683484126261
1.4245481242778781 0.15299680437830945
1.1935846187571448 0.5036542447332164
1.0781028659967782 0.6739735729055998
0.8471393604760451 0.7441050609765812
0.4573884449098078 0.6639547888954596
0.09650796753366213 0.5938233008244782
-0.22106685255734604 0.5236918127534969
-0.45203035807807923 0.5236918127534969
-0.5675121108384459 0.633898436865039
-0.6252529872186291 0.7140487089461606
-0.5530768917434 0.734086276966441
-0.5819473299334916 0.7140487089461606
-0.5675121108384459 0.68399235691574
-0.6541234254087208 0.68399235691574
-0.5963825490285375 0.6940111409258802
-0.6108177681235833 0.6940111409258802
-0.639688206313675 0.68399235691574
-0.6541234254087208 0.68399235691574
-0.6541234254087208 0.7040299249360205
-0.6252529872186291 0.7040299249360205
-0.5819473299334916 0.7541238449867214
-0.5097712344582626 0.7641426289968616
-0.4953360153632167 0.7641426289968616
-0.5530768917434 0.7441050609765812
-0.5675121108384459 0.7240674929563008
-0.5819473299334916 0.7140487089461606
-0.5819473299334916 0.7441050609765812
-0.5242064535533083 0.7240674929563008
-0.4953360153632167 0.7240674929563008
-0.4375951389830334 0.7140487089461606
-0.42315991988798757 0.7140487089461606
-0.45203035807807923 0.6940111409258802
-0.4375951389830334 0.68399235691574
-0.42315991988798757 0.7040299249360205
-0.3798542626028501 0.7240674929563008
-0.3942894816978959 0.7240674929563008
-0.3654190435078043 0.7040299249360205
-0.35098382441275844 0.7040299249360205
-0.2643725098424835 0.734086276966441
-0.2643725098424835 0.7140487089461606
-0.33654860531771263 0.7040299249360205
-0.35098382441275844 0.6539360048853194
-0.42315991988798757 0.6739735729055998
-0.40872470079294176 0.68399235691574
-0.33654860531771263 0.7140487089461606
-0.29324294803257517 0.7240674929563008
-0.22106685255734604 0.7240674929563008
-0.19219641436725438 0.7140487089461606
-0.2066316334623002 0.6940111409258802
-0.23550207165239184 0.6940111409258802
-0.2788077289375293 0.7040299249360205
-0.22106685255734604 0.7140487089461606
-0.17776119527220854 0.7240674929563008
-0.13445553798707108 0.7040299249360205
-0.12002031889202525 0.7140487089461606
-0.047844223416796124 0.734086276966441
0.03876709115347883 0.7441050609765812
0.03876709115347883 0.7040299249360205
0.03876709115347883 0.6439172208751792
0.03876709115347883 0.6238796528548988
-0.018973785226704468 0.6238796528548988
0.024331872058433006 0.6138608688447587
0.09650796753366213 0.633898436865039
0.2408601584841204 0.6539360048853194
0.28416581576925787 0.6138608688447587
0.29860103486430367 0.5537481647839174
0.2552953775791662 0.5537481647839174
0.2408601584841204 0.5136730287433566
0.2552953775791662 0.49363546072307624
0.28416581576925787 0.4435415406723752
0.2552953775791662 0.3934476206216742
0.28416581576925787 0.32331613255069286
0.2552953775791662 0.23314707645943103
0.2552953775791662 0.23314707645943103
0.31303625395934953 0.22312829244929083
0.32747147305439533 0.22312829244929083
0.2552953775791662 0.20309072442901044
0.21198972029402874 0.14297802036816926
0.18311928210393708 0.10290288432760845
0.12537840572375378 0.07284653229718785
0.15424884391384544 0.04279018026676725
0.2408601584841204 0.032771396256627054
0.32747147305439533 0.032771396256627054
0.38521234943457866 0.022752612246486857
0.356341911244487 -0.007303739783933743
0.2552953775791662 -0.04737887582449454
0.2552953775791662 -0.05739765983463474
0.26973059667421206 -0.08745401186505533
0.28416581576925787 -0.06741644384477494
0.26973059667421206 -0.08745401186505533
0.2552953775791662 -0.11751036389547594
0.22642493938907457 -0.10749157988533574
0.21198972029402874 -0.11751036389547594
0.21198972029402874 -0.10749157988533574
0.15424884391384544 -0.11751036389547594
0.12537840572375378 -0.10749157988533574
0.03876709115347883 -0.08745401186505533
-0.004538566131658644 -0.027341307804214142
0.03876709115347883 0.012733828236346657
0.11094318662870796 0.022752612246486857
0.12537840572375378 -0.027341307804214142
0.024331872058433006 -0.027341307804214142
-0.03340900432175029 -0.05739765983463474
-0.13445553798707108 -0.06741644384477494
-0.19219641436725438 -0.04737887582449454
-0.22106685255734604 -0.027341307804214142
-0.30767816712762097 -0.03736009181435434
-0.35098382441275844 0.002715044226206457
-0.3798542626028501 -0.007303739783933743
-0.3654190435078043 0.002715044226206457
-0.3798542626028501 0.032771396256627054
-0.29324294803257517 0.06282774828704765
-0.30767816712762097 0.06282774828704765
-0.40872470079294176 0.032771396256627054
-0.4809007962681709 -0.007303739783933743
-0.46646557717312503 0.052808964276907455
-0.4375951389830334 0.10290288432760845
-0.40872470079294176 0.14297802036816926
-0.3221133862226668 0.13295923635802906
-0.3942894816978959 0.08286531630732805
-0.4809007962681709 0.09288410031746826
-0.5675121108384459 0.11292166833774865
-0.5675121108384459 0.13295923635802906
-0.5530768917434 0.14297802036816926
-0.5530768917434 0.17303437239858985
