0.8038337031909076 0.5737857328041979
0.7893984840958618 0.5637669487940576
0.8327041413809992 0.6539360048853194
0.93375067504632 0.6639547888954596
0.9481858941413658 0.633898436865039
0.8904450177611826 0.6138608688447587
0.7605280459057701 0.5437293807737772
0.7460928268107243 0.47359789270279584
0.7605280459057701 0.49363546072307624
0.7605280459057701 0.533710596763637
0.8471393604760451 0.5036542447332164
0.8904450177611826 0.47359789270279584
0.9193154559512742 0.4635791086926556
0.9048802368562283 0.45356032468251545
0.93375067504632 0.4435415406723752
0.9770563323314575 0.42350397265209483
1.0347972087116408 0.38342883661153404
1.020361989616595 0.3533724845811134
1.0347972087116408 0.33333491656083303
1.0347972087116408 0.3032785645304124
1.0636676469017325 0.3734100526013938
1.1214085232819158 0.3734100526013938
1.1358437423769616 0.2632034284898516
1.1358437423769616 0.14297802036816926
1.1214085232819158 0.08286531630732805
1.2224550569472366 0.09288410031746826
1.3235015906125573 0.13295923635802906
1.3668072478976947 0.18305315640873004
1.3379368097076032 0.14297802036816926
1.2946311524224656 0.08286531630732805
1.2080198378521907 0.06282774828704765
1.1935846187571448 0.052808964276907455
1.2368902760422824 0.06282774828704765
1.2801959333274198 0.07284653229718785
1.2946311524224656 0.06282774828704765
1.2513254951373283 0.002715044226206457
1.1647141805670531 -0.03736009181435434
1.1358437423769616 -0.027341307804214142
1.1214085232819158 0.002715044226206457
1.1647141805670531 0.012733828236346657
1.1647141805670531 0.032771396256627054
1.179149399662099 -0.01732252379407394
1.2080198378521907 -0.07743522785491513
1.1358437423769616 -0.10749157988533574
1.179149399662099 -0.04737887582449454
1.2224550569472366 0.032771396256627054
1.2368902760422824 0.06282774828704765
1.179149399662099 0.012733828236346657
1.0636676469017325 -0.07743522785491513
1.005926770521549 -0.13754793191575634
0.9626211132364116 -0.12752914790561615
0.9626211132364116 -0.13754793191575634
1.005926770521549 -0.12752914790561615
0.9481858941413658 -0.11751036389547594
0.8471393604760451 -0.08745401186505533
0.8038337031909076 -0.06741644384477494
0.8038337031909076 -0.03736009181435434
0.8182689222859534 -0.007303739783933743
0.8327041413809992 -0.007303739783933743
0.8904450177611826 -0.04737887582449454
0.8471393604760451 -0.06741644384477494
0.8182689222859534 -0.10749157988533574
0.7893984840958618 -0.06741644384477494
0.7605280459057701 -0.06741644384477494
0.7316576077156784 -0.04737887582449454
0.6739167313354951 -0.03736009181435434
0.6161758549553118 -0.01732252379407394
0.5295645403850369 -0.03736009181435434
0.5006941021949453 0.012733828236346657
0.4573884449098078 0.04279018026676725
0.4573884449098078 0.022752612246486857
0.38521234943457866 0.032771396256627054
0.41408278762467027 0.07284653229718785
0.4573884449098078 0.08286531630732805
0.4718236640048536 0.13295923635802906
0.4718236640048536 0.13295923635802906
0.4573884449098078 0.17303437239858985
0.38521234943457866 0.21310950843915064
0.31303625395934953 0.18305315640873004
0.28416581576925787 0.14297802036816926
0.31303625395934953 0.14297802036816926
0.3419066921494412 0.11292166833774865
0.38521234943457866 0.09288410031746826
0.356341911244487 0.10290288432760845
0.3707771303395328 0.19307194041887024
0.38521234943457866 0.27322221249999185
0.38521234943457866 0.34335370057097325
0.3419066921494412 0.32331613255069286
0.28416581576925787 0.27322221249999185
0.22642493938907457 0.19307194041887024
0.15424884391384544 0.14297802036816926
0.18311928210393708 0.15299680437830945
0.22642493938907457 0.22312829244929083
0.29860103486430367 0.32331613255069286
0.2552953775791662 0.36339126859125365
0.21198972029402874 0.31329734854055263
0.18311928210393708 0.29325978052027224
0.12537840572375378 0.3032785645304124
0.12537840572375378 0.3533724845811134
0.1975545011989829 0.4435415406723752
0.16868406300889127 0.4435415406723752
0.15424884391384544 0.3934476206216742
0.053202310248524655 0.38342883661153404
0.009896652963387181 0.3934476206216742
-0.018973785226704468 0.45356032468251545
0.03876709115347883 0.533710596763637
0.053202310248524655 0.6138608688447587
0.06763752934357048 0.633898436865039
0.03876709115347883 0.6138608688447587
-0.03340900432175029 0.633898436865039
-0.018973785226704468 0.633898436865039
-0.03340900432175029 0.6539360048853194
-0.047844223416796124 0.6539360048853194
-0.047844223416796124 0.6238796528548988
-0.07671466160688777 0.633898436865039
-0.1633259761771627 0.6639547888954596
-0.10558509979697943 0.6940111409258802
0.009896652963387181 0.7040299249360205
0.024331872058433006 0.68399235691574
-0.03340900432175029 0.6038420848346184
-0.13445553798707108 0.5938233008244782
-0.24993729074743767 0.5737857328041979
-0.24993729074743767 0.6238796528548988
-0.2643725098424835 0.6739735729055998
-0.2066316334623002 0.6739735729055998
-0.17776119527220854 0.6539360048853194
-0.2066316334623002 0.6439172208751792
-0.24993729074743767 0.583804516814338
-0.2788077289375293 0.5637669487940576
-0.29324294803257517 0.6038420848346184
-0.17776119527220854 0.6238796528548988
-0.17776119527220854 0.6038420848346184
-0.2788077289375293 0.583804516814338
-0.30767816712762097 0.5938233008244782
-0.30767816712762097 0.633898436865039
-0.2643725098424835 0.5737857328041979
-0.19219641436725438 0.5537481647839174
-0.0911498807019336 0.5537481647839174
-0.07671466160688777 0.6238796528548988
-0.06227944251184195 0.7240674929563008
-0.07671466160688777 0.8142365490475626
-0.0911498807019336 0.784180197017142
-0.10558509979697943 0.633898436865039
-0.13445553798707108 0.5437293807737772
-0.0911498807019336 0.5236918127534969
-0.03340900432175029 0.5437293807737772
0.024331872058433006 0.6138608688447587
0.12537840572375378 0.6739735729055998
0.18311928210393708 0.734086276966441
0.16868406300889127 0.734086276966441
0.12537840572375378 0.7441050609765812
0.06763752934357048 0.633898436865039
0.06763752934357048 0.5036542447332164
0.03876709115347883 0.31329734854055263
0.024331872058433006 0.25318464447971145
-0.004538566131658644 0.20309072442901044
-0.018973785226704468 0.18305315640873004
-0.10558509979697943 0.15299680437830945
-0.12002031889202525 0.21310950843915064
-0.1488907570821169 0.25318464447971145
-0.13445553798707108 0.283240996510132
-0.1488907570821169 0.24316586046957123
-0.19219641436725438 0.14297802036816926
-0.24993729074743767 0.022752612246486857
-0.22106685255734604 0.022752612246486857
-0.19219641436725438 0.08286531630732805
-0.10558509979697943 0.13295923635802906
-0.06227944251184195 0.14297802036816926
-0.0911498807019336 0.11292166833774865
-0.1488907570821169 0.04279018026676725
-0.1488907570821169 0.012733828236346657
-0.13445553798707108 -0.007303739783933743
-0.10558509979697943 -0.04737887582449454
-0.1488907570821169 -0.07743522785491513
-0.22106685255734604 -0.07743522785491513
-0.24993729074743767 -0.027341307804214142
-0.2643725098424835 0.032771396256627054
-0.22106685255734604 0.06282774828704765
-0.23550207165239184 0.052808964276907455
-0.30767816712762097 0.002715044226206457
-0.3654190435078043 -0.08745401186505533
-0.4953360153632167 -0.13754793191575634
-0.5097712344582626 -0.11751036389547594
-0.4375951389830334 -0.10749157988533574
-0.3798542626028501 -0.08745401186505533
-0.3654190435078043 -0.08745401186505533
-0.33654860531771263 -0.11751036389547594
-0.3942894816978959 -0.17762306795631713
-0.45203035807807923 -0.15758549993603674
-0.45203035807807923 -0.14756671592589654
-0.45203035807807923 -0.12752914790561615
-0.45203035807807923 -0.13754793191575634
-0.5097712344582626 -0.13754793191575634
-0.5530768917434 -0.07743522785491513
-0.4953360153632167 -0.01732252379407394
-0.40872470079294176 0.052808964276907455
-0.2643725098424835 0.08286531630732805
-0.19219641436725438 0.14297802036816926
-0.2066316334623002 0.08286531630732805
-0.2643725098424835 -0.06741644384477494
-0.19219641436725438 -0.09747279587519554
-0.1633259761771627 -0.09747279587519554
-0.0911498807019336 0.002715044226206457
-0.0911498807019336 0.07284653229718785
-0.0911498807019336 0.18305315640873004
-0.10558509979697943 0.24316586046957123
-0.07671466160688777 0.2632034284898516
-0.06227944251184195 0.25318464447971145
-0.03340900432175029 0.24316586046957123
0.024331872058433006 0.25318464447971145
-0.018973785226704468 0.3032785645304124
-0.06227944251184195 0.33333491656083303
-0.004538566131658644 0.3533724845811134
-0.047844223416796124 0.31329734854055263
-0.03340900432175029 0.283240996510132
0.024331872058433006 0.2632034284898516
0.024331872058433006 0.2632034284898516
0.024331872058433006 0.24316586046957123
0.053202310248524655 0.23314707645943103
0.024331872058433006 0.23314707645943103
0.06763752934357048 0.29325978052027224
0.08207274843861631 0.3032785645304124
-0.047844223416796124 0.31329734854055263
-0.10558509979697943 0.283240996510132
-0.10558509979697943 0.3032785645304124
-0.03340900432175029 0.27322221249999185
0.053202310248524655 0.22312829244929083
0.08207274843861631 0.19307194041887024
0.009896652963387181 0.20309072442901044
-0.018973785226704468 0.29325978052027224
-0.07671466160688777 0.34335370057097325
-0.19219641436725438 0.04279018026676725
-0.3221133862226668 -0.6384871324227663
-0.33654860531771263 -1.4600274212542625
-0.2643725098424835 -2.2515113580553385
-0.1633259761771627 -3.0129389428259934
-0.03340900432175029 -3.7543289595763683
0.09650796753366213 -4.35545600018478
0.29860103486430367 -4.746188576580248
0.41408278762467027 -4.906489120742491
0.4718236640048536 -4.86641398470193
0.4862588830998994 -4.666038304499127
0.7749632650008159 -4.074930047900855
1.3956776860877864 -3.0530140788665543
2.0452625453648485 -1.83072242962945
2.564930432786498 -0.7386749725241682
2.6515417473567733 -0.09747279587519554
2.3628373654558565 0.21310950843915064
2.103003421745032 0.3934476206216742
1.8576046971292528 0.5036542447332164
1.4967242197531072 0.5437293807737772
1.0781028659967782 0.5938233008244782
0.7460928268107243 0.7040299249360205
0.4718236640048536 0.8242553330577028
0.3419066921494412 0.9044056051388244
0.2408601584841204 0.934461957169245
0.26973059667421206 0.9044056051388244
0.31303625395934953 0.8242553330577028
0.29860103486430367 0.7941989810272821
0.31303625395934953 0.784180197017142
0.356341911244487 0.8442929010779832
0.38521234943457866 0.8943868211286842
0.38521234943457866 0.8743492531084038
0.3419066921494412 0.7941989810272821
0.26973059667421206 0.7541238449867214
0.2552953775791662 0.7641426289968616
0.26973059667421206 0.834274117067843
0.32747147305439533 0.9044056051388244
0.39964756852962446 0.934461957169245
0.39964756852962446 0.9044056051388244
0.356341911244487 0.884368037118544
0.3707771303395328 0.834274117067843
0.39964756852962446 0.8142365490475626
0.38521234943457866 0.8442929010779832
0.41408278762467027 0.8242553330577028
0.3707771303395328 0.8142365490475626
0.38521234943457866 0.8042177650374224
0.44295322581476193 0.8442929010779832
0.5006941021949453 0.9044056051388244
0.5728701976701743 0.934461957169245
0.5439997594800827 0.884368037118544
0.5728701976701743 0.8543116850881234
0.5584349785751286 0.884368037118544
0.5439997594800827 0.884368037118544
0.4285180067197161 0.8643304690982636
0.41408278762467027 0.7941989810272821
0.5151293212899911 0.8042177650374224
0.5728701976701743 0.8242553330577028
0.6161758549553118 0.8643304690982636
0.5873054167652202 0.8242553330577028
0.6161758549553118 0.8543116850881234
0.6450462931454035 0.8543116850881234
0.6739167313354951 0.8442929010779832
0.688351950430541 0.9044056051388244
0.6594815122404494 0.9244431731591048
0.6739167313354951 0.8743492531084038
0.688351950430541 0.8442929010779832
0.7460928268107243 0.884368037118544
0.8615745795710908 0.8943868211286842
0.9193154559512742 0.8643304690982636
0.8327041413809992 0.8142365490475626
0.7605280459057701 0.7541238449867214
0.7605280459057701 0.7541238449867214
0.8182689222859534 0.7741614130070018
0.8760097986661367 0.7641426289968616
0.8904450177611826 0.7541238449867214
0.9626211132364116 0.734086276966441
0.9770563323314575 0.68399235691574
1.0492324278066867 0.6138608688447587
1.0636676469017325 0.5537481647839174
1.020361989616595 0.483616676712936
0.9914915514265034 0.49363546072307624
0.9626211132364116 0.45356032468251545
0.9770563323314575 0.42350397265209483
1.0347972087116408 0.38342883661153404
1.0781028659967782 0.36339126859125365
1.1647141805670531 0.3934476206216742
1.2513254951373283 0.3934476206216742
1.2368902760422824 0.3734100526013938
1.179149399662099 0.29325978052027224
1.1647141805670531 0.33333491656083303
1.1935846187571448 0.34335370057097325
1.2224550569472366 0.29325978052027224
1.3090663715175115 0.19307194041887024
1.2946311524224656 0.08286531630732805
1.3235015906125573 0.002715044226206457
1.3812424669927406 -0.027341307804214142
1.3668072478976947 -0.04737887582449454
1.3668072478976947 -0.05739765983463474
1.3956776860877864 -0.06741644384477494
1.3379368097076032 -0.09747279587519554
1.2801959333274198 -0.11751036389547594
1.2946311524224656 -0.07743522785491513
1.265760714232374 -0.06741644384477494
1.2946311524224656 -0.027341307804214142
1.2368902760422824 -0.06741644384477494
1.1358437423769616 -0.08745401186505533
1.10697330418687 -0.08745401186505533
1.0636676469017325 -0.07743522785491513
1.092538085091824 -0.01732252379407394
1.0636676469017325 0.012733828236346657
0.9481858941413658 0.012733828236346657
0.93375067504632 -0.027341307804214142
0.9626211132364116 -0.03736009181435434
1.020361989616595 0.032771396256627054
1.020361989616595 0.07284653229718785
0.9914915514265034 0.12294045234788885
0.8904450177611826 0.15299680437830945
0.8038337031909076 0.17303437239858985
0.8038337031909076 0.11292166833774865
0.7605280459057701 0.10290288432760845
0.7605280459057701 0.13295923635802906
0.7605280459057701 0.15299680437830945
0.688351950430541 0.12294045234788885
0.5728701976701743 0.11292166833774865
0.5006941021949453 0.19307194041887024
0.5728701976701743 0.2632034284898516
0.5728701976701743 0.27322221249999185
0.5439997594800827 0.23314707645943103
0.5006941021949453 0.24316586046957123
0.4718236640048536 0.27322221249999185
0.41408278762467027 0.27322221249999185
0.44295322581476193 0.3032785645304124
0.5151293212899911 0.33333491656083303
0.5728701976701743 0.40346640463181443
0.5439997594800827 0.43352275666223505
0.5728701976701743 0.42350397265209483
0.4862588830998994 0.3934476206216742
0.41408278762467027 0.40346640463181443
0.38521234943457866 0.43352275666223505
0.41408278762467027 0.4435415406723752
0.356341911244487 0.40346640463181443
0.26973059667421206 0.43352275666223505
0.31303625395934953 0.42350397265209483
0.39964756852962446 0.47359789270279584
0.41408278762467027 0.533710596763637
0.39964756852962446 0.583804516814338
0.356341911244487 0.5737857328041979
0.26973059667421206 0.533710596763637
0.18311928210393708 0.49363546072307624
0.1975545011989829 0.5437293807737772
0.1975545011989829 0.5737857328041979
0.28416581576925787 0.5637669487940576
0.28416581576925787 0.5437293807737772
0.31303625395934953 0.49363546072307624
0.356341911244487 0.49363546072307624
0.29860103486430367 0.5036542447332164
0.28416581576925787 0.533710596763637
0.2408601584841204 0.5637669487940576
0.16868406300889127 0.533710596763637
0.06763752934357048 0.5136730287433566
0.09650796753366213 0.47359789270279584
0.11094318662870796 0.5136730287433566
0.12537840572375378 0.5637669487940576
0.22642493938907457 0.583804516814338
0.28416581576925787 0.583804516814338
0.22642493938907457 0.5737857328041979
0.18311928210393708 0.5737857328041979
0.09650796753366213 0.5637669487940576
0.06763752934357048 0.5437293807737772
0.08207274843861631 0.5537481647839174
0.053202310248524655 0.5637669487940576
-0.004538566131658644 0.5637669487940576
0.024331872058433006 0.5437293807737772
0.03876709115347883 0.5236918127534969
0.15424884391384544 0.5136730287433566
0.18311928210393708 0.5236918127534969
0.1398136248187996 0.45356032468251545
0.08207274843861631 0.45356032468251545
0.053202310248524655 0.49363546072307624
0.06763752934357048 0.5537481647839174
0.1398136248187996 0.5637669487940576
0.1975545011989829 0.5136730287433566
0.22642493938907457 0.4435415406723752
0.21198972029402874 0.43352275666223505
0.16868406300889127 0.4635791086926556
0.1975545011989829 0.5437293807737772
0.2552953775791662 0.583804516814338
0.32747147305439533 0.5938233008244782
0.41408278762467027 0.5537481647839174
0.4718236640048536 0.5437293807737772
0.4718236640048536 0.5437293807737772
0.5006941021949453 0.6038420848346184
0.5584349785751286 0.6238796528548988
0.5295645403850369 0.583804516814338
0.4718236640048536 0.4435415406723752
0.41408278762467027 0.31329734854055263
0.39964756852962446 0.23314707645943103
0.39964756852962446 0.22312829244929083
0.32747147305439533 0.23314707645943103
0.3707771303395328 0.14297802036816926
0.38521234943457866 0.04279018026676725
0.3419066921494412 -0.01732252379407394
0.28416581576925787 -0.027341307804214142
0.28416581576925787 0.04279018026676725
0.32747147305439533 0.09288410031746826
0.39964756852962446 0.15299680437830945
0.38521234943457866 0.14297802036816926
0.28416581576925787 0.08286531630732805
0.15424884391384544 0.022752612246486857
0.06763752934357048 0.052808964276907455
0.09650796753366213 0.06282774828704765
0.1398136248187996 0.08286531630732805
0.18311928210393708 0.07284653229718785
0.12537840572375378 0.07284653229718785
-0.047844223416796124 0.08286531630732805
-0.13445553798707108 0.08286531630732805
-0.1633259761771627 0.04279018026676725
-0.17776119527220854 -0.03736009181435434
-0.22106685255734604 -0.13754793191575634
-0.22106685255734604 -0.15758549993603674
-0.2066316334623002 -0.09747279587519554
-0.13445553798707108 -0.04737887582449454
-0.2066316334623002 -0.05739765983463474
-0.22106685255734604 -0.07743522785491513
-0.23550207165239184 -0.13754793191575634
-0.17776119527220854 -0.11751036389547594
-0.1488907570821169 -0.15758549993603674
-0.1633259761771627 -0.13754793191575634
-0.12002031889202525 -0.14756671592589654
-0.10558509979697943 -0.14756671592589654
-0.1488907570821169 -0.14756671592589654
-0.22106685255734604 -0.13754793191575634
-0.29324294803257517 -0.11751036389547594
-0.33654860531771263 -0.027341307804214142
-0.30767816712762097 0.052808964276907455
-0.22106685255734604 0.06282774828704765
-0.1633259761771627 -0.007303739783933743
-0.10558509979697943 -0.05739765983463474
-0.12002031889202525 -0.11751036389547594
-0.1633259761771627 -0.10749157988533574
-0.19219641436725438 -0.05739765983463474
-0.24993729074743767 0.06282774828704765
-0.29324294803257517 0.10290288432760845
-0.22106685255734604 0.17303437239858985
-0.17776119527220854 0.21310950843915064
-0.07671466160688777 0.25318464447971145
0.024331872058433006 0.27322221249999185
0.1398136248187996 0.24316586046957123
0.15424884391384544 0.19307194041887024
0.08207274843861631 0.15299680437830945
0.03876709115347883 0.21310950843915064
0.053202310248524655 0.283240996510132
0.09650796753366213 0.32331613255069286
0.08207274843861631 0.283240996510132
0.1398136248187996 0.25318464447971145
0.12537840572375378 0.16301558838844965
0.06763752934357048 0.13295923635802906
0.03876709115347883 0.13295923635802906
0.024331872058433006 0.16301558838844965
0.09650796753366213 0.17303437239858985
0.15424884391384544 0.18305315640873004
0.18311928210393708 0.19307194041887024
0.16868406300889127 0.21310950843915064
0.16868406300889127 0.25318464447971145
0.053202310248524655 0.23314707645943103
-0.03340900432175029 0.23314707645943103
-0.1488907570821169 0.23314707645943103
-0.30767816712762097 0.17303437239858985
-0.4375951389830334 -0.14756671592589654
-0.42315991988798757 -0.6785622684633271
-0.3942894816978959 -1.229595389021038
-0.3221133862226668 -1.8106848616091695
-0.2643725098424835 -2.491962174298703
-0.2066316334623002 -3.1732394869882365
-0.1488907570821169 -3.794404095616929
-0.004538566131658644 -4.3253996481543595
0.18311928210393708 -4.726151008559968
0.3419066921494412 -4.896470336732351
0.4718236640048536 -4.956583040793192
0.5439997594800827 -4.826338848661369
0.7027871695255868 -4.525775328357164
1.0347972087116408 -3.84449801566763
1.5689003152283363 -2.7123754225217875
2.1318738599351237 -1.4399898532339823
2.4638838991211776 -0.3379236121185603
2.4494486800261317 0.17303437239858985
2.24735561269549 0.283240996510132
2.1463090790301695 0.34335370057097325
2.103003421745032 0.36339126859125365
1.8864751353193445 0.3934476206216742
1.6266411916085197 0.3734100526013938
1.3090663715175115 0.483616676712936
0.9914915514265034 0.6539360048853194
0.7316576077156784 0.7641426289968616
0.5873054167652202 0.8242553330577028
0.38521234943457866 0.784180197017142
0.26973059667421206 0.7541238449867214
0.12537840572375378 0.7641426289968616
0.009896652963387181 0.8543116850881234
-0.0911498807019336 0.9444807411793852
-0.1633259761771627 0.934461957169245
-0.2643725098424835 0.884368037118544
-0.3654190435078043 0.7441050609765812
-0.3798542626028501 0.7040299249360205
-0.33654860531771263 0.7240674929563008
-0.2066316334623002 0.7441050609765812
-0.06227944251184195 0.8142365490475626
0.15424884391384544 0.884368037118544
0.2552953775791662 0.8543116850881234
0.356341911244487 0.8543116850881234
0.32747147305439533 0.834274117067843
0.31303625395934953 0.884368037118544
0.2552953775791662 0.9244431731591048
0.26973059667421206 0.8643304690982636
0.29860103486430367 0.7941989810272821
0.26973059667421206 0.7741614130070018
0.21198972029402874 0.7641426289968616
0.2408601584841204 0.8142365490475626
0.26973059667421206 0.8543116850881234
0.32747147305439533 0.8943868211286842
0.356341911244487 0.8743492531084038
0.28416581576925787 0.8442929010779832
0.22642493938907457 0.7941989810272821
0.2552953775791662 0.7741614130070018
0.31303625395934953 0.8042177650374224
0.39964756852962446 0.8543116850881234
0.41408278762467027 0.8543116850881234
0.3707771303395328 0.784180197017142
0.29860103486430367 0.7441050609765812
0.356341911244487 0.7441050609765812
0.39964756852962446 0.7641426289968616
0.44295322581476193 0.784180197017142
0.4862588830998994 0.734086276966441
0.44295322581476193 0.7441050609765812
0.39964756852962446 0.7741614130070018
0.39964756852962446 0.8142365490475626
0.5006941021949453 0.884368037118544
0.5873054167652202 0.8743492531084038
0.6161758549553118 0.8242553330577028
0.601740635860266 0.7641426289968616
0.5584349785751286 0.7040299249360205
0.5584349785751286 0.6639547888954596
0.5873054167652202 0.6940111409258802
0.5873054167652202 0.6539360048853194
0.5295645403850369 0.6639547888954596
0.5295645403850369 0.7040299249360205
0.5439997594800827 0.734086276966441
0.5295645403850369 0.734086276966441
0.5728701976701743 0.68399235691574
0.6450462931454035 0.583804516814338
0.7460928268107243 0.5036542447332164
0.7605280459057701 0.47359789270279584
0.8038337031909076 0.4635791086926556
0.8182689222859534 0.5136730287433566
0.9048802368562283 0.5136730287433566
0.93375067504632 0.5036542447332164
0.8760097986661367 0.43352275666223505
0.7893984840958618 0.3934476206216742
0.7316576077156784 0.3533724845811134
0.8327041413809992 0.3533724845811134
0.8615745795710908 0.32331613255069286
0.9481858941413658 0.33333491656083303
0.9914915514265034 0.23314707645943103
0.9914915514265034 0.16301558838844965
1.0492324278066867 0.12294045234788885
1.1214085232819158 0.17303437239858985
1.179149399662099 0.20309072442901044
1.10697330418687 0.16301558838844965
1.005926770521549 0.04279018026676725
0.9048802368562283 0.032771396256627054
0.93375067504632 0.002715044226206457
1.0492324278066867 -0.007303739783933743
1.092538085091824 -0.027341307804214142
1.0636676469017325 -0.08745401186505533
1.0492324278066867 -0.08745401186505533
1.0492324278066867 -0.10749157988533574
1.0636676469017325 -0.07743522785491513
1.092538085091824 -0.07743522785491513
1.0781028659967782 -0.12752914790561615
1.10697330418687 -0.18764185196645733
1.0781028659967782 -0.22771698800701812
1.0781028659967782 -0.25777334003743874
1.1358437423769616 -0.24775455602729854
1.1502789614720075 -0.18764185196645733
1.179149399662099 -0.11751036389547594
1.1358437423769616 -0.08745401186505533
1.1214085232819158 -0.10749157988533574
0.9626211132364116 -0.15758549993603674
0.7460928268107243 -0.20767941998673772
0.7027871695255868 -0.15758549993603674
0.7172223886206326 -0.06741644384477494
0.7605280459057701 -0.027341307804214142
0.7172223886206326 -0.08745401186505533
0.5728701976701743 -0.17762306795631713
0.5439997594800827 -0.23773577201715831
0.5439997594800827 -0.19766063597659753
0.688351950430541 -0.10749157988533574
0.8038337031909076 -0.08745401186505533
0.8327041413809992 -0.07743522785491513
0.7893984840958618 -0.05739765983463474
0.6594815122404494 -0.027341307804214142
0.5584349785751286 -0.007303739783933743
0.5006941021949453 0.002715044226206457
0.38521234943457866 0.032771396256627054
0.356341911244487 0.07284653229718785
0.31303625395934953 0.09288410031746826
0.26973059667421206 0.12294045234788885
0.3419066921494412 0.15299680437830945
0.39964756852962446 0.21310950843915064
0.4573884449098078 0.21310950843915064
0.39964756852962446 0.18305315640873004
0.356341911244487 0.16301558838844965
0.3419066921494412 0.18305315640873004
0.39964756852962446 0.19307194041887024
0.44295322581476193 0.20309072442901044
0.44295322581476193 0.22312829244929083
0.38521234943457866 0.21310950843915064
0.31303625395934953 0.23314707645943103
0.22642493938907457 0.18305315640873004
0.16868406300889127 0.21310950843915064
0.21198972029402874 0.24316586046957123
0.2408601584841204 0.29325978052027224
0.1975545011989829 0.29325978052027224
0.18311928210393708 0.29325978052027224
0.16868406300889127 0.24316586046957123
0.2408601584841204 0.24316586046957123
0.26973059667421206 0.3032785645304124
0.29860103486430367 0.38342883661153404
0.28416581576925787 0.4134851886419546
0.2408601584841204 0.40346640463181443
0.08207274843861631 0.38342883661153404
0.09650796753366213 0.43352275666223505
0.11094318662870796 0.5136730287433566
0.16868406300889127 0.5437293807737772
0.22642493938907457 0.5236918127534969
0.1398136248187996 0.45356032468251545
0.1398136248187996 0.45356032468251545
0.09650796753366213 0.4635791086926556
0.1398136248187996 0.5136730287433566
0.21198972029402874 0.5637669487940576
0.1975545011989829 0.533710596763637
0.053202310248524655 0.5036542447332164
-0.004538566131658644 0.5437293807737772
0.024331872058433006 0.5938233008244782
0.11094318662870796 0.5938233008244782
0.1975545011989829 0.6138608688447587
0.16868406300889127 0.5737857328041979
0.12537840572375378 0.5136730287433566
0.08207274843861631 0.483616676712936
0.1398136248187996 0.483616676712936
0.18311928210393708 0.49363546072307624
0.18311928210393708 0.4635791086926556
0.18311928210393708 0.4435415406723752
0.11094318662870796 0.3934476206216742
0.06763752934357048 0.3934476206216742
0.03876709115347883 0.42350397265209483
0.08207274843861631 0.45356032468251545
0.12537840572375378 0.3934476206216742
0.16868406300889127 0.3533724845811134
0.22642493938907457 0.32331613255069286
0.2408601584841204 0.283240996510132
0.32747147305439533 0.24316586046957123
0.356341911244487 0.17303437239858985
0.5439997594800827 0.10290288432760845
0.7316576077156784 0.052808964276907455
0.8615745795710908 -0.05739765983463474
0.9914915514265034 -0.15758549993603674
1.2224550569472366 -0.16760428394617694
1.3379368097076032 -0.11751036389547594
1.4245481242778781 -0.04737887582449454
1.4245481242778781 0.052808964276907455
1.3523720288026488 0.23314707645943103
1.2801959333274198 0.4435415406723752
1.3523720288026488 0.8242553330577028
1.3668072478976947 1.2650818295038715
1.3668072478976947 1.7159271099601805
1.2224550569472366 2.0164906302643866
0.8760097986661367 2.2769790145280315
0.5006941021949453 2.547486182801817
0.09650796753366213 2.8881248391465837
-0.33654860531771263 3.2187447114812104
-0.6974290826938583 3.549364583815837
-1.0727447791650497 3.940097160211305
-1.3614491610659663 4.3408485206169125
-1.6501535429668828 4.731581097012381
-1.9388579248677993 5.18242637746869
-2.1842566494835784 5.573158953864158
-2.4007849359092654 5.863703690158223
-2.530701907764678 6.064079370361027
-2.530701907764678 6.104154506401588
-2.3430440595290825 6.114173290411728
-2.1842566494835784 6.174285994472569
-2.1698214303885326 6.294511402594251
-2.2419975258637614 6.324567754624672
-2.270867964053853 6.334586538634812
-2.38634971681422 6.354624106655093
-2.3574792786241283 6.394699242695654
-2.2564327449588073 6.414736810715934
-2.1842566494835784 6.384680458685513
-2.1553862112934867 6.284492618584111
-2.1553862112934867 6.114173290411728
-2.1553862112934867 5.903778826198784
-2.0687748967232116 5.763515850056821
-1.9099874866777076 5.72344071401626
-1.7223296384421118 5.6933843619858395
-1.5924126665866993 5.7034031459959795
-1.476930913826333 5.6733467939655595
-1.390319599256058 5.653309225945279
-1.3181435037808287 5.653309225945279
-1.3614491610659663 5.623252873914859
-1.2604026274006455 5.503027465793176
-1.1593560937353247 5.2124827294991105
-1.0727447791650497 4.911919209194904
-1.0150039027848665 4.591318120870418
-0.8417812736443165 4.19056676046481
-0.6685586445037666 3.6896275599578
-0.5097712344582626 3.0584441673189673
-0.3654190435078043 2.236903878487471
-0.3798542626028501 1.18493155742275
-0.4375951389830334 0.15299680437830945
-0.45203035807807923 -0.6585247004430467
-0.30767816712762097 -1.1594639009500567
-0.12002031889202525 -1.3698583651630007
0.1975545011989829 -1.4500086372441225
0.4285180067197161 -1.5301589093252441
0.6739167313354951 -1.580252829375945
0.8471393604760451 -1.630346749426646
1.020361989616595 -1.6503843174469264
1.0781028659967782 -1.6604031014570666
1.10697330418687 -1.7104970215077677
1.1214085232819158 -1.730534589528048
1.1502789614720075 -1.7706097255686088
1.179149399662099 -1.7706097255686088
1.2224550569472366 -1.7906472935888893
1.2801959333274198 -1.780628509578749
1.3523720288026488 -1.780628509578749
1.438983343372924 -1.7906472935888893
1.4678537815630155 -1.8507599976497304
1.511159438848153 -1.9108727017105716
1.5544650961332904 -1.9008539177004313
1.511159438848153 -1.9409290537409922
1.525594657943199 -1.9910229737916931
1.525594657943199 -2.041116893842394
1.525594657943199 -2.131285949933656
1.4967242197531072 -2.1713610859742167
1.5400298770382446 -2.1513235179539363
1.6266411916085197 -2.191398653994497
1.7132525061787947 -2.2515113580553385
1.8142990398441154 -2.3516991981567403
1.828734258939161 -2.381755550187161
1.7709933825589779 -2.4619058222682826
1.7709933825589779 -2.481943390288563
1.7854286016540237 -2.5019809583088435
1.8142990398441154 -2.5420560943494044
1.8720399162242987 -2.582131230389965
1.8720399162242987 -2.652262718460946
1.9442160116995277 -2.7223942065319275
1.9730864498896195 -2.7925256946029093
2.0452625453648485 -2.8426196146536102
2.0452625453648485 -2.902732318714451
2.0596977644598944 -3.022957726836134
2.0452625453648485 -3.103107998917255
2.1318738599351237 -3.103107998917255
2.2040499554103525 -3.093089214907115
2.276226050885582 -3.0830704308969747
2.3339669272657653 -3.1231455669375356
2.3050964890756735 -3.183258270998377
2.276226050885582 -3.2533897590693583
2.261790831790536 -3.283446111099779
2.2906612699806277 -3.35357759917076
2.3195317081707194 -3.4237090872417415
2.3917078036459483 -3.443746655262022
2.3917078036459483 -3.4938405753127233
2.3484021463608107 -3.483821791302583
2.2906612699806277 -3.4537654392721624
2.3195317081707194 -3.4637842232823024
2.3195317081707194 -3.4938405753127233
2.3484021463608107 -3.4938405753127233
2.3628373654558565 -3.5339157113532838
2.3195317081707194 -3.553953279373564
2.276226050885582 -3.6140659834344055
2.261790831790536 -3.604047199424265
2.2040499554103525 -3.5639720633837046
2.2184851745053984 -3.5639720633837046
2.2184851745053984 -3.594028415414125
2.2184851745053984 -3.6140659834344055
2.276226050885582 -3.644122335464826
2.4494486800261317 -3.604047199424265
2.5504952136914523 -3.6140659834344055
2.4927543373112693 -3.5739908473938446
2.3484021463608107 -3.584009631403985
2.2906612699806277 -3.6240847674445456
2.2329203936004443 -3.6641599034851065
2.1896147363153067 -3.6140659834344055
2.2329203936004443 -3.543934495363424
2.24735561269549 -3.5038593593228633
2.3050964890756735 -3.473803007292443
2.276226050885582 -3.4637842232823024
2.2184851745053984 -3.393652735211321
2.2040499554103525 -3.3135024631301997
2.1896147363153067 -3.2533897590693583
2.1318738599351237 -3.2032958390186574
2.0741329835549402 -3.2032958390186574
2.016392107174757 -3.193277055008517
1.9297807926044819 -3.143183134957816
1.9009103544143904 -3.0630328628766947
1.9730864498896195 -3.0129389428259934
1.9009103544143904 -2.892713534704311
1.8576046971292528 -2.82258204663333
1.7709933825589779 -2.7624693425724884
1.6988172870837488 -2.6723002864812266
1.6266411916085197 -2.5921500144001053
1.6266411916085197 -2.522018526329124
1.5833355343233821 -2.5119997423189835
1.511159438848153 -2.441868254248002
1.4101129051828323 -2.4518870382581426
1.3379368097076032 -2.4118119022175817
1.3235015906125573 -2.3416804141466003
1.3379368097076032 -2.2214550060249176
1.3668072478976947 -2.1112483819133754
1.3090663715175115 -2.0912108138930954
1.265760714232374 -2.081192029882955
1.2080198378521907 -2.041116893842394
1.1358437423769616 -1.9609666217612727
1.0781028659967782 -1.8407412136395902
1.0492324278066867 -1.7405533735381882
0.9914915514265034 -1.6403655334367861
0.8904450177611826 -1.5902716133860852
0.93375067504632 -1.5101213413049637
0.9770563323314575 -1.379877149173141
0.9770563323314575 -1.3097456611021596
1.005926770521549 -1.2997268770920194
0.8904450177611826 -1.269670525061599
0.7893984840958618 -1.1995390369906174
0.6594815122404494 -1.1394263329297762
0.601740635860266 -1.069294844858795
0.6739167313354951 -0.9691070047573929
0.7172223886206326 -0.9089943006965516
0.7460928268107243 -0.8488815966357105
0.7316576077156784 -0.7987876765850095
0.7027871695255868 -0.7887688925748693
0.7316576077156784 -0.7086186204937477
0.7172223886206326 -0.6585247004430467
0.7749632650008159 -0.6284683484126261
0.6739167313354951 -0.5883932123720653
0.6306110740503577 -0.5182617243010839
0.5295645403850369 -0.4481302362301025
0.4862588830998994 -0.32790482810842014
0.5006941021949453 -0.17762306795631713
0.5439997594800827 -0.14756671592589654
0.5439997594800827 -0.11751036389547594
0.4862588830998994 -0.14756671592589654
0.38521234943457866 -0.20767941998673772
0.39964756852962446 -0.18764185196645733
0.5151293212899911 -0.11751036389547594
0.5873054167652202 -0.04737887582449454
0.5584349785751286 0.04279018026676725
0.5151293212899911 0.07284653229718785
0.39964756852962446 0.12294045234788885
0.3419066921494412 0.15299680437830945
0.3707771303395328 0.13295923635802906
0.39964756852962446 0.11292166833774865
0.44295322581476193 0.09288410031746826
0.39964756852962446 0.09288410031746826
0.38521234943457866 0.12294045234788885
0.356341911244487 0.13295923635802906
0.3707771303395328 0.13295923635802906
0.3419066921494412 0.13295923635802906
0.31303625395934953 0.15299680437830945
0.21198972029402874 0.15299680437830945
0.1975545011989829 0.16301558838844965
0.21198972029402874 0.19307194041887024
0.29860103486430367 0.21310950843915064
0.38521234943457866 0.20309072442901044
0.3707771303395328 0.13295923635802906
0.29860103486430367 0.08286531630732805
0.2552953775791662 0.10290288432760845
0.22642493938907457 0.17303437239858985
0.3419066921494412 0.20309072442901044
0.3707771303395328 0.17303437239858985
0.38521234943457866 0.17303437239858985
0.3707771303395328 0.19307194041887024
0.3419066921494412 0.19307194041887024
0.3707771303395328 0.25318464447971145
0.31303625395934953 0.2632034284898516
0.28416581576925787 0.32331613255069286
0.18311928210393708 0.34335370057097325
0.1398136248187996 0.32331613255069286
0.053202310248524655 0.29325978052027224
0.09650796753366213 0.29325978052027224
0.18311928210393708 0.29325978052027224
0.26973059667421206 0.32331613255069286
0.31303625395934953 0.36339126859125365
0.3419066921494412 0.3734100526013938
0.3707771303395328 0.40346640463181443
0.3707771303395328 0.483616676712936
0.3707771303395328 0.533710596763637
0.38521234943457866 0.47359789270279584
0.32747147305439533 0.3533724845811134
0.28416581576925787 0.27322221249999185
0.2408601584841204 0.25318464447971145
0.1975545011989829 0.29325978052027224
0.21198972029402874 0.31329734854055263
0.2408601584841204 0.32331613255069286
0.18311928210393708 0.29325978052027224
0.15424884391384544 0.24316586046957123
0.15424884391384544 0.27322221249999185
0.18311928210393708 0.3032785645304124
0.22642493938907457 0.32331613255069286
0.29860103486430367 0.31329734854055263
0.3419066921494412 0.22312829244929083
0.2408601584841204 0.19307194041887024
0.1975545011989829 0.17303437239858985
0.16868406300889127 0.20309072442901044
0.12537840572375378 0.25318464447971145
0.09650796753366213 0.283240996510132
0.06763752934357048 0.29325978052027224
0.06763752934357048 0.32331613255069286
0.09650796753366213 0.283240996510132
0.26973059667421206 0.34335370057097325
0.38521234943457866 0.38342883661153404
0.4285180067197161 0.43352275666223505
0.38521234943457866 0.3934476206216742
0.3419066921494412 0.3734100526013938
0.2408601584841204 0.33333491656083303
0.18311928210393708 0.3032785645304124
0.22642493938907457 0.3032785645304124
0.22642493938907457 0.283240996510132
0.2408601584841204 0.27322221249999185
0.18311928210393708 0.25318464447971145
0.11094318662870796 0.27322221249999185
0.09650796753366213 0.3032785645304124
0.15424884391384544 0.3533724845811134
0.21198972029402874 0.36339126859125365
0.2408601584841204 0.36339126859125365
0.22642493938907457 0.3533724845811134
0.21198972029402874 0.31329734854055263
0.21198972029402874 0.283240996510132
0.18311928210393708 0.25318464447971145
0.22642493938907457 0.20309072442901044
0.18311928210393708 0.18305315640873004
0.024331872058433006 0.13295923635802906
-0.03340900432175029 0.14297802036816926
-0.06227944251184195 0.19307194041887024
-0.018973785226704468 0.32331613255069286
0.09650796753366213 0.33333491656083303
0.09650796753366213 0.34335370057097325
0.009896652963387181 0.32331613255069286
-0.07671466160688777 0.3032785645304124
-0.0911498807019336 0.3032785645304124
-0.047844223416796124 0.25318464447971145
0.024331872058433006 0.18305315640873004
0.16868406300889127 0.18305315640873004
0.22642493938907457 0.17303437239858985
0.22642493938907457 0.22312829244929083
0.28416581576925787 0.32331613255069286
0.28416581576925787 0.45356032468251545
0.29860103486430367 0.5437293807737772
0.26973059667421206 0.6739735729055998
0.22642493938907457 0.7741614130070018
0.16868406300889127 0.734086276966441
0.11094318662870796 0.5737857328041979
0.09650796753366213 0.3734100526013938
0.09650796753366213 0.17303437239858985
0.12537840572375378 0.002715044226206457
0.21198972029402874 -0.06741644384477494
0.2552953775791662 -0.05739765983463474
0.29860103486430367 -0.03736009181435434
0.29860103486430367 0.032771396256627054
0.28416581576925787 0.09288410031746826
0.21198972029402874 0.12294045234788885
0.16868406300889127 0.10290288432760845
0.1398136248187996 0.10290288432760845
0.18311928210393708 0.12294045234788885
0.28416581576925787 0.16301558838844965
0.3707771303395328 0.19307194041887024
0.39964756852962446 0.18305315640873004
0.356341911244487 0.18305315640873004
0.32747147305439533 0.21310950843915064
0.3419066921494412 0.27322221249999185
0.32747147305439533 0.27322221249999185
0.32747147305439533 0.33333491656083303
0.28416581576925787 0.38342883661153404
0.2408601584841204 0.3734100526013938
0.18311928210393708 0.29325978052027224
0.22642493938907457 0.24316586046957123
0.2408601584841204 0.23314707645943103
0.2408601584841204 0.25318464447971145
0.1975545011989829 0.25318464447971145
0.09650796753366213 0.283240996510132
0.09650796753366213 0.3934476206216742
0.1398136248187996 0.5136730287433566
0.22642493938907457 0.5737857328041979
0.3707771303395328 0.5437293807737772
0.41408278762467027 0.483616676712936
0.41408278762467027 0.42350397265209483
0.38521234943457866 0.38342883661153404
0.39964756852962446 0.40346640463181443
0.38521234943457866 0.43352275666223505
0.356341911244487 0.45356032468251545
0.3419066921494412 0.49363546072307624
0.26973059667421206 0.47359789270279584
0.2408601584841204 0.4435415406723752
0.28416581576925787 0.3934476206216742
0.3419066921494412 0.3934476206216742
0.38521234943457866 0.36339126859125365
0.39964756852962446 0.283240996510132
0.356341911244487 0.20309072442901044
0.31303625395934953 0.15299680437830945
0.32747147305439533 0.12294045234788885
0.32747147305439533 0.06282774828704765
0.31303625395934953 0.032771396256627054
0.26973059667421206 0.052808964276907455
0.1398136248187996 0.06282774828704765
-0.047844223416796124 0.07284653229718785
-0.1488907570821169 0.07284653229718785
-0.12002031889202525 0.09288410031746826
-0.03340900432175029 0.10290288432760845
0.12537840572375378 0.11292166833774865
0.18311928210393708 0.08286531630732805
0.2552953775791662 0.09288410031746826
0.32747147305439533 0.16301558838844965
0.3419066921494412 0.24316586046957123
0.31303625395934953 0.21310950843915064
0.31303625395934953 0.17303437239858985
0.28416581576925787 0.08286531630732805
0.26973059667421206 0.022752612246486857
0.32747147305439533 -0.01732252379407394
0.26973059667421206 -0.06741644384477494
0.15424884391384544 -0.14756671592589654
0.053202310248524655 -0.18764185196645733
-0.03340900432175029 -0.20767941998673772
-0.10558509979697943 -0.19766063597659753
-0.0911498807019336 -0.11751036389547594
0.06763752934357048 -0.03736009181435434
0.15424884391384544 -0.007303739783933743
0.18311928210393708 0.022752612246486857
0.11094318662870796 0.012733828236346657
0.009896652963387181 -0.027341307804214142
-0.03340900432175029 -0.05739765983463474
-0.06227944251184195 -0.08745401186505533
-0.0911498807019336 -0.20767941998673772
-0.13445553798707108 -0.27781090805771913
-0.19219641436725438 -0.2878296920678593
-0.23550207165239184 -0.22771698800701812
-0.2788077289375293 -0.17762306795631713
-0.19219641436725438 -0.07743522785491513
-0.13445553798707108 -0.01732252379407394
-0.12002031889202525 -0.007303739783933743
-0.1488907570821169 -0.01732252379407394
-0.2066316334623002 -0.03736009181435434
-0.13445553798707108 -0.03736009181435434
-0.0911498807019336 -0.01732252379407394
-0.047844223416796124 -0.007303739783933743
-0.004538566131658644 0.032771396256627054
0.03876709115347883 -0.007303739783933743
0.024331872058433006 -0.05739765983463474
0.06763752934357048 -0.07743522785491513
0.12537840572375378 -0.06741644384477494
0.16868406300889127 -0.03736009181435434
0.18311928210393708 -0.027341307804214142
0.15424884391384544 0.08286531630732805
0.1398136248187996 0.16301558838844965
0.16868406300889127 0.22312829244929083
0.18311928210393708 0.23314707645943103
0.1398136248187996 0.21310950843915064
0.09650796753366213 0.2632034284898516
-0.03340900432175029 0.29325978052027224
-0.12002031889202525 0.34335370057097325
-0.10558509979697943 0.4134851886419546
0.009896652963387181 0.5036542447332164
0.18311928210393708 0.5637669487940576
0.29860103486430367 0.583804516814338
0.31303625395934953 0.5637669487940576
0.28416581576925787 0.5437293807737772
0.31303625395934953 0.5637669487940576
0.31303625395934953 0.6038420848346184
0.29860103486430367 0.6238796528548988
0.26973059667421206 0.5537481647839174
0.1398136248187996 0.3934476206216742
-0.06227944251184195 0.22312829244929083
-0.1633259761771627 0.10290288432760845
-0.10558509979697943 0.032771396256627054
0.009896652963387181 0.08286531630732805
0.18311928210393708 0.22312829244929083
0.29860103486430367 0.3934476206216742
0.39964756852962446 0.45356032468251545
0.5295645403850369 0.40346640463181443
0.5584349785751286 0.32331613255069286
0.4862588830998994 0.22312829244929083
0.3419066921494412 0.04279018026676725
0.1398136248187996 -0.2978484760779995
-0.018973785226704468 -0.8488815966357105
-0.10558509979697943 -1.3898959331832812
-0.03340900432175029 -1.9108727017105716
0.053202310248524655 -2.491962174298703
0.11094318662870796 -3.143183134957816
0.11094318662870796 -3.724272607545948
0.15424884391384544 -4.245249376073238
0.31303625395934953 -4.625963168458566
0.4573884449098078 -4.936545472772912
0.5584349785751286 -5.106864800945295
0.5728701976701743 -5.2070526410466975
0.5295645403850369 -5.2270902090669775
0.5584349785751286 -5.156958720995997
0.7460928268107243 -4.886451552722211
1.1358437423769616 -4.425587488255761
1.6988172870837488 -3.634103551454686
2.2040499554103525 -2.532037310339264
2.59380087097659 -1.3898959331832812
2.824764376497323 -0.4882053722706633
2.9258109101626437 0.15299680437830945
2.824764376497323 0.5938233008244782
2.738153061927048 0.9945746612300862
2.507189556406315 1.285119397524152
2.2329203936004443 1.2250066934633108
1.8142990398441154 0.9144243891489646
1.4101129051828323 0.583804516814338
1.0636676469017325 0.3533724845811134
0.8182689222859534 0.20309072442901044
0.6161758549553118 0.07284653229718785
0.5295645403850369 -0.007303739783933743
0.4718236640048536 0.052808964276907455
0.5439997594800827 0.22312829244929083
0.5873054167652202 0.4435415406723752
0.6450462931454035 0.5938233008244782
0.601740635860266 0.7240674929563008
0.601740635860266 0.834274117067843
0.5728701976701743 0.9144243891489646
0.5584349785751286 0.9645183091996656
0.6161758549553118 0.934461957169245
0.6594815122404494 0.8242553330577028
0.5295645403850369 0.7040299249360205
0.4285180067197161 0.6739735729055998
0.31303625395934953 0.6739735729055998
0.356341911244487 0.7741614130070018
0.5295645403850369 0.9044056051388244
0.6594815122404494 0.9544995251895254
0.688351950430541 0.9244431731591048
0.7027871695255868 0.8943868211286842
0.7027871695255868 0.8943868211286842
0.8182689222859534 0.9444807411793852
0.8615745795710908 0.9544995251895254
0.8471393604760451 1.0146122292503665
0.8038337031909076 1.1148000693517686
0.7316576077156784 1.235025477473451
0.7027871695255868 1.3051569655444324
0.6594815122404494 1.2550630454937313
0.7027871695255868 1.0647061493010677
0.6306110740503577 0.8943868211286842
0.5584349785751286 0.7741614130070018
0.5151293212899911 0.7040299249360205
0.5151293212899911 0.6539360048853194
0.6450462931454035 0.6639547888954596
0.7749632650008159 0.68399235691574
0.8615745795710908 0.7040299249360205
0.8904450177611826 0.7140487089461606
0.93375067504632 0.7140487089461606
0.93375067504632 0.7240674929563008
0.9626211132364116 0.7641426289968616
0.9193154559512742 0.8743492531084038
0.9193154559512742 1.0246310132605068
0.9193154559512742 1.0947625013314881
0.8615745795710908 1.1248188533619088
0.7316576077156784 1.0647061493010677
0.6161758549553118 1.034649797270647
0.5439997594800827 0.9444807411793852
0.5728701976701743 0.884368037118544
0.6161758549553118 0.8242553330577028
0.6594815122404494 0.834274117067843
0.7749632650008159 0.8743492531084038
0.93375067504632 0.934461957169245
1.0781028659967782 0.9745370932098057
1.1647141805670531 0.9544995251895254
1.1647141805670531 0.9745370932098057
1.0781028659967782 1.0446685812807872
1.0781028659967782 1.1749127734126097
1.020361989616595 1.345232101584993
1.020361989616595 1.485495077726956
1.0492324278066867 1.5155514297573764
1.092538085091824 1.445419941686395
1.0636676469017325 1.2650818295038715
1.0781028659967782 0.9544995251895254
1.1214085232819158 0.68399235691574
1.2224550569472366 0.42350397265209483
1.265760714232374 0.29325978052027224
1.2801959333274198 0.23314707645943103
1.2801959333274198 0.25318464447971145
1.2080198378521907 0.2632034284898516
1.2080198378521907 0.32331613255069286
1.2080198378521907 0.42350397265209483
1.265760714232374 0.533710596763637
1.179149399662099 0.5637669487940576
1.1358437423769616 0.6238796528548988
1.1214085232819158 0.734086276966441
1.1358437423769616 0.7441050609765812
1.2513254951373283 0.7040299249360205
1.3090663715175115 0.6940111409258802
1.2946311524224656 0.633898436865039
1.2080198378521907 0.6138608688447587
1.1358437423769616 0.583804516814338
1.179149399662099 0.5737857328041979
1.2368902760422824 0.533710596763637
1.4101129051828323 0.47359789270279584
1.5400298770382446 0.4635791086926556
1.6266411916085197 0.4134851886419546
1.7132525061787947 0.40346640463181443
1.7709933825589779 0.38342883661153404
1.7709933825589779 0.34335370057097325
1.756558163463932 0.3734100526013938
1.6988172870837488 0.3734100526013938
1.6122059725134739 0.31329734854055263
1.4822890006580614 0.3032785645304124
1.4101129051828323 0.3734100526013938
1.4678537815630155 0.5036542447332164
1.4822890006580614 0.7641426289968616
1.4822890006580614 0.9745370932098057
1.4534185624679696 1.034649797270647
1.4245481242778781 0.8242553330577028
1.525594657943199 0.533710596763637
1.4967242197531072 0.13295923635802906
1.3668072478976947 -0.30786726008813975
1.2801959333274198 -0.6485059164329064
1.3235015906125573 -0.7486937565343085
1.511159438848153 -0.6585247004430467
1.7421229443688862 -0.5082429402909437
1.9297807926044819 -0.3880175321692613
1.9730864498896195 -0.30786726008813975
1.8864751353193445 -0.2878296920678593
1.7276877252738405 -0.25777334003743874
1.5833355343233821 -0.17762306795631713
1.4534185624679696 -0.06741644384477494
1.3090663715175115 0.012733828236346657
1.2224550569472366 0.022752612246486857
1.2080198378521907 0.032771396256627054
1.2080198378521907 -0.007303739783933743
1.1647141805670531 -0.05739765983463474
1.2080198378521907 -0.06741644384477494
1.2224550569472366 -0.03736009181435434
1.3235015906125573 -0.007303739783933743
1.2946311524224656 -0.03736009181435434
1.1935846187571448 -0.04737887582449454
1.10697330418687 -0.027341307804214142
1.020361989616595 0.002715044226206457
1.005926770521549 0.04279018026676725
0.9770563323314575 0.07284653229718785
0.9048802368562283 0.11292166833774865
0.8471393604760451 0.12294045234788885
0.8038337031909076 0.10290288432760845
0.7749632650008159 0.12294045234788885
0.8038337031909076 0.14297802036816926
0.7605280459057701 0.15299680437830945
0.7172223886206326 0.17303437239858985
0.6739167313354951 0.17303437239858985
0.6450462931454035 0.21310950843915064
0.7027871695255868 0.27322221249999185
0.7605280459057701 0.2632034284898516
0.7749632650008159 0.27322221249999185
0.7172223886206326 0.283240996510132
0.6594815122404494 0.3734100526013938
0.601740635860266 0.47359789270279584
0.5728701976701743 0.533710596763637
0.5584349785751286 0.5136730287433566
0.6306110740503577 0.5236918127534969
0.6450462931454035 0.483616676712936
0.5584349785751286 0.47359789270279584
0.4862588830998994 0.40346640463181443
0.4573884449098078 0.34335370057097325
0.41408278762467027 0.3032785645304124
0.4285180067197161 0.2632034284898516
0.4573884449098078 0.23314707645943103
0.5006941021949453 0.24316586046957123
0.4573884449098078 0.25318464447971145
0.4862588830998994 0.32331613255069286
0.4718236640048536 0.40346640463181443
0.44295322581476193 0.47359789270279584
0.356341911244487 0.5136730287433566
0.1975545011989829 0.5437293807737772
0.12537840572375378 0.5637669487940576
0.16868406300889127 0.6238796528548988
0.28416581576925787 0.6539360048853194
0.44295322581476193 0.7140487089461606
0.5295645403850369 0.7140487089461606
0.5006941021949453 0.7541238449867214
0.38521234943457866 0.8142365490475626
0.3419066921494412 0.8943868211286842
0.3419066921494412 0.9244431731591048
0.356341911244487 0.934461957169245
0.29860103486430367 0.9544995251895254
0.2408601584841204 0.9945746612300862
0.21198972029402874 0.9945746612300862
0.21198972029402874 0.9645183091996656
0.26973059667421206 0.9144243891489646
0.2552953775791662 0.8442929010779832
0.21198972029402874 0.7941989810272821
0.16868406300889127 0.734086276966441
0.06763752934357048 0.6940111409258802
0.03876709115347883 0.7441050609765812
-0.047844223416796124 0.8142365490475626
-0.06227944251184195 0.834274117067843
-0.07671466160688777 0.8442929010779832
-0.06227944251184195 0.8442929010779832
-0.018973785226704468 0.9044056051388244
0.09650796753366213 1.034649797270647
0.21198972029402874 1.1548752053923295
0.2552953775791662 1.1648939894024697
0.22642493938907457 1.0546873652909274
0.11094318662870796 0.9044056051388244
-0.004538566131658644 0.7541238449867214
-0.06227944251184195 0.6639547888954596
-0.0911498807019336 0.6138608688447587
-0.10558509979697943 0.633898436865039
-0.13445553798707108 0.6639547888954596
-0.1488907570821169 0.6940111409258802
-0.1488907570821169 0.7641426289968616
-0.10558509979697943 0.8543116850881234
-0.03340900432175029 0.884368037118544
0.03876709115347883 0.8242553330577028
0.009896652963387181 0.734086276966441
-0.0911498807019336 0.68399235691574
-0.10558509979697943 0.7641426289968616
-0.1633259761771627 0.9645183091996656
-0.10558509979697943 1.1749127734126097
-0.03340900432175029 1.3151757495545726
-0.004538566131658644 1.3151757495545726
0.06763752934357048 1.2550630454937313
0.12537840572375378 1.1248188533619088
0.18311928210393708 0.9544995251895254
0.2408601584841204 0.7040299249360205
0.32747147305439533 0.5437293807737772
0.3419066921494412 0.36339126859125365
0.31303625395934953 0.38342883661153404
0.26973059667421206 0.45356032468251545
0.31303625395934953 0.5637669487940576
0.29860103486430367 0.6940111409258802
0.2552953775791662 0.7441050609765812
0.12537840572375378 0.7541238449867214
0.08207274843861631 0.6940111409258802
0.03876709115347883 0.6439172208751792
0.1398136248187996 0.633898436865039
0.16868406300889127 0.6238796528548988
0.2408601584841204 0.5737857328041979
0.22642493938907457 0.483616676712936
0.21198972029402874 0.38342883661153404
0.1398136248187996 0.3934476206216742
0.12537840572375378 0.42350397265209483
0.08207274843861631 0.483616676712936
0.09650796753366213 0.533710596763637
0.024331872058433006 0.5737857328041979
0.08207274843861631 0.583804516814338
0.09650796753366213 0.5938233008244782
0.18311928210393708 0.5136730287433566
0.18311928210393708 0.45356032468251545
0.21198972029402874 0.33333491656083303
0.1975545011989829 0.27322221249999185
0.18311928210393708 0.25318464447971145
0.12537840572375378 0.22312829244929083
0.12537840572375378 0.2632034284898516
0.11094318662870796 0.36339126859125365
0.12537840572375378 0.47359789270279584
0.11094318662870796 0.5737857328041979
0.08207274843861631 0.6138608688447587
0.009896652963387181 0.6639547888954596
-0.004538566131658644 0.68399235691574
0.024331872058433006 0.583804516814338
0.024331872058433006 0.3734100526013938
-0.004538566131658644 0.15299680437830945
-0.12002031889202525 0.052808964276907455
-0.2066316334623002 0.022752612246486857
-0.2066316334623002 0.012733828236346657
-0.10558509979697943 -0.007303739783933743
0.009896652963387181 0.002715044226206457
0.06763752934357048 -0.03736009181435434
-0.004538566131658644 0.022752612246486857
-0.13445553798707108 -0.007303739783933743
-0.17776119527220854 -0.07743522785491513
-0.19219641436725438 -0.16760428394617694
-0.10558509979697943 -0.23773577201715831
-0.06227944251184195 -0.25777334003743874
-0.10558509979697943 -0.23773577201715831
-0.06227944251184195 -0.14756671592589654
-0.047844223416796124 0.002715044226206457
-0.03340900432175029 0.15299680437830945
-0.07671466160688777 0.283240996510132
-0.12002031889202525 0.3032785645304124
-0.1633259761771627 0.283240996510132
-0.2066316334623002 0.2632034284898516
-0.22106685255734604 0.27322221249999185
-0.17776119527220854 0.23314707645943103
-0.17776119527220854 0.19307194041887024
-0.13445553798707108 0.24316586046957123
-0.03340900432175029 0.4134851886419546
0.06763752934357048 0.49363546072307624
0.15424884391384544 0.5437293807737772
0.26973059667421206 0.483616676712936
0.38521234943457866 0.32331613255069286
0.44295322581476193 0.15299680437830945
0.4285180067197161 -0.01732252379407394
0.38521234943457866 -0.04737887582449454
0.39964756852962446 0.022752612246486857
0.3707771303395328 0.22312829244929083
0.3419066921494412 0.38342883661153404
0.32747147305439533 0.5437293807737772
0.29860103486430367 0.6138608688447587
0.26973059667421206 0.633898436865039
0.3419066921494412 0.6739735729055998
0.38521234943457866 0.6940111409258802
0.4285180067197161 0.6539360048853194
0.4285180067197161 0.6539360048853194
0.4285180067197161 0.7040299249360205
0.4862588830998994 0.834274117067843
0.5584349785751286 1.0647061493010677
0.601740635860266 1.2550630454937313
0.601740635860266 1.2751006135140117
0.5728701976701743 1.1047812853416283
0.4718236640048536 0.7140487089461606
0.32747147305439533 0.31329734854055263
0.1975545011989829 -0.007303739783933743
0.12537840572375378 -0.17762306795631713
0.1975545011989829 -0.23773577201715831
0.3419066921494412 -0.16760428394617694
0.4862588830998994 0.002715044226206457
0.601740635860266 0.17303437239858985
0.688351950430541 0.38342883661153404
0.8327041413809992 0.633898436865039
0.8615745795710908 0.8943868211286842
0.8471393604760451 1.0446685812807872
0.688351950430541 1.034649797270647
0.5006941021949453 0.984555877219946
0.39964756852962446 0.9945746612300862
0.29860103486430367 0.9444807411793852
0.21198972029402874 0.7441050609765812
0.03876709115347883 0.3734100526013938
-0.12002031889202525 -0.11751036389547594
-0.22106685255734604 -0.6585247004430467
-0.13445553798707108 -1.0592760608486547
0.053202310248524655 -1.4399898532339823
0.29860103486430367 -1.9108727017105716
0.4573884449098078 -2.572112446379825
0.601740635860266 -3.2533897590693583
0.601740635860266 -3.9146295037386114
0.6161758549553118 -4.415568704245621
0.6594815122404494 -4.7662261446005285
0.6450462931454035 -4.936545472772912
0.7893984840958618 -4.996658176833753
0.8904450177611826 -4.986639392823613
1.0781028659967782 -4.84637641668165
1.3668072478976947 -4.485700192316603
1.7998638207490696 -3.8545167996777705
2.3917078036459483 -2.8526383986637502
2.8680700337824607 -1.7004782374976275
3.2145152920635605 -0.6384871324227663
3.243385730253652 0.13295923635802906
3.1134687583982394 0.6038420848346184
2.9258109101626437 0.7941989810272821
2.8825052528775066 0.834274117067843
2.8103291574022773 0.8643304690982636
2.6082360900716357 0.7541238449867214
2.261790831790536 0.5537481647839174
1.9442160116995277 0.42350397265209483
1.684382067988703 0.43352275666223505
1.438983343372924 0.40346640463181443
1.1935846187571448 0.45356032468251545
0.9193154559512742 0.5537481647839174
0.7172223886206326 0.7140487089461606
0.5873054167652202 0.8943868211286842
0.5584349785751286 1.0246310132605068
0.6161758549553118 1.134837637372049
0.6450462931454035 1.134837637372049
0.6594815122404494 1.0847437173213479
0.6161758549553118 0.934461957169245
0.601740635860266 0.8242553330577028
0.5439997594800827 0.734086276966441
0.5728701976701743 0.68399235691574
0.5873054167652202 0.6739735729055998
0.601740635860266 0.7641426289968616
0.6306110740503577 0.884368037118544
0.601740635860266 1.0847437173213479
0.6594815122404494 1.1749127734126097
0.6450462931454035 1.235025477473451
0.688351950430541 1.134837637372049
0.6739167313354951 1.034649797270647
0.7027871695255868 1.0446685812807872
0.7172223886206326 1.0847437173213479
0.7172223886206326 1.1548752053923295
0.7027871695255868 1.1548752053923295
0.6594815122404494 1.1148000693517686
0.6161758549553118 1.0546873652909274
0.601740635860266 1.0146122292503665
0.601740635860266 1.0146122292503665
0.5439997594800827 1.0146122292503665
0.5295645403850369 0.9544995251895254
0.6306110740503577 0.884368037118544
0.601740635860266 0.8442929010779832
0.5728701976701743 0.7941989810272821
0.601740635860266 0.6940111409258802
0.5873054167652202 0.5637669487940576
0.6306110740503577 0.5036542447332164
0.7172223886206326 0.533710596763637
0.7460928268107243 0.633898436865039
0.7749632650008159 0.784180197017142
0.8327041413809992 0.934461957169245
0.8615745795710908 1.0446685812807872
0.8182689222859534 1.0246310132605068
0.8327041413809992 0.9945746612300862
0.8182689222859534 0.9645183091996656
0.7460928268107243 0.9044056051388244
0.6739167313354951 0.8743492531084038
0.6450462931454035 0.9044056051388244
0.6450462931454035 0.9444807411793852
0.7460928268107243 0.9244431731591048
0.8038337031909076 0.8943868211286842
0.9193154559512742 0.9044056051388244
0.9770563323314575 0.934461957169245
1.0492324278066867 0.9544995251895254
1.092538085091824 0.9645183091996656
1.0781028659967782 0.984555877219946
1.020361989616595 0.9144243891489646
1.0492324278066867 0.8643304690982636
1.0492324278066867 0.9244431731591048
1.092538085091824 0.9945746612300862
1.092538085091824 1.0146122292503665
1.0492324278066867 0.9444807411793852
1.0636676469017325 0.884368037118544
0.9770563323314575 0.8643304690982636
0.93375067504632 0.834274117067843
0.9914915514265034 0.7541238449867214
1.0347972087116408 0.68399235691574
1.0636676469017325 0.7441050609765812
1.0781028659967782 0.834274117067843
1.0347972087116408 0.8442929010779832
1.0781028659967782 0.834274117067843
1.092538085091824 0.784180197017142
1.092538085091824 0.7641426289968616
1.0347972087116408 0.734086276966441
1.0492324278066867 0.7641426289968616
1.0636676469017325 0.8943868211286842
1.10697330418687 1.0546873652909274
1.1647141805670531 1.0446685812807872
1.2080198378521907 0.8743492531084038
1.2513254951373283 0.6038420848346184
1.265760714232374 0.32331613255069286
1.2368902760422824 0.12294045234788885
1.2513254951373283 0.14297802036816926
1.2946311524224656 0.24316586046957123
1.3090663715175115 0.34335370057097325
1.3235015906125573 0.33333491656083303
1.2946311524224656 0.14297802036816926
1.2801959333274198 -0.03736009181435434
1.3379368097076032 -0.21769820399687792
1.3812424669927406 -0.22771698800701812
1.4245481242778781 -0.19766063597659753
1.3956776860877864 -0.16760428394617694
1.3668072478976947 -0.09747279587519554
1.3235015906125573 -0.03736009181435434
1.2946311524224656 0.052808964276907455
1.2513254951373283 0.10290288432760845
1.2368902760422824 0.16301558838844965
1.2513254951373283 0.13295923635802906
1.3812424669927406 0.012733828236346657
1.4678537815630155 -0.13754793191575634
1.5833355343233821 -0.21769820399687792
1.597770753418428 -0.22771698800701812
1.6555116297986112 -0.09747279587519554
1.6266411916085197 0.11292166833774865
1.5400298770382446 0.23314707645943103
1.4678537815630155 0.20309072442901044
1.4245481242778781 0.04279018026676725
1.4101129051828323 -0.17762306795631713
1.4101129051828323 -0.3579611801388407
1.3523720288026488 -0.3779987481591211
1.2946311524224656 -0.2978484760779995
1.2368902760422824 -0.12752914790561615
1.2224550569472366 0.10290288432760845
1.2224550569472366 0.25318464447971145
1.1358437423769616 0.29325978052027224
1.020361989616595 0.22312829244929083
0.8615745795710908 0.09288410031746826
0.7172223886206326 -0.007303739783933743
0.7893984840958618 -0.01732252379407394
0.8615745795710908 -0.007303739783933743
0.9193154559512742 0.002715044226206457
0.9770563323314575 -0.007303739783933743
0.8760097986661367 -0.01732252379407394
0.8327041413809992 0.012733828236346657
0.7460928268107243 0.04279018026676725
0.7316576077156784 -0.007303739783933743
0.6594815122404494 -0.027341307804214142
0.6450462931454035 0.032771396256627054
0.6161758549553118 0.29325978052027224
0.6306110740503577 0.583804516814338
0.6306110740503577 0.6940111409258802
0.688351950430541 0.5236918127534969
0.6450462931454035 0.17303437239858985
0.5873054167652202 -0.07743522785491513
0.5151293212899911 -0.17762306795631713
0.5151293212899911 -0.23773577201715831
0.5584349785751286 -0.2878296920678593
0.5584349785751286 -0.2677921240475789
0.6306110740503577 -0.16760428394617694
0.6306110740503577 0.022752612246486857
0.5728701976701743 0.19307194041887024
0.4862588830998994 0.33333491656083303
0.4285180067197161 0.4134851886419546
0.356341911244487 0.45356032468251545
0.356341911244487 0.5236918127534969
0.38521234943457866 0.5938233008244782
0.3419066921494412 0.6238796528548988
0.31303625395934953 0.5737857328041979
0.32747147305439533 0.43352275666223505
0.32747147305439533 0.29325978052027224
0.38521234943457866 0.15299680437830945
0.3419066921494412 0.022752612246486857
0.32747147305439533 -0.007303739783933743
0.28416581576925787 0.052808964276907455
0.28416581576925787 0.21310950843915064
0.22642493938907457 0.33333491656083303
0.22642493938907457 0.4635791086926556
0.22642493938907457 0.5637669487940576
0.16868406300889127 0.7240674929563008
0.11094318662870796 0.934461957169245
0.11094318662870796 1.1448564213821892
0.11094318662870796 1.2250066934633108
0.18311928210393708 1.034649797270647
0.1398136248187996 0.6038420848346184
0.16868406300889127 0.22312829244929083
0.1975545011989829 -0.05739765983463474
0.29860103486430367 -0.15758549993603674
0.3707771303395328 -0.19766063597659753
0.38521234943457866 -0.13754793191575634
0.31303625395934953 -0.03736009181435434
0.26973059667421206 0.032771396256627054
0.22642493938907457 0.07284653229718785
0.3419066921494412 0.12294045234788885
0.44295322581476193 0.16301558838844965
0.5295645403850369 0.21310950843915064
0.5439997594800827 0.2632034284898516
0.5439997594800827 0.38342883661153404
0.4862588830998994 0.5938233008244782
0.4285180067197161 0.8142365490475626
0.3707771303395328 0.9244431731591048
0.32747147305439533 0.8643304690982636
0.26973059667421206 0.68399235691574
0.2408601584841204 0.36339126859125365
0.16868406300889127 0.07284653229718785
0.15424884391384544 -0.08745401186505533
0.18311928210393708 -0.16760428394617694
0.2408601584841204 -0.15758549993603674
0.2552953775791662 -0.04737887582449454
0.26973059667421206 0.052808964276907455
0.21198972029402874 0.11292166833774865
0.21198972029402874 0.20309072442901044
0.2552953775791662 0.27322221249999185
0.22642493938907457 0.33333491656083303
0.18311928210393708 0.42350397265209483
0.22642493938907457 0.5236918127534969
0.26973059667421206 0.583804516814338
0.3419066921494412 0.6739735729055998
0.39964756852962446 0.6940111409258802
0.44295322581476193 0.6038420848346184
0.3419066921494412 0.3533724845811134
0.28416581576925787 0.12294045234788885
0.21198972029402874 0.022752612246486857
0.2408601584841204 0.08286531630732805
0.29860103486430367 0.18305315640873004
0.4285180067197161 0.25318464447971145
0.4718236640048536 0.25318464447971145
0.5151293212899911 0.29325978052027224
0.5151293212899911 0.31329734854055263
0.5151293212899911 0.3934476206216742
0.5439997594800827 0.4635791086926556
0.601740635860266 0.47359789270279584
0.6594815122404494 0.5036542447332164
0.6739167313354951 0.5036542447332164
0.6306110740503577 0.5036542447332164
0.5295645403850369 0.5136730287433566
0.5439997594800827 0.4635791086926556
0.5584349785751286 0.3533724845811134
0.4862588830998994 0.19307194041887024
0.41408278762467027 0.052808964276907455
0.356341911244487 0.002715044226206457
0.3419066921494412 0.06282774828704765
0.38521234943457866 0.12294045234788885
0.39964756852962446 0.14297802036816926
0.3707771303395328 0.14297802036816926
0.2408601584841204 0.11292166833774865
0.21198972029402874 0.022752612246486857
0.21198972029402874 0.012733828236346657
0.2408601584841204 0.012733828236346657
0.26973059667421206 0.022752612246486857
0.2408601584841204 0.052808964276907455
0.18311928210393708 0.07284653229718785
0.16868406300889127 0.06282774828704765
0.15424884391384544 0.07284653229718785
0.21198972029402874 0.06282774828704765
0.1975545011989829 0.022752612246486857
0.18311928210393708 -0.007303739783933743
0.15424884391384544 -0.007303739783933743
0.11094318662870796 0.022752612246486857
0.1398136248187996 0.052808964276907455
0.1398136248187996 0.012733828236346657
0.15424884391384544 -0.04737887582449454
0.06763752934357048 -0.14756671592589654
0.03876709115347883 -0.23773577201715831
-0.004538566131658644 -0.2978484760779995
-0.018973785226704468 -0.3178860440982799
0.009896652963387181 -0.3379236121185603
0.024331872058433006 -0.2978484760779995
-0.03340900432175029 -0.27781090805771913
-0.018973785226704468 -0.25777334003743874
-0.0911498807019336 -0.2878296920678593
-0.1488907570821169 -0.27781090805771913
-0.13445553798707108 -0.25777334003743874
-0.13445553798707108 -0.2878296920678593
-0.13445553798707108 -0.2677921240475789
-0.12002031889202525 -0.2677921240475789
-0.13445553798707108 -0.24775455602729854
-0.07671466160688777 -0.23773577201715831
-0.018973785226704468 -0.22771698800701812
0.009896652963387181 -0.17762306795631713
0.009896652963387181 -0.14756671592589654
-0.06227944251184195 -0.09747279587519554
-0.0911498807019336 -0.05739765983463474
-0.07671466160688777 -0.03736009181435434
-0.0911498807019336 0.012733828236346657
-0.03340900432175029 -0.007303739783933743
0.009896652963387181 -0.05739765983463474
0.08207274843861631 -0.05739765983463474
0.1398136248187996 -0.07743522785491513
0.12537840572375378 -0.027341307804214142
0.09650796753366213 0.012733828236346657
0.12537840572375378 0.07284653229718785
0.18311928210393708 0.08286531630732805
0.16868406300889127 0.06282774828704765
0.12537840572375378 0.04279018026676725
0.1398136248187996 0.12294045234788885
0.16868406300889127 0.18305315640873004
0.22642493938907457 0.20309072442901044
0.2552953775791662 0.20309072442901044
0.2408601584841204 0.21310950843915064
0.2408601584841204 0.22312829244929083
0.2552953775791662 0.25318464447971145
0.2552953775791662 0.27322221249999185
0.2552953775791662 0.23314707645943103
0.22642493938907457 0.24316586046957123
0.18311928210393708 0.24316586046957123
0.16868406300889127 0.24316586046957123
0.2552953775791662 0.24316586046957123
0.28416581576925787 0.2632034284898516
0.31303625395934953 0.2632034284898516
0.32747147305439533 0.2632034284898516
0.28416581576925787 0.31329734854055263
0.1975545011989829 0.36339126859125365
0.18311928210393708 0.4635791086926556
0.18311928210393708 0.4635791086926556
0.2552953775791662 0.38342883661153404
0.2552953775791662 0.33333491656083303
0.1975545011989829 0.29325978052027224
0.06763752934357048 0.32331613255069286
0.053202310248524655 0.4134851886419546
-0.047844223416796124 0.36339126859125365
-0.12002031889202525 0.04279018026676725
-0.2643725098424835 -0.5382992923213643
-0.2788077289375293 -1.2496329570413185
-0.2643725098424835 -1.9208914857207118
-0.1488907570821169 -2.5420560943494044
0.009896652963387181 -3.1532019189679565
0.11094318662870796 -3.7142538235358074
0.1398136248187996 -4.235230592063098
0.11094318662870796 -4.615944384448426
0.11094318662870796 -4.87643276871207
0.21198972029402874 -4.976620608813473
0.28416581576925787 -5.006676960843893
0.44295322581476193 -4.976620608813473
0.688351950430541 -4.936545472772912
1.005926770521549 -4.7562073605903885
1.3812424669927406 -4.3855123522152
1.843169478034207 -3.7142538235358074
2.2329203936004443 -2.782506910592769
2.665976966451819 -1.780628509578749
2.9402461292576896 -0.9590882207472526
3.012422224732919 -0.4481302362301025
2.9258109101626437 -0.13754793191575634
2.752588281022094 0.13295923635802906
2.564930432786498 0.3934476206216742
2.276226050885582 0.5136730287433566
1.7854286016540237 0.5036542447332164
1.3956776860877864 0.43352275666223505
1.092538085091824 0.483616676712936
0.8760097986661367 0.6439172208751792
0.688351950430541 0.7641426289968616
0.5728701976701743 0.8943868211286842
0.4718236640048536 1.034649797270647
0.39964756852962446 1.1648939894024697
0.29860103486430367 1.285119397524152
0.29860103486430367 1.335213317574853
0.28416581576925787 1.3752884536154137
0.29860103486430367 1.2951381815342922
0.28416581576925787 1.18493155742275
0.28416581576925787 0.9745370932098057
0.2408601584841204 0.7140487089461606
0.29860103486430367 0.5737857328041979
0.38521234943457866 0.5236918127534969
0.44295322581476193 0.5537481647839174
0.4718236640048536 0.6138608688447587
0.4718236640048536 0.68399235691574
0.44295322581476193 0.7641426289968616
0.38521234943457866 0.9144243891489646
0.38521234943457866 1.0146122292503665
0.3707771303395328 1.0546873652909274
0.3419066921494412 0.9544995251895254
0.31303625395934953 0.8743492531084038
0.26973059667421206 0.8543116850881234
0.31303625395934953 0.8943868211286842
0.3707771303395328 0.9544995251895254
0.41408278762467027 1.034649797270647
0.4285180067197161 1.1047812853416283
0.3707771303395328 1.18493155742275
0.32747147305439533 1.1648939894024697
0.31303625395934953 1.0146122292503665
0.31303625395934953 0.8543116850881234
0.3419066921494412 0.784180197017142
0.3707771303395328 0.8042177650374224
0.38521234943457866 0.8543116850881234
0.41408278762467027 1.0546873652909274
0.4573884449098078 1.3652696696052735
0.5873054167652202 1.6457956218891991
0.6161758549553118 1.6558144058993394
0.5728701976701743 1.3652696696052735
0.4718236640048536 0.9745370932098057
0.41408278762467027 0.5938233008244782
0.41408278762467027 0.4435415406723752
0.41408278762467027 0.483616676712936
0.5151293212899911 0.5136730287433566
0.5151293212899911 0.5938233008244782
0.5151293212899911 0.7441050609765812
0.4862588830998994 0.9444807411793852
0.5151293212899911 1.1448564213821892
0.5006941021949453 1.285119397524152
0.5006941021949453 1.345232101584993
0.4862588830998994 1.1949503414328901
0.4285180067197161 0.9645183091996656
0.38521234943457866 0.7240674929563008
0.38521234943457866 0.6238796528548988
0.4285180067197161 0.633898436865039
0.5439997594800827 0.7140487089461606
0.5728701976701743 0.8142365490475626
0.5728701976701743 0.934461957169245
0.6450462931454035 0.9945746612300862
0.688351950430541 0.9945746612300862
0.688351950430541 0.8643304690982636
0.7316576077156784 0.7441050609765812
0.6594815122404494 0.5938233008244782
0.601740635860266 0.5236918127534969
0.4718236640048536 0.5637669487940576
0.5006941021949453 0.6639547888954596
0.5584349785751286 0.8042177650374224
0.6306110740503577 0.884368037118544
0.6594815122404494 0.9544995251895254
0.688351950430541 0.984555877219946
0.688351950430541 0.9544995251895254
0.688351950430541 0.984555877219946
0.7172223886206326 0.934461957169245
0.7749632650008159 0.8242553330577028
0.7605280459057701 0.6439172208751792
0.7893984840958618 0.4435415406723752
0.7605280459057701 0.3533724845811134
0.7893984840958618 0.38342883661153404
0.7749632650008159 0.43352275666223505
0.8038337031909076 0.583804516814338
0.8327041413809992 0.7140487089461606
0.8182689222859534 0.734086276966441
0.8182689222859534 0.6639547888954596
0.8471393604760451 0.533710596763637
0.8471393604760451 0.32331613255069286
0.8760097986661367 0.06282774828704765
0.8615745795710908 -0.13754793191575634
0.8471393604760451 -0.17762306795631713
0.8471393604760451 -0.10749157988533574
0.9048802368562283 -0.007303739783933743
0.9048802368562283 0.09288410031746826
0.9048802368562283 0.17303437239858985
0.8904450177611826 0.17303437239858985
0.8615745795710908 0.10290288432760845
0.8471393604760451 -0.06741644384477494
0.9193154559512742 -0.18764185196645733
1.005926770521549 -0.24775455602729854
1.1502789614720075 -0.2677921240475789
1.1935846187571448 -0.27781090805771913
1.1502789614720075 -0.23773577201715831
1.1502789614720075 -0.17762306795631713
1.1214085232819158 -0.07743522785491513
1.0636676469017325 -0.07743522785491513
1.0347972087116408 -0.04737887582449454
0.9770563323314575 -0.07743522785491513
1.0347972087116408 -0.08745401186505533
0.9914915514265034 -0.03736009181435434
1.020361989616595 -0.027341307804214142
1.092538085091824 0.002715044226206457
1.1358437423769616 0.012733828236346657
1.092538085091824 -0.007303739783933743
1.0347972087116408 0.012733828236346657
0.9481858941413658 0.032771396256627054
0.9048802368562283 0.08286531630732805
0.8327041413809992 0.09288410031746826
0.7893984840958618 0.10290288432760845
0.7605280459057701 0.08286531630732805
0.7027871695255868 0.04279018026676725
0.601740635860266 0.052808964276907455
0.5006941021949453 0.13295923635802906
0.5006941021949453 0.20309072442901044
0.5439997594800827 0.24316586046957123
0.5584349785751286 0.283240996510132
0.5439997594800827 0.27322221249999185
0.44295322581476193 0.24316586046957123
0.41408278762467027 0.27322221249999185
0.4285180067197161 0.27322221249999185
0.41408278762467027 0.24316586046957123
0.3419066921494412 0.22312829244929083
0.29860103486430367 0.19307194041887024
0.28416581576925787 0.19307194041887024
0.29860103486430367 0.2632034284898516
0.356341911244487 0.33333491656083303
0.3707771303395328 0.36339126859125365
0.29860103486430367 0.33333491656083303
0.26973059667421206 0.36339126859125365
0.15424884391384544 0.3734100526013938
0.06763752934357048 0.4134851886419546
0.08207274843861631 0.47359789270279584
0.09650796753366213 0.5036542447332164
0.06763752934357048 0.533710596763637
0.06763752934357048 0.533710596763637
0.08207274843861631 0.5036542447332164
0.12537840572375378 0.49363546072307624
0.15424884391384544 0.5036542447332164
0.16868406300889127 0.5236918127534969
0.16868406300889127 0.5437293807737772
0.11094318662870796 0.5136730287433566
0.06763752934357048 0.4635791086926556
-0.004538566131658644 0.42350397265209483
-0.047844223416796124 0.40346640463181443
-0.03340900432175029 0.43352275666223505
-0.004538566131658644 0.4435415406723752
-0.03340900432175029 0.483616676712936
-0.03340900432175029 0.5136730287433566
0.009896652963387181 0.5938233008244782
0.03876709115347883 0.6940111409258802
0.08207274843861631 0.68399235691574
0.03876709115347883 0.6238796528548988
-0.047844223416796124 0.6038420848346184
-0.13445553798707108 0.5737857328041979
-0.1633259761771627 0.6238796528548988
-0.1633259761771627 0.6739735729055998
-0.12002031889202525 0.6639547888954596
-0.12002031889202525 0.6639547888954596
-0.1488907570821169 0.5737857328041979
-0.13445553798707108 0.5136730287433566
-0.13445553798707108 0.5036542447332164
-0.13445553798707108 0.5437293807737772
-0.0911498807019336 0.5236918127534969
-0.10558509979697943 0.483616676712936
-0.12002031889202525 0.43352275666223505
-0.22106685255734604 0.3934476206216742
-0.17776119527220854 0.4435415406723752
-0.10558509979697943 0.4635791086926556
-0.10558509979697943 0.4635791086926556
-0.1633259761771627 0.4134851886419546
-0.19219641436725438 0.3934476206216742
-0.19219641436725438 0.40346640463181443
-0.19219641436725438 0.45356032468251545
-0.1488907570821169 0.49363546072307624
-0.13445553798707108 0.49363546072307624
-0.1488907570821169 0.533710596763637
-0.1488907570821169 0.5236918127534969
-0.19219641436725438 0.49363546072307624
-0.2066316334623002 0.5036542447332164
-0.17776119527220854 0.5136730287433566
-0.13445553798707108 0.47359789270279584
-0.13445553798707108 0.45356032468251545
-0.10558509979697943 0.4635791086926556
-0.1488907570821169 0.47359789270279584
-0.12002031889202525 0.5136730287433566
-0.047844223416796124 0.5637669487940576
0.06763752934357048 0.583804516814338
0.12537840572375378 0.6138608688447587
0.16868406300889127 0.5737857328041979
0.12537840572375378 0.5036542447332164
0.15424884391384544 0.47359789270279584
0.2408601584841204 0.4635791086926556
0.26973059667421206 0.483616676712936
0.29860103486430367 0.5136730287433566
0.26973059667421206 0.5537481647839174
0.26973059667421206 0.6038420848346184
0.2552953775791662 0.6739735729055998
0.2552953775791662 0.7140487089461606
0.21198972029402874 0.6639547888954596
0.1398136248187996 0.533710596763637
0.15424884391384544 0.36339126859125365
0.08207274843861631 0.20309072442901044
0.06763752934357048 0.09288410031746826
0.12537840572375378 0.052808964276907455
0.15424884391384544 0.052808964276907455
0.09650796753366213 0.052808964276907455
0.08207274843861631 0.052808964276907455
0.03876709115347883 0.07284653229718785
-0.018973785226704468 0.08286531630732805
-0.07671466160688777 0.12294045234788885
-0.12002031889202525 0.13295923635802906
-0.10558509979697943 0.12294045234788885
-0.12002031889202525 0.10290288432760845
-0.10558509979697943 0.022752612246486857
-0.018973785226704468 0.012733828236346657
0.06763752934357048 -0.007303739783933743
0.11094318662870796 -0.04737887582449454
0.11094318662870796 -0.07743522785491513
-0.004538566131658644 -0.10749157988533574
-0.1488907570821169 -0.10749157988533574
-0.19219641436725438 -0.09747279587519554
-0.13445553798707108 -0.07743522785491513
-0.13445553798707108 -0.09747279587519554
-0.0911498807019336 -0.11751036389547594
-0.10558509979697943 -0.13754793191575634
-0.12002031889202525 -0.13754793191575634
-0.0911498807019336 -0.05739765983463474
-0.07671466160688777 -0.03736009181435434
-0.12002031889202525 -0.04737887582449454
-0.13445553798707108 -0.10749157988533574
-0.22106685255734604 -0.24775455602729854
-0.2788077289375293 -0.3178860440982799
-0.29324294803257517 -0.2978484760779995
-0.24993729074743767 -0.25777334003743874
-0.17776119527220854 -0.21769820399687792
-0.17776119527220854 -0.17762306795631713
-0.17776119527220854 -0.15758549993603674
-0.23550207165239184 -0.16760428394617694
-0.24993729074743767 -0.10749157988533574
-0.23550207165239184 -0.09747279587519554
-0.22106685255734604 -0.06741644384477494
-0.19219641436725438 -0.05739765983463474
-0.1633259761771627 -0.07743522785491513
-0.13445553798707108 -0.06741644384477494
-0.06227944251184195 -0.05739765983463474
0.03876709115347883 0.022752612246486857
0.16868406300889127 0.08286531630732805
0.1975545011989829 0.10290288432760845
0.1975545011989829 0.13295923635802906
0.12537840572375378 0.18305315640873004
0.12537840572375378 0.283240996510132
0.09650796753366213 0.3734100526013938
0.15424884391384544 0.42350397265209483
0.15424884391384544 0.43352275666223505
0.16868406300889127 0.3934476206216742
0.16868406300889127 0.283240996510132
0.22642493938907457 0.21310950843915064
0.2552953775791662 0.19307194041887024
0.29860103486430367 0.21310950843915064
0.29860103486430367 0.23314707645943103
0.32747147305439533 0.2632034284898516
0.28416581576925787 0.29325978052027224
0.31303625395934953 0.25318464447971145
0.32747147305439533 0.22312829244929083
0.29860103486430367 0.19307194041887024
0.3419066921494412 0.14297802036816926
0.26973059667421206 0.11292166833774865
0.21198972029402874 0.13295923635802906
0.29860103486430367 0.20309072442901044
0.3707771303395328 0.29325978052027224
0.39964756852962446 0.3533724845811134
0.41408278762467027 0.3934476206216742
0.3419066921494412 0.3934476206216742
0.29860103486430367 0.45356032468251545
0.2552953775791662 0.5136730287433566
0.21198972029402874 0.5236918127534969
0.12537840572375378 0.42350397265209483
-0.047844223416796124 0.022752612246486857
-0.1488907570821169 -0.6485059164329064
-0.1633259761771627 -1.4199522852137019
-0.06227944251184195 -2.131285949933656
0.06763752934357048 -2.8526383986637502
0.1398136248187996 -3.5238969273431437
0.1975545011989829 -4.125023967951556
0.1975545011989829 -4.605925600438285
0.16868406300889127 -4.886451552722211
0.22642493938907457 -5.016695744854033
0.3419066921494412 -5.056770880894594
0.4718236640048536 -5.016695744854033
0.6739167313354951 -4.956583040793192
1.0347972087116408 -4.746188576580248
1.4822890006580614 -4.3053620801340795
2.001956888079711 -3.4938405753127233
2.4927543373112693 -2.4218306862277217
2.8825052528775066 -1.3598395811528607
3.099033539303194 -0.6184495644024859
3.012422224732919 -0.16760428394617694
2.7814587192121856 0.08286531630732805
2.564930432786498 0.31329734854055263
2.24735561269549 0.4435415406723752
1.8576046971292528 0.5236918127534969
1.4101129051828323 0.5938233008244782
1.0347972087116408 0.633898436865039
0.7893984840958618 0.7441050609765812
0.6739167313354951 0.8743492531084038
0.6450462931454035 0.934461957169245
0.601740635860266 0.9544995251895254
0.5584349785751286 0.9044056051388244
0.4573884449098078 0.8643304690982636
0.32747147305439533 0.8142365490475626
0.32747147305439533 0.8042177650374224
0.356341911244487 0.8242553330577028
0.38521234943457866 0.8943868211286842
0.38521234943457866 0.8943868211286842
0.38521234943457866 0.9444807411793852
0.38521234943457866 1.0146122292503665
0.4573884449098078 1.0747249333112079
0.5439997594800827 1.0647061493010677
0.5584349785751286 1.1248188533619088
0.5728701976701743 1.1448564213821892
0.4862588830998994 1.1749127734126097
0.4573884449098078 1.0947625013314881
0.4573884449098078 0.9945746612300862
0.5006941021949453 0.8743492531084038
0.5439997594800827 0.784180197017142
0.5728701976701743 0.7140487089461606
0.5295645403850369 0.7240674929563008
0.5584349785751286 0.7541238449867214
0.601740635860266 0.8242553330577028
0.601740635860266 0.9144243891489646
0.601740635860266 0.9745370932098057
0.5151293212899911 0.9745370932098057
0.5295645403850369 0.9544995251895254
0.5151293212899911 1.0146122292503665
0.5151293212899911 1.0446685812807872
0.5728701976701743 1.0546873652909274
0.6161758549553118 1.0246310132605068
0.6450462931454035 1.0045934452402263
0.6306110740503577 0.9745370932098057
0.6739167313354951 0.984555877219946
0.6594815122404494 1.0647061493010677
0.6739167313354951 1.134837637372049
0.6450462931454035 1.18493155742275
0.688351950430541 1.2550630454937313
0.6594815122404494 1.2450442614835913
0.6450462931454035 1.18493155742275
0.688351950430541 1.1548752053923295
0.6306110740503577 1.1448564213821892
0.6594815122404494 1.2450442614835913
0.6450462931454035 1.3552508855951333
0.6594815122404494 1.3652696696052735
0.601740635860266 1.3051569655444324
0.7027871695255868 1.1949503414328901
0.7749632650008159 1.0847437173213479
0.8327041413809992 1.0546873652909274
0.8471393604760451 0.9745370932098057
0.8327041413809992 0.8743492531084038
0.8038337031909076 0.8442929010779832
0.8182689222859534 0.8743492531084038
0.8615745795710908 0.9945746612300862
0.9048802368562283 1.034649797270647
0.9626211132364116 1.0246310132605068
0.9626211132364116 1.0546873652909274
0.9481858941413658 1.134837637372049
0.9626211132364116 1.3151757495545726
0.9626211132364116 1.4654575097066755
0.9914915514265034 1.4153635896559746
0.9770563323314575 1.0947625013314881
0.93375067504632 0.7641426289968616
0.8471393604760451 0.5737857328041979
0.8327041413809992 0.5537481647839174
0.8471393604760451 0.6238796528548988
0.8760097986661367 0.68399235691574
0.93375067504632 0.6539360048853194
0.9481858941413658 0.5437293807737772
1.0636676469017325 0.5236918127534969
1.2080198378521907 0.6038420848346184
1.3379368097076032 0.68399235691574
1.3379368097076032 0.7441050609765812
1.3235015906125573 0.784180197017142
1.2801959333274198 0.8943868211286842
1.2080198378521907 0.9544995251895254
1.2368902760422824 0.9645183091996656
1.2513254951373283 0.8442929010779832
1.2368902760422824 0.5737857328041979
1.1647141805670531 0.21310950843915064
1.10697330418687 -0.03736009181435434
1.092538085091824 -0.07743522785491513
1.2080198378521907 0.09288410031746826
1.2801959333274198 0.2632034284898516
1.3090663715175115 0.36339126859125365
1.3235015906125573 0.3934476206216742
1.265760714232374 0.45356032468251545
1.2224550569472366 0.5236918127534969
1.1935846187571448 0.6038420848346184
1.2080198378521907 0.6940111409258802
1.265760714232374 0.6940111409258802
1.3090663715175115 0.5537481647839174
1.3668072478976947 0.2632034284898516
1.3812424669927406 -0.07743522785491513
1.4245481242778781 -0.27781090805771913
1.3812424669927406 -0.24775455602729854
1.3668072478976947 -0.01732252379407394
1.3235015906125573 0.36339126859125365
1.2080198378521907 0.6539360048853194
1.10697330418687 0.6238796528548988
1.020361989616595 0.36339126859125365
0.9914915514265034 0.06282774828704765
1.005926770521549 -0.19766063597659753
1.0347972087116408 -0.3178860440982799
0.9770563323314575 -0.11751036389547594
0.93375067504632 0.3533724845811134
0.9193154559512742 0.8242553330577028
0.93375067504632 0.9745370932098057
0.93375067504632 0.7140487089461606
0.9193154559512742 0.24316586046957123
0.8182689222859534 -0.2878296920678593
0.7749632650008159 -0.6184495644024859
0.7893984840958618 -0.6485059164329064
0.8471393604760451 -0.43811145221996234
0.8904450177611826 -0.14756671592589654
0.9481858941413658 0.15299680437830945
0.8904450177611826 0.29325978052027224
0.8327041413809992 0.283240996510132
0.7172223886206326 0.27322221249999185
0.601740635860266 0.27322221249999185
0.5295645403850369 0.36339126859125365
0.4573884449098078 0.47359789270279584
0.4718236640048536 0.6439172208751792
0.3707771303395328 0.884368037118544
0.31303625395934953 1.0647061493010677
0.29860103486430367 1.0747249333112079
0.32747147305439533 0.9044056051388244
0.3419066921494412 0.7641426289968616
0.356341911244487 0.8242553330577028
0.31303625395934953 0.9745370932098057
0.31303625395934953 1.0747249333112079
0.2552953775791662 0.9745370932098057
0.26973059667421206 0.7941989810272821
0.26973059667421206 0.5737857328041979
0.31303625395934953 0.36339126859125365
0.28416581576925787 0.29325978052027224
0.28416581576925787 0.4134851886419546
0.2408601584841204 0.633898436865039
0.1975545011989829 0.9544995251895254
0.16868406300889127 1.285119397524152
0.16868406300889127 1.535588997777657
0.12537840572375378 1.5255702137675167
0.03876709115347883 1.1749127734126097
0.03876709115347883 0.6739735729055998
0.03876709115347883 0.25318464447971145
-0.004538566131658644 0.052808964276907455
0.03876709115347883 -0.027341307804214142
0.024331872058433006 -0.06741644384477494
0.06763752934357048 -0.07743522785491513
0.09650796753366213 -0.12752914790561615
0.11094318662870796 -0.12752914790561615
0.09650796753366213 -0.01732252379407394
0.024331872058433006 0.14297802036816926
-0.018973785226704468 0.283240996510132
-0.03340900432175029 0.483616676712936
-0.03340900432175029 0.633898436865039
-0.03340900432175029 0.7240674929563008
-0.06227944251184195 0.734086276966441
-0.0911498807019336 0.6739735729055998
-0.19219641436725438 0.5737857328041979
-0.2643725098424835 0.483616676712936
-0.29324294803257517 0.5437293807737772
-0.23550207165239184 0.6439172208751792
-0.22106685255734604 0.6238796528548988
-0.2066316334623002 0.47359789270279584
-0.1488907570821169 0.283240996510132
-0.12002031889202525 0.24316586046957123
-0.047844223416796124 0.4635791086926556
-0.07671466160688777 0.734086276966441
-0.17776119527220854 0.8242553330577028
-0.33654860531771263 0.5737857328041979
-0.3654190435078043 0.19307194041887024
-0.30767816712762097 -0.10749157988533574
-0.2066316334623002 -0.2878296920678593
-0.12002031889202525 -0.27781090805771913
-0.1488907570821169 -0.16760428394617694
-0.1488907570821169 -0.027341307804214142
-0.19219641436725438 0.17303437239858985
-0.17776119527220854 0.38342883661153404
-0.13445553798707108 0.6238796528548988
-0.1633259761771627 0.9444807411793852
-0.17776119527220854 1.0647061493010677
-0.23550207165239184 0.8643304690982636
-0.3798542626028501 0.47359789270279584
-0.46646557717312503 0.15299680437830945
-0.45203035807807923 -0.04737887582449454
-0.2788077289375293 -0.09747279587519554
-0.06227944251184195 -0.01732252379407394
0.1398136248187996 0.08286531630732805
0.28416581576925787 0.21310950843915064
0.3419066921494412 0.29325978052027224
0.28416581576925787 0.24316586046957123
0.18311928210393708 0.16301558838844965
0.053202310248524655 0.12294045234788885
0.009896652963387181 0.15299680437830945
0.009896652963387181 0.18305315640873004
0.053202310248524655 0.3533724845811134
0.15424884391384544 0.6539360048853194
0.2408601584841204 0.9244431731591048
0.28416581576925787 1.0045934452402263
0.2408601584841204 0.884368037118544
0.1975545011989829 0.583804516814338
0.1398136248187996 0.18305315640873004
-0.004538566131658644 -0.11751036389547594
-0.07671466160688777 -0.2677921240475789
-0.19219641436725438 -0.27781090805771913
-0.22106685255734604 -0.19766063597659753
-0.17776119527220854 0.002715044226206457
-0.07671466160688777 0.23314707645943103
0.06763752934357048 0.4134851886419546
0.1975545011989829 0.483616676712936
0.29860103486430367 0.36339126859125365
0.3707771303395328 0.19307194041887024
0.356341911244487 0.022752612246486857
0.22642493938907457 -0.10749157988533574
0.009896652963387181 -0.14756671592589654
-0.17776119527220854 -0.06741644384477494
-0.23550207165239184 -0.027341307804214142
-0.2066316334623002 -0.027341307804214142
-0.1633259761771627 -0.07743522785491513
-0.12002031889202525 -0.10749157988533574
-0.13445553798707108 -0.20767941998673772
-0.1633259761771627 -0.2677921240475789
-0.30767816712762097 -0.22771698800701812
-0.35098382441275844 -0.06741644384477494
-0.33654860531771263 0.19307194041887024
-0.2643725098424835 0.533710596763637
-0.19219641436725438 0.8743492531084038
-0.2066316334623002 1.0647061493010677
-0.2788077289375293 0.8142365490475626
-0.33654860531771263 0.20309072442901044
-0.4375951389830334 -0.5382992923213643
-0.4375951389830334 -1.0392384928283742
-0.35098382441275844 -1.1995390369906174
-0.2788077289375293 -1.069294844858795
-0.3654190435078043 -0.7286561885140281
-0.4375951389830334 -0.3579611801388407
-0.46646557717312503 -0.10749157988533574
-0.4809007962681709 0.06282774828704765
-0.4375951389830334 0.022752612246486857
-0.35098382441275844 -0.07743522785491513
-0.2643725098424835 -0.13754793191575634
-0.2643725098424835 -0.01732252379407394
-0.3221133862226668 0.13295923635802906
-0.3798542626028501 0.10290288432760845
-0.4809007962681709 -0.04737887582449454
-0.4809007962681709 -0.16760428394617694
-0.45203035807807923 -0.16760428394617694
-0.42315991988798757 -0.14756671592589654
-0.3798542626028501 -0.3379236121185603
-0.3942894816978959 -0.6585247004430467
-0.35098382441275844 -0.8188252446052899
-0.23550207165239184 -0.82884402861543
-0.07671466160688777 -0.6384871324227663
-0.03340900432175029 -0.3880175321692613
-0.047844223416796124 -0.12752914790561615
-0.018973785226704468 0.19307194041887024
-0.047844223416796124 0.4435415406723752
-0.06227944251184195 0.5236918127534969
-0.0911498807019336 0.4635791086926556
-0.1488907570821169 0.2632034284898516
-0.17776119527220854 0.012733828236346657
-0.1488907570821169 -0.12752914790561615
0.009896652963387181 -0.14756671592589654
0.28416581576925787 0.032771396256627054
0.4285180067197161 0.283240996510132
0.39964756852962446 0.5236918127534969
0.2552953775791662 0.8042177650374224
0.09650796753366213 1.0647061493010677
0.03876709115347883 1.134837637372049
0.03876709115347883 0.8543116850881234
0.009896652963387181 0.5437293807737772
-0.018973785226704468 0.5136730287433566
-0.03340900432175029 0.533710596763637
0.03876709115347883 0.47359789270279584
0.21198972029402874 0.3032785645304124
0.39964756852962446 0.07284653229718785
0.356341911244487 -0.18764185196645733
0.1975545011989829 -0.4982241562808035
-0.018973785226704468 -0.7887688925748693
-0.0911498807019336 -0.9089943006965516
-0.13445553798707108 -0.7887688925748693
-0.1488907570821169 -0.43811145221996234
-0.24993729074743767 -0.10749157988533574
-0.2788077289375293 -0.17762306795631713
-0.1633259761771627 -0.7486937565343085
-0.03340900432175029 -1.6704218854672068
0.12537840572375378 -2.742431774552208
0.28416581576925787 -3.6240847674445456
0.356341911244487 -4.3053620801340795
0.356341911244487 -4.666038304499127
0.28416581576925787 -4.816320064651229
0.4718236640048536 -4.7662261446005285
0.7605280459057701 -4.495718976326743
1.2946311524224656 -3.9046107197284714
1.9442160116995277 -2.902732318714451
2.5504952136914523 -1.630346749426646
2.9691165674477813 -0.5583368603416448
2.9113756910675983 -0.2677921240475789
2.6082360900716357 -0.45814902024024273
2.2906612699806277 -0.5382992923213643
1.828734258939161 -0.3178860440982799
1.3379368097076032 0.06282774828704765
0.8904450177611826 0.483616676712936
0.6594815122404494 0.7741614130070018
0.5728701976701743 0.934461957169245
0.6161758549553118 0.984555877219946
0.5584349785751286 1.1047812853416283
0.5439997594800827 1.18493155742275
0.4718236640048536 1.1047812853416283
0.4718236640048536 0.7641426289968616
0.44295322581476193 0.32331613255069286
0.4285180067197161 -0.01732252379407394
0.38521234943457866 -0.16760428394617694
0.356341911244487 0.002715044226206457
0.44295322581476193 0.27322221249999185
0.4862588830998994 0.5036542447332164
0.5006941021949453 0.6138608688447587
0.5151293212899911 0.6739735729055998
0.5873054167652202 0.6739735729055998
0.6306110740503577 0.6439172208751792
0.6739167313354951 0.6439172208751792
0.6161758549553118 0.6639547888954596
0.5584349785751286 0.7541238449867214
0.5151293212899911 0.8643304690982636
0.5584349785751286 0.884368037118544
0.5584349785751286 0.8743492531084038
0.601740635860266 0.8142365490475626
0.6161758549553118 0.7641426289968616
0.6594815122404494 0.8042177650374224
0.7316576077156784 0.9244431731591048
0.7316576077156784 1.0847437173213479
0.7027871695255868 1.1148000693517686
0.6450462931454035 1.0045934452402263
0.6450462931454035 0.8543116850881234
0.6450462931454035 0.7541238449867214
0.6450462931454035 0.8743492531084038
0.6161758549553118 1.134837637372049
0.6739167313354951 1.235025477473451
0.7316576077156784 0.9745370932098057
0.7172223886206326 0.6138608688447587
0.7027871695255868 0.27322221249999185
0.7605280459057701 0.06282774828704765
0.8182689222859534 -0.007303739783933743
0.8327041413809992 0.052808964276907455
0.7605280459057701 0.16301558838844965
0.7316576077156784 0.33333491656083303
0.7749632650008159 0.43352275666223505
0.8471393604760451 0.5036542447332164
0.9481858941413658 0.533710596763637
1.0347972087116408 0.5637669487940576
1.0347972087116408 0.5537481647839174
0.9626211132364116 0.5938233008244782
0.8471393604760451 0.6138608688447587
0.7749632650008159 0.5637669487940576
0.8327041413809992 0.5136730287433566
0.8760097986661367 0.49363546072307624
0.93375067504632 0.5036542447332164
1.0347972087116408 0.533710596763637
1.0636676469017325 0.5737857328041979
1.0492324278066867 0.5737857328041979
1.020361989616595 0.5437293807737772
1.0636676469017325 0.47359789270279584
1.0347972087116408 0.3734100526013938
1.0347972087116408 0.29325978052027224
1.092538085091824 0.31329734854055263
1.2080198378521907 0.31329734854055263
1.2368902760422824 0.2632034284898516
1.2513254951373283 0.19307194041887024
1.2513254951373283 0.13295923635802906
1.2368902760422824 0.11292166833774865
1.1935846187571448 0.12294045234788885
1.10697330418687 0.13295923635802906
1.020361989616595 0.07284653229718785
1.0636676469017325 0.04279018026676725
1.1214085232819158 0.032771396256627054
1.2080198378521907 0.052808964276907455
1.2368902760422824 0.052808964276907455
1.2224550569472366 0.022752612246486857
1.2080198378521907 -0.007303739783933743
1.2946311524224656 -0.03736009181435434
1.2368902760422824 -0.027341307804214142
1.1935846187571448 -0.01732252379407394
1.1358437423769616 0.002715044226206457
1.1358437423769616 0.002715044226206457
1.1214085232819158 -0.03736009181435434
1.092538085091824 -0.08745401186505533
1.0781028659967782 -0.04737887582449454
1.0492324278066867 -0.027341307804214142
0.93375067504632 -0.007303739783933743
0.8182689222859534 0.002715044226206457
0.7605280459057701 0.002715044226206457
0.6594815122404494 0.002715044226206457
0.5728701976701743 -0.007303739783933743
0.5439997594800827 0.012733828236346657
0.6739167313354951 0.06282774828704765
0.7893984840958618 0.06282774828704765
0.7749632650008159 0.07284653229718785
0.6450462931454035 0.04279018026676725
0.601740635860266 0.04279018026676725
0.5439997594800827 0.11292166833774865
0.5006941021949453 0.15299680437830945
0.4285180067197161 0.16301558838844965
0.31303625395934953 0.13295923635802906
0.26973059667421206 0.10290288432760845
0.22642493938907457 0.10290288432760845
0.31303625395934953 0.14297802036816926
0.3419066921494412 0.16301558838844965
0.38521234943457866 0.19307194041887024
0.4285180067197161 0.19307194041887024
0.4573884449098078 0.18305315640873004
0.38521234943457866 0.16301558838844965
0.29860103486430367 0.23314707645943103
0.26973059667421206 0.24316586046957123
0.29860103486430367 0.25318464447971145
0.28416581576925787 0.24316586046957123
0.22642493938907457 0.23314707645943103
0.15424884391384544 0.24316586046957123
0.09650796753366213 0.283240996510132
0.12537840572375378 0.283240996510132
0.16868406300889127 0.31329734854055263
0.16868406300889127 0.32331613255069286
0.08207274843861631 0.33333491656083303
0.053202310248524655 0.32331613255069286
0.053202310248524655 0.3533724845811134
0.11094318662870796 0.3734100526013938
0.16868406300889127 0.43352275666223505
0.1398136248187996 0.4134851886419546
0.08207274843861631 0.40346640463181443
-0.06227944251184195 0.40346640463181443
-0.07671466160688777 0.45356032468251545
-0.06227944251184195 0.47359789270279584
-0.004538566131658644 0.483616676712936
-0.03340900432175029 0.47359789270279584
-0.10558509979697943 0.43352275666223505
-0.2066316334623002 0.3934476206216742
-0.23550207165239184 0.45356032468251545
-0.1633259761771627 0.5236918127534969
-0.047844223416796124 0.5036542447332164
0.03876709115347883 0.42350397265209483
0.03876709115347883 0.40346640463181443
0.024331872058433006 0.36339126859125365
-0.03340900432175029 0.3934476206216742
-0.1488907570821169 0.42350397265209483
-0.2066316334623002 0.43352275666223505
-0.2066316334623002 0.3934476206216742
-0.23550207165239184 0.3934476206216742
-0.23550207165239184 0.38342883661153404
-0.19219641436725438 0.38342883661153404
-0.10558509979697943 0.42350397265209483
-0.1488907570821169 0.38342883661153404
-0.23550207165239184 0.34335370057097325
-0.29324294803257517 0.32331613255069286
-0.3221133862226668 0.29325978052027224
-0.2643725098424835 0.3533724845811134
-0.24993729074743767 0.36339126859125365
-0.19219641436725438 0.34335370057097325
-0.13445553798707108 0.36339126859125365
-0.07671466160688777 0.33333491656083303
0.009896652963387181 0.33333491656083303
0.12537840572375378 0.33333491656083303
0.06763752934357048 0.3533724845811134
0.009896652963387181 0.3934476206216742
-0.047844223416796124 0.36339126859125365
-0.0911498807019336 0.3934476206216742
-0.12002031889202525 0.38342883661153404
-0.13445553798707108 0.40346640463181443
-0.047844223416796124 0.45356032468251545
0.053202310248524655 0.49363546072307624
0.22642493938907457 0.43352275666223505
0.28416581576925787 0.42350397265209483
0.26973059667421206 0.4435415406723752
0.26973059667421206 0.5236918127534969
0.2408601584841204 0.5637669487940576
0.21198972029402874 0.5537481647839174
0.1975545011989829 0.5537481647839174
0.11094318662870796 0.483616676712936
0.08207274843861631 0.38342883661153404
0.22642493938907457 0.29325978052027224
0.28416581576925787 0.20309072442901044
0.29860103486430367 0.09288410031746826
0.26973059667421206 0.002715044226206457
0.18311928210393708 -0.01732252379407394
0.06763752934357048 0.022752612246486857
0.009896652963387181 0.07284653229718785
-0.03340900432175029 0.11292166833774865
-0.0911498807019336 0.09288410031746826
-0.1488907570821169 0.052808964276907455
-0.2066316334623002 0.032771396256627054
-0.2066316334623002 0.012733828236346657
-0.10558509979697943 0.04279018026676725
-0.03340900432175029 0.04279018026676725
-0.06227944251184195 0.07284653229718785
-0.0911498807019336 0.04279018026676725
-0.1633259761771627 0.012733828236346657
-0.17776119527220854 0.002715044226206457
-0.12002031889202525 -0.01732252379407394
-0.10558509979697943 -0.05739765983463474
-0.0911498807019336 -0.06741644384477494
-0.1488907570821169 -0.11751036389547594
-0.1633259761771627 -0.14756671592589654
-0.17776119527220854 -0.14756671592589654
-0.23550207165239184 -0.10749157988533574
-0.2643725098424835 -0.08745401186505533
-0.3221133862226668 -0.09747279587519554
-0.40872470079294176 -0.14756671592589654
-0.46646557717312503 -0.19766063597659753
-0.46646557717312503 -0.22771698800701812
-0.42315991988798757 -0.22771698800701812
-0.4375951389830334 -0.24775455602729854
-0.46646557717312503 -0.22771698800701812
-0.5242064535533083 -0.23773577201715831
-0.4953360153632167 -0.18764185196645733
-0.46646557717312503 -0.15758549993603674
-0.40872470079294176 -0.13754793191575634
-0.3654190435078043 -0.09747279587519554
-0.3221133862226668 -0.07743522785491513
-0.33654860531771263 -0.06741644384477494
-0.3654190435078043 -0.06741644384477494
-0.42315991988798757 -0.05739765983463474
-0.3798542626028501 -0.03736009181435434
-0.22106685255734604 -0.04737887582449454
-0.12002031889202525 -0.01732252379407394
-0.03340900432175029 0.052808964276907455
-0.0911498807019336 0.022752612246486857
-0.2788077289375293 0.052808964276907455
-0.3942894816978959 0.10290288432760845
-0.3654190435078043 0.15299680437830945
-0.29324294803257517 0.16301558838844965
-0.1488907570821169 0.23314707645943103
-0.047844223416796124 0.25318464447971145
0.024331872058433006 0.27322221249999185
0.03876709115347883 0.29325978052027224
0.024331872058433006 0.32331613255069286
0.03876709115347883 0.2632034284898516
-0.018973785226704468 0.22312829244929083
-0.13445553798707108 0.17303437239858985
-0.22106685255734604 0.16301558838844965
-0.12002031889202525 0.18305315640873004
-0.004538566131658644 0.24316586046957123
0.11094318662870796 0.2632034284898516
0.16868406300889127 0.29325978052027224
0.09650796753366213 0.27322221249999185
-0.018973785226704468 0.23314707645943103
-0.03340900432175029 0.21310950843915064
0.009896652963387181 0.24316586046957123
0.03876709115347883 0.27322221249999185
-0.004538566131658644 0.3032785645304124
0.03876709115347883 0.33333491656083303
-0.004538566131658644 0.3934476206216742
-0.06227944251184195 0.4635791086926556
-0.03340900432175029 0.5637669487940576
-0.10558509979697943 0.6038420848346184
-0.24993729074743767 0.43352275666223505
-0.5097712344582626 0.032771396256627054
-0.6252529872186291 -0.5282805083112241
-0.6108177681235833 -1.0492572768385144
-0.46646557717312503 -1.6103091814063657
-0.29324294803257517 -2.271548926075619
-0.17776119527220854 -3.0029201588158534
-0.10558509979697943 -3.674178687495247
-0.004538566131658644 -4.265286944093519
0.1398136248187996 -4.666038304499127
0.32747147305439533 -4.84637641668165
0.4573884449098078 -4.916507904752631
0.601740635860266 -4.886451552722211
0.7749632650008159 -4.666038304499127
1.0492324278066867 -4.265286944093519
1.5544650961332904 -3.4237090872417415
2.160744298125215 -2.381755550187161
2.7092826237369567 -1.279689309071739
3.099033539303194 -0.4882053722706633
3.084598320208148 -0.10749157988533574
2.8680700337824607 0.11292166833774865
2.59380087097659 0.34335370057097325
2.2040499554103525 0.4435415406723752
1.7276877252738405 0.47359789270279584
1.2513254951373283 0.5036542447332164
0.8760097986661367 0.5437293807737772
0.6739167313354951 0.6439172208751792
0.5151293212899911 0.784180197017142
0.39964756852962446 0.8543116850881234
0.29860103486430367 0.884368037118544
0.2408601584841204 0.8242553330577028
0.16868406300889127 0.7741614130070018
0.1398136248187996 0.7641426289968616
0.21198972029402874 0.784180197017142
0.26973059667421206 0.8142365490475626
0.28416581576925787 0.8142365490475626
0.28416581576925787 0.8643304690982636
0.28416581576925787 0.8543116850881234
0.29860103486430367 0.8242553330577028
0.31303625395934953 0.8643304690982636
0.32747147305439533 0.884368037118544
0.3707771303395328 0.8543116850881234
0.32747147305439533 0.8442929010779832
0.28416581576925787 0.8142365490475626
0.28416581576925787 0.8142365490475626
0.31303625395934953 0.8442929010779832
0.32747147305439533 0.8543116850881234
0.3707771303395328 0.8643304690982636
0.3419066921494412 0.8442929010779832
0.28416581576925787 0.8242553330577028
0.1975545011989829 0.7941989810272821
0.18311928210393708 0.8042177650374224
0.26973059667421206 0.8442929010779832
0.3707771303395328 0.8943868211286842
0.41408278762467027 0.834274117067843
0.38521234943457866 0.8643304690982636
0.38521234943457866 0.8442929010779832
0.44295322581476193 0.8442929010779832
0.5439997594800827 0.8743492531084038
0.5873054167652202 0.8442929010779832
0.5295645403850369 0.834274117067843
0.39964756852962446 0.8242553330577028
0.32747147305439533 0.8442929010779832
0.32747147305439533 0.8543116850881234
0.38521234943457866 0.8643304690982636
0.4285180067197161 0.884368037118544
0.4718236640048536 0.8643304690982636
0.44295322581476193 0.8543116850881234
0.4718236640048536 0.8543116850881234
0.5151293212899911 0.8743492531084038
0.5295645403850369 0.9044056051388244
0.601740635860266 0.8743492531084038
0.6450462931454035 0.8442929010779832
0.6594815122404494 0.8042177650374224
0.6594815122404494 0.8042177650374224
0.7027871695255868 0.8042177650374224
0.7316576077156784 0.8142365490475626
0.7172223886206326 0.8042177650374224
0.7893984840958618 0.7941989810272821
0.7749632650008159 0.7541238449867214
0.7460928268107243 0.734086276966441
0.688351950430541 0.7441050609765812
0.7027871695255868 0.7441050609765812
0.7172223886206326 0.7441050609765812
0.688351950430541 0.7240674929563008
0.6450462931454035 0.7040299249360205
0.7172223886206326 0.6639547888954596
0.8182689222859534 0.6539360048853194
0.9048802368562283 0.6539360048853194
0.8904450177611826 0.6138608688447587
0.8615745795710908 0.583804516814338
0.8615745795710908 0.5637669487940576
0.8327041413809992 0.5236918127534969
0.93375067504632 0.533710596763637
0.9914915514265034 0.5637669487940576
1.0781028659967782 0.533710596763637
1.1502789614720075 0.47359789270279584
1.1358437423769616 0.40346640463181443
1.179149399662099 0.3934476206216742
1.1935846187571448 0.36339126859125365
1.2080198378521907 0.32331613255069286
1.179149399662099 0.27322221249999185
1.1358437423769616 0.22312829244929083
1.0347972087116408 0.18305315640873004
0.9770563323314575 0.19307194041887024
0.9914915514265034 0.19307194041887024
1.020361989616595 0.24316586046957123
1.1214085232819158 0.22312829244929083
1.1647141805670531 0.16301558838844965
1.179149399662099 0.09288410031746826
1.10697330418687 0.09288410031746826
1.092538085091824 0.08286531630732805
1.092538085091824 0.07284653229718785
1.1214085232819158 0.11292166833774865
1.179149399662099 0.09288410031746826
1.2513254951373283 0.04279018026676725
1.3668072478976947 0.022752612246486857
1.3812424669927406 0.04279018026676725
1.3956776860877864 0.052808964276907455
1.3379368097076032 0.06282774828704765
1.2080198378521907 0.06282774828704765
1.092538085091824 0.052808964276907455
1.005926770521549 0.052808964276907455
0.9481858941413658 0.10290288432760845
0.93375067504632 0.12294045234788885
0.9193154559512742 0.15299680437830945
0.8904450177611826 0.12294045234788885
0.8038337031909076 0.09288410031746826
0.7460928268107243 0.10290288432760845
0.7172223886206326 0.15299680437830945
0.7749632650008159 0.19307194041887024
0.8038337031909076 0.19307194041887024
0.8327041413809992 0.20309072442901044
0.7316576077156784 0.20309072442901044
0.6450462931454035 0.21310950843915064
0.5873054167652202 0.283240996510132
0.601740635860266 0.31329734854055263
0.688351950430541 0.32331613255069286
0.601740635860266 0.25318464447971145
0.5151293212899911 0.24316586046957123
0.41408278762467027 0.23314707645943103
0.38521234943457866 0.2632034284898516
0.38521234943457866 0.33333491656083303
0.4285180067197161 0.3533724845811134
0.38521234943457866 0.38342883661153404
0.3419066921494412 0.3734100526013938
0.2552953775791662 0.34335370057097325
0.16868406300889127 0.36339126859125365
0.09650796753366213 0.40346640463181443
0.16868406300889127 0.3734100526013938
0.22642493938907457 0.34335370057097325
0.2408601584841204 0.3734100526013938
0.2408601584841204 0.42350397265209483
0.28416581576925787 0.4635791086926556
0.28416581576925787 0.4435415406723752
0.31303625395934953 0.47359789270279584
0.2552953775791662 0.45356032468251545
0.18311928210393708 0.4435415406723752
0.08207274843861631 0.42350397265209483
0.024331872058433006 0.45356032468251545
-0.004538566131658644 0.483616676712936
0.08207274843861631 0.49363546072307624
0.12537840572375378 0.49363546072307624
0.06763752934357048 0.483616676712936
0.03876709115347883 0.49363546072307624
-0.004538566131658644 0.533710596763637
-0.018973785226704468 0.533710596763637
-0.03340900432175029 0.5537481647839174
-0.03340900432175029 0.49363546072307624
-0.07671466160688777 0.45356032468251545
-0.10558509979697943 0.4435415406723752
-0.004538566131658644 0.47359789270279584
0.06763752934357048 0.49363546072307624
0.1398136248187996 0.5036542447332164
0.1398136248187996 0.483616676712936
0.08207274843861631 0.47359789270279584
-0.004538566131658644 0.43352275666223505
-0.07671466160688777 0.45356032468251545
-0.1488907570821169 0.483616676712936
-0.1633259761771627 0.47359789270279584
-0.23550207165239184 0.483616676712936
-0.2643725098424835 0.4435415406723752
-0.1633259761771627 0.42350397265209483
-0.06227944251184195 0.45356032468251545
0.03876709115347883 0.4635791086926556
0.06763752934357048 0.4635791086926556
0.03876709115347883 0.43352275666223505
0.009896652963387181 0.3734100526013938
-0.018973785226704468 0.33333491656083303
-0.004538566131658644 0.36339126859125365
0.009896652963387181 0.38342883661153404
0.053202310248524655 0.40346640463181443
-0.004538566131658644 0.40346640463181443
-0.0911498807019336 0.4134851886419546
-0.13445553798707108 0.3734100526013938
-0.12002031889202525 0.34335370057097325
-0.0911498807019336 0.3734100526013938
-0.004538566131658644 0.3032785645304124
-0.06227944251184195 0.18305315640873004
-0.1488907570821169 0.002715044226206457
-0.24993729074743767 -0.18764185196645733
-0.2788077289375293 -0.30786726008813975
-0.3221133862226668 -0.3980363161794015
-0.29324294803257517 -0.4982241562808035
-0.17776119527220854 -0.6585247004430467
-0.1633259761771627 -0.7987876765850095
-0.1633259761771627 -0.9590882207472526
-0.12002031889202525 -1.129407548919636
0.09650796753366213 -1.2596517410514587
0.44295322581476193 -1.379877149173141
0.7749632650008159 -1.520140125315104
1.0347972087116408 -1.680440669477347
1.2513254951373283 -1.890835133690291
1.438983343372924 -2.1713610859742167
1.7421229443688862 -2.441868254248002
2.117438640840078 -2.5620936623696844
2.579365651881544 -2.4719246062784226
3.0557278820180565 -2.201417438004637
3.5465253312496143 -1.880816349680151
3.994017123196035 -1.620327965416506
4.441508915142456 -1.3698583651630007
4.845695049803739 -1.0993511968892156
5.2210107462749304 -0.9190130847066919
5.480844689985755 -0.6785622684633271
5.66850253822135 -0.43811145221996234
5.9572069201222675 -0.06741644384477494
6.289216959308321 0.22312829244929083
6.621226998494375 0.47359789270279584
6.8810609422052 0.734086276966441
7.112024447725934 1.0146122292503665
7.299682295961529 1.1047812853416283
7.487340144197125 1.1047812853416283
7.588386677862445 1.0747249333112079
7.516210582387217 1.0947625013314881
7.342987953246666 1.1248188533619088
6.895496161300246 1.0847437173213479
6.3758282738785965 0.884368037118544
5.654067319126305 0.6739735729055998
4.874565487993831 0.5136730287433566
3.9507114659108975 0.42350397265209483
3.0268574438279647 0.42350397265209483
2.0741329835549402 0.40346640463181443
1.2801959333274198 0.36339126859125365
0.6594815122404494 0.36339126859125365
0.28416581576925787 0.33333491656083303
0.009896652963387181 0.32331613255069286
-0.22106685255734604 0.21310950843915064
-0.5675121108384459 0.12294045234788885
-0.8562164927393623 0.09288410031746826
-1.0583095600700039 0.14297802036816926
-1.130485655545233 0.15299680437830945
-1.1882265319254164 0.13295923635802906
-1.2026617510204622 0.07284653229718785
-1.2459674083055996 0.06282774828704765
-1.3181435037808287 0.04279018026676725
-1.3325787228758745 0.07284653229718785
-1.3181435037808287 0.09288410031746826
-1.2892730655907372 0.11292166833774865
-1.2604026274006455 0.13295923635802906
-1.303708284685783 0.11292166833774865
-1.3181435037808287 0.13295923635802906
-1.2315321892105537 0.18305315640873004
-1.1737913128303705 0.18305315640873004
-1.1593560937353247 0.19307194041887024
-1.130485655545233 0.20309072442901044
-1.1737913128303705 0.19307194041887024
-1.1737913128303705 0.25318464447971145
-1.1160504364501873 0.33333491656083303
-1.0583095600700039 0.38342883661153404
-0.9861334645947748 0.4435415406723752
-0.9283925882145915 0.42350397265209483
-0.9283925882145915 0.43352275666223505
-0.8995221500244999 0.45356032468251545
-0.9283925882145915 0.49363546072307624
-0.9139573691195456 0.49363546072307624
-1.0150039027848665 0.45356032468251545
-1.0871799982600956 0.4134851886419546
-1.1737913128303705 0.42350397265209483
-1.2026617510204622 0.3934476206216742
-1.2026617510204622 0.3934476206216742
-1.130485655545233 0.3533724845811134
-1.0583095600700039 0.3934476206216742
-1.1016152173551415 0.3934476206216742
-1.1737913128303705 0.3533724845811134
-1.1882265319254164 0.31329734854055263
-1.2170969701155079 0.3032785645304124
-1.2315321892105537 0.33333491656083303
-1.2315321892105537 0.32331613255069286
-1.2604026274006455 0.34335370057097325
-1.2892730655907372 0.2632034284898516
-1.3181435037808287 0.18305315640873004
-1.3181435037808287 0.16301558838844965
-1.3470139419709204 0.16301558838844965
-1.2748378464956913 0.15299680437830945
-1.303708284685783 0.09288410031746826
-1.4047548183511036 0.06282774828704765
-1.4047548183511036 -0.01732252379407394
-1.375884380161012 0.002715044226206457
-1.3325787228758745 -0.007303739783933743
-1.3181435037808287 0.002715044226206457
-1.3325787228758745 -0.03736009181435434
-1.3325787228758745 -0.05739765983463474
-1.4047548183511036 -0.05739765983463474
-1.390319599256058 -0.07743522785491513
-1.4191900374461495 -0.09747279587519554
-1.462495694731287 -0.13754793191575634
-1.5058013520164244 -0.19766063597659753
-1.476930913826333 -0.21769820399687792
-1.3614491610659663 -0.21769820399687792
-1.2604026274006455 -0.16760428394617694
-1.1882265319254164 -0.19766063597659753
-1.130485655545233 -0.19766063597659753
-1.1737913128303705 -0.23773577201715831
-1.2315321892105537 -0.2878296920678593
-1.2892730655907372 -0.32790482810842014
-1.2892730655907372 -0.3379236121185603
-1.303708284685783 -0.30786726008813975
-1.2459674083055996 -0.32790482810842014
-1.1882265319254164 -0.3379236121185603
-1.1737913128303705 -0.34794239612870054
-1.1737913128303705 -0.36797996414898093
-1.1593560937353247 -0.34794239612870054
-1.1882265319254164 -0.34794239612870054
-1.2026617510204622 -0.3379236121185603
-1.1737913128303705 -0.34794239612870054
-1.130485655545233 -0.3980363161794015
-1.1449208746402788 -0.43811145221996234
-1.1160504364501873 -0.4280926682098221
-1.130485655545233 -0.3980363161794015
-1.0727447791650497 -0.3980363161794015
-1.0294391218799122 -0.3880175321692613
-1.0150039027848665 -0.3579611801388407
-0.9861334645947748 -0.34794239612870054
-0.8995221500244999 -0.32790482810842014
-0.8129108354542248 -0.2978484760779995
-0.7407347399789957 -0.3178860440982799
-0.7407347399789957 -0.34794239612870054
-0.7118643017889041 -0.3579611801388407
-0.7118643017889041 -0.3379236121185603
-0.6685586445037666 -0.2677921240475789
-0.5675121108384459 -0.19766063597659753
-0.45203035807807923 -0.13754793191575634
-0.29324294803257517 -0.11751036389547594
-0.2066316334623002 -0.10749157988533574
-0.17776119527220854 -0.06741644384477494
-0.1633259761771627 -0.01732252379407394
-0.1488907570821169 0.032771396256627054
-0.10558509979697943 0.06282774828704765
-0.17776119527220854 0.08286531630732805
-0.23550207165239184 0.10290288432760845
-0.23550207165239184 0.15299680437830945
-0.1488907570821169 0.22312829244929083
-0.07671466160688777 0.29325978052027224
-0.06227944251184195 0.32331613255069286
-0.0911498807019336 0.36339126859125365
-0.018973785226704468 0.36339126859125365
-0.07671466160688777 0.36339126859125365
-0.12002031889202525 0.38342883661153404
-0.03340900432175029 0.40346640463181443
0.09650796753366213 0.42350397265209483
0.16868406300889127 0.4635791086926556
0.1975545011989829 0.4435415406723752
0.22642493938907457 0.43352275666223505
0.2552953775791662 0.4635791086926556
0.31303625395934953 0.49363546072307624
0.3419066921494412 0.5236918127534969
0.3419066921494412 0.533710596763637
0.2552953775791662 0.5236918127534969
0.18311928210393708 0.5136730287433566
0.1398136248187996 0.5236918127534969
0.16868406300889127 0.49363546072307624
