0.16868406300889127 0.14297802036816926
0.15424884391384544 0.14297802036816926
0.16868406300889127 0.15299680437830945
0.11094318662870796 0.17303437239858985
0.08207274843861631 0.18305315640873004
0.1398136248187996 0.2632034284898516
0.09650796753366213 0.3032785645304124
0.06763752934357048 0.283240996510132
-0.018973785226704468 0.23314707645943103
-0.0911498807019336 0.15299680437830945
-0.1633259761771627 0.16301558838844965
-0.24993729074743767 0.19307194041887024
-0.3221133862226668 -0.007303739783933743
-0.40872470079294176 -0.4882053722706633
-0.3654190435078043 -1.1193887649094958
-0.3221133862226668 -1.83072242962945
-0.2066316334623002 -2.5620936623696844
-0.13445553798707108 -3.3235212471403397
-0.004538566131658644 -4.084948831910995
0.12537840572375378 -4.736169792570108
0.21198972029402874 -5.096846016935155
0.2408601584841204 -5.2170714250568375
0.32747147305439533 -5.106864800945295
0.5584349785751286 -4.86641398470193
0.9770563323314575 -4.235230592063098
1.5544650961332904 -3.133164350947676
2.1463090790301695 -1.8607787816598707
2.4638838991211776 -0.7687313245545889
2.5360599945964064 -0.11751036389547594
2.4927543373112693 0.22312829244929083
2.4494486800261317 0.3934476206216742
2.2040499554103525 0.49363546072307624
1.7132525061787947 0.5136730287433566
1.1647141805670531 0.49363546072307624
0.7172223886206326 0.5136730287433566
0.5006941021949453 0.5938233008244782
0.29860103486430367 0.6739735729055998
0.15424884391384544 0.6739735729055998
0.053202310248524655 0.6739735729055998
0.024331872058433006 0.6539360048853194
0.024331872058433006 0.7140487089461606
0.11094318662870796 0.7541238449867214
0.1398136248187996 0.734086276966441
0.18311928210393708 0.7040299249360205
0.11094318662870796 0.68399235691574
0.024331872058433006 0.6639547888954596
0.06763752934357048 0.6639547888954596
0.06763752934357048 0.6940111409258802
0.053202310248524655 0.7040299249360205
0.09650796753366213 0.6639547888954596
0.11094318662870796 0.6539360048853194
0.15424884391384544 0.6439172208751792
0.15424884391384544 0.68399235691574
0.1975545011989829 0.6940111409258802
0.1975545011989829 0.68399235691574
0.16868406300889127 0.6940111409258802
0.1398136248187996 0.7240674929563008
0.11094318662870796 0.734086276966441
0.1398136248187996 0.7541238449867214
0.11094318662870796 0.7140487089461606
0.1398136248187996 0.633898436865039
0.11094318662870796 0.5938233008244782
0.11094318662870796 0.583804516814338
0.1398136248187996 0.583804516814338
0.16868406300889127 0.633898436865039
0.1975545011989829 0.6639547888954596
0.21198972029402874 0.6639547888954596
0.22642493938907457 0.6539360048853194
0.16868406300889127 0.6138608688447587
0.1398136248187996 0.5938233008244782
0.11094318662870796 0.6138608688447587
0.16868406300889127 0.6639547888954596
0.18311928210393708 0.6639547888954596
0.1975545011989829 0.6439172208751792
0.2408601584841204 0.6238796528548988
0.15424884391384544 0.633898436865039
0.18311928210393708 0.6439172208751792
0.1975545011989829 0.6739735729055998
0.2408601584841204 0.6639547888954596
0.21198972029402874 0.6539360048853194
0.18311928210393708 0.633898436865039
0.1398136248187996 0.6038420848346184
0.1975545011989829 0.633898436865039
0.28416581576925787 0.6038420848346184
0.3419066921494412 0.5637669487940576
0.3707771303395328 0.5036542447332164
0.31303625395934953 0.4635791086926556
0.22642493938907457 0.4635791086926556
0.2408601584841204 0.483616676712936
0.2408601584841204 0.533710596763637
0.2552953775791662 0.5437293807737772
0.31303625395934953 0.5136730287433566
0.38521234943457866 0.47359789270279584
0.38521234943457866 0.4435415406723752
0.39964756852962446 0.45356032468251545
0.44295322581476193 0.43352275666223505
0.39964756852962446 0.3934476206216742
0.3419066921494412 0.32331613255069286
0.32747147305439533 0.27322221249999185
0.356341911244487 0.2632034284898516
0.39964756852962446 0.283240996510132
0.4573884449098078 0.27322221249999185
0.4573884449098078 0.24316586046957123
0.5295645403850369 0.20309072442901044
0.5151293212899911 0.14297802036816926
0.4285180067197161 0.09288410031746826
0.39964756852962446 0.10290288432760845
0.39964756852962446 0.12294045234788885
0.41408278762467027 0.10290288432760845
0.39964756852962446 0.06282774828704765
0.356341911244487 0.032771396256627054
0.38521234943457866 -0.01732252379407394
0.44295322581476193 -0.027341307804214142
0.5295645403850369 -0.05739765983463474
0.4862588830998994 -0.10749157988533574
0.4573884449098078 -0.12752914790561615
0.38521234943457866 -0.12752914790561615
0.32747147305439533 -0.10749157988533574
0.39964756852962446 -0.06741644384477494
0.44295322581476193 -0.07743522785491513
0.4718236640048536 -0.10749157988533574
0.44295322581476193 -0.16760428394617694
0.41408278762467027 -0.17762306795631713
0.38521234943457866 -0.17762306795631713
0.356341911244487 -0.09747279587519554
0.3419066921494412 -0.06741644384477494
0.356341911244487 -0.04737887582449454
0.31303625395934953 -0.05739765983463474
0.2408601584841204 -0.11751036389547594
0.16868406300889127 -0.13754793191575634
0.11094318662870796 -0.05739765983463474
0.12537840572375378 -0.007303739783933743
0.16868406300889127 0.022752612246486857
0.12537840572375378 -0.007303739783933743
0.06763752934357048 -0.05739765983463474
0.009896652963387181 -0.05739765983463474
-0.047844223416796124 0.012733828236346657
-0.06227944251184195 -0.007303739783933743
-0.06227944251184195 0.002715044226206457
-0.07671466160688777 0.002715044226206457
-0.12002031889202525 0.022752612246486857
-0.1488907570821169 0.04279018026676725
-0.10558509979697943 0.10290288432760845
-0.10558509979697943 0.17303437239858985
-0.1488907570821169 0.19307194041887024
-0.1633259761771627 0.14297802036816926
-0.24993729074743767 0.08286531630732805
-0.30767816712762097 0.022752612246486857
-0.33654860531771263 0.002715044226206457
-0.30767816712762097 0.022752612246486857
-0.24993729074743767 0.10290288432760845
-0.22106685255734604 0.10290288432760845
-0.2643725098424835 0.12294045234788885
-0.29324294803257517 0.11292166833774865
-0.3221133862226668 0.11292166833774865
-0.35098382441275844 0.09288410031746826
-0.3942894816978959 0.11292166833774865
-0.46646557717312503 0.13295923635802906
-0.46646557717312503 0.12294045234788885
-0.45203035807807923 0.16301558838844965
-0.3798542626028501 0.21310950843915064
-0.33654860531771263 0.23314707645943103
-0.29324294803257517 0.20309072442901044
-0.40872470079294176 0.14297802036816926
-0.45203035807807923 0.15299680437830945
-0.5386416726483542 0.15299680437830945
-0.5242064535533083 0.22312829244929083
-0.46646557717312503 0.24316586046957123
-0.42315991988798757 0.283240996510132
-0.3942894816978959 0.2632034284898516
-0.5097712344582626 0.22312829244929083
-0.5097712344582626 0.24316586046957123
-0.5242064535533083 0.27322221249999185
-0.5386416726483542 0.3032785645304124
-0.5242064535533083 0.31329734854055263
-0.5819473299334916 0.29325978052027224
-0.6252529872186291 0.29325978052027224
-0.6252529872186291 0.25318464447971145
-0.6108177681235833 0.29325978052027224
-0.5819473299334916 0.3533724845811134
-0.5530768917434 0.36339126859125365
-0.5819473299334916 0.38342883661153404
-0.639688206313675 0.38342883661153404
-0.6685586445037666 0.38342883661153404
-0.7118643017889041 0.29325978052027224
-0.7407347399789957 0.10290288432760845
-0.7840403972641332 -0.11751036389547594
-0.9428278073096373 -0.3579611801388407
-1.0294391218799122 -0.5483180763315045
-1.1593560937353247 -0.6885810524734673
-1.1737913128303705 -0.7887688925748693
-1.1016152173551415 -0.8589003806458507
-1.0583095600700039 -1.0492572768385144
-0.9572630264046831 -1.3398020131325803
-0.7262995208839499 -1.6103091814063657
-0.4375951389830334 -1.8006660775990295
-0.0911498807019336 -1.9409290537409922
0.1975545011989829 -2.181379869984357
0.4718236640048536 -2.532037310339264
0.688351950430541 -2.9628450227752925
0.9481858941413658 -3.3235212471403397
1.4101129051828323 -3.393652735211321
1.9442160116995277 -3.2032958390186574
2.564930432786498 -2.7023566385116475
3.0557278820180565 -2.2114362220147776
3.3733027021090645 -1.780628509578749
3.719747960390164 -1.379877149173141
4.138369314146494 -1.029219708818234
4.484814572427593 -0.6184495644024859
4.845695049803739 -0.18764185196645733
5.177705088989793 0.18305315640873004
5.495279909080801 0.42350397265209483
5.783984290981717 0.5637669487940576
6.014947796502451 0.7741614130070018
6.231476082928138 1.0446685812807872
6.419133931163734 1.2149879094531706
6.505745245734008 1.3051569655444324
6.448004369353825 1.3652696696052735
6.1737352065479545 1.4955138617370962
5.726243414601534 1.485495077726956
5.119964212609609 1.2650818295038715
4.412638476952364 0.9945746612300862
3.6908775222000725 0.7741614130070018
2.7670235001171397 0.68399235691574
1.843169478034207 0.6439172208751792
1.020361989616595 0.6539360048853194
0.44295322581476193 0.6439172208751792
0.18311928210393708 0.6238796528548988
-0.0911498807019336 0.583804516814338
-0.30767816712762097 0.5637669487940576
-0.639688206313675 0.5537481647839174
-0.9283925882145915 0.5437293807737772
-1.0294391218799122 0.583804516814338
-1.0583095600700039 0.5737857328041979
-1.0294391218799122 0.5236918127534969
-1.0583095600700039 0.42350397265209483
-1.1449208746402788 0.33333491656083303
-1.2748378464956913 0.24316586046957123
-1.3181435037808287 0.12294045234788885
-1.3181435037808287 0.06282774828704765
-1.3614491610659663 0.032771396256627054
-1.3470139419709204 -0.027341307804214142
-1.4336252565411953 -0.07743522785491513
-1.462495694731287 -0.09747279587519554
-1.4913661329213788 -0.11751036389547594
-1.549107009301562 -0.07743522785491513
-1.5635422283966078 -0.07743522785491513
-1.5924126665866993 -0.05739765983463474
-1.6501535429668828 -0.09747279587519554
-1.7223296384421118 -0.13754793191575634
-1.7367648575371577 -0.10749157988533574
-1.7223296384421118 -0.08745401186505533
-1.6790239811569745 -0.12752914790561615
-1.707894419347066 -0.16760428394617694
-1.7800705148222953 -0.20767941998673772
-1.8666818293925702 -0.20767941998673772
-1.9099874866777076 -0.20767941998673772
-1.8955522675826617 -0.22771698800701812
-1.8955522675826617 -0.27781090805771913
-1.967728363057891 -0.34794239612870054
-2.0110340203430286 -0.4180738841996819
-2.0832101158182574 -0.4681678042503829
-2.0976453349133033 -0.4280926682098221
-2.112080554008349 -0.45814902024024273
-2.112080554008349 -0.4882053722706633
-2.112080554008349 -0.5483180763315045
-2.1698214303885326 -0.5683556443517849
-2.2131270876736697 -0.5984119963822055
-2.2419975258637614 -0.5683556443517849
-2.299738402243945 -0.5683556443517849
-2.3141736213389907 -0.6084307803923457
-2.3286088404340366 -0.6384871324227663
-2.3574792786241283 -0.6585247004430467
-2.371914497719174 -0.6885810524734673
-2.3430440595290825 -0.6885810524734673
-2.3430440595290825 -0.7086186204937477
-2.285303183148899 -0.7086186204937477
-2.2564327449588073 -0.7286561885140281
-2.270867964053853 -0.6985998364836075
-2.3141736213389907 -0.6885810524734673
-2.3141736213389907 -0.6384871324227663
-2.3286088404340366 -0.6084307803923457
-2.270867964053853 -0.5984119963822055
-2.2419975258637614 -0.6084307803923457
-2.2275623067687156 -0.5984119963822055
-2.2131270876736697 -0.5984119963822055
-2.2131270876736697 -0.5984119963822055
-2.2419975258637614 -0.5883932123720653
-2.2419975258637614 -0.5583368603416448
-2.299738402243945 -0.5783744283619251
-2.3430440595290825 -0.6084307803923457
-2.3430440595290825 -0.6384871324227663
-2.299738402243945 -0.6284683484126261
-2.2564327449588073 -0.6384871324227663
-2.1986918685786243 -0.6384871324227663
-2.1553862112934867 -0.6985998364836075
-2.1698214303885326 -0.7186374045038879
-2.2131270876736697 -0.7386749725241682
-2.2275623067687156 -0.6585247004430467
-2.1553862112934867 -0.6585247004430467
-2.126515773103395 -0.6184495644024859
-2.126515773103395 -0.6184495644024859
-2.0976453349133033 -0.6384871324227663
-2.140950992198441 -0.6785622684633271
-2.0543396776281657 -0.6885810524734673
-1.9965988012479825 -0.6785622684633271
-1.9388579248677993 -0.6885810524734673
-1.9099874866777076 -0.7086186204937477
-1.9099874866777076 -0.7386749725241682
-1.9532931439628451 -0.6785622684633271
-1.9244227057727534 -0.6184495644024859
-1.8811170484876159 -0.6084307803923457
-1.8233761721074326 -0.5783744283619251
-1.7800705148222953 -0.5683556443517849
-1.7800705148222953 -0.5683556443517849
-1.794505733917341 -0.5683556443517849
-1.7223296384421118 -0.45814902024024273
-1.6501535429668828 -0.4180738841996819
-1.5635422283966078 -0.3980363161794015
-1.5202365711114703 -0.4180738841996819
-1.476930913826333 -0.3880175321692613
-1.4047548183511036 -0.34794239612870054
-1.462495694731287 -0.24775455602729854
-1.4047548183511036 -0.19766063597659753
-1.2892730655907372 -0.15758549993603674
-1.1882265319254164 -0.11751036389547594
-1.1882265319254164 -0.14756671592589654
-1.130485655545233 -0.08745401186505533
-1.0727447791650497 -0.007303739783933743
-0.9572630264046831 0.052808964276907455
-0.9283925882145915 0.09288410031746826
-0.8995221500244999 0.11292166833774865
-0.8129108354542248 0.10290288432760845
-0.8706517118344081 0.11292166833774865
-0.7696051781690874 0.16301558838844965
-0.7407347399789957 0.23314707645943103
-0.6974290826938583 0.21310950843915064
-0.6541234254087208 0.21310950843915064
-0.6252529872186291 0.23314707645943103
-0.6108177681235833 0.25318464447971145
-0.5530768917434 0.3032785645304124
-0.5097712344582626 0.36339126859125365
-0.46646557717312503 0.34335370057097325
-0.4953360153632167 0.29325978052027224
-0.5242064535533083 0.25318464447971145
-0.5675121108384459 0.25318464447971145
-0.5386416726483542 0.29325978052027224
-0.45203035807807923 0.33333491656083303
-0.3798542626028501 0.31329734854055263
-0.29324294803257517 0.27322221249999185
-0.30767816712762097 0.27322221249999185
-0.35098382441275844 0.2632034284898516
-0.33654860531771263 0.283240996510132
-0.3654190435078043 0.32331613255069286
-0.33654860531771263 0.33333491656083303
-0.3221133862226668 0.3032785645304124
-0.29324294803257517 0.31329734854055263
-0.30767816712762097 0.33333491656083303
-0.22106685255734604 0.3734100526013938
-0.17776119527220854 0.40346640463181443
-0.2066316334623002 0.3934476206216742
-0.22106685255734604 0.3734100526013938
-0.24993729074743767 0.33333491656083303
-0.29324294803257517 0.29325978052027224
-0.3221133862226668 0.2632034284898516
-0.30767816712762097 0.27322221249999185
-0.2643725098424835 0.27322221249999185
-0.1633259761771627 0.27322221249999185
-0.13445553798707108 0.283240996510132
-0.1488907570821169 0.2632034284898516
-0.1488907570821169 0.29325978052027224
-0.07671466160688777 0.31329734854055263
-0.03340900432175029 0.29325978052027224
-0.06227944251184195 0.283240996510132
-0.0911498807019336 0.283240996510132
-0.12002031889202525 0.25318464447971145
-0.10558509979697943 0.29325978052027224
-0.06227944251184195 0.33333491656083303
-0.004538566131658644 0.31329734854055263
0.009896652963387181 0.31329734854055263
0.024331872058433006 0.29325978052027224
-0.03340900432175029 0.2632034284898516
-0.018973785226704468 0.29325978052027224
0.024331872058433006 0.3734100526013938
0.024331872058433006 0.40346640463181443
0.009896652963387181 0.3934476206216742
0.009896652963387181 0.34335370057097325
-0.03340900432175029 0.29325978052027224
0.009896652963387181 0.2632034284898516
0.009896652963387181 0.24316586046957123
0.024331872058433006 0.23314707645943103
0.08207274843861631 0.24316586046957123
0.03876709115347883 0.23314707645943103
0.024331872058433006 0.29325978052027224
0.03876709115347883 0.34335370057097325
0.08207274843861631 0.31329734854055263
0.11094318662870796 0.29325978052027224
0.09650796753366213 0.21310950843915064
0.053202310248524655 0.18305315640873004
-0.004538566131658644 0.15299680437830945
0.03876709115347883 0.20309072442901044
0.11094318662870796 0.24316586046957123
0.16868406300889127 0.25318464447971145
0.21198972029402874 0.24316586046957123
0.1975545011989829 0.27322221249999185
0.16868406300889127 0.2632034284898516
0.15424884391384544 0.2632034284898516
0.1398136248187996 0.24316586046957123
0.1398136248187996 0.25318464447971145
0.06763752934357048 0.24316586046957123
0.053202310248524655 0.23314707645943103
0.06763752934357048 0.25318464447971145
0.12537840572375378 0.31329734854055263
0.21198972029402874 0.3533724845811134
0.18311928210393708 0.3734100526013938
0.21198972029402874 0.31329734854055263
0.1975545011989829 0.24316586046957123
0.12537840572375378 0.20309072442901044
0.053202310248524655 0.18305315640873004
0.08207274843861631 0.22312829244929083
0.18311928210393708 0.23314707645943103
0.21198972029402874 0.24316586046957123
0.22642493938907457 0.25318464447971145
0.18311928210393708 0.283240996510132
0.2408601584841204 0.29325978052027224
0.26973059667421206 0.283240996510132
0.28416581576925787 0.24316586046957123
0.2552953775791662 0.23314707645943103
0.1975545011989829 0.23314707645943103
0.18311928210393708 0.21310950843915064
0.16868406300889127 0.24316586046957123
0.15424884391384544 0.24316586046957123
0.2408601584841204 0.23314707645943103
0.28416581576925787 0.21310950843915064
0.2408601584841204 0.19307194041887024
0.1975545011989829 0.20309072442901044
0.22642493938907457 0.23314707645943103
0.21198972029402874 0.25318464447971145
0.21198972029402874 0.23314707645943103
0.16868406300889127 0.25318464447971145
0.15424884391384544 0.21310950843915064
0.16868406300889127 0.18305315640873004
0.2408601584841204 0.25318464447971145
0.28416581576925787 0.22312829244929083
0.356341911244487 0.20309072442901044
0.356341911244487 0.21310950843915064
0.32747147305439533 0.20309072442901044
0.26973059667421206 0.19307194041887024
0.26973059667421206 0.23314707645943103
0.31303625395934953 0.2632034284898516
0.3419066921494412 0.25318464447971145
0.32747147305439533 0.22312829244929083
0.31303625395934953 0.21310950843915064
0.26973059667421206 0.23314707645943103
0.2408601584841204 0.24316586046957123
0.29860103486430367 0.23314707645943103
0.31303625395934953 0.22312829244929083
0.31303625395934953 0.20309072442901044
0.31303625395934953 0.21310950843915064
0.29860103486430367 0.24316586046957123
0.31303625395934953 0.2632034284898516
0.356341911244487 0.29325978052027224
0.3707771303395328 0.2632034284898516
0.38521234943457866 0.22312829244929083
0.32747147305439533 0.20309072442901044
0.28416581576925787 0.16301558838844965
0.2408601584841204 0.23314707645943103
0.3419066921494412 0.29325978052027224
0.38521234943457866 0.3032785645304124
0.39964756852962446 0.27322221249999185
0.3707771303395328 0.24316586046957123
0.38521234943457866 0.23314707645943103
0.38521234943457866 0.22312829244929083
0.32747147305439533 0.19307194041887024
0.3707771303395328 0.20309072442901044
0.32747147305439533 0.15299680437830945
0.29860103486430367 0.14297802036816926
0.3419066921494412 0.16301558838844965
0.39964756852962446 0.17303437239858985
0.4573884449098078 0.18305315640873004
0.5006941021949453 0.20309072442901044
0.4718236640048536 0.19307194041887024
0.44295322581476193 0.17303437239858985
0.3419066921494412 0.21310950843915064
0.32747147305439533 0.23314707645943103
0.3419066921494412 0.27322221249999185
0.38521234943457866 0.283240996510132
0.39964756852962446 0.24316586046957123
0.3707771303395328 0.24316586046957123
0.38521234943457866 0.19307194041887024
0.4285180067197161 0.20309072442901044
0.4285180067197161 0.19307194041887024
0.44295322581476193 0.19307194041887024
0.41408278762467027 0.23314707645943103
0.3707771303395328 0.20309072442901044
0.31303625395934953 0.18305315640873004
0.3419066921494412 0.23314707645943103
0.4285180067197161 0.21310950843915064
0.5006941021949453 0.22312829244929083
0.5584349785751286 0.21310950843915064
0.5728701976701743 0.19307194041887024
0.5295645403850369 0.17303437239858985
0.5295645403850369 0.15299680437830945
0.5295645403850369 0.14297802036816926
0.4862588830998994 0.18305315640873004
0.4285180067197161 0.14297802036816926
0.3707771303395328 0.14297802036816926
0.3707771303395328 0.16301558838844965
0.39964756852962446 0.15299680437830945
0.41408278762467027 0.21310950843915064
0.4718236640048536 0.19307194041887024
0.5295645403850369 0.17303437239858985
0.5295645403850369 0.15299680437830945
0.4718236640048536 0.12294045234788885
0.5295645403850369 0.12294045234788885
0.5151293212899911 0.17303437239858985
0.5006941021949453 0.21310950843915064
0.5151293212899911 0.18305315640873004
0.4862588830998994 0.18305315640873004
0.4718236640048536 0.15299680437830945
0.4573884449098078 0.19307194041887024
0.4718236640048536 0.23314707645943103
0.5439997594800827 0.22312829244929083
0.5728701976701743 0.24316586046957123
0.5439997594800827 0.22312829244929083
0.5151293212899911 0.22312829244929083
0.5439997594800827 0.23314707645943103
0.6161758549553118 0.23314707645943103
0.6739167313354951 0.24316586046957123
0.7027871695255868 0.22312829244929083
0.6594815122404494 0.25318464447971145
0.6161758549553118 0.2632034284898516
0.6161758549553118 0.27322221249999185
0.7027871695255868 0.27322221249999185
0.7460928268107243 0.29325978052027224
0.7893984840958618 0.32331613255069286
0.8327041413809992 0.3533724845811134
0.8760097986661367 0.3934476206216742
0.8615745795710908 0.47359789270279584
0.93375067504632 0.5437293807737772
0.9770563323314575 0.49363546072307624
0.9048802368562283 0.42350397265209483
0.8327041413809992 0.29325978052027224
0.8182689222859534 0.14297802036816926
0.7749632650008159 0.11292166833774865
0.7605280459057701 0.11292166833774865
0.7460928268107243 0.07284653229718785
0.7605280459057701 0.032771396256627054
0.7460928268107243 0.002715044226206457
0.7027871695255868 -0.007303739783933743
0.6739167313354951 0.022752612246486857
0.6306110740503577 0.002715044226206457
0.5439997594800827 -0.01732252379407394
0.5151293212899911 -0.05739765983463474
0.4718236640048536 -0.08745401186505533
0.4285180067197161 -0.08745401186505533
0.4718236640048536 -0.06741644384477494
0.4862588830998994 0.002715044226206457
0.5295645403850369 0.032771396256627054
0.5584349785751286 -0.007303739783933743
0.5439997594800827 -0.007303739783933743
0.5151293212899911 -0.01732252379407394
0.5006941021949453 0.002715044226206457
0.5151293212899911 0.032771396256627054
0.4862588830998994 0.022752612246486857
0.4285180067197161 0.022752612246486857
0.38521234943457866 0.022752612246486857
0.3419066921494412 0.002715044226206457
0.3419066921494412 0.022752612246486857
0.3419066921494412 0.022752612246486857
0.4285180067197161 0.012733828236346657
0.41408278762467027 -0.027341307804214142
0.3419066921494412 -0.08745401186505533
0.26973059667421206 -0.13754793191575634
0.26973059667421206 -0.15758549993603674
0.2408601584841204 -0.18764185196645733
0.22642493938907457 -0.20767941998673772
0.21198972029402874 -0.20767941998673772
0.16868406300889127 -0.19766063597659753
0.18311928210393708 -0.19766063597659753
0.22642493938907457 -0.16760428394617694
0.2552953775791662 -0.13754793191575634
0.32747147305439533 -0.12752914790561615
0.3419066921494412 -0.14756671592589654
0.28416581576925787 -0.16760428394617694
0.1975545011989829 -0.18764185196645733
0.1975545011989829 -0.17762306795631713
0.21198972029402874 -0.11751036389547594
0.2408601584841204 -0.03736009181435434
0.26973059667421206 0.012733828236346657
0.26973059667421206 0.04279018026676725
0.32747147305439533 0.06282774828704765
0.39964756852962446 0.10290288432760845
0.4718236640048536 0.08286531630732805
0.5151293212899911 0.13295923635802906
0.5151293212899911 0.13295923635802906
0.4862588830998994 0.18305315640873004
0.4573884449098078 0.22312829244929083
0.5006941021949453 0.33333491656083303
0.5295645403850369 0.32331613255069286
0.5295645403850369 0.283240996510132
0.5006941021949453 0.25318464447971145
0.5006941021949453 0.23314707645943103
0.4718236640048536 0.17303437239858985
0.4718236640048536 0.19307194041887024
0.5006941021949453 0.19307194041887024
0.601740635860266 0.19307194041887024
0.601740635860266 0.18305315640873004
0.601740635860266 0.17303437239858985
0.5873054167652202 0.21310950843915064
0.6306110740503577 0.23314707645943103
0.6739167313354951 0.2632034284898516
0.6739167313354951 0.283240996510132
0.6594815122404494 0.3032785645304124
0.6161758549553118 0.29325978052027224
0.5439997594800827 0.31329734854055263
0.5295645403850369 0.34335370057097325
0.5873054167652202 0.31329734854055263
0.6161758549553118 0.27322221249999185
0.5728701976701743 0.21310950843915064
0.5439997594800827 0.12294045234788885
0.4285180067197161 0.12294045234788885
0.3707771303395328 0.11292166833774865
0.29860103486430367 -0.11751036389547594
0.29860103486430367 -0.5883932123720653
0.3707771303395328 -1.1795014689703371
0.41408278762467027 -1.7205158055179077
0.4862588830998994 -2.2214550060249176
0.6450462931454035 -2.772488126582629
0.7893984840958618 -3.35357759917076
0.9048802368562283 -3.9747422077994528
1.0347972087116408 -4.545812896377444
1.0492324278066867 -4.936545472772912
0.9914915514265034 -5.036733312874314
0.93375067504632 -5.026714528864174
0.9770563323314575 -4.896470336732351
1.1935846187571448 -4.545812896377444
1.5689003152283363 -3.894591935718331
2.103003421745032 -2.8426196146536102
2.5504952136914523 -1.620327965416506
2.839199595592369 -0.5683556443517849
2.9113756910675983 -0.027341307804214142
2.853634814687415 0.25318464447971145
2.680412185546865 0.4134851886419546
2.3628373654558565 0.483616676712936
1.9297807926044819 0.483616676712936
1.511159438848153 0.49363546072307624
1.2224550569472366 0.5437293807737772
0.9914915514265034 0.6138608688447587
0.8038337031909076 0.6739735729055998
0.6594815122404494 0.7140487089461606
0.5151293212899911 0.7240674929563008
0.5728701976701743 0.7441050609765812
0.6161758549553118 0.7941989810272821
0.6450462931454035 0.784180197017142
0.6161758549553118 0.8042177650374224
0.601740635860266 0.7741614130070018
0.5584349785751286 0.7541238449867214
0.5006941021949453 0.7741614130070018
0.5295645403850369 0.784180197017142
0.5006941021949453 0.7541238449867214
0.5295645403850369 0.7040299249360205
0.4862588830998994 0.6940111409258802
0.5151293212899911 0.7040299249360205
0.5584349785751286 0.7441050609765812
0.5873054167652202 0.7441050609765812
0.6306110740503577 0.7040299249360205
0.601740635860266 0.7441050609765812
0.5873054167652202 0.7140487089461606
0.5439997594800827 0.6940111409258802
0.5439997594800827 0.734086276966441
0.5873054167652202 0.7541238449867214
0.6161758549553118 0.784180197017142
0.6306110740503577 0.8042177650374224
0.5873054167652202 0.7641426289968616
0.5295645403850369 0.734086276966441
0.5584349785751286 0.7240674929563008
0.5728701976701743 0.7040299249360205
0.6306110740503577 0.7040299249360205
0.6450462931454035 0.6739735729055998
0.6306110740503577 0.68399235691574
0.6161758549553118 0.68399235691574
0.5873054167652202 0.7240674929563008
0.6739167313354951 0.7140487089461606
0.7172223886206326 0.7140487089461606
0.6594815122404494 0.7140487089461606
0.6161758549553118 0.68399235691574
0.5295645403850369 0.633898436865039
0.5728701976701743 0.6739735729055998
0.6450462931454035 0.68399235691574
0.688351950430541 0.6739735729055998
0.7027871695255868 0.6739735729055998
0.6594815122404494 0.633898436865039
0.7172223886206326 0.633898436865039
0.688351950430541 0.68399235691574
0.7605280459057701 0.7441050609765812
0.7605280459057701 0.7040299249360205
0.7172223886206326 0.6739735729055998
0.688351950430541 0.6539360048853194
0.6594815122404494 0.6539360048853194
0.6306110740503577 0.6639547888954596
0.6739167313354951 0.68399235691574
0.7316576077156784 0.7040299249360205
0.7460928268107243 0.68399235691574
0.7749632650008159 0.6940111409258802
0.7605280459057701 0.68399235691574
0.7605280459057701 0.6940111409258802
0.7893984840958618 0.6739735729055998
0.7605280459057701 0.6539360048853194
0.7027871695255868 0.6138608688447587
0.7027871695255868 0.5737857328041979
0.688351950430541 0.533710596763637
0.7316576077156784 0.5236918127534969
0.8182689222859534 0.5136730287433566
0.8904450177611826 0.483616676712936
0.9193154559512742 0.4635791086926556
0.9048802368562283 0.45356032468251545
0.8615745795710908 0.45356032468251545
0.8471393604760451 0.4635791086926556
0.8760097986661367 0.4635791086926556
0.8471393604760451 0.40346640463181443
0.8038337031909076 0.34335370057097325
0.7749632650008159 0.32331613255069286
0.7893984840958618 0.3032785645304124
0.7893984840958618 0.31329734854055263
0.8327041413809992 0.33333491656083303
0.9481858941413658 0.32331613255069286
0.93375067504632 0.3032785645304124
0.9193154559512742 0.2632034284898516
0.8760097986661367 0.21310950843915064
0.8615745795710908 0.2632034284898516
0.8471393604760451 0.22312829244929083
0.8471393604760451 0.20309072442901044
0.8182689222859534 0.19307194041887024
0.8182689222859534 0.16301558838844965
0.8182689222859534 0.14297802036816926
0.8615745795710908 0.16301558838844965
0.8904450177611826 0.17303437239858985
0.9626211132364116 0.13295923635802906
0.9914915514265034 0.10290288432760845
0.93375067504632 0.06282774828704765
0.9048802368562283 0.032771396256627054
0.8904450177611826 0.04279018026676725
0.8760097986661367 0.032771396256627054
0.8760097986661367 0.022752612246486857
0.8904450177611826 0.012733828236346657
0.8327041413809992 -0.01732252379407394
0.7893984840958618 -0.03736009181435434
0.8038337031909076 0.002715044226206457
0.8615745795710908 0.04279018026676725
0.8471393604760451 0.012733828236346657
0.8904450177611826 -0.01732252379407394
0.8615745795710908 -0.04737887582449454
0.8182689222859534 -0.07743522785491513
0.8327041413809992 -0.06741644384477494
0.8327041413809992 -0.03736009181435434
0.8327041413809992 -0.05739765983463474
0.8327041413809992 -0.07743522785491513
0.7460928268107243 -0.08745401186505533
0.6739167313354951 -0.08745401186505533
0.688351950430541 -0.08745401186505533
0.6594815122404494 -0.07743522785491513
0.7316576077156784 -0.08745401186505533
0.7172223886206326 -0.04737887582449454
0.688351950430541 -0.01732252379407394
0.6306110740503577 0.002715044226206457
0.601740635860266 0.012733828236346657
0.6161758549553118 0.04279018026676725
0.5873054167652202 0.052808964276907455
0.5728701976701743 0.08286531630732805
0.5006941021949453 0.07284653229718785
0.39964756852962446 0.06282774828704765
0.38521234943457866 0.09288410031746826
0.3419066921494412 0.09288410031746826
0.31303625395934953 0.07284653229718785
0.31303625395934953 0.06282774828704765
0.29860103486430367 0.07284653229718785
0.28416581576925787 0.06282774828704765
0.26973059667421206 0.10290288432760845
0.28416581576925787 0.13295923635802906
0.28416581576925787 0.13295923635802906
0.18311928210393708 0.10290288432760845
0.09650796753366213 0.07284653229718785
0.03876709115347883 0.04279018026676725
0.024331872058433006 0.09288410031746826
0.03876709115347883 0.18305315640873004
0.09650796753366213 0.22312829244929083
0.09650796753366213 0.23314707645943103
0.11094318662870796 0.22312829244929083
0.08207274843861631 0.20309072442901044
0.06763752934357048 0.21310950843915064
0.03876709115347883 0.21310950843915064
0.024331872058433006 0.22312829244929083
-0.047844223416796124 0.20309072442901044
-0.0911498807019336 0.25318464447971145
-0.1488907570821169 0.25318464447971145
-0.12002031889202525 0.29325978052027224
-0.0911498807019336 0.3032785645304124
-0.018973785226704468 0.33333491656083303
-0.018973785226704468 0.29325978052027224
-0.06227944251184195 0.2632034284898516
-0.0911498807019336 0.22312829244929083
-0.12002031889202525 0.23314707645943103
-0.1488907570821169 0.23314707645943103
-0.19219641436725438 0.22312829244929083
-0.2066316334623002 0.25318464447971145
-0.22106685255734604 0.27322221249999185
-0.2643725098424835 0.283240996510132
-0.24993729074743767 0.33333491656083303
-0.2066316334623002 0.38342883661153404
-0.1633259761771627 0.3934476206216742
-0.1488907570821169 0.34335370057097325
-0.24993729074743767 0.34335370057097325
-0.2643725098424835 0.33333491656083303
-0.29324294803257517 0.3734100526013938
-0.35098382441275844 0.3734100526013938
-0.33654860531771263 0.38342883661153404
-0.35098382441275844 0.4134851886419546
-0.3654190435078043 0.38342883661153404
-0.42315991988798757 0.4134851886419546
-0.42315991988798757 0.42350397265209483
-0.33654860531771263 0.42350397265209483
-0.33654860531771263 0.4435415406723752
-0.35098382441275844 0.4635791086926556
-0.35098382441275844 0.4435415406723752
-0.4375951389830334 0.4435415406723752
-0.4375951389830334 0.4635791086926556
-0.45203035807807923 0.47359789270279584
-0.40872470079294176 0.4435415406723752
-0.40872470079294176 0.40346640463181443
-0.4809007962681709 0.36339126859125365
-0.5386416726483542 0.3533724845811134
-0.5675121108384459 0.3734100526013938
-0.5097712344582626 0.3934476206216742
-0.4375951389830334 0.43352275666223505
-0.4375951389830334 0.483616676712936
-0.46646557717312503 0.47359789270279584
-0.5242064535533083 0.43352275666223505
-0.4953360153632167 0.40346640463181443
-0.4809007962681709 0.3734100526013938
-0.4809007962681709 0.3032785645304124
-0.4953360153632167 0.22312829244929083
-0.5242064535533083 0.17303437239858985
-0.5242064535533083 0.21310950843915064
-0.5097712344582626 0.29325978052027224
-0.4953360153632167 0.32331613255069286
-0.46646557717312503 0.283240996510132
-0.4809007962681709 0.2632034284898516
-0.4953360153632167 0.24316586046957123
-0.5386416726483542 0.24316586046957123
-0.5819473299334916 0.24316586046957123
-0.5963825490285375 0.23314707645943103
-0.5675121108384459 0.23314707645943103
-0.4953360153632167 0.23314707645943103
-0.5242064535533083 0.22312829244929083
-0.5242064535533083 0.23314707645943103
-0.5242064535533083 0.2632034284898516
-0.46646557717312503 0.25318464447971145
-0.5097712344582626 0.23314707645943103
-0.5386416726483542 0.23314707645943103
-0.5530768917434 0.20309072442901044
-0.6108177681235833 0.20309072442901044
-0.5819473299334916 0.23314707645943103
-0.4809007962681709 0.27322221249999185
-0.42315991988798757 0.283240996510132
-0.3654190435078043 0.25318464447971145
-0.3798542626028501 0.22312829244929083
-0.42315991988798757 0.25318464447971145
-0.3654190435078043 0.27322221249999185
-0.3221133862226668 0.32331613255069286
-0.3221133862226668 0.32331613255069286
-0.30767816712762097 0.33333491656083303
-0.30767816712762097 0.29325978052027224
-0.2643725098424835 0.283240996510132
-0.1488907570821169 0.34335370057097325
-0.07671466160688777 0.3934476206216742
-0.03340900432175029 0.43352275666223505
-0.06227944251184195 0.45356032468251545
-0.10558509979697943 0.5136730287433566
-0.1633259761771627 0.5136730287433566
-0.2066316334623002 0.4635791086926556
-0.19219641436725438 0.33333491656083303
-0.19219641436725438 0.17303437239858985
-0.24993729074743767 -0.007303739783933743
-0.2788077289375293 -0.12752914790561615
-0.35098382441275844 -0.19766063597659753
-0.30767816712762097 -0.13754793191575634
-0.33654860531771263 -0.12752914790561615
-0.35098382441275844 -0.13754793191575634
-0.42315991988798757 -0.12752914790561615
-0.4809007962681709 -0.14756671592589654
-0.5819473299334916 -0.11751036389547594
-0.6108177681235833 -0.06741644384477494
-0.5963825490285375 -0.06741644384477494
-0.5530768917434 -0.08745401186505533
-0.5386416726483542 -0.12752914790561615
-0.5675121108384459 -0.14756671592589654
-0.639688206313675 -0.14756671592589654
-0.639688206313675 -0.14756671592589654
-0.639688206313675 -0.12752914790561615
-0.6541234254087208 -0.12752914790561615
-0.639688206313675 -0.13754793191575634
-0.6974290826938583 -0.15758549993603674
-0.7696051781690874 -0.17762306795631713
-0.8417812736443165 -0.19766063597659753
-0.7984756163591791 -0.23773577201715831
-0.7696051781690874 -0.24775455602729854
-0.8129108354542248 -0.2677921240475789
-0.8273460545492707 -0.3178860440982799
-0.885086930929454 -0.3379236121185603
-0.9572630264046831 -0.3178860440982799
-0.9572630264046831 -0.34794239612870054
-0.9139573691195456 -0.3379236121185603
-0.9139573691195456 -0.3579611801388407
-0.9716982454997289 -0.34794239612870054
-0.9861334645947748 -0.32790482810842014
-0.9572630264046831 -0.24775455602729854
-0.885086930929454 -0.25777334003743874
-0.8273460545492707 -0.3379236121185603
-0.7984756163591791 -0.3980363161794015
-0.8562164927393623 -0.3880175321692613
-0.8706517118344081 -0.3579611801388407
-0.8995221500244999 -0.25777334003743874
-0.7984756163591791 -0.20767941998673772
-0.7262995208839499 -0.19766063597659753
-0.7262995208839499 -0.17762306795631713
-0.7118643017889041 -0.15758549993603674
-0.6685586445037666 -0.08745401186505533
-0.6541234254087208 -0.05739765983463474
-0.6108177681235833 -0.007303739783933743
-0.5530768917434 0.032771396256627054
-0.5963825490285375 0.04279018026676725
-0.6252529872186291 0.06282774828704765
-0.6974290826938583 0.06282774828704765
-0.7118643017889041 0.12294045234788885
-0.6252529872186291 0.08286531630732805
-0.5963825490285375 0.06282774828704765
-0.5386416726483542 0.052808964276907455
-0.5097712344582626 0.022752612246486857
-0.5530768917434 0.012733828236346657
-0.5386416726483542 0.04279018026676725
-0.5242064535533083 0.06282774828704765
-0.5242064535533083 0.06282774828704765
-0.5530768917434 0.022752612246486857
-0.5963825490285375 0.04279018026676725
-0.6108177681235833 0.032771396256627054
-0.6108177681235833 0.08286531630732805
-0.5963825490285375 0.10290288432760845
-0.4809007962681709 0.15299680437830945
-0.5242064535533083 0.17303437239858985
-0.5675121108384459 0.17303437239858985
-0.6541234254087208 0.18305315640873004
-0.7262995208839499 0.3032785645304124
-0.7984756163591791 0.42350397265209483
-0.9428278073096373 0.3734100526013938
-1.1016152173551415 -0.09747279587519554
-1.2026617510204622 -0.8689191646559908
-1.2170969701155079 -1.6503843174469264
-1.0871799982600956 -2.4118119022175817
-0.8706517118344081 -3.1131267829273956
-0.7262995208839499 -3.734291391556088
-0.6252529872186291 -4.3253996481543595
-0.5675121108384459 -4.84637641668165
-0.5242064535533083 -5.176996289016277
-0.45203035807807923 -5.277184129117678
-0.42315991988798757 -5.297221697137959
-0.3654190435078043 -5.257146561097398
-0.23550207165239184 -5.116883584955436
0.08207274843861631 -4.7662261446005285
0.5728701976701743 -3.9747422077994528
1.2368902760422824 -2.732412990542068
1.7709933825589779 -1.4600274212542625
2.1896147363153067 -0.4280926682098221
2.1463090790301695 0.04279018026676725
1.9153455735094362 0.2632034284898516
1.5689003152283363 0.36339126859125365
1.020361989616595 0.36339126859125365
0.44295322581476193 0.40346640463181443
0.11094318662870796 0.5136730287433566
-0.12002031889202525 0.6038420848346184
-0.30767816712762097 0.633898436865039
-0.40872470079294176 0.633898436865039
-0.4375951389830334 0.6439172208751792
-0.35098382441275844 0.633898436865039
-0.30767816712762097 0.6539360048853194
-0.30767816712762097 0.6439172208751792
-0.3654190435078043 0.6739735729055998
-0.42315991988798757 0.6639547888954596
-0.4375951389830334 0.7040299249360205
-0.3798542626028501 0.7040299249360205
-0.3654190435078043 0.7140487089461606
-0.3221133862226668 0.7240674929563008
-0.29324294803257517 0.7140487089461606
-0.29324294803257517 0.7040299249360205
-0.2643725098424835 0.7040299249360205
-0.2643725098424835 0.6739735729055998
-0.2643725098424835 0.68399235691574
-0.30767816712762097 0.6739735729055998
-0.42315991988798757 0.6539360048853194
-0.3942894816978959 0.6639547888954596
-0.35098382441275844 0.7040299249360205
-0.29324294803257517 0.734086276966441
-0.23550207165239184 0.7541238449867214
-0.2066316334623002 0.7541238449867214
-0.2066316334623002 0.7140487089461606
-0.22106685255734604 0.6739735729055998
-0.29324294803257517 0.633898436865039
-0.24993729074743767 0.633898436865039
-0.3221133862226668 0.6138608688447587
-0.33654860531771263 0.6138608688447587
-0.35098382441275844 0.633898436865039
-0.35098382441275844 0.6238796528548988
-0.30767816712762097 0.68399235691574
-0.2788077289375293 0.6940111409258802
-0.23550207165239184 0.7240674929563008
-0.17776119527220854 0.68399235691574
-0.1633259761771627 0.6739735729055998
-0.23550207165239184 0.6539360048853194
-0.29324294803257517 0.6539360048853194
-0.24993729074743767 0.6639547888954596
-0.2066316334623002 0.7140487089461606
-0.22106685255734604 0.68399235691574
-0.24993729074743767 0.6739735729055998
-0.24993729074743767 0.6539360048853194
-0.22106685255734604 0.6639547888954596
-0.1633259761771627 0.6739735729055998
-0.13445553798707108 0.6138608688447587
-0.10558509979697943 0.5938233008244782
-0.0911498807019336 0.5737857328041979
-0.0911498807019336 0.5737857328041979
-0.10558509979697943 0.5938233008244782
-0.0911498807019336 0.6238796528548988
-0.07671466160688777 0.6439172208751792
-0.07671466160688777 0.6238796528548988
-0.07671466160688777 0.5637669487940576
-0.10558509979697943 0.5236918127534969
-0.07671466160688777 0.5236918127534969
-0.03340900432175029 0.5437293807737772
0.03876709115347883 0.5537481647839174
0.03876709115347883 0.533710596763637
0.03876709115347883 0.533710596763637
0.009896652963387181 0.5236918127534969
-0.004538566131658644 0.5136730287433566
0.024331872058433006 0.5236918127534969
0.08207274843861631 0.5036542447332164
0.08207274843861631 0.4435415406723752
0.06763752934357048 0.3934476206216742
0.009896652963387181 0.3533724845811134
0.053202310248524655 0.31329734854055263
0.11094318662870796 0.283240996510132
0.18311928210393708 0.27322221249999185
0.2408601584841204 0.24316586046957123
0.16868406300889127 0.22312829244929083
0.15424884391384544 0.18305315640873004
0.15424884391384544 0.21310950843915064
0.18311928210393708 0.18305315640873004
0.18311928210393708 0.14297802036816926
0.15424884391384544 0.12294045234788885
0.12537840572375378 0.07284653229718785
0.09650796753366213 0.022752612246486857
0.15424884391384544 0.022752612246486857
0.1975545011989829 0.022752612246486857
0.28416581576925787 0.022752612246486857
0.29860103486430367 -0.01732252379407394
0.2408601584841204 -0.06741644384477494
0.16868406300889127 -0.11751036389547594
0.15424884391384544 -0.09747279587519554
0.16868406300889127 -0.09747279587519554
0.18311928210393708 -0.10749157988533574
0.16868406300889127 -0.14756671592589654
0.16868406300889127 -0.18764185196645733
0.21198972029402874 -0.18764185196645733
0.2408601584841204 -0.17762306795631713
0.29860103486430367 -0.14756671592589654
0.29860103486430367 -0.14756671592589654
0.2552953775791662 -0.16760428394617694
0.18311928210393708 -0.14756671592589654
0.09650796753366213 -0.15758549993603674
0.03876709115347883 -0.11751036389547594
0.03876709115347883 -0.07743522785491513
0.024331872058433006 -0.05739765983463474
0.024331872058433006 -0.09747279587519554
0.024331872058433006 -0.12752914790561615
-0.03340900432175029 -0.12752914790561615
-0.047844223416796124 -0.03736009181435434
-0.03340900432175029 0.032771396256627054
-0.047844223416796124 0.08286531630732805
-0.0911498807019336 0.06282774828704765
-0.1488907570821169 0.04279018026676725
-0.22106685255734604 0.012733828236346657
-0.24993729074743767 0.012733828236346657
-0.24993729074743767 0.012733828236346657
-0.2066316334623002 0.022752612246486857
-0.23550207165239184 0.022752612246486857
-0.24993729074743767 0.002715044226206457
-0.30767816712762097 0.032771396256627054
-0.23550207165239184 0.06282774828704765
-0.23550207165239184 0.10290288432760845
-0.23550207165239184 0.11292166833774865
-0.2788077289375293 0.12294045234788885
-0.29324294803257517 0.10290288432760845
-0.3798542626028501 0.09288410031746826
-0.40872470079294176 0.14297802036816926
-0.3942894816978959 0.14297802036816926
-0.3654190435078043 0.15299680437830945
-0.3942894816978959 0.13295923635802906
-0.3654190435078043 0.14297802036816926
-0.40872470079294176 0.16301558838844965
-0.42315991988798757 0.22312829244929083
-0.3798542626028501 0.25318464447971145
-0.35098382441275844 0.3032785645304124
-0.3942894816978959 0.2632034284898516
-0.4375951389830334 0.2632034284898516
-0.4809007962681709 0.2632034284898516
-0.4953360153632167 0.2632034284898516
-0.4809007962681709 0.2632034284898516
-0.4953360153632167 0.2632034284898516
-0.5242064535533083 0.25318464447971145
-0.5097712344582626 0.29325978052027224
-0.5530768917434 0.283240996510132
-0.46646557717312503 0.3734100526013938
-0.45203035807807923 0.3533724845811134
-0.45203035807807923 0.32331613255069286
-0.4375951389830334 0.3032785645304124
-0.46646557717312503 0.29325978052027224
-0.5242064535533083 0.3032785645304124
-0.5675121108384459 0.32331613255069286
-0.5530768917434 0.31329734854055263
-0.5386416726483542 0.31329734854055263
-0.5386416726483542 0.3032785645304124
-0.5242064535533083 0.2632034284898516
-0.5675121108384459 0.27322221249999185
-0.5386416726483542 0.3032785645304124
-0.5386416726483542 0.34335370057097325
-0.5242064535533083 0.3533724845811134
-0.5819473299334916 0.3533724845811134
-0.5963825490285375 0.31329734854055263
-0.639688206313675 0.31329734854055263
-0.639688206313675 0.34335370057097325
-0.6252529872186291 0.34335370057097325
-0.5242064535533083 0.36339126859125365
-0.5097712344582626 0.38342883661153404
-0.4953360153632167 0.3734100526013938
-0.5386416726483542 0.3533724845811134
-0.5675121108384459 0.32331613255069286
-0.5963825490285375 0.33333491656083303
-0.6108177681235833 0.3533724845811134
-0.6252529872186291 0.31329734854055263
-0.6685586445037666 0.25318464447971145
-0.6685586445037666 0.24316586046957123
-0.639688206313675 0.283240996510132
-0.6108177681235833 0.31329734854055263
-0.5530768917434 0.3032785645304124
-0.5097712344582626 0.2632034284898516
-0.5386416726483542 0.2632034284898516
-0.5675121108384459 0.25318464447971145
-0.5675121108384459 0.24316586046957123
-0.5386416726483542 0.22312829244929083
-0.5530768917434 0.25318464447971145
-0.5675121108384459 0.25318464447971145
-0.5530768917434 0.25318464447971145
-0.5819473299334916 0.22312829244929083
-0.5242064535533083 0.21310950843915064
-0.4953360153632167 0.21310950843915064
-0.4375951389830334 0.21310950843915064
-0.42315991988798757 0.18305315640873004
-0.45203035807807923 0.19307194041887024
-0.4953360153632167 0.21310950843915064
-0.5530768917434 0.25318464447971145
-0.5530768917434 0.2632034284898516
-0.5242064535533083 0.21310950843915064
-0.5097712344582626 0.17303437239858985
-0.5097712344582626 0.18305315640873004
-0.4953360153632167 0.15299680437830945
-0.4809007962681709 0.15299680437830945
-0.46646557717312503 0.16301558838844965
-0.42315991988798757 0.16301558838844965
-0.42315991988798757 0.17303437239858985
-0.4809007962681709 0.17303437239858985
-0.4953360153632167 0.18305315640873004
-0.4375951389830334 0.22312829244929083
-0.3942894816978959 0.24316586046957123
-0.3798542626028501 0.29325978052027224
-0.3654190435078043 0.27322221249999185
-0.3654190435078043 0.2632034284898516
-0.35098382441275844 0.27322221249999185
-0.35098382441275844 0.29325978052027224
-0.30767816712762097 0.34335370057097325
-0.22106685255734604 0.38342883661153404
-0.2066316334623002 0.40346640463181443
-0.13445553798707108 0.38342883661153404
-0.13445553798707108 0.32331613255069286
-0.0911498807019336 0.3533724845811134
-0.047844223416796124 0.38342883661153404
-0.018973785226704468 0.40346640463181443
-0.03340900432175029 0.42350397265209483
-0.03340900432175029 0.4134851886419546
-0.10558509979697943 0.4134851886419546
-0.07671466160688777 0.49363546072307624
-0.03340900432175029 0.5236918127534969
0.024331872058433006 0.5036542447332164
0.024331872058433006 0.42350397265209483
-0.03340900432175029 0.25318464447971145
-0.1488907570821169 0.10290288432760845
-0.19219641436725438 0.022752612246486857
-0.22106685255734604 0.012733828236346657
-0.22106685255734604 -0.01732252379407394
-0.24993729074743767 -0.027341307804214142
-0.30767816712762097 0.012733828236346657
-0.33654860531771263 0.012733828236346657
-0.3221133862226668 0.06282774828704765
-0.33654860531771263 0.09288410031746826
-0.30767816712762097 0.032771396256627054
-0.3221133862226668 -0.05739765983463474
-0.3654190435078043 -0.09747279587519554
-0.46646557717312503 -0.07743522785491513
-0.46646557717312503 -0.05739765983463474
-0.46646557717312503 0.012733828236346657
-0.42315991988798757 0.06282774828704765
-0.40872470079294176 0.012733828236346657
-0.3942894816978959 -0.01732252379407394
-0.42315991988798757 -0.08745401186505533
-0.40872470079294176 -0.09747279587519554
-0.42315991988798757 -0.07743522785491513
-0.42315991988798757 -0.09747279587519554
-0.4953360153632167 -0.12752914790561615
-0.5675121108384459 -0.15758549993603674
-0.6252529872186291 -0.18764185196645733
-0.639688206313675 -0.15758549993603674
-0.5819473299334916 -0.16760428394617694
-0.5675121108384459 -0.18764185196645733
-0.5675121108384459 -0.20767941998673772
-0.5386416726483542 -0.24775455602729854
-0.5819473299334916 -0.24775455602729854
-0.5675121108384459 -0.16760428394617694
-0.5819473299334916 -0.15758549993603674
-0.5386416726483542 -0.13754793191575634
-0.5386416726483542 -0.16760428394617694
-0.5675121108384459 -0.20767941998673772
-0.5530768917434 -0.22771698800701812
-0.5819473299334916 -0.19766063597659753
-0.5097712344582626 -0.15758549993603674
-0.46646557717312503 -0.11751036389547594
-0.42315991988798757 -0.07743522785491513
-0.42315991988798757 -0.06741644384477494
-0.45203035807807923 -0.05739765983463474
-0.3942894816978959 0.012733828236346657
-0.3942894816978959 0.10290288432760845
-0.33654860531771263 0.13295923635802906
-0.33654860531771263 0.18305315640873004
-0.33654860531771263 0.19307194041887024
-0.30767816712762097 0.17303437239858985
-0.30767816712762097 0.25318464447971145
-0.2643725098424835 0.25318464447971145
-0.19219641436725438 0.283240996510132
-0.22106685255734604 0.2632034284898516
-0.17776119527220854 0.25318464447971145
-0.2066316334623002 0.22312829244929083
-0.1633259761771627 0.21310950843915064
-0.1633259761771627 0.23314707645943103
-0.1633259761771627 0.25318464447971145
-0.1633259761771627 0.22312829244929083
-0.19219641436725438 0.22312829244929083
-0.19219641436725438 0.24316586046957123
-0.1633259761771627 0.2632034284898516
-0.0911498807019336 0.29325978052027224
-0.03340900432175029 0.27322221249999185
-0.047844223416796124 0.23314707645943103
-0.10558509979697943 0.19307194041887024
-0.1633259761771627 0.19307194041887024
-0.12002031889202525 0.27322221249999185
-0.12002031889202525 0.33333491656083303
-0.10558509979697943 0.38342883661153404
-0.047844223416796124 0.38342883661153404
-0.12002031889202525 0.38342883661153404
-0.23550207165239184 0.3934476206216742
-0.3221133862226668 0.25318464447971145
-0.3654190435078043 -0.23773577201715831
-0.33654860531771263 -1.0091821407979538
-0.24993729074743767 -1.8207036456193098
-0.12002031889202525 -2.6021687984102453
-0.018973785226704468 -3.34355881516062
0.1398136248187996 -4.004798559829873
0.26973059667421206 -4.555831680387584
0.39964756852962446 -4.916507904752631
0.356341911244487 -5.076808448914875
0.3419066921494412 -5.116883584955436
0.32747147305439533 -5.066789664904735
0.44295322581476193 -4.7862637126208085
0.8471393604760451 -4.215193024042818
1.3668072478976947 -3.183258270998377
1.9730864498896195 -1.9108727017105716
2.3484021463608107 -0.7887688925748693
2.4927543373112693 -0.13754793191575634
2.435013460931086 0.20309072442901044
2.3050964890756735 0.3934476206216742
2.016392107174757 0.5136730287433566
1.5544650961332904 0.5036542447332164
0.9626211132364116 0.5637669487940576
0.5295645403850369 0.6439172208751792
0.26973059667421206 0.7641426289968616
0.09650796753366213 0.8442929010779832
0.12537840572375378 0.8543116850881234
0.09650796753366213 0.834274117067843
0.11094318662870796 0.8142365490475626
0.08207274843861631 0.834274117067843
0.1398136248187996 0.834274117067843
0.1975545011989829 0.8543116850881234
0.1975545011989829 0.8943868211286842
0.21198972029402874 0.8743492531084038
0.16868406300889127 0.834274117067843
0.11094318662870796 0.8042177650374224
0.12537840572375378 0.8142365490475626
0.09650796753366213 0.8242553330577028
0.16868406300889127 0.834274117067843
0.1975545011989829 0.784180197017142
0.1975545011989829 0.784180197017142
0.18311928210393708 0.8042177650374224
0.21198972029402874 0.8142365490475626
0.2408601584841204 0.8442929010779832
0.26973059667421206 0.8543116850881234
0.2408601584841204 0.8743492531084038
0.1975545011989829 0.8543116850881234
0.18311928210393708 0.8743492531084038
0.22642493938907457 0.9044056051388244
0.22642493938907457 0.9044056051388244
0.26973059667421206 0.8643304690982636
0.28416581576925787 0.8543116850881234
0.29860103486430367 0.7941989810272821
0.26973059667421206 0.784180197017142
0.29860103486430367 0.8242553330577028
0.32747147305439533 0.834274117067843
0.356341911244487 0.8543116850881234
0.29860103486430367 0.8442929010779832
0.31303625395934953 0.8442929010779832
0.28416581576925787 0.834274117067843
0.28416581576925787 0.8743492531084038
0.356341911244487 0.8743492531084038
0.38521234943457866 0.8743492531084038
0.3707771303395328 0.8142365490475626
0.356341911244487 0.7741614130070018
0.356341911244487 0.7641426289968616
0.41408278762467027 0.8042177650374224
0.4718236640048536 0.8442929010779832
0.4862588830998994 0.884368037118544
0.4862588830998994 0.8643304690982636
0.44295322581476193 0.8442929010779832
0.356341911244487 0.8142365490475626
0.41408278762467027 0.8543116850881234
0.5006941021949453 0.884368037118544
0.6161758549553118 0.8543116850881234
0.6161758549553118 0.7941989810272821
0.6306110740503577 0.7641426289968616
0.6161758549553118 0.7441050609765812
0.6161758549553118 0.7641426289968616
0.6161758549553118 0.7741614130070018
0.6450462931454035 0.7541238449867214
0.601740635860266 0.7140487089461606
0.601740635860266 0.7040299249360205
0.5151293212899911 0.68399235691574
0.5728701976701743 0.7240674929563008
0.6450462931454035 0.734086276966441
0.7316576077156784 0.7541238449867214
0.7172223886206326 0.7641426289968616
0.7605280459057701 0.7040299249360205
0.7460928268107243 0.6238796528548988
0.7172223886206326 0.583804516814338
0.7316576077156784 0.5637669487940576
0.7749632650008159 0.5537481647839174
0.7460928268107243 0.5036542447332164
0.7172223886206326 0.5036542447332164
0.7172223886206326 0.483616676712936
0.8471393604760451 0.49363546072307624
0.8904450177611826 0.45356032468251545
0.9193154559512742 0.42350397265209483
0.93375067504632 0.34335370057097325
0.8615745795710908 0.29325978052027224
0.7893984840958618 0.3032785645304124
0.8038337031909076 0.3533724845811134
0.8182689222859534 0.38342883661153404
0.8615745795710908 0.36339126859125365
0.8471393604760451 0.283240996510132
0.8182689222859534 0.20309072442901044
0.8038337031909076 0.13295923635802906
0.8327041413809992 0.14297802036816926
0.8904450177611826 0.18305315640873004
0.9048802368562283 0.18305315640873004
0.9481858941413658 0.12294045234788885
0.8760097986661367 0.10290288432760845
0.8615745795710908 0.08286531630732805
0.8471393604760451 0.13295923635802906
0.8615745795710908 0.15299680437830945
0.8904450177611826 0.17303437239858985
0.8471393604760451 0.13295923635802906
0.7893984840958618 0.08286531630732805
0.7893984840958618 0.032771396256627054
0.7893984840958618 0.04279018026676725
0.8038337031909076 0.08286531630732805
0.8327041413809992 0.09288410031746826
0.8182689222859534 0.09288410031746826
0.7605280459057701 0.10290288432760845
0.7316576077156784 0.09288410031746826
0.7027871695255868 0.16301558838844965
0.7027871695255868 0.16301558838844965
0.6739167313354951 0.16301558838844965
0.6306110740503577 0.13295923635802906
0.5439997594800827 0.10290288432760845
0.4573884449098078 0.07284653229718785
0.4285180067197161 0.13295923635802906
0.44295322581476193 0.13295923635802906
0.5006941021949453 0.18305315640873004
0.5006941021949453 0.21310950843915064
0.4862588830998994 0.18305315640873004
0.4285180067197161 0.20309072442901044
0.41408278762467027 0.24316586046957123
0.38521234943457866 0.2632034284898516
0.28416581576925787 0.25318464447971145
0.26973059667421206 0.25318464447971145
0.18311928210393708 0.24316586046957123
0.1398136248187996 0.22312829244929083
0.12537840572375378 0.22312829244929083
0.1398136248187996 0.2632034284898516
0.1975545011989829 0.27322221249999185
0.22642493938907457 0.283240996510132
0.18311928210393708 0.2632034284898516
0.1398136248187996 0.2632034284898516
0.12537840572375378 0.27322221249999185
0.053202310248524655 0.283240996510132
0.11094318662870796 0.3032785645304124
0.06763752934357048 0.27322221249999185
-0.004538566131658644 0.27322221249999185
-0.03340900432175029 0.283240996510132
0.009896652963387181 0.34335370057097325
0.03876709115347883 0.34335370057097325
0.12537840572375378 0.38342883661153404
0.12537840572375378 0.32331613255069286
0.09650796753366213 0.31329734854055263
0.08207274843861631 0.29325978052027224
0.053202310248524655 0.31329734854055263
0.053202310248524655 0.36339126859125365
0.03876709115347883 0.3734100526013938
-0.018973785226704468 0.3734100526013938
-0.07671466160688777 0.38342883661153404
-0.10558509979697943 0.34335370057097325
-0.06227944251184195 0.3734100526013938
-0.03340900432175029 0.3934476206216742
0.009896652963387181 0.42350397265209483
-0.03340900432175029 0.3934476206216742
-0.047844223416796124 0.3734100526013938
-0.047844223416796124 0.38342883661153404
-0.047844223416796124 0.4134851886419546
-0.0911498807019336 0.4435415406723752
-0.07671466160688777 0.43352275666223505
-0.10558509979697943 0.42350397265209483
-0.1488907570821169 0.3934476206216742
-0.17776119527220854 0.38342883661153404
-0.1633259761771627 0.4435415406723752
-0.12002031889202525 0.47359789270279584
-0.12002031889202525 0.47359789270279584
-0.0911498807019336 0.45356032468251545
-0.10558509979697943 0.4134851886419546
-0.13445553798707108 0.40346640463181443
-0.1633259761771627 0.4134851886419546
-0.13445553798707108 0.42350397265209483
-0.1633259761771627 0.43352275666223505
-0.19219641436725438 0.42350397265209483
-0.24993729074743767 0.42350397265209483
-0.2788077289375293 0.3934476206216742
-0.29324294803257517 0.43352275666223505
-0.24993729074743767 0.483616676712936
-0.23550207165239184 0.483616676712936
-0.22106685255734604 0.45356032468251545
-0.2788077289375293 0.3934476206216742
-0.29324294803257517 0.38342883661153404
-0.29324294803257517 0.38342883661153404
-0.2788077289375293 0.3934476206216742
-0.2643725098424835 0.4134851886419546
-0.30767816712762097 0.42350397265209483
-0.3221133862226668 0.4134851886419546
-0.3942894816978959 0.42350397265209483
-0.40872470079294176 0.4635791086926556
-0.3654190435078043 0.4635791086926556
-0.3798542626028501 0.47359789270279584
-0.33654860531771263 0.4435415406723752
-0.3798542626028501 0.4134851886419546
-0.42315991988798757 0.3934476206216742
-0.40872470079294176 0.40346640463181443
-0.3654190435078043 0.3934476206216742
-0.3798542626028501 0.3934476206216742
-0.33654860531771263 0.3533724845811134
-0.3654190435078043 0.31329734854055263
-0.3942894816978959 0.27322221249999185
-0.35098382441275844 0.3032785645304124
-0.3654190435078043 0.29325978052027224
-0.35098382441275844 0.31329734854055263
-0.3798542626028501 0.3032785645304124
-0.3798542626028501 0.27322221249999185
-0.45203035807807923 0.283240996510132
-0.4375951389830334 0.31329734854055263
-0.3654190435078043 0.3533724845811134
-0.3221133862226668 0.3734100526013938
-0.30767816712762097 0.32331613255069286
-0.35098382441275844 0.32331613255069286
-0.3654190435078043 0.283240996510132
-0.35098382441275844 0.27322221249999185
-0.3654190435078043 0.27322221249999185
-0.3654190435078043 0.2632034284898516
-0.3942894816978959 0.2632034284898516
-0.45203035807807923 0.2632034284898516
-0.4375951389830334 0.27322221249999185
-0.4375951389830334 0.29325978052027224
-0.3654190435078043 0.33333491656083303
-0.29324294803257517 0.3533724845811134
-0.29324294803257517 0.38342883661153404
-0.3221133862226668 0.32331613255069286
-0.33654860531771263 0.2632034284898516
-0.35098382441275844 0.25318464447971145
-0.30767816712762097 0.27322221249999185
-0.29324294803257517 0.31329734854055263
-0.24993729074743767 0.34335370057097325
-0.29324294803257517 0.34335370057097325
-0.22106685255734604 0.3533724845811134
-0.1633259761771627 0.34335370057097325
-0.12002031889202525 0.3533724845811134
-0.018973785226704468 0.3734100526013938
0.03876709115347883 0.3734100526013938
0.03876709115347883 0.3533724845811134
0.024331872058433006 0.3533724845811134
-0.03340900432175029 0.3934476206216742
-0.06227944251184195 0.42350397265209483
-0.06227944251184195 0.45356032468251545
-0.06227944251184195 0.47359789270279584
-0.047844223416796124 0.43352275666223505
-0.07671466160688777 0.38342883661153404
-0.1488907570821169 0.34335370057097325
-0.12002031889202525 0.25318464447971145
-0.0911498807019336 0.14297802036816926
-0.07671466160688777 0.012733828236346657
-0.12002031889202525 -0.06741644384477494
-0.17776119527220854 -0.07743522785491513
-0.1633259761771627 -0.04737887582449454
-0.2066316334623002 -0.04737887582449454
-0.22106685255734604 -0.03736009181435434
-0.2788077289375293 -0.007303739783933743
-0.3654190435078043 -0.007303739783933743
-0.4375951389830334 0.002715044226206457
-0.4809007962681709 -0.007303739783933743
-0.4953360153632167 -0.04737887582449454
-0.45203035807807923 -0.03736009181435434
-0.45203035807807923 -0.03736009181435434
-0.45203035807807923 -0.10749157988533574
-0.5097712344582626 -0.12752914790561615
-0.46646557717312503 -0.08745401186505533
-0.42315991988798757 -0.07743522785491513
-0.4375951389830334 -0.06741644384477494
-0.4375951389830334 -0.08745401186505533
-0.4953360153632167 -0.09747279587519554
-0.5386416726483542 -0.09747279587519554
-0.5386416726483542 -0.06741644384477494
-0.5675121108384459 -0.04737887582449454
-0.5097712344582626 -0.03736009181435434
-0.5819473299334916 -0.11751036389547594
-0.5819473299334916 -0.16760428394617694
-0.6108177681235833 -0.21769820399687792
-0.6108177681235833 -0.20767941998673772
-0.5963825490285375 -0.24775455602729854
-0.5963825490285375 -0.21769820399687792
-0.5819473299334916 -0.21769820399687792
-0.6685586445037666 -0.25777334003743874
-0.7407347399789957 -0.2677921240475789
-0.7262995208839499 -0.24775455602729854
-0.7551699590740416 -0.23773577201715831
-0.7262995208839499 -0.25777334003743874
-0.7696051781690874 -0.2677921240475789
-0.7984756163591791 -0.32790482810842014
-0.8706517118344081 -0.2978484760779995
-0.8562164927393623 -0.2677921240475789
-0.7840403972641332 -0.23773577201715831
-0.7407347399789957 -0.23773577201715831
-0.7407347399789957 -0.25777334003743874
-0.7551699590740416 -0.2978484760779995
-0.7984756163591791 -0.30786726008813975
-0.7262995208839499 -0.27781090805771913
-0.6974290826938583 -0.22771698800701812
-0.6541234254087208 -0.19766063597659753
-0.6685586445037666 -0.21769820399687792
-0.6974290826938583 -0.24775455602729854
-0.7407347399789957 -0.24775455602729854
-0.7407347399789957 -0.19766063597659753
-0.6974290826938583 -0.15758549993603674
-0.6685586445037666 -0.16760428394617694
-0.6108177681235833 -0.14756671592589654
-0.639688206313675 -0.08745401186505533
-0.5819473299334916 -0.06741644384477494
-0.5386416726483542 -0.007303739783933743
-0.4953360153632167 0.07284653229718785
-0.45203035807807923 0.07284653229718785
-0.4375951389830334 0.08286531630732805
-0.5097712344582626 0.022752612246486857
-0.5386416726483542 0.022752612246486857
-0.5963825490285375 0.022752612246486857
-0.5675121108384459 0.08286531630732805
-0.4809007962681709 0.10290288432760845
-0.5242064535533083 0.12294045234788885
-0.5242064535533083 0.12294045234788885
-0.4953360153632167 0.11292166833774865
-0.4953360153632167 0.14297802036816926
-0.4375951389830334 0.10290288432760845
-0.3798542626028501 0.12294045234788885
-0.4375951389830334 0.10290288432760845
-0.4375951389830334 0.08286531630732805
-0.5097712344582626 0.032771396256627054
-0.4809007962681709 0.07284653229718785
-0.4809007962681709 0.10290288432760845
-0.42315991988798757 0.14297802036816926
-0.4809007962681709 0.14297802036816926
-0.45203035807807923 0.11292166833774865
-0.45203035807807923 0.10290288432760845
-0.3942894816978959 0.12294045234788885
-0.3654190435078043 0.12294045234788885
-0.33654860531771263 0.14297802036816926
-0.3221133862226668 0.15299680437830945
-0.42315991988798757 0.16301558838844965
-0.45203035807807923 0.17303437239858985
-0.4809007962681709 0.20309072442901044
-0.5386416726483542 0.2632034284898516
-0.5819473299334916 0.31329734854055263
-0.6829938635988124 0.31329734854055263
-0.8273460545492707 0.16301558838844965
-0.9716982454997289 -0.14756671592589654
-1.0583095600700039 -0.6685434844531869
-1.0005686836898207 -1.1895202529804774
-0.8995221500244999 -1.7104970215077677
-0.7984756163591791 -2.271548926075619
-0.7407347399789957 -2.82258204663333
-0.6685586445037666 -3.3635963831809006
-0.5530768917434 -3.884573151708191
-0.5097712344582626 -4.34543721617464
-0.40872470079294176 -4.746188576580248
-0.33654860531771263 -5.046752096884454
-0.35098382441275844 -5.2270902090669775
-0.33654860531771263 -5.297221697137959
-0.2788077289375293 -5.287202913127818
-0.2066316334623002 -5.2270902090669775
-0.004538566131658644 -5.076808448914875
0.29860103486430367 -4.7862637126208085
0.6739167313354951 -4.205174240032677
1.1214085232819158 -3.3335400311504797
1.6410764107035654 -2.201417438004637
2.001956888079711 -1.0993511968892156
2.276226050885582 -0.3980363161794015
2.2906612699806277 0.032771396256627054
2.117438640840078 0.25318464447971145
1.9442160116995277 0.3734100526013938
1.6122059725134739 0.4635791086926556
1.1935846187571448 0.47359789270279584
0.7749632650008159 0.4435415406723752
0.3707771303395328 0.4635791086926556
0.11094318662870796 0.5236918127534969
-0.10558509979697943 0.5737857328041979
-0.19219641436725438 0.6639547888954596
-0.2643725098424835 0.7140487089461606
-0.23550207165239184 0.7140487089461606
-0.24993729074743767 0.7140487089461606
-0.3221133862226668 0.7040299249360205
-0.35098382441275844 0.7040299249360205
-0.33654860531771263 0.6940111409258802
-0.30767816712762097 0.6940111409258802
-0.2643725098424835 0.6739735729055998
-0.2788077289375293 0.6539360048853194
-0.3221133862226668 0.633898436865039
-0.35098382441275844 0.6539360048853194
-0.3654190435078043 0.6940111409258802
-0.2788077289375293 0.7140487089461606
-0.2643725098424835 0.734086276966441
-0.22106685255734604 0.6940111409258802
-0.22106685255734604 0.6739735729055998
-0.24993729074743767 0.6539360048853194
-0.24993729074743767 0.68399235691574
-0.2788077289375293 0.6940111409258802
-0.2643725098424835 0.6940111409258802
-0.2788077289375293 0.68399235691574
-0.29324294803257517 0.633898436865039
-0.3221133862226668 0.6238796528548988
-0.30767816712762097 0.6439172208751792
-0.30767816712762097 0.68399235691574
-0.24993729074743767 0.7140487089461606
-0.1633259761771627 0.7240674929563008
-0.19219641436725438 0.7441050609765812
-0.23550207165239184 0.68399235691574
-0.22106685255734604 0.7140487089461606
-0.23550207165239184 0.68399235691574
-0.24993729074743767 0.68399235691574
-0.2643725098424835 0.6439172208751792
-0.33654860531771263 0.6238796528548988
-0.33654860531771263 0.633898436865039
-0.24993729074743767 0.68399235691574
-0.23550207165239184 0.6739735729055998
-0.1633259761771627 0.6439172208751792
-0.12002031889202525 0.633898436865039
-0.12002031889202525 0.6639547888954596
-0.1633259761771627 0.6639547888954596
-0.17776119527220854 0.6739735729055998
-0.19219641436725438 0.68399235691574
-0.2066316334623002 0.6940111409258802
-0.2066316334623002 0.6940111409258802
-0.24993729074743767 0.6539360048853194
-0.2643725098424835 0.6238796528548988
-0.17776119527220854 0.6238796528548988
-0.1488907570821169 0.6639547888954596
-0.0911498807019336 0.6739735729055998
-0.047844223416796124 0.6539360048853194
-0.06227944251184195 0.6138608688447587
-0.0911498807019336 0.6038420848346184
-0.13445553798707108 0.6639547888954596
-0.07671466160688777 0.6539360048853194
-0.07671466160688777 0.68399235691574
-0.06227944251184195 0.68399235691574
-0.13445553798707108 0.6639547888954596
-0.10558509979697943 0.633898436865039
-0.0911498807019336 0.6539360048853194
-0.047844223416796124 0.6238796528548988
0.03876709115347883 0.583804516814338
0.03876709115347883 0.5537481647839174
0.08207274843861631 0.47359789270279584
0.03876709115347883 0.4635791086926556
0.06763752934357048 0.5437293807737772
0.024331872058433006 0.583804516814338
0.06763752934357048 0.5637669487940576
0.09650796753366213 0.5236918127534969
0.09650796753366213 0.45356032468251545
0.12537840572375378 0.42350397265209483
0.1398136248187996 0.4635791086926556
0.16868406300889127 0.45356032468251545
0.1975545011989829 0.4134851886419546
0.2408601584841204 0.3533724845811134
0.22642493938907457 0.29325978052027224
0.18311928210393708 0.27322221249999185
0.21198972029402874 0.283240996510132
0.2552953775791662 0.27322221249999185
0.29860103486430367 0.25318464447971145
0.28416581576925787 0.21310950843915064
0.2408601584841204 0.13295923635802906
0.1975545011989829 0.09288410031746826
0.21198972029402874 0.08286531630732805
0.26973059667421206 0.08286531630732805
0.28416581576925787 0.07284653229718785
0.31303625395934953 -0.007303739783933743
0.3419066921494412 -0.03736009181435434
0.31303625395934953 -0.06741644384477494
0.29860103486430367 -0.03736009181435434
0.31303625395934953 -0.01732252379407394
0.29860103486430367 -0.06741644384477494
0.26973059667421206 -0.09747279587519554
0.2408601584841204 -0.13754793191575634
0.26973059667421206 -0.13754793191575634
0.28416581576925787 -0.11751036389547594
0.31303625395934953 -0.08745401186505533
0.38521234943457866 -0.08745401186505533
0.38521234943457866 -0.08745401186505533
0.356341911244487 -0.13754793191575634
0.28416581576925787 -0.16760428394617694
0.2552953775791662 -0.17762306795631713
0.1975545011989829 -0.15758549993603674
0.1975545011989829 -0.17762306795631713
0.09650796753366213 -0.15758549993603674
0.053202310248524655 -0.13754793191575634
0.053202310248524655 -0.14756671592589654
0.09650796753366213 -0.12752914790561615
0.09650796753366213 -0.10749157988533574
0.11094318662870796 -0.10749157988533574
0.03876709115347883 -0.10749157988533574
-0.018973785226704468 -0.09747279587519554
-0.10558509979697943 -0.08745401186505533
-0.1488907570821169 -0.027341307804214142
-0.17776119527220854 -0.007303739783933743
-0.1633259761771627 0.032771396256627054
-0.19219641436725438 0.022752612246486857
-0.17776119527220854 0.022752612246486857
-0.22106685255734604 0.04279018026676725
-0.23550207165239184 0.08286531630732805
-0.22106685255734604 0.12294045234788885
-0.2643725098424835 0.12294045234788885
-0.2788077289375293 0.07284653229718785
-0.3798542626028501 0.06282774828704765
-0.3798542626028501 0.09288410031746826
-0.42315991988798757 0.16301558838844965
-0.3798542626028501 0.16301558838844965
-0.3654190435078043 0.12294045234788885
-0.35098382441275844 0.09288410031746826
-0.40872470079294176 0.09288410031746826
-0.40872470079294176 0.11292166833774865
-0.40872470079294176 0.14297802036816926
-0.42315991988798757 0.16301558838844965
-0.42315991988798757 0.20309072442901044
-0.4375951389830334 0.22312829244929083
-0.46646557717312503 0.23314707645943103
-0.4953360153632167 0.27322221249999185
-0.4953360153632167 0.21310950843915064
-0.4809007962681709 0.18305315640873004
-0.45203035807807923 0.20309072442901044
-0.45203035807807923 0.23314707645943103
-0.5242064535533083 0.24316586046957123
-0.5242064535533083 0.2632034284898516
-0.5386416726483542 0.283240996510132
-0.5386416726483542 0.29325978052027224
-0.5530768917434 0.27322221249999185
-0.5675121108384459 0.25318464447971145
-0.5963825490285375 0.24316586046957123
-0.6108177681235833 0.27322221249999185
-0.5530768917434 0.3032785645304124
-0.5530768917434 0.36339126859125365
-0.4953360153632167 0.3734100526013938
-0.5242064535533083 0.3533724845811134
-0.5963825490285375 0.31329734854055263
-0.6829938635988124 0.25318464447971145
-0.6541234254087208 0.27322221249999185
-0.6685586445037666 0.31329734854055263
-0.639688206313675 0.33333491656083303
-0.6252529872186291 0.33333491656083303
-0.6252529872186291 0.33333491656083303
-0.6541234254087208 0.32331613255069286
-0.6685586445037666 0.34335370057097325
-0.6541234254087208 0.3734100526013938
-0.6829938635988124 0.32331613255069286
-0.6685586445037666 0.29325978052027224
-0.6974290826938583 0.27322221249999185
-0.7696051781690874 0.25318464447971145
-0.7696051781690874 0.29325978052027224
-0.7262995208839499 0.29325978052027224
-0.639688206313675 0.283240996510132
-0.6541234254087208 0.29325978052027224
-0.6685586445037666 0.283240996510132
-0.7118643017889041 0.25318464447971145
-0.7551699590740416 0.24316586046957123
-0.7551699590740416 0.23314707645943103
-0.7551699590740416 0.27322221249999185
-0.7262995208839499 0.3032785645304124
-0.7262995208839499 0.23314707645943103
-0.7118643017889041 0.24316586046957123
-0.6829938635988124 0.25318464447971145
-0.639688206313675 0.2632034284898516
-0.639688206313675 0.27322221249999185
-0.6252529872186291 0.22312829244929083
-0.6829938635988124 0.19307194041887024
-0.7551699590740416 0.19307194041887024
-0.7696051781690874 0.24316586046957123
-0.7262995208839499 0.27322221249999185
-0.6252529872186291 0.25318464447971145
-0.6108177681235833 0.19307194041887024
-0.639688206313675 0.13295923635802906
-0.6829938635988124 0.15299680437830945
-0.6829938635988124 0.18305315640873004
-0.6541234254087208 0.20309072442901044
-0.6685586445037666 0.20309072442901044
-0.6685586445037666 0.18305315640873004
-0.6685586445037666 0.21310950843915064
-0.6829938635988124 0.24316586046957123
-0.6252529872186291 0.29325978052027224
-0.5963825490285375 0.283240996510132
-0.4809007962681709 0.24316586046957123
-0.4375951389830334 0.21310950843915064
-0.40872470079294176 0.23314707645943103
-0.3798542626028501 0.21310950843915064
-0.35098382441275844 0.20309072442901044
-0.2788077289375293 0.24316586046957123
-0.22106685255734604 0.32331613255069286
-0.2066316334623002 0.3533724845811134
-0.2788077289375293 0.3533724845811134
-0.3654190435078043 0.3533724845811134
-0.33654860531771263 0.3934476206216742
-0.2643725098424835 0.3734100526013938
-0.22106685255734604 0.24316586046957123
-0.23550207165239184 0.06282774828704765
-0.3221133862226668 -0.05739765983463474
-0.3798542626028501 -0.14756671592589654
-0.5097712344582626 -0.10749157988533574
-0.4953360153632167 -0.09747279587519554
-0.5097712344582626 -0.07743522785491513
-0.5386416726483542 -0.12752914790561615
-0.6108177681235833 -0.14756671592589654
-0.6685586445037666 -0.17762306795631713
-0.6252529872186291 -0.14756671592589654
-0.639688206313675 -0.09747279587519554
-0.6252529872186291 -0.07743522785491513
-0.7696051781690874 -0.07743522785491513
-0.7984756163591791 -0.10749157988533574
-0.8562164927393623 -0.17762306795631713
-0.8417812736443165 -0.17762306795631713
-0.7984756163591791 -0.16760428394617694
-0.6829938635988124 -0.14756671592589654
-0.6974290826938583 -0.15758549993603674
-0.7262995208839499 -0.21769820399687792
-0.8129108354542248 -0.21769820399687792
-0.8706517118344081 -0.21769820399687792
-0.885086930929454 -0.18764185196645733
-0.885086930929454 -0.21769820399687792
-0.9139573691195456 -0.23773577201715831
-0.9716982454997289 -0.30786726008813975
-0.9428278073096373 -0.3779987481591211
-0.8995221500244999 -0.3980363161794015
-0.885086930929454 -0.4280926682098221
-0.885086930929454 -0.4180738841996819
-0.8706517118344081 -0.4080551001895417
-0.9428278073096373 -0.4280926682098221
-1.0005686836898207 -0.43811145221996234
-1.0005686836898207 -0.3779987481591211
-1.0005686836898207 -0.3579611801388407
-0.9428278073096373 -0.36797996414898093
-0.9139573691195456 -0.3379236121185603
-0.8995221500244999 -0.34794239612870054
-0.8562164927393623 -0.3379236121185603
-0.7984756163591791 -0.2677921240475789
-0.7407347399789957 -0.21769820399687792
-0.7118643017889041 -0.16760428394617694
-0.6829938635988124 -0.14756671592589654
-0.7262995208839499 -0.09747279587519554
-0.7984756163591791 -0.07743522785491513
-0.7262995208839499 -0.027341307804214142
-0.6829938635988124 0.032771396256627054
-0.6108177681235833 0.07284653229718785
-0.5530768917434 0.06282774828704765
-0.5819473299334916 0.032771396256627054
-0.5963825490285375 0.012733828236346657
-0.6108177681235833 0.022752612246486857
-0.6108177681235833 0.06282774828704765
-0.5675121108384459 0.07284653229718785
-0.5530768917434 0.07284653229718785
-0.5530768917434 0.052808964276907455
-0.5242064535533083 0.032771396256627054
-0.5097712344582626 0.04279018026676725
-0.4809007962681709 0.012733828236346657
-0.45203035807807923 0.052808964276907455
-0.46646557717312503 0.08286531630732805
-0.4809007962681709 0.09288410031746826
-0.4953360153632167 0.04279018026676725
-0.4809007962681709 0.032771396256627054
-0.5097712344582626 0.09288410031746826
-0.4809007962681709 0.14297802036816926
-0.5097712344582626 0.18305315640873004
-0.5675121108384459 0.23314707645943103
-0.6541234254087208 0.3032785645304124
-0.7262995208839499 0.38342883661153404
-0.8706517118344081 0.18305315640873004
-1.0150039027848665 -0.45814902024024273
-1.0294391218799122 -1.3598395811528607
-1.0150039027848665 -2.271548926075619
-0.8995221500244999 -3.183258270998377
-0.7262995208839499 -3.9847609918095928
-0.5963825490285375 -4.615944384448426
-0.45203035807807923 -5.046752096884454
-0.40872470079294176 -5.287202913127818
-0.35098382441275844 -5.3573344011988
-0.33654860531771263 -5.327278049168379
-0.19219641436725438 -5.096846016935155
0.2408601584841204 -4.485700192316603
0.9481858941413658 -3.383633951201181
1.597770753418428 -2.1112483819133754
2.117438640840078 -0.8388628126255703
2.2329203936004443 -0.04737887582449454
2.0741329835549402 0.27322221249999185
1.7998638207490696 0.40346640463181443
1.4534185624679696 0.3934476206216742
0.93375067504632 0.3934476206216742
0.4285180067197161 0.45356032468251545
0.12537840572375378 0.5537481647839174
-0.10558509979697943 0.6038420848346184
-0.22106685255734604 0.6238796528548988
-0.22106685255734604 0.633898436865039
-0.2066316334623002 0.6439172208751792
-0.2066316334623002 0.6238796528548988
-0.17776119527220854 0.6439172208751792
-0.1633259761771627 0.6539360048853194
-0.07671466160688777 0.6639547888954596
-0.13445553798707108 0.6539360048853194
-0.0911498807019336 0.6238796528548988
-0.19219641436725438 0.6038420848346184
-0.23550207165239184 0.6238796528548988
-0.22106685255734604 0.68399235691574
-0.1633259761771627 0.7040299249360205
-0.0911498807019336 0.7140487089461606
-0.07671466160688777 0.68399235691574
-0.018973785226704468 0.6539360048853194
-0.004538566131658644 0.6539360048853194
-0.0911498807019336 0.7040299249360205
-0.06227944251184195 0.7441050609765812
-0.03340900432175029 0.7741614130070018
-0.03340900432175029 0.7140487089461606
-0.018973785226704468 0.6739735729055998
-0.047844223416796124 0.6639547888954596
-0.018973785226704468 0.633898436865039
-0.03340900432175029 0.6539360048853194
-0.018973785226704468 0.68399235691574
0.06763752934357048 0.6940111409258802
-0.004538566131658644 0.6940111409258802
-0.047844223416796124 0.6639547888954596
-0.03340900432175029 0.6539360048853194
-0.03340900432175029 0.633898436865039
-0.03340900432175029 0.6439172208751792
-0.03340900432175029 0.633898436865039
0.03876709115347883 0.6238796528548988
0.009896652963387181 0.633898436865039
0.06763752934357048 0.6639547888954596
0.09650796753366213 0.7240674929563008
0.12537840572375378 0.7441050609765812
0.15424884391384544 0.7240674929563008
0.1398136248187996 0.68399235691574
0.12537840572375378 0.633898436865039
0.1398136248187996 0.633898436865039
0.1398136248187996 0.633898436865039
0.18311928210393708 0.6639547888954596
0.1975545011989829 0.633898436865039
0.21198972029402874 0.6439172208751792
0.26973059667421206 0.6439172208751792
0.29860103486430367 0.6940111409258802
0.3707771303395328 0.7140487089461606
0.3707771303395328 0.6940111409258802
0.3419066921494412 0.6238796528548988
0.29860103486430367 0.583804516814338
0.26973059667421206 0.5537481647839174
0.31303625395934953 0.5938233008244782
0.356341911244487 0.6138608688447587
0.41408278762467027 0.583804516814338
0.4718236640048536 0.5537481647839174
0.4862588830998994 0.4635791086926556
0.4573884449098078 0.4435415406723752
0.4862588830998994 0.4435415406723752
0.4718236640048536 0.4435415406723752
0.4862588830998994 0.3934476206216742
0.5006941021949453 0.33333491656083303
0.5151293212899911 0.29325978052027224
0.5151293212899911 0.2632034284898516
0.601740635860266 0.283240996510132
0.6450462931454035 0.27322221249999185
0.7316576077156784 0.21310950843915064
0.7172223886206326 0.14297802036816926
0.6306110740503577 0.04279018026676725
0.5728701976701743 0.012733828236346657
0.5584349785751286 -0.007303739783933743
0.6306110740503577 0.002715044226206457
0.688351950430541 0.012733828236346657
0.7605280459057701 0.002715044226206457
0.8038337031909076 -0.01732252379407394
0.7893984840958618 -0.05739765983463474
0.7893984840958618 -0.08745401186505533
0.8038337031909076 -0.11751036389547594
0.7893984840958618 -0.12752914790561615
0.688351950430541 -0.15758549993603674
0.6739167313354951 -0.16760428394617694
0.6739167313354951 -0.15758549993603674
0.7172223886206326 -0.13754793191575634
0.7893984840958618 -0.10749157988533574
0.7605280459057701 -0.07743522785491513
0.7316576077156784 -0.09747279587519554
0.6739167313354951 -0.12752914790561615
0.601740635860266 -0.11751036389547594
0.5439997594800827 -0.11751036389547594
0.5584349785751286 -0.08745401186505533
0.601740635860266 -0.08745401186505533
0.5584349785751286 -0.05739765983463474
0.4718236640048536 -0.06741644384477494
0.4573884449098078 -0.08745401186505533
0.4573884449098078 -0.027341307804214142
0.41408278762467027 -0.01732252379407394
0.44295322581476193 0.002715044226206457
0.39964756852962446 -0.007303739783933743
0.3419066921494412 0.002715044226206457
0.26973059667421206 0.06282774828704765
0.21198972029402874 0.12294045234788885
0.2552953775791662 0.17303437239858985
0.22642493938907457 0.18305315640873004
0.22642493938907457 0.16301558838844965
0.16868406300889127 0.12294045234788885
0.12537840572375378 0.08286531630732805
0.12537840572375378 0.09288410031746826
0.18311928210393708 0.08286531630732805
0.1975545011989829 0.07284653229718785
0.22642493938907457 0.10290288432760845
0.15424884391384544 0.10290288432760845
0.053202310248524655 0.09288410031746826
0.009896652963387181 0.13295923635802906
-0.03340900432175029 0.19307194041887024
0.024331872058433006 0.22312829244929083
0.06763752934357048 0.25318464447971145
0.08207274843861631 0.3032785645304124
0.03876709115347883 0.2632034284898516
0.053202310248524655 0.23314707645943103
0.009896652963387181 0.25318464447971145
-0.004538566131658644 0.24316586046957123
-0.03340900432175029 0.24316586046957123
-0.10558509979697943 0.25318464447971145
-0.07671466160688777 0.283240996510132
-0.03340900432175029 0.34335370057097325
0.053202310248524655 0.34335370057097325
0.12537840572375378 0.33333491656083303
0.11094318662870796 0.31329734854055263
0.009896652963387181 0.3032785645304124
-0.12002031889202525 0.29325978052027224
-0.1633259761771627 0.3533724845811134
-0.12002031889202525 0.3934476206216742
-0.12002031889202525 0.42350397265209483
-0.06227944251184195 0.38342883661153404
-0.047844223416796124 0.3533724845811134
-0.047844223416796124 0.32331613255069286
-0.06227944251184195 0.33333491656083303
-0.0911498807019336 0.34335370057097325
-0.13445553798707108 0.33333491656083303
-0.1488907570821169 0.3533724845811134
-0.19219641436725438 0.3734100526013938
-0.2066316334623002 0.36339126859125365
-0.17776119527220854 0.40346640463181443
-0.13445553798707108 0.38342883661153404
-0.10558509979697943 0.3734100526013938
-0.06227944251184195 0.32331613255069286
-0.12002031889202525 0.3032785645304124
-0.2643725098424835 0.32331613255069286
-0.2066316334623002 0.3934476206216742
-0.19219641436725438 0.42350397265209483
-0.12002031889202525 0.42350397265209483
-0.10558509979697943 0.33333491656083303
-0.1488907570821169 0.24316586046957123
-0.19219641436725438 0.19307194041887024
-0.1488907570821169 0.23314707645943103
-0.12002031889202525 0.283240996510132
-0.07671466160688777 0.3032785645304124
-0.06227944251184195 0.283240996510132
-0.10558509979697943 0.29325978052027224
-0.1488907570821169 0.2632034284898516
-0.23550207165239184 0.25318464447971145
-0.13445553798707108 0.23314707645943103
-0.0911498807019336 0.21310950843915064
-0.12002031889202525 0.21310950843915064
-0.1633259761771627 0.20309072442901044
-0.0911498807019336 0.24316586046957123
-0.06227944251184195 0.2632034284898516
-0.03340900432175029 0.3032785645304124
-0.018973785226704468 0.29325978052027224
-0.06227944251184195 0.2632034284898516
-0.0911498807019336 0.20309072442901044
-0.10558509979697943 0.16301558838844965
-0.10558509979697943 0.18305315640873004
-0.004538566131658644 0.19307194041887024
0.08207274843861631 0.22312829244929083
0.11094318662870796 0.24316586046957123
0.12537840572375378 0.24316586046957123
0.11094318662870796 0.21310950843915064
0.11094318662870796 0.22312829244929083
0.16868406300889127 0.2632034284898516
0.1975545011989829 0.32331613255069286
0.2408601584841204 0.3734100526013938
0.28416581576925787 0.40346640463181443
0.356341911244487 0.4134851886419546
0.41408278762467027 0.40346640463181443
0.4862588830998994 0.27322221249999185
0.41408278762467027 0.12294045234788885
0.29860103486430367 0.022752612246486857
0.22642493938907457 -0.01732252379407394
0.1398136248187996 -0.04737887582449454
0.12537840572375378 -0.04737887582449454
0.12537840572375378 -0.01732252379407394
0.18311928210393708 -0.01732252379407394
0.21198972029402874 -0.05739765983463474
0.1398136248187996 -0.11751036389547594
0.009896652963387181 -0.15758549993603674
-0.03340900432175029 -0.15758549993603674
-0.047844223416796124 -0.11751036389547594
-0.018973785226704468 -0.05739765983463474
0.024331872058433006 -0.03736009181435434
0.024331872058433006 -0.04737887582449454
-0.004538566131658644 -0.12752914790561615
0.053202310248524655 -0.16760428394617694
0.06763752934357048 -0.12752914790561615
0.11094318662870796 -0.11751036389547594
0.03876709115347883 -0.10749157988533574
-0.047844223416796124 -0.13754793191575634
-0.06227944251184195 -0.18764185196645733
-0.10558509979697943 -0.17762306795631713
-0.10558509979697943 -0.16760428394617694
-0.12002031889202525 -0.18764185196645733
-0.17776119527220854 -0.2978484760779995
-0.24993729074743767 -0.36797996414898093
-0.23550207165239184 -0.3980363161794015
-0.2643725098424835 -0.32790482810842014
-0.19219641436725438 -0.30786726008813975
-0.12002031889202525 -0.27781090805771913
-0.07671466160688777 -0.3178860440982799
-0.0911498807019336 -0.3379236121185603
-0.13445553798707108 -0.3178860440982799
-0.1633259761771627 -0.2878296920678593
-0.17776119527220854 -0.24775455602729854
-0.13445553798707108 -0.22771698800701812
-0.0911498807019336 -0.19766063597659753
-0.10558509979697943 -0.15758549993603674
-0.10558509979697943 -0.13754793191575634
-0.06227944251184195 -0.03736009181435434
0.009896652963387181 0.032771396256627054
-0.03340900432175029 0.012733828236346657
0.024331872058433006 0.04279018026676725
0.06763752934357048 0.022752612246486857
0.09650796753366213 0.052808964276907455
0.15424884391384544 0.08286531630732805
0.1975545011989829 0.11292166833774865
0.28416581576925787 0.15299680437830945
0.2552953775791662 0.17303437239858985
0.16868406300889127 0.11292166833774865
0.12537840572375378 0.12294045234788885
0.12537840572375378 0.10290288432760845
0.15424884391384544 0.14297802036816926
0.1975545011989829 0.16301558838844965
0.31303625395934953 0.13295923635802906
0.29860103486430367 0.12294045234788885
0.26973059667421206 0.13295923635802906
0.26973059667421206 0.16301558838844965
0.2408601584841204 0.14297802036816926
0.2408601584841204 0.14297802036816926
0.22642493938907457 0.15299680437830945
0.15424884391384544 0.19307194041887024
0.1398136248187996 0.20309072442901044
0.1398136248187996 0.21310950843915064
0.21198972029402874 0.23314707645943103
0.16868406300889127 0.20309072442901044
-0.004538566131658644 -0.17762306795631713
-0.13445553798707108 -0.9590882207472526
-0.12002031889202525 -1.780628509578749
0.053202310248524655 -2.481943390288563
0.32747147305439533 -3.143183134957816
0.5873054167652202 -3.8745543676980505
0.7316576077156784 -4.595906816428145
0.8182689222859534 -5.106864800945295
0.7893984840958618 -5.297221697137959
0.7460928268107243 -5.2270902090669775
0.7316576077156784 -5.026714528864174
0.9914915514265034 -4.515756544347023
1.511159438848153 -3.4938405753127233
2.1318738599351237 -2.2214550060249176
2.59380087097659 -0.9891445727776733
2.7814587192121856 -0.24775455602729854
2.7237178428320026 0.10290288432760845
2.4638838991211776 0.283240996510132
2.117438640840078 0.3533724845811134
1.5400298770382446 0.3533724845811134
1.020361989616595 0.3934476206216742
0.6450462931454035 0.533710596763637
0.4573884449098078 0.6138608688447587
0.41408278762467027 0.633898436865039
0.3707771303395328 0.583804516814338
0.3419066921494412 0.5637669487940576
0.32747147305439533 0.5537481647839174
0.31303625395934953 0.5737857328041979
0.3707771303395328 0.6138608688447587
0.41408278762467027 0.6739735729055998
0.41408278762467027 0.633898436865039
0.38521234943457866 0.5938233008244782
0.3707771303395328 0.6038420848346184
0.356341911244487 0.6038420848346184
0.3707771303395328 0.633898436865039
0.4285180067197161 0.6238796528548988
0.41408278762467027 0.6138608688447587
0.3419066921494412 0.5637669487940576
0.32747147305439533 0.5737857328041979
0.3707771303395328 0.633898436865039
0.4285180067197161 0.633898436865039
0.5151293212899911 0.6739735729055998
0.4573884449098078 0.6439172208751792
0.4285180067197161 0.6038420848346184
0.3707771303395328 0.5637669487940576
0.32747147305439533 0.5737857328041979
0.38521234943457866 0.6138608688447587
0.44295322581476193 0.6238796528548988
0.4573884449098078 0.5938233008244782
0.4862588830998994 0.5737857328041979
0.4573884449098078 0.5437293807737772
0.4285180067197161 0.533710596763637
0.39964756852962446 0.5437293807737772
0.39964756852962446 0.533710596763637
0.39964756852962446 0.5637669487940576
0.3707771303395328 0.5737857328041979
0.356341911244487 0.583804516814338
0.38521234943457866 0.583804516814338
0.5151293212899911 0.583804516814338
0.5728701976701743 0.6038420848346184
0.5873054167652202 0.5938233008244782
0.5295645403850369 0.5437293807737772
0.5006941021949453 0.5637669487940576
0.44295322581476193 0.6038420848346184
0.44295322581476193 0.6238796528548988
0.5439997594800827 0.6439172208751792
0.5584349785751286 0.5938233008244782
0.5584349785751286 0.5437293807737772
0.5873054167652202 0.5136730287433566
0.6161758549553118 0.533710596763637
0.6306110740503577 0.5537481647839174
0.601740635860266 0.5437293807737772
0.5584349785751286 0.533710596763637
0.5295645403850369 0.49363546072307624
0.4862588830998994 0.4435415406723752
0.5439997594800827 0.47359789270279584
0.601740635860266 0.49363546072307624
0.6739167313354951 0.45356032468251545
0.7027871695255868 0.45356032468251545
0.6739167313354951 0.42350397265209483
0.6450462931454035 0.3734100526013938
0.6161758549553118 0.40346640463181443
0.6594815122404494 0.36339126859125365
0.7027871695255868 0.3032785645304124
0.7316576077156784 0.21310950843915064
0.7172223886206326 0.18305315640873004
0.6450462931454035 0.13295923635802906
0.6594815122404494 0.12294045234788885
0.7027871695255868 0.10290288432760845
0.7460928268107243 0.10290288432760845
0.7749632650008159 0.08286531630732805
0.7893984840958618 0.052808964276907455
0.7172223886206326 0.002715044226206457
0.7172223886206326 -0.03736009181435434
0.7172223886206326 -0.10749157988533574
0.7460928268107243 -0.14756671592589654
0.7316576077156784 -0.16760428394617694
0.7605280459057701 -0.20767941998673772
0.7172223886206326 -0.16760428394617694
0.7316576077156784 -0.16760428394617694
0.7893984840958618 -0.12752914790561615
0.7893984840958618 -0.12752914790561615
0.7172223886206326 -0.15758549993603674
0.7172223886206326 -0.21769820399687792
0.6161758549553118 -0.24775455602729854
0.5873054167652202 -0.24775455602729854
0.5873054167652202 -0.16760428394617694
0.601740635860266 -0.13754793191575634
0.601740635860266 -0.13754793191575634
0.5006941021949453 -0.15758549993603674
0.4718236640048536 -0.17762306795631713
0.41408278762467027 -0.14756671592589654
0.38521234943457866 -0.12752914790561615
0.356341911244487 -0.08745401186505533
0.32747147305439533 -0.05739765983463474
0.26973059667421206 -0.07743522785491513
0.22642493938907457 -0.06741644384477494
0.22642493938907457 -0.007303739783933743
0.22642493938907457 -0.007303739783933743
0.21198972029402874 -0.007303739783933743
0.1398136248187996 -0.03736009181435434
0.09650796753366213 -0.007303739783933743
-0.004538566131658644 0.002715044226206457
-0.03340900432175029 0.04279018026676725
-0.004538566131658644 0.06282774828704765
0.009896652963387181 0.07284653229718785
0.024331872058433006 0.09288410031746826
-0.018973785226704468 0.052808964276907455
-0.03340900432175029 0.032771396256627054
-0.07671466160688777 0.032771396256627054
-0.06227944251184195 0.09288410031746826
-0.0911498807019336 0.10290288432760845
-0.12002031889202525 0.12294045234788885
-0.13445553798707108 0.12294045234788885
-0.17776119527220854 0.10290288432760845
-0.1633259761771627 0.06282774828704765
-0.0911498807019336 0.052808964276907455
-0.07671466160688777 0.07284653229718785
-0.0911498807019336 0.09288410031746826
-0.13445553798707108 0.09288410031746826
-0.2066316334623002 0.09288410031746826
-0.23550207165239184 0.10290288432760845
-0.2066316334623002 0.09288410031746826
-0.17776119527220854 0.12294045234788885
-0.17776119527220854 0.11292166833774865
-0.1633259761771627 0.10290288432760845
-0.2643725098424835 0.11292166833774865
-0.24993729074743767 0.13295923635802906
-0.2066316334623002 0.18305315640873004
-0.19219641436725438 0.22312829244929083
-0.22106685255734604 0.23314707645943103
-0.24993729074743767 0.21310950843915064
-0.3221133862226668 0.16301558838844965
-0.3798542626028501 0.16301558838844965
-0.3654190435078043 0.14297802036816926
-0.35098382441275844 0.18305315640873004
-0.3221133862226668 0.21310950843915064
-0.3221133862226668 0.20309072442901044
-0.3654190435078043 0.18305315640873004
-0.3798542626028501 0.21310950843915064
-0.3942894816978959 0.22312829244929083
-0.3942894816978959 0.22312829244929083
-0.42315991988798757 0.17303437239858985
-0.45203035807807923 0.17303437239858985
-0.4953360153632167 0.17303437239858985
-0.45203035807807923 0.24316586046957123
-0.3942894816978959 0.283240996510132
-0.3654190435078043 0.23314707645943103
-0.3798542626028501 0.21310950843915064
-0.3942894816978959 0.15299680437830945
-0.46646557717312503 0.09288410031746826
-0.5242064535533083 0.10290288432760845
-0.5097712344582626 0.11292166833774865
-0.4953360153632167 0.12294045234788885
-0.4953360153632167 0.14297802036816926
-0.4375951389830334 0.14297802036816926
-0.4375951389830334 0.11292166833774865
-0.46646557717312503 0.11292166833774865
-0.4809007962681709 0.15299680437830945
-0.46646557717312503 0.14297802036816926
-0.4809007962681709 0.11292166833774865
-0.5242064535533083 0.06282774828704765
-0.5819473299334916 0.08286531630732805
-0.5819473299334916 0.08286531630732805
-0.5097712344582626 0.09288410031746826
-0.4375951389830334 0.10290288432760845
-0.3798542626028501 0.11292166833774865
-0.40872470079294176 0.10290288432760845
-0.4953360153632167 0.09288410031746826
-0.4953360153632167 0.07284653229718785
-0.4809007962681709 0.052808964276907455
-0.5097712344582626 0.032771396256627054
-0.4953360153632167 0.012733828236346657
-0.5530768917434 0.012733828236346657
-0.5530768917434 0.032771396256627054
-0.4809007962681709 0.052808964276907455
-0.40872470079294176 0.032771396256627054
-0.3798542626028501 0.012733828236346657
-0.42315991988798757 0.002715044226206457
-0.46646557717312503 0.002715044226206457
-0.5386416726483542 -0.007303739783933743
-0.4953360153632167 0.07284653229718785
-0.4953360153632167 0.10290288432760845
-0.45203035807807923 0.10290288432760845
-0.42315991988798757 0.08286531630732805
-0.40872470079294176 0.04279018026676725
-0.3942894816978959 0.052808964276907455
-0.33654860531771263 0.07284653229718785
-0.30767816712762097 0.13295923635802906
-0.24993729074743767 0.14297802036816926
-0.2643725098424835 0.15299680437830945
-0.24993729074743767 0.10290288432760845
-0.24993729074743767 0.04279018026676725
-0.19219641436725438 0.07284653229718785
-0.13445553798707108 0.17303437239858985
-0.10558509979697943 0.23314707645943103
-0.13445553798707108 0.2632034284898516
-0.12002031889202525 0.24316586046957123
-0.1488907570821169 0.19307194041887024
-0.1488907570821169 0.17303437239858985
-0.1633259761771627 0.022752612246486857
-0.1633259761771627 -0.13754793191575634
-0.24993729074743767 -0.21769820399687792
-0.3221133862226668 -0.25777334003743874
-0.3942894816978959 -0.2978484760779995
-0.40872470079294176 -0.2878296920678593
-0.42315991988798757 -0.24775455602729854
-0.46646557717312503 -0.19766063597659753
-0.46646557717312503 -0.18764185196645733
-0.5675121108384459 -0.18764185196645733
-0.5675121108384459 -0.20767941998673772
-0.5963825490285375 -0.24775455602729854
-0.6108177681235833 -0.2878296920678593
-0.5963825490285375 -0.30786726008813975
-0.6108177681235833 -0.3178860440982799
-0.6541234254087208 -0.3178860440982799
-0.6685586445037666 -0.2978484760779995
-0.639688206313675 -0.32790482810842014
-0.6108177681235833 -0.30786726008813975
-0.639688206313675 -0.27781090805771913
-0.639688206313675 -0.27781090805771913
-0.7551699590740416 -0.2978484760779995
-0.7984756163591791 -0.36797996414898093
-0.8417812736443165 -0.3779987481591211
-0.8562164927393623 -0.3980363161794015
-0.8562164927393623 -0.4481302362301025
-0.8706517118344081 -0.4982241562808035
-0.885086930929454 -0.4681678042503829
-0.885086930929454 -0.4982241562808035
-0.8706517118344081 -0.5082429402909437
-0.8706517118344081 -0.5082429402909437
-0.8562164927393623 -0.4982241562808035
-0.8995221500244999 -0.5282805083112241
-0.9572630264046831 -0.5182617243010839
-0.9716982454997289 -0.5082429402909437
-0.9572630264046831 -0.45814902024024273
-0.8562164927393623 -0.4180738841996819
-0.8129108354542248 -0.3880175321692613
-0.7696051781690874 -0.3880175321692613
-0.7984756163591791 -0.4280926682098221
-0.8706517118344081 -0.45814902024024273
-0.8129108354542248 -0.36797996414898093
-0.7407347399789957 -0.25777334003743874
-0.6974290826938583 -0.19766063597659753
-0.6829938635988124 -0.17762306795631713
-0.6685586445037666 -0.22771698800701812
-0.7118643017889041 -0.22771698800701812
-0.6974290826938583 -0.15758549993603674
-0.6108177681235833 -0.07743522785491513
-0.6108177681235833 -0.06741644384477494
-0.5530768917434 -0.027341307804214142
-0.5819473299334916 -0.03736009181435434
-0.6541234254087208 -0.04737887582449454
-0.6829938635988124 -0.03736009181435434
-0.6108177681235833 -0.04737887582449454
-0.5386416726483542 -0.03736009181435434
-0.5530768917434 -0.027341307804214142
-0.5530768917434 -0.08745401186505533
-0.5386416726483542 -0.11751036389547594
-0.4953360153632167 -0.09747279587519554
-0.4809007962681709 -0.05739765983463474
-0.4375951389830334 -0.01732252379407394
-0.4809007962681709 -0.05739765983463474
-0.46646557717312503 -0.07743522785491513
-0.4953360153632167 -0.08745401186505533
-0.5242064535533083 -0.027341307804214142
-0.4953360153632167 0.06282774828704765
-0.4953360153632167 0.10290288432760845
-0.5242064535533083 0.19307194041887024
-0.639688206313675 0.2632034284898516
-0.7551699590740416 0.32331613255069286
-0.8995221500244999 0.24316586046957123
-1.043874340974958 -0.16760428394617694
-1.1160504364501873 -0.9290318687168321
-1.1016152173551415 -1.8507599976497304
-1.0294391218799122 -2.8125632626231893
-0.8995221500244999 -3.724272607545948
-0.7696051781690874 -4.495718976326743
-0.6252529872186291 -5.006676960843893
-0.45203035807807923 -5.277184129117678
-0.33654860531771263 -5.3573344011988
-0.29324294803257517 -5.33729683317852
-0.19219641436725438 -5.136921152975716
0.18311928210393708 -4.535794112367304
0.7605280459057701 -3.4938405753127233
1.4534185624679696 -2.2214550060249176
1.9586512307945736 -0.9590882207472526
2.160744298125215 -0.2878296920678593
2.117438640840078 -0.027341307804214142
1.8864751353193445 0.16301558838844965
1.5544650961332904 0.25318464447971145
1.092538085091824 0.25318464447971145
0.5584349785751286 0.2632034284898516
0.11094318662870796 0.3533724845811134
-0.2066316334623002 0.42350397265209483
-0.33654860531771263 0.49363546072307624
-0.40872470079294176 0.533710596763637
-0.3221133862226668 0.5036542447332164
-0.3221133862226668 0.47359789270279584
-0.30767816712762097 0.4435415406723752
-0.33654860531771263 0.43352275666223505
-0.30767816712762097 0.49363546072307624
-0.3221133862226668 0.5537481647839174
-0.33654860531771263 0.5737857328041979
-0.35098382441275844 0.5236918127534969
-0.45203035807807923 0.483616676712936
-0.46646557717312503 0.4635791086926556
-0.4375951389830334 0.483616676712936
-0.3221133862226668 0.5437293807737772
-0.2643725098424835 0.5437293807737772
-0.23550207165239184 0.533710596763637
-0.24993729074743767 0.533710596763637
-0.2643725098424835 0.5136730287433566
-0.3798542626028501 0.49363546072307624
-0.3654190435078043 0.5036542447332164
-0.29324294803257517 0.483616676712936
-0.2788077289375293 0.49363546072307624
-0.2788077289375293 0.5136730287433566
-0.2788077289375293 0.483616676712936
-0.35098382441275844 0.483616676712936
-0.30767816712762097 0.4635791086926556
-0.2788077289375293 0.4635791086926556
-0.23550207165239184 0.45356032468251545
-0.24993729074743767 0.4635791086926556
-0.24993729074743767 0.49363546072307624
-0.2643725098424835 0.5036542447332164
-0.23550207165239184 0.5437293807737772
-0.22106685255734604 0.5637669487940576
-0.23550207165239184 0.5537481647839174
-0.2788077289375293 0.49363546072307624
-0.33654860531771263 0.47359789270279584
-0.2788077289375293 0.4635791086926556
-0.2066316334623002 0.5136730287433566
-0.17776119527220854 0.5136730287433566
-0.13445553798707108 0.483616676712936
-0.1488907570821169 0.45356032468251545
-0.17776119527220854 0.4435415406723752
-0.17776119527220854 0.49363546072307624
-0.12002031889202525 0.5136730287433566
-0.12002031889202525 0.5136730287433566
-0.12002031889202525 0.5136730287433566
-0.1633259761771627 0.5136730287433566
-0.13445553798707108 0.5036542447332164
-0.0911498807019336 0.5036542447332164
-0.047844223416796124 0.49363546072307624
0.053202310248524655 0.5136730287433566
0.053202310248524655 0.5036542447332164
0.024331872058433006 0.47359789270279584
-0.018973785226704468 0.47359789270279584
-0.06227944251184195 0.483616676712936
-0.047844223416796124 0.49363546072307624
-0.004538566131658644 0.4635791086926556
0.03876709115347883 0.40346640463181443
0.08207274843861631 0.3533724845811134
0.09650796753366213 0.31329734854055263
0.11094318662870796 0.29325978052027224
0.1975545011989829 0.27322221249999185
0.15424884391384544 0.24316586046957123
0.15424884391384544 0.20309072442901044
0.06763752934357048 0.16301558838844965
0.08207274843861631 0.17303437239858985
0.1398136248187996 0.18305315640873004
0.18311928210393708 0.19307194041887024
0.2552953775791662 0.15299680437830945
0.3419066921494412 0.10290288432760845
0.32747147305439533 0.032771396256627054
0.28416581576925787 -0.01732252379407394
0.28416581576925787 -0.05739765983463474
0.26973059667421206 -0.06741644384477494
0.28416581576925787 -0.10749157988533574
0.26973059667421206 -0.13754793191575634
0.22642493938907457 -0.15758549993603674
0.1975545011989829 -0.16760428394617694
0.28416581576925787 -0.17762306795631713
0.356341911244487 -0.17762306795631713
0.41408278762467027 -0.23773577201715831
0.41408278762467027 -0.2878296920678593
0.38521234943457866 -0.32790482810842014
0.3419066921494412 -0.36797996414898093
0.31303625395934953 -0.3178860440982799
0.31303625395934953 -0.27781090805771913
0.32747147305439533 -0.2677921240475789
0.32747147305439533 -0.2978484760779995
0.31303625395934953 -0.3178860440982799
0.26973059667421206 -0.3379236121185603
0.31303625395934953 -0.2878296920678593
0.32747147305439533 -0.2677921240475789
0.356341911244487 -0.2878296920678593
0.31303625395934953 -0.2878296920678593
0.2552953775791662 -0.27781090805771913
0.1975545011989829 -0.2878296920678593
0.15424884391384544 -0.25777334003743874
0.15424884391384544 -0.27781090805771913
0.16868406300889127 -0.25777334003743874
0.08207274843861631 -0.30786726008813975
0.024331872058433006 -0.3178860440982799
-0.03340900432175029 -0.30786726008813975
0.024331872058433006 -0.25777334003743874
-0.004538566131658644 -0.23773577201715831
-0.004538566131658644 -0.17762306795631713
-0.018973785226704468 -0.14756671592589654
-0.10558509979697943 -0.17762306795631713
-0.17776119527220854 -0.21769820399687792
-0.19219641436725438 -0.15758549993603674
-0.24993729074743767 -0.13754793191575634
-0.23550207165239184 -0.10749157988533574
-0.2788077289375293 -0.10749157988533574
-0.2788077289375293 -0.11751036389547594
-0.30767816712762097 -0.12752914790561615
-0.33654860531771263 -0.08745401186505533
-0.2788077289375293 -0.04737887582449454
-0.23550207165239184 -0.04737887582449454
-0.2643725098424835 -0.03736009181435434
-0.35098382441275844 -0.03736009181435434
-0.35098382441275844 -0.04737887582449454
-0.3798542626028501 0.012733828236346657
-0.3798542626028501 0.04279018026676725
-0.3942894816978959 0.032771396256627054
-0.42315991988798757 0.022752612246486857
-0.45203035807807923 0.04279018026676725
-0.46646557717312503 0.002715044226206457
-0.40872470079294176 0.022752612246486857
-0.33654860531771263 0.06282774828704765
-0.3221133862226668 0.06282774828704765
-0.3654190435078043 0.032771396256627054
-0.4375951389830334 0.012733828236346657
-0.5097712344582626 0.032771396256627054
-0.5530768917434 0.07284653229718785
-0.5097712344582626 0.14297802036816926
-0.4953360153632167 0.20309072442901044
-0.4375951389830334 0.23314707645943103
-0.4375951389830334 0.19307194041887024
-0.4809007962681709 0.17303437239858985
-0.4375951389830334 0.11292166833774865
-0.4809007962681709 0.11292166833774865
-0.4809007962681709 0.09288410031746826
-0.5819473299334916 0.09288410031746826
-0.6252529872186291 0.13295923635802906
-0.6685586445037666 0.18305315640873004
-0.6974290826938583 0.20309072442901044
-0.6108177681235833 0.21310950843915064
-0.5530768917434 0.19307194041887024
-0.5242064535533083 0.18305315640873004
-0.4809007962681709 0.15299680437830945
-0.5530768917434 0.12294045234788885
-0.5530768917434 0.12294045234788885
-0.5386416726483542 0.19307194041887024
-0.5819473299334916 0.20309072442901044
-0.6252529872186291 0.22312829244929083
-0.6685586445037666 0.22312829244929083
-0.7118643017889041 0.24316586046957123
-0.6541234254087208 0.27322221249999185
-0.6252529872186291 0.27322221249999185
-0.6252529872186291 0.283240996510132
-0.639688206313675 0.2632034284898516
-0.6829938635988124 0.20309072442901044
-0.7118643017889041 0.15299680437830945
-0.6829938635988124 0.15299680437830945
-0.6685586445037666 0.21310950843915064
-0.6829938635988124 0.20309072442901044
-0.6829938635988124 0.17303437239858985
-0.6541234254087208 0.16301558838844965
-0.7118643017889041 0.14297802036816926
-0.7118643017889041 0.12294045234788885
-0.6829938635988124 0.13295923635802906
-0.6541234254087208 0.16301558838844965
-0.6252529872186291 0.17303437239858985
-0.6685586445037666 0.15299680437830945
-0.6685586445037666 0.14297802036816926
-0.6829938635988124 0.14297802036816926
-0.6541234254087208 0.14297802036816926
-0.6108177681235833 0.13295923635802906
-0.6685586445037666 0.14297802036816926
-0.6974290826938583 0.09288410031746826
-0.7118643017889041 0.08286531630732805
-0.7118643017889041 0.13295923635802906
-0.7118643017889041 0.18305315640873004
-0.639688206313675 0.20309072442901044
-0.639688206313675 0.17303437239858985
-0.639688206313675 0.09288410031746826
-0.6541234254087208 0.052808964276907455
-0.6829938635988124 0.052808964276907455
-0.6685586445037666 0.04279018026676725
-0.6252529872186291 0.07284653229718785
-0.639688206313675 0.052808964276907455
-0.6685586445037666 0.04279018026676725
-0.6829938635988124 0.06282774828704765
-0.6829938635988124 0.052808964276907455
-0.6685586445037666 0.06282774828704765
-0.6252529872186291 0.07284653229718785
-0.5675121108384459 0.06282774828704765
-0.5530768917434 0.07284653229718785
-0.5530768917434 0.08286531630732805
-0.5819473299334916 0.10290288432760845
-0.5242064535533083 0.11292166833774865
-0.4809007962681709 0.13295923635802906
-0.45203035807807923 0.12294045234788885
-0.4375951389830334 0.07284653229718785
-0.40872470079294176 0.12294045234788885
-0.3798542626028501 0.19307194041887024
-0.2788077289375293 0.20309072442901044
-0.17776119527220854 0.20309072442901044
-0.1488907570821169 0.16301558838844965
-0.1488907570821169 0.14297802036816926
-0.17776119527220854 0.18305315640873004
-0.24993729074743767 0.23314707645943103
-0.2643725098424835 0.31329734854055263
-0.23550207165239184 0.36339126859125365
-0.2066316334623002 0.3934476206216742
-0.22106685255734604 0.40346640463181443
-0.19219641436725438 0.31329734854055263
-0.1488907570821169 0.19307194041887024
-0.10558509979697943 0.06282774828704765
-0.1633259761771627 -0.04737887582449454
-0.17776119527220854 -0.14756671592589654
-0.2643725098424835 -0.20767941998673772
-0.35098382441275844 -0.25777334003743874
-0.42315991988798757 -0.25777334003743874
-0.4809007962681709 -0.22771698800701812
-0.5097712344582626 -0.21769820399687792
-0.5242064535533083 -0.19766063597659753
-0.5675121108384459 -0.19766063597659753
-0.5675121108384459 -0.22771698800701812
-0.5386416726483542 -0.24775455602729854
-0.5386416726483542 -0.25777334003743874
-0.5242064535533083 -0.23773577201715831
-0.5242064535533083 -0.2677921240475789
-0.5963825490285375 -0.23773577201715831
-0.6541234254087208 -0.20767941998673772
-0.6252529872186291 -0.21769820399687792
-0.6108177681235833 -0.21769820399687792
-0.5819473299334916 -0.23773577201715831
-0.6108177681235833 -0.2677921240475789
-0.6252529872186291 -0.3379236121185603
-0.6541234254087208 -0.3379236121185603
-0.6252529872186291 -0.32790482810842014
-0.5819473299334916 -0.2978484760779995
-0.5819473299334916 -0.3178860440982799
-0.6108177681235833 -0.3379236121185603
-0.6685586445037666 -0.3980363161794015
-0.6685586445037666 -0.4080551001895417
-0.6829938635988124 -0.3980363161794015
-0.6974290826938583 -0.36797996414898093
-0.7407347399789957 -0.3880175321692613
-0.7696051781690874 -0.43811145221996234
-0.7840403972641332 -0.4882053722706633
-0.8129108354542248 -0.5082429402909437
-0.7840403972641332 -0.4882053722706633
-0.7407347399789957 -0.4882053722706633
-0.7262995208839499 -0.45814902024024273
-0.7118643017889041 -0.4481302362301025
-0.7262995208839499 -0.45814902024024273
-0.7551699590740416 -0.4481302362301025
-0.7407347399789957 -0.4280926682098221
-0.7118643017889041 -0.4080551001895417
-0.7118643017889041 -0.3779987481591211
-0.6974290826938583 -0.3579611801388407
-0.6829938635988124 -0.32790482810842014
-0.6541234254087208 -0.30786726008813975
-0.5819473299334916 -0.21769820399687792
-0.4809007962681709 -0.18764185196645733
-0.4375951389830334 -0.16760428394617694
-0.3942894816978959 -0.14756671592589654
-0.4375951389830334 -0.14756671592589654
-0.5242064535533083 -0.15758549993603674
-0.5242064535533083 -0.14756671592589654
-0.4953360153632167 -0.06741644384477494
-0.4375951389830334 -0.03736009181435434
-0.42315991988798757 -0.027341307804214142
-0.46646557717312503 -0.007303739783933743
-0.45203035807807923 -0.007303739783933743
-0.4375951389830334 0.022752612246486857
-0.35098382441275844 0.04279018026676725
-0.2643725098424835 0.032771396256627054
-0.33654860531771263 -0.04737887582449454
-0.3221133862226668 -0.08745401186505533
-0.40872470079294176 -0.10749157988533574
-0.42315991988798757 -0.10749157988533574
-0.3654190435078043 -0.08745401186505533
-0.3654190435078043 -0.05739765983463474
-0.3221133862226668 -0.027341307804214142
-0.3798542626028501 -0.04737887582449454
-0.30767816712762097 -0.07743522785491513
-0.22106685255734604 -0.03736009181435434
-0.19219641436725438 0.012733828236346657
-0.1633259761771627 0.012733828236346657
-0.19219641436725438 0.04279018026676725
-0.24993729074743767 0.052808964276907455
-0.33654860531771263 0.08286531630732805
-0.42315991988798757 0.14297802036816926
-0.42315991988798757 0.21310950843915064
-0.4375951389830334 0.27322221249999185
-0.45203035807807923 0.33333491656083303
-0.5675121108384459 0.29325978052027224
-0.7118643017889041 -0.05739765983463474
-0.7840403972641332 -0.6485059164329064
-0.7551699590740416 -1.3097456611021596
-0.6252529872186291 -2.021079325822114
-0.4953360153632167 -2.7223942065319275
-0.35098382441275844 -3.393652735211321
-0.30767816712762097 -3.9847609918095928
-0.29324294803257517 -4.505737760336883
-0.19219641436725438 -4.86641398470193
-0.12002031889202525 -5.076808448914875
-0.10558509979697943 -5.2170714250568375
-0.12002031889202525 -5.267165345107538
-0.13445553798707108 -5.267165345107538
0.024331872058433006 -5.146939936985856
0.28416581576925787 -4.886451552722211
0.7172223886206326 -4.455643840286182
1.1647141805670531 -3.7443101755662282
1.684382067988703 -2.7123754225217875
2.016392107174757 -1.6704218854672068
2.2329203936004443 -0.7887688925748693
2.3339669272657653 -0.2677921240475789
2.276226050885582 -0.007303739783933743
2.103003421745032 0.15299680437830945
1.828734258939161 0.24316586046957123
1.438983343372924 0.25318464447971145
1.020361989616595 0.24316586046957123
0.6306110740503577 0.33333491656083303
0.4718236640048536 0.4134851886419546
0.28416581576925787 0.483616676712936
0.12537840572375378 0.5036542447332164
-0.018973785226704468 0.5236918127534969
-0.06227944251184195 0.5537481647839174
-0.004538566131658644 0.583804516814338
-0.004538566131658644 0.5938233008244782
-0.06227944251184195 0.5537481647839174
-0.0911498807019336 0.4635791086926556
-0.07671466160688777 0.42350397265209483
-0.06227944251184195 0.4635791086926556
-0.06227944251184195 0.5236918127534969
0.03876709115347883 0.5136730287433566
0.053202310248524655 0.5136730287433566
0.009896652963387181 0.49363546072307624
0.03876709115347883 0.483616676712936
0.009896652963387181 0.483616676712936
0.053202310248524655 0.49363546072307624
0.053202310248524655 0.5136730287433566
0.03876709115347883 0.5437293807737772
0.024331872058433006 0.5537481647839174
0.009896652963387181 0.533710596763637
-0.004538566131658644 0.583804516814338
0.03876709115347883 0.5938233008244782
0.09650796753366213 0.5737857328041979
0.11094318662870796 0.583804516814338
0.08207274843861631 0.5637669487940576
0.11094318662870796 0.583804516814338
0.09650796753366213 0.5737857328041979
0.08207274843861631 0.5637669487940576
0.053202310248524655 0.5437293807737772
0.06763752934357048 0.5136730287433566
0.024331872058433006 0.47359789270279584
-0.018973785226704468 0.5036542447332164
0.053202310248524655 0.5637669487940576
0.1398136248187996 0.5537481647839174
0.22642493938907457 0.5537481647839174
0.2408601584841204 0.533710596763637
0.22642493938907457 0.4635791086926556
0.18311928210393708 0.47359789270279584
0.21198972029402874 0.483616676712936
0.1975545011989829 0.5236918127534969
0.21198972029402874 0.5537481647839174
0.18311928210393708 0.5537481647839174
0.12537840572375378 0.5637669487940576
0.1398136248187996 0.5437293807737772
0.16868406300889127 0.5437293807737772
0.26973059667421206 0.5437293807737772
0.29860103486430367 0.5136730287433566
0.32747147305439533 0.5236918127534969
0.32747147305439533 0.49363546072307624
0.32747147305439533 0.47359789270279584
0.29860103486430367 0.49363546072307624
0.31303625395934953 0.5136730287433566
0.32747147305439533 0.5136730287433566
0.26973059667421206 0.5236918127534969
0.28416581576925787 0.49363546072307624
0.32747147305439533 0.5136730287433566
0.356341911244487 0.5236918127534969
0.44295322581476193 0.5637669487940576
0.4718236640048536 0.583804516814338
0.4862588830998994 0.5437293807737772
0.4718236640048536 0.49363546072307624
0.4718236640048536 0.45356032468251545
0.41408278762467027 0.45356032468251545
0.4573884449098078 0.4435415406723752
0.5006941021949453 0.4635791086926556
0.4573884449098078 0.4635791086926556
0.4573884449098078 0.43352275666223505
0.44295322581476193 0.38342883661153404
0.44295322581476193 0.3934476206216742
0.5439997594800827 0.3533724845811134
0.5728701976701743 0.32331613255069286
0.6161758549553118 0.283240996510132
0.6161758549553118 0.25318464447971145
0.6161758549553118 0.25318464447971145
0.6161758549553118 0.2632034284898516
0.6450462931454035 0.25318464447971145
0.688351950430541 0.21310950843915064
0.6594815122404494 0.16301558838844965
0.6306110740503577 0.12294045234788885
0.6161758549553118 0.07284653229718785
0.6306110740503577 0.07284653229718785
0.6739167313354951 0.06282774828704765
0.7172223886206326 0.052808964276907455
0.7027871695255868 -0.007303739783933743
0.7749632650008159 -0.03736009181435434
0.7749632650008159 -0.04737887582449454
0.7460928268107243 -0.027341307804214142
0.7749632650008159 -0.01732252379407394
0.7460928268107243 -0.01732252379407394
0.8038337031909076 -0.05739765983463474
0.7172223886206326 -0.13754793191575634
0.7027871695255868 -0.15758549993603674
0.7172223886206326 -0.17762306795631713
0.7172223886206326 -0.20767941998673772
0.7749632650008159 -0.21769820399687792
0.8471393604760451 -0.24775455602729854
0.8615745795710908 -0.23773577201715831
0.8615745795710908 -0.24775455602729854
0.8327041413809992 -0.22771698800701812
0.8615745795710908 -0.24775455602729854
0.8904450177611826 -0.23773577201715831
0.8615745795710908 -0.23773577201715831
0.7316576077156784 -0.23773577201715831
0.7027871695255868 -0.24775455602729854
0.6739167313354951 -0.23773577201715831
0.688351950430541 -0.18764185196645733
0.7605280459057701 -0.17762306795631713
0.7460928268107243 -0.14756671592589654
0.688351950430541 -0.19766063597659753
0.6306110740503577 -0.19766063597659753
0.5439997594800827 -0.15758549993603674
0.5151293212899911 -0.11751036389547594
0.4862588830998994 -0.08745401186505533
0.44295322581476193 -0.09747279587519554
0.39964756852962446 -0.09747279587519554
0.356341911244487 -0.07743522785491513
0.29860103486430367 -0.04737887582449454
0.3419066921494412 -0.04737887582449454
0.3707771303395328 -0.01732252379407394
0.356341911244487 -0.04737887582449454
0.356341911244487 -0.04737887582449454
0.2552953775791662 -0.07743522785491513
0.16868406300889127 -0.09747279587519554
0.16868406300889127 -0.04737887582449454
0.18311928210393708 -0.03736009181435434
0.15424884391384544 -0.01732252379407394
0.16868406300889127 -0.027341307804214142
0.1975545011989829 -0.007303739783933743
0.21198972029402874 0.012733828236346657
0.18311928210393708 0.032771396256627054
0.2408601584841204 0.04279018026676725
0.21198972029402874 0.022752612246486857
0.1398136248187996 0.032771396256627054
0.06763752934357048 0.04279018026676725
0.06763752934357048 0.08286531630732805
0.08207274843861631 0.13295923635802906
0.09650796753366213 0.13295923635802906
0.12537840572375378 0.13295923635802906
0.09650796753366213 0.08286531630732805
0.08207274843861631 0.08286531630732805
0.08207274843861631 0.12294045234788885
0.09650796753366213 0.17303437239858985
0.16868406300889127 0.20309072442901044
0.16868406300889127 0.18305315640873004
0.08207274843861631 0.17303437239858985
0.03876709115347883 0.18305315640873004
0.03876709115347883 0.21310950843915064
0.06763752934357048 0.24316586046957123
0.08207274843861631 0.25318464447971145
0.03876709115347883 0.20309072442901044
0.009896652963387181 0.15299680437830945
-0.004538566131658644 0.17303437239858985
