-0.7679797783163699 0.7130661086007145
-0.7377070163443725 0.8209722672770121
-0.7578888576590374 0.7562285720712336
-0.8083434609456996 0.7993910355417526
-0.8285253022603645 0.7562285720712336
-0.8184343816030321 0.8209722672770121
-0.7679797783163699 0.8641347307475311
-0.72761609568704 0.9288784259533096
-0.7780706989737023 0.8209722672770121
-0.838616222917697 0.691484876865455
-0.7679797783163699 0.605159949924417
-0.6973433337150428 0.5835787181891575
-0.6670705717430454 0.5404162547186384
-0.6267068891137155 0.4325100960423409
-0.6065250477990507 0.2598602421602648
-0.6771614924003778 0.10879162001344826
-0.838616222917697 0.04404792480766974
-1.000070953435016 -0.17176439254492537
-1.111071080665673 -0.43073917336803946
-1.1817075252670002 -0.7328764176616727
-1.403707779728314 -1.0781761254258249
-1.8477082886509417 -1.2724072110431603
-2.3926180041468936 -1.2076635158373819
-2.9476186403001785 -1.1429198206316034
-3.4521646731668008 -1.0781761254258249
-3.7448013722294418 -1.4018946014547173
-3.926437944061426 -1.7903567726893885
-4.007165309320086 -2.351468797806136
-4.087892674578745 -2.5888623468939906
-4.208983722466734 -2.783093432511326
-4.128256357208075 -2.8046746642465856
-3.8860742614320958 -2.8478371277171046
-3.5833466417121227 -2.9989057498639213
-3.4017100698801386 -3.2362992989517756
-3.2705281013348166 -3.408949152833852
-3.129255212132162 -3.408949152833852
-2.9778914022721756 -3.2362992989517756
-2.887073116356184 -3.1931368354812566
-2.7962548304401915 -3.0204869815991806
-2.675163782552202 -2.9557432863934023
-2.4733453694055534 -2.8046746642465856
-2.1807086703429124 -2.5456998834234716
-1.857799209308274 -2.459374956482433
-1.565162510245633 -2.351468797806136
-1.3734350177563166 -2.308306334335617
-1.333071335126987 -2.394631261276655
-1.3027985731549896 -2.135656480453541
-1.2422530492109949 -1.8982629313656862
-1.111071080665673 -1.6177069188073125
-1.0202527947496811 -1.3803133697194578
-1.000070953435016 -1.2292447475726413
-1.0707073980363433 -1.0997573571610844
-1.0707073980363433 -0.8407825763379702
-1.0303437154070134 -0.5602265637795966
-0.9294345088336889 -0.2796705512212229
-0.7982525402883672 0.0008854613371507181
-0.7074342543723752 0.1951165469544863
-0.6569796510857129 0.3030227056307839
-0.6569796510857129 0.49725379124811947
-0.6267068891137155 0.7130661086007145
-0.5661613651697209 0.9288784259533096
-0.5056158412257262 1.0583658163648666
-0.5056158412257262 1.036784584629607
-0.5056158412257262 1.036784584629607
-0.48543399991106134 1.0583658163648666
-0.4753430792537289 1.1446907433059048
-0.4147975553097342 1.2094344385116833
-0.3542520313657395 1.2525969019822023
-0.2836155867644124 1.2525969019822023
-0.2432519041350826 1.1662719750411643
-0.22307006282041772 1.1878532067764238
-0.17261545953375548 1.1878532067764238
-0.05152441164576611 1.2741781337174618
0.04938479492755835 1.1878532067764238
0.12002123952888548 0.9720408894238287
0.18056676347288017 0.648322413394936
0.2713850493888722 0.4325100960423409
0.3016578113608695 0.2598602421602648
0.40256701793419397 0.1735353152192268
0.5135671451648509 0.13037285174870777
0.604385431080843 0.08721038827818876
0.6346581930528402 0.04404792480766974
0.7052946376541674 0.1519540834839673
0.7961129235701594 0.32460393736604337
0.8970221301434839 0.4109288643070814
1.0181131780314732 0.5188350229833789
1.098840543290133 0.605159949924417
1.1593860672341274 0.605159949924417
1.2502043531501195 0.7778098038064931
1.3107498770941142 0.9072971942180501
1.4015681630101062 1.036784584629607
1.532750131555428 1.1231095115706453
1.5932956554994226 1.2094344385116833
1.62356841747142 1.2094344385116833
1.62356841747142 1.2525969019822023
1.6740230207580822 1.3820842923937593
1.6942048620727472 1.4468279875995378
1.6841139414154147 1.4684092193347973
1.643750258786085 1.4684092193347973
1.552931972870093 1.3820842923937593
1.5125682902407631 1.4036655241290188
1.3914772423527737 1.4036655241290188
1.3006589564367816 1.4468279875995378
1.2300225118354546 1.3820842923937593
1.098840543290133 1.3820842923937593
0.9575676540874786 1.2957593654527213
0.7961129235701594 1.2310156702469428
0.7355673996261647 1.2957593654527213
0.6548400343675052 1.2957593654527213
0.5741126691088456 1.3173405971879808
0.4631125418781887 1.1662719750411643
0.35211241464753174 1.036784584629607
0.22093044610220994 1.0152033528943476
0.0796575568995557 1.0583658163648666
0.0594757155848908 1.1015282798353858
-0.011160729016436326 1.0152033528943476
-0.0918880942750959 0.9072971942180501
-0.2028882215057528 0.8425534990122716
-0.27352466610707993 0.7993910355417526
-0.31388834873640975 0.8209722672770121
-0.34416111070840705 0.8641347307475311
-0.42488847596706664 0.7562285720712336
-0.42488847596706664 0.691484876865455
-0.4349793966243991 0.6267411816596765
-0.5056158412257262 0.561997486453898
-0.5358886031977236 0.49725379124811947
-0.49552492056839376 0.4540913277776004
-0.455161237939064 0.32460393736604337
-0.455161237939064 0.08721038827818876
-0.455161237939064 -0.19334562428018487
-0.5056158412257262 -0.38757670989752047
-0.5257976825403912 -0.4739016368385585
-0.5157067618830586 -0.5602265637795966
-0.5257976825403912 -0.6033890272501156
-0.5358886031977236 -0.6465514907206346
-0.545979523855056 -0.7112951859264132
-0.5560704445123884 -0.7976201128674512
-0.49552492056839376 -0.6465514907206346
-0.38452479333773687 -0.6033890272501156
-0.23316098347775016 -0.5602265637795966
-0.0918880942750959 -0.5386453320443371
-0.06161533230309856 -0.452320405103299
-0.19279730084842037 -0.2580893194859634
-0.40470663465240175 0.13037285174870777
-0.6973433337150428 0.5404162547186384
-1.0101618740923486 0.8641347307475311
-1.3532531764416518 1.2094344385116833
-1.6357989548469603 1.3820842923937593
-1.898162891937604 1.533152914540576
-2.0898903844269205 1.662640304952133
-2.241254194286907 1.7273840001579115
-2.4127998454615587 1.705802768422652
-2.6549819412375375 1.5547341462758355
-2.897164037013516 1.2741781337174618
-3.1595279741041598 0.9288784259533096
-3.3512554665934764 0.6699036451301955
-3.4521646731668008 0.49725379124811947
-3.4521646731668008 0.1735353152192268
-3.371437307908141 -0.21492685601544437
-3.2402553393628195 -0.5818077955148561
-3.098982450160165 -0.9918511984847868
-2.9274367989855135 -1.2508259793079008
-2.826527592412189 -1.4018946014547173
-2.715527465181532 -1.5745444553367935
-2.5036181313775505 -1.8766816996304267
-2.13025406705625 -2.092494016983022
-1.877981050622939 -2.17881894392406
-1.7165263201056198 -2.2004001756593192
-1.5247988276163034 -2.0493315535125025
-1.3431622557843192 -2.0061690900419835
-1.0505255567216782 -2.0277503217772432
-0.7477979370017049 -2.0493315535125025
-0.5157067618830586 -2.0277503217772432
-0.32397926939374216 -1.8982629313656862
-0.12216085624709325 -1.768775540954129
-0.03134257033110122 -1.72561307748361
-0.1322517769044257 -1.682450614013091
-0.3744338726804044 -1.682450614013091
-0.5863432064843858 -1.552963223601534
-0.6267068891137155 -1.4234758331899768
-0.5863432064843858 -1.2508259793079008
-0.5863432064843858 -1.1429198206316034
-0.6670705717430454 -1.0350136619553059
-0.7578888576590374 -0.9486887350142678
-0.7477979370017049 -0.8623638080732297
-0.6771614924003778 -0.6465514907206346
-0.6166159684563831 -0.5386453320443371
-0.5964341271417183 -0.5602265637795966
-0.5863432064843858 -0.5602265637795966
-0.5661613651697209 -0.6249702589853751
-0.5560704445123884 -0.6465514907206346
-0.5762522858270533 -0.6249702589853751
-0.5358886031977236 -0.6033890272501156
-0.48543399991106134 -0.6033890272501156
-0.4652521585963964 -0.6465514907206346
-0.49552492056839376 -0.7544576493969322
-0.49552492056839376 -0.6249702589853751
-0.48543399991106134 -0.5386453320443371
-0.4450703172817315 -0.43073917336803946
-0.38452479333773687 -0.43073917336803946
-0.40470663465240175 -0.38757670989752047
-0.4147975553097342 -0.38757670989752047
-0.38452479333773687 -0.3444142464270014
-0.2937065074217448 -0.2796705512212229
-0.21297914216308525 -0.19334562428018487
-0.14234269756175813 -0.12860192907440635
-0.14234269756175813 -0.15018316080966584
-0.12216085624709325 -0.08543946560388732
-0.1322517769044257 0.0008854613371507181
-0.0918880942750959 0.1519540834839673
-0.011160729016436326 0.3030227056307839
0.0796575568995557 0.3030227056307839
0.17047584281554773 0.32460393736604337
0.24111228741687485 0.2814414738955244
0.2915668907035371 0.36776640083656237
0.39247609727686156 0.4540913277776004
0.5034762245075185 0.648322413394936
0.604385431080843 0.605159949924417
0.6346581930528402 0.5188350229833789
0.7052946376541674 0.561997486453898
0.765840161598162 0.561997486453898
0.8364766061994892 0.648322413394936
0.9272948921154812 0.6699036451301955
1.0382950193461382 0.6699036451301955
1.098840543290133 0.6267411816596765
1.1089314639474652 0.5835787181891575
1.1392042259194626 0.5835787181891575
1.1795679085487925 0.605159949924417
1.260295273807452 0.691484876865455
1.3410226390661115 0.605159949924417
1.3208407977514467 0.49725379124811947
1.2703861944647845 0.4756725595128599
1.219931591178122 0.4756725595128599
1.219931591178122 0.49725379124811947
1.1997497498634573 0.4756725595128599
1.16947698789146 0.3030227056307839
1.0685677813181356 0.1735353152192268
0.9878404160594759 -0.042277002133368304
0.9071130508008163 -0.21492685601544437
0.786022002912827 -0.3228330146917419
0.7254764789688323 -0.2580893194859634
0.7153855583114999 -0.3012517829564824
0.604385431080843 -0.38757670989752047
0.4631125418781887 -0.43073917336803946
0.3622033353048642 -0.495482868573818
0.2915668907035371 -0.3444142464270014
0.25120320807420726 -0.3228330146917419
0.1906576841302126 -0.2580893194859634
0.10993031887155304 -0.3012517829564824
0.04938479492755835 -0.3228330146917419
-0.03134257033110122 -0.36599547816226097
-0.08179717361776345 -0.2580893194859634
-0.12216085624709325 -0.12860192907440635
-0.12216085624709325 -0.042277002133368304
-0.16252453887642304 -0.08543946560388732
-0.2432519041350826 -0.10702069733914683
-0.2937065074217448 -0.12860192907440635
-0.33407019005107463 0.0008854613371507181
-0.31388834873640975 0.1519540834839673
-0.32397926939374216 0.1951165469544863
-0.3946157139950693 0.10879162001344826
-0.4753430792537289 0.1519540834839673
-0.545979523855056 0.2814414738955244
-0.5863432064843858 0.3893476325718219
-0.5661613651697209 0.4756725595128599
-0.545979523855056 0.5835787181891575
-0.5157067618830586 0.49725379124811947
-0.5560704445123884 0.49725379124811947
-0.5863432064843858 0.4325100960423409
-0.6065250477990507 0.561997486453898
-0.5157067618830586 0.648322413394936
-0.49552492056839376 0.648322413394936
-0.5560704445123884 0.648322413394936
-0.5560704445123884 0.605159949924417
-0.5661613651697209 0.648322413394936
-0.545979523855056 0.7993910355417526
-0.5157067618830586 0.8857159624827906
-0.38452479333773687 0.9072971942180501
-0.3542520313657395 0.8425534990122716
-0.4652521585963964 0.8641347307475311
-0.5560704445123884 0.7993910355417526
-0.545979523855056 0.7562285720712336
-0.5863432064843858 0.561997486453898
-0.6569796510857129 0.2814414738955244
-0.7377070163443725 0.0008854613371507181
-0.6569796510857129 -0.3228330146917419
-0.4450703172817315 -0.6249702589853751
-0.0918880942750959 -0.8407825763379702
0.2915668907035371 -1.0350136619553059
0.6346581930528402 -1.3587321379841983
0.8566584475141541 -1.768775540954129
1.0685677813181356 -2.1572377121888002
1.441931845639436 -2.2004001756593192
1.825386830618069 -2.265143870865098
2.1079326090233774 -2.459374956482433
2.3097510221700266 -2.7183497373055476
2.2592964188833644 -2.9989057498639213
2.0776598470513803 -3.0420682133344403
1.7951140686460716 -2.869418359452364
1.5125682902407631 -2.5888623468939906
1.1392042259194626 -2.265143870865098
0.7052946376541674 -1.811938004424648
0.14020308084355038 -1.509800760131015
-0.27352466610707993 -1.2508259793079008
-0.5964341271417183 -0.9055262715437487
-0.7982525402883672 -0.6033890272501156
-0.8083434609456996 -0.38757670989752047
-0.8083434609456996 -0.2365080877507039
-0.8487071435750294 -0.17176439254492537
-0.9092526675190241 -0.19334562428018487
-0.9899800327776836 -0.08543946560388732
-1.040434636064346 0.022466693072410227
-1.0606164773790108 0.13037285174870777
-1.0606164773790108 0.08721038827818876
-1.1009801600083406 0.10879162001344826
-1.2119802872389975 0.10879162001344826
-1.2826167318403245 0.10879162001344826
-1.292707652497657 0.23827901042500532
-1.3229804144696544 0.32460393736604337
-1.3027985731549896 0.3893476325718219
-1.333071335126987 0.3893476325718219
-1.333071335126987 0.36776640083656237
-1.3532531764416518 0.32460393736604337
-1.3532531764416518 0.4756725595128599
-1.3027985731549896 0.5188350229833789
-1.2826167318403245 0.5835787181891575
-1.292707652497657 0.5188350229833789
-1.3229804144696544 0.49725379124811947
-1.3532531764416518 0.5188350229833789
-1.312889493812322 0.605159949924417
-1.2826167318403245 0.605159949924417
-1.2220712078963298 0.5835787181891575
-1.2119802872389975 0.4756725595128599
-1.2119802872389975 0.36776640083656237
-1.2422530492109949 0.21669777868974582
-1.1716166046096677 0.13037285174870777
-1.1413438426376703 0.04404792480766974
-1.1009801600083406 -0.02069577039810879
-1.0807983186936756 -0.042277002133368304
-1.0908892393510081 -0.042277002133368304
-1.131252921980338 -0.08543946560388732
-1.0908892393510081 -0.02069577039810879
-1.000070953435016 0.04404792480766974
-0.9294345088336889 0.0008854613371507181
-0.9496163501483539 0.04404792480766974
-0.9496163501483539 0.022466693072410227
-0.9193435881763565 0.08721038827818876
-0.8991617468616916 0.1735353152192268
-0.8487071435750294 0.2598602421602648
-0.7881616196310347 0.2598602421602648
-0.7477979370017049 0.23827901042500532
-0.7377070163443725 0.1951165469544863
-0.7175251750297076 0.2598602421602648
-0.6569796510857129 0.34618516910130287
-0.5762522858270533 0.4325100960423409
-0.5056158412257262 0.4540913277776004
-0.4652521585963964 0.32460393736604337
-0.4450703172817315 0.3030227056307839
-0.40470663465240175 0.2814414738955244
-0.3542520313657395 0.4325100960423409
-0.2634337454497475 0.4540913277776004
-0.23316098347775016 0.4756725595128599
-0.23316098347775016 0.4325100960423409
-0.2432519041350826 0.3893476325718219
-0.2432519041350826 0.4109288643070814
-0.2028882215057528 0.4109288643070814
-0.2028882215057528 0.49725379124811947
-0.19279730084842037 0.4540913277776004
-0.2028882215057528 0.4325100960423409
-0.21297914216308525 0.36776640083656237
-0.3037974280790773 0.36776640083656237
-0.3037974280790773 0.4540913277776004
-0.33407019005107463 0.5188350229833789
-0.34416111070840705 0.4540913277776004
-0.40470663465240175 0.4325100960423409
-0.5056158412257262 0.36776640083656237
-0.5157067618830586 0.4325100960423409
-0.5157067618830586 0.4756725595128599
-0.5257976825403912 0.5835787181891575
-0.5257976825403912 0.5404162547186384
-0.5257976825403912 0.4109288643070814
-0.5257976825403912 0.2598602421602648
-0.5056158412257262 0.08721038827818876
-0.48543399991106134 0.04404792480766974
-0.4753430792537289 -0.042277002133368304
-0.4450703172817315 -0.21492685601544437
-0.40470663465240175 -0.36599547816226097
-0.3946157139950693 -0.43073917336803946
-0.3744338726804044 -0.5170641003090776
-0.2836155867644124 -0.5386453320443371
-0.15243361821909057 -0.5170641003090776
-0.11206993558976079 -0.452320405103299
-0.2432519041350826 -0.38757670989752047
-0.3744338726804044 -0.36599547816226097
-0.5157067618830586 -0.2796705512212229
-0.6065250477990507 -0.19334562428018487
-0.7477979370017049 -0.08543946560388732
-0.8991617468616916 -0.06385823386862781
-1.0606164773790108 -0.15018316080966584
-1.1211620013230055 -0.2365080877507039
-0.9798891121203512 -0.15018316080966584
-0.6872524130577102 -0.17176439254492537
-0.34416111070840705 -0.2580893194859634
0.03929387427022591 -0.5818077955148561
0.3823851766195291 -0.9486887350142678
0.8364766061994892 -1.2076635158373819
1.3107498770941142 -1.4450570649252366
1.6740230207580822 -1.596125687072053
1.8657505132473988 -1.8766816996304267
1.8859323545620637 -2.1572377121888002
1.7244776240447446 -2.437793724747174
1.5024773695834306 -2.459374956482433
1.219931591178122 -2.243562639129838
0.9474767334301462 -1.8335192361599075
0.5539308277941807 -1.4018946014547173
0.1906576841302126 -1.0781761254258249
-0.12216085624709325 -0.7544576493969322
-0.3946157139950693 -0.495482868573818
-0.5863432064843858 -0.2365080877507039
-0.6166159684563831 0.0008854613371507181
-0.636797809771048 0.1519540834839673
-0.6670705717430454 0.1951165469544863
-0.7175251750297076 0.1951165469544863
-0.7982525402883672 0.10879162001344826
-0.8285253022603645 0.1951165469544863
-0.8890708262043592 0.2814414738955244
-0.8487071435750294 0.3893476325718219
-0.8487071435750294 0.4325100960423409
-0.8890708262043592 0.4109288643070814
-0.9294345088336889 0.34618516910130287
-0.9597072708056863 0.34618516910130287
-0.9496163501483539 0.32460393736604337
-0.9193435881763565 0.34618516910130287
-0.8991617468616916 0.32460393736604337
-0.9092526675190241 0.1519540834839673
-0.9193435881763565 0.0008854613371507181
-0.9294345088336889 -0.17176439254492537
-0.8890708262043592 -0.3444142464270014
-0.8083434609456996 -0.43073917336803946
-0.7780706989737023 -0.5602265637795966
-0.7377070163443725 -0.7112951859264132
-0.7578888576590374 -0.7328764176616727
-0.7175251750297076 -0.7112951859264132
-0.6973433337150428 -0.5386453320443371
-0.636797809771048 -0.5170641003090776
-0.5863432064843858 -0.43073917336803946
-0.5762522858270533 -0.452320405103299
-0.545979523855056 -0.4739016368385585
-0.5358886031977236 -0.43073917336803946
-0.5257976825403912 -0.3228330146917419
-0.4450703172817315 -0.19334562428018487
-0.38452479333773687 -0.2580893194859634
-0.3744338726804044 -0.21492685601544437
-0.364342952023072 -0.2580893194859634
-0.34416111070840705 -0.21492685601544437
-0.2836155867644124 -0.08543946560388732
-0.22307006282041772 -0.02069577039810879
-0.17261545953375548 0.06562915654292925
-0.10197901493242835 0.06562915654292925
-0.10197901493242835 0.04404792480766974
-0.0918880942750959 0.10879162001344826
-0.0010698083591038797 0.2814414738955244
0.09983939821422058 0.32460393736604337
0.12002123952888548 0.3893476325718219
0.10993031887155304 0.36776640083656237
0.0594757155848908 0.36776640083656237
0.03929387427022591 0.4325100960423409
0.06956663624222324 0.605159949924417
0.08974847755688814 0.6699036451301955
0.10993031887155304 0.7562285720712336
0.09983939821422058 0.7130661086007145
0.0796575568995557 0.6267411816596765
0.03929387427022591 0.648322413394936
0.03929387427022591 0.7993910355417526
0.06956663624222324 0.8641347307475311
0.09983939821422058 0.7993910355417526
0.0594757155848908 0.734647340335974
-0.0010698083591038797 0.605159949924417
-0.03134257033110122 0.6267411816596765
-0.03134257033110122 0.5835787181891575
-0.05152441164576611 0.5404162547186384
-0.011160729016436326 0.4540913277776004
-0.021251649673768774 0.2814414738955244
-0.06161533230309856 0.022466693072410227
-0.0918880942750959 -0.15018316080966584
-0.07170625296043101 -0.19334562428018487
-0.03134257033110122 -0.2796705512212229
0.009021112298228566 -0.495482868573818
-0.021251649673768774 -0.6897139541911536
-0.07170625296043101 -0.8407825763379702
-0.0918880942750959 -0.8623638080732297
-0.041433490988433665 -0.7328764176616727
-0.07170625296043101 -0.6465514907206346
-0.05152441164576611 -0.6465514907206346
-0.041433490988433665 -0.6465514907206346
-0.08179717361776345 -0.6249702589853751
-0.0918880942750959 -0.5602265637795966
-0.08179717361776345 -0.452320405103299
-0.05152441164576611 -0.3228330146917419
-0.03134257033110122 -0.3228330146917419
-0.03134257033110122 -0.2580893194859634
-0.06161533230309856 -0.2365080877507039
-0.06161533230309856 -0.2365080877507039
-0.06161533230309856 -0.12860192907440635
-0.021251649673768774 -0.042277002133368304
-0.0010698083591038797 0.022466693072410227
-0.03134257033110122 0.022466693072410227
-0.041433490988433665 -0.06385823386862781
-0.021251649673768774 0.022466693072410227
-0.041433490988433665 0.13037285174870777
-0.0010698083591038797 0.1735353152192268
0.009021112298228566 0.1735353152192268
-0.03134257033110122 0.1735353152192268
-0.08179717361776345 0.1519540834839673
-0.08179717361776345 0.1951165469544863
-0.07170625296043101 0.2814414738955244
-0.06161533230309856 0.3893476325718219
-0.05152441164576611 0.36776640083656237
-0.041433490988433665 0.34618516910130287
-0.07170625296043101 0.32460393736604337
-0.08179717361776345 0.32460393736604337
-0.08179717361776345 0.36776640083656237
-0.03134257033110122 0.3893476325718219
0.04938479492755835 0.4109288643070814
0.06956663624222324 0.2598602421602648
0.029202953612893462 0.21669777868974582
-0.0010698083591038797 0.1519540834839673
0.019112032955561013 0.1951165469544863
0.06956663624222324 0.1735353152192268
0.0594757155848908 0.10879162001344826
0.04938479492755835 0.022466693072410227
-0.0010698083591038797 -0.12860192907440635
-0.0010698083591038797 -0.06385823386862781
0.03929387427022591 -0.042277002133368304
0.029202953612893462 0.0008854613371507181
0.029202953612893462 -0.10702069733914683
0.03929387427022591 -0.2365080877507039
0.029202953612893462 -0.3228330146917419
0.029202953612893462 -0.2580893194859634
0.009021112298228566 -0.17176439254492537
0.029202953612893462 -0.10702069733914683
0.0594757155848908 -0.10702069733914683
0.0796575568995557 -0.12860192907440635
0.029202953612893462 -0.2365080877507039
-0.011160729016436326 -0.17176439254492537
0.019112032955561013 -0.06385823386862781
0.03929387427022591 0.04404792480766974
0.03929387427022591 0.08721038827818876
0.03929387427022591 0.04404792480766974
-0.03134257033110122 0.04404792480766974
-0.041433490988433665 0.06562915654292925
0.029202953612893462 0.1519540834839673
0.029202953612893462 0.23827901042500532
0.04938479492755835 0.3030227056307839
0.019112032955561013 0.1951165469544863
0.019112032955561013 0.1735353152192268
0.019112032955561013 0.13037285174870777
-0.011160729016436326 0.21669777868974582
-0.0010698083591038797 0.32460393736604337
0.019112032955561013 0.32460393736604337
0.029202953612893462 0.23827901042500532
-0.021251649673768774 0.1951165469544863
-0.07170625296043101 0.1951165469544863
-0.06161533230309856 0.2598602421602648
-0.05152441164576611 0.3030227056307839
-0.021251649673768774 0.32460393736604337
-0.05152441164576611 0.2814414738955244
-0.07170625296043101 0.21669777868974582
-0.11206993558976079 0.21669777868974582
-0.07170625296043101 0.3030227056307839
-0.05152441164576611 0.36776640083656237
-0.041433490988433665 0.34618516910130287
-0.03134257033110122 0.3030227056307839
-0.021251649673768774 0.21669777868974582
-0.05152441164576611 0.21669777868974582
-0.03134257033110122 0.1519540834839673
0.019112032955561013 0.1519540834839673
0.0594757155848908 0.1735353152192268
0.019112032955561013 0.0008854613371507181
-0.0010698083591038797 -0.15018316080966584
0.019112032955561013 -0.15018316080966584
0.06956663624222324 -0.21492685601544437
0.06956663624222324 -0.21492685601544437
0.08974847755688814 -0.43073917336803946
0.09983939821422058 -0.5170641003090776
0.08974847755688814 -0.6681327224558941
0.0796575568995557 -0.8192013446027107
0.09983939821422058 -0.7544576493969322
0.12002123952888548 -0.6681327224558941
0.17047584281554773 -0.7112951859264132
0.15029400150088282 -0.7544576493969322
0.0796575568995557 -0.8192013446027107
0.06956663624222324 -0.7760388811321917
0.10993031887155304 -0.7112951859264132
0.14020308084355038 -0.7112951859264132
0.14020308084355038 -0.6465514907206346
0.10993031887155304 -0.6897139541911536
0.08974847755688814 -0.7112951859264132
0.08974847755688814 -0.5818077955148561
0.10993031887155304 -0.4739016368385585
0.10993031887155304 -0.3012517829564824
0.16038492215821526 -0.2796705512212229
0.12002123952888548 -0.2580893194859634
0.08974847755688814 -0.2365080877507039
0.0594757155848908 -0.12860192907440635
0.08974847755688814 0.0008854613371507181
0.14020308084355038 0.10879162001344826
0.20074860478754505 0.1519540834839673
0.22093044610220994 0.1519540834839673
0.24111228741687485 0.1735353152192268
0.26129412873153973 0.2814414738955244
0.24111228741687485 0.36776640083656237
0.35211241464753174 0.561997486453898
0.4429307005635238 0.6267411816596765
0.5135671451648509 0.561997486453898
0.5135671451648509 0.5188350229833789
0.5640217484515131 0.4756725595128599
0.6851127963395025 0.4109288643070814
0.9272948921154812 0.34618516910130287
1.260295273807452 0.1519540834839673
1.5731138141847578 -0.2365080877507039
1.8455686719327338 -0.6681327224558941
2.0473870850793827 -0.9486887350142678
2.229023656911367 -1.1213385888963439
2.481296673344678 -1.2508259793079008
2.683115086491327 -1.4018946014547173
2.794115213721984 -1.7471943092188695
2.7436606104353216 -2.308306334335617
2.592296800575335 -2.8046746642465856
2.3702965461140213 -2.869418359452364
2.1583872123100396 -2.9125808229228833
1.9061141958767285 -2.8909995911876236
1.5428410522127605 -2.8046746642465856
1.0382950193461382 -2.61044357862925
0.6144763517381754 -2.373050029541395
0.2915668907035371 -2.0493315535125025
0.06956663624222324 -1.639288150542572
-0.08179717361776345 -1.4234758331899768
-0.14234269756175813 -1.2724072110431603
-0.2028882215057528 -1.2292447475726413
-0.2634337454497475 -1.1213385888963439
-0.2937065074217448 -0.9702699667495273
-0.32397926939374216 -0.7760388811321917
-0.34416111070840705 -0.8407825763379702
-0.38452479333773687 -0.7976201128674512
-0.40470663465240175 -0.8192013446027107
-0.4349793966243991 -0.7544576493969322
-0.42488847596706664 -0.6465514907206346
-0.4147975553097342 -0.5602265637795966
-0.4147975553097342 -0.495482868573818
-0.4450703172817315 -0.4739016368385585
-0.4652521585963964 -0.43073917336803946
-0.49552492056839376 -0.3444142464270014
-0.49552492056839376 -0.2580893194859634
-0.48543399991106134 -0.12860192907440635
-0.5257976825403912 -0.06385823386862781
-0.545979523855056 -0.08543946560388732
-0.6065250477990507 -0.06385823386862781
-0.5964341271417183 0.022466693072410227
-0.5964341271417183 0.08721038827818876
-0.5863432064843858 0.1735353152192268
-0.5358886031977236 0.23827901042500532
-0.5560704445123884 0.2598602421602648
-0.5661613651697209 0.21669777868974582
-0.5661613651697209 0.23827901042500532
-0.5358886031977236 0.34618516910130287
-0.4753430792537289 0.4325100960423409
-0.4349793966243991 0.4325100960423409
-0.4450703172817315 0.4109288643070814
-0.4652521585963964 0.4109288643070814
-0.4450703172817315 0.49725379124811947
-0.42488847596706664 0.648322413394936
-0.40470663465240175 0.7562285720712336
-0.34416111070840705 0.6267411816596765
-0.31388834873640975 0.561997486453898
-0.3037974280790773 0.4540913277776004
-0.32397926939374216 0.3893476325718219
-0.2634337454497475 0.3030227056307839
-0.2028882215057528 0.2814414738955244
-0.12216085624709325 0.06562915654292925
-0.0918880942750959 -0.17176439254492537
-0.08179717361776345 -0.3444142464270014
-0.06161533230309856 -0.5170641003090776
-0.0010698083591038797 -0.5170641003090776
0.12002123952888548 -0.452320405103299
0.14020308084355038 -0.495482868573818
0.13011216018621793 -0.4739016368385585
0.16038492215821526 -0.5386453320443371
0.17047584281554773 -0.40915794163277996
0.1906576841302126 -0.38757670989752047
0.2108395254448775 -0.2365080877507039
0.26129412873153973 -0.2796705512212229
0.31174873201820197 -0.2580893194859634
0.3420214939901993 -0.2796705512212229
0.33193057333286685 -0.17176439254492537
0.33193057333286685 -0.06385823386862781
0.3722942559621967 0.0008854613371507181
0.4429307005635238 0.06562915654292925
0.4530216212208562 0.04404792480766974
0.4328397799061913 0.04404792480766974
0.39247609727686156 0.08721038827818876
0.4429307005635238 0.21669777868974582
0.4530216212208562 0.4109288643070814
0.4530216212208562 0.4325100960423409
0.39247609727686156 0.36776640083656237
0.3420214939901993 0.4325100960423409
0.3016578113608695 0.4540913277776004
0.31174873201820197 0.605159949924417
0.3016578113608695 0.6699036451301955
0.31174873201820197 0.7130661086007145
0.32183965267553444 0.6267411816596765
0.31174873201820197 0.6267411816596765
0.2915668907035371 0.691484876865455
0.3016578113608695 0.7993910355417526
0.2713850493888722 0.8641347307475311
0.33193057333286685 0.7993910355417526
0.32183965267553444 0.8209722672770121
0.2713850493888722 0.734647340335974
0.24111228741687485 0.691484876865455
0.2108395254448775 0.7993910355417526
0.2713850493888722 0.8425534990122716
0.3016578113608695 0.7778098038064931
0.2814759700462046 0.6699036451301955
0.2814759700462046 0.5835787181891575
0.25120320807420726 0.5404162547186384
0.25120320807420726 0.6267411816596765
0.26129412873153973 0.6699036451301955
0.2713850493888722 0.6267411816596765
0.25120320807420726 0.6267411816596765
0.24111228741687485 0.5188350229833789
0.20074860478754505 0.2814414738955244
0.20074860478754505 0.13037285174870777
0.2310213667595424 0.0008854613371507181
0.2915668907035371 -0.19334562428018487
0.2713850493888722 -0.40915794163277996
0.26129412873153973 -0.5818077955148561
0.25120320807420726 -0.7544576493969322
0.31174873201820197 -0.7760388811321917
0.3420214939901993 -0.8407825763379702
0.35211241464753174 -0.9918511984847868
0.3622033353048642 -1.1213385888963439
0.3622033353048642 -1.2292447475726413
0.35211241464753174 -1.2508259793079008
0.3823851766195291 -1.1860822841021224
0.40256701793419397 -1.0565948936905654
0.40256701793419397 -0.9486887350142678
0.39247609727686156 -1.0350136619553059
0.3722942559621967 -1.0781761254258249
0.35211241464753174 -0.9702699667495273
0.40256701793419397 -0.8623638080732297
0.4631125418781887 -0.7112951859264132
0.5034762245075185 -0.6681327224558941
0.5135671451648509 -0.6465514907206346
0.5337489864795159 -0.6033890272501156
0.5337489864795159 -0.43073917336803946
0.5539308277941807 -0.36599547816226097
0.6144763517381754 -0.17176439254492537
0.6851127963395025 -0.06385823386862781
0.7153855583114999 0.022466693072410227
0.6750218756821701 0.1519540834839673
0.7456583202834972 0.1735353152192268
0.9272948921154812 0.34618516910130287
1.1089314639474652 0.5404162547186384
1.12911330526213 0.605159949924417
0.8869312094861515 0.561997486453898
0.4429307005635238 0.5188350229833789
-0.11206993558976079 0.605159949924417
-0.7881616196310347 0.7778098038064931
-1.534889748273636 0.9504596576885691
-2.2816178769162367 1.1878532067764238
-2.9274367989855135 1.2741781337174618
-3.4017100698801386 1.576315378011095
-3.7649832135441064 1.8568713905694685
-3.9668016266907555 2.5043083426272537
-4.06771083326408 3.10858283121452
-4.0979835952360775 3.6049511611254887
-4.158529119180072 3.950250868889641
-4.198892801809402 4.273969344918534
-4.239256484438732 4.46820043053587
-4.198892801809402 4.748756443094243
-4.168620039837404 4.85666260177054
-4.0979835952360775 4.9861499921820975
-4.007165309320086 4.9861499921820975
-3.8558014994600986 4.8782438335058
-3.61361940368412 4.8135001383000215
-3.2907099426494817 4.748756443094243
-2.987982322929508 4.532944125741648
-2.7458002271535293 4.144481954506976
-2.5742545759788777 3.6696948563312675
-2.422890766118891 3.4107200755081535
-2.321981559545567 3.324395148567115
-2.241254194286907 3.3459763803023748
-2.1201631463989177 3.238070221626077
-1.9183447332522687 3.065420367744001
-1.6357989548469603 2.720120659979849
-1.3431622557843192 2.2884960252746587
-1.131252921980338 1.9647775492457662
-0.8789799055470268 1.619477841481614
-0.5762522858270533 1.3820842923937593
-0.2432519041350826 1.0152033528943476
0.0796575568995557 0.648322413394936
0.3722942559621967 0.34618516910130287
0.604385431080843 -0.042277002133368304
0.8667493681714865 -0.40915794163277996
1.0887496226328004 -0.6249702589853751
1.2300225118354546 -0.7976201128674512
1.330931718408779 -0.9486887350142678
1.3813863216954414 -1.0997573571610844
1.3712954010381089 -1.0565948936905654
1.4822955282687658 -1.0350136619553059
1.5630228935274253 -1.0134324302200461
1.6336593381287525 -0.9702699667495273
1.714386703387412 -1.1429198206316034
1.7850231479887393 -1.2076635158373819
1.8657505132473988 -1.2939884427784198
1.9868415611353882 -1.2939884427784198
2.1079326090233774 -1.3155696745136793
2.229023656911367 -1.3371509062489388
2.3400237841420237 -1.509800760131015
2.430842070058016 -1.639288150542572
2.5115694353166753 -1.6608693822778315
2.6427514038619973 -1.639288150542572
2.814297055036649 -1.682450614013091
2.9656608648966354 -1.7471943092188695
3.0665700714699597 -1.8766816996304267
3.1977520400152817 -2.0277503217772432
3.298661246588606 -2.0709127852477622
3.429843215133928 -2.1572377121888002
3.6013888663085796 -2.243562639129838
3.7628435968258986 -2.394631261276655
3.8738437240565555 -2.61044357862925
3.9444801686578828 -2.9125808229228833
4.005025692601878 -3.0420682133344403
4.085753057860537 -3.1068119085402186
4.196753185091194 -3.2147180672165163
4.237116867720524 -3.365786689363333
4.196753185091194 -3.624761470186447
4.186662264433862 -3.797411324068523
4.1462985818045315 -3.883736251009561
4.09584397851787 -4.013223641421118
4.075662137203205 -3.9916424096858587
4.045389375231207 -4.077967336626896
3.964662009972548 -4.185873495303194
3.8435709620845584 -4.250617190508973
3.742661755511234 -4.229035958773713
3.672025310909907 -4.229035958773713
3.6215707076232446 -4.164292263567935
3.5206615010499203 -4.121129800097416
3.3894795325045983 -4.077967336626896
3.2280248019872793 -4.077967336626896
3.10693375409929 -4.034804873156378
2.945479023581971 -3.883736251009561
2.8546607376659785 -3.711086397127485
2.7436606104353216 -3.538436543245409
2.622569562547332 -3.5600177749806683
2.440932990715348 -3.4305303845691113
2.279478260198029 -3.2362992989517756
2.168478132967372 -2.9989057498639213
2.087750767708713 -2.7615122007760666
1.9969324817927205 -2.6320248103645096
1.8354777512754015 -2.5456998834234716
1.6841139414154147 -2.416212493011914
1.6134774968140877 -2.2004001756593192
1.5125682902407631 -2.0277503217772432
1.4318409249821036 -1.768775540954129
1.330931718408779 -1.639288150542572
1.2502043531501195 -1.5745444553367935
1.16947698789146 -1.466638296660496
1.0786587019754679 -1.3155696745136793
1.0080222573741409 -1.0781761254258249
0.9373858127728136 -0.9055262715437487
0.8869312094861515 -0.7760388811321917
0.8162947648848243 -0.6897139541911536
0.6952037169968349 -0.6249702589853751
0.6548400343675052 -0.4739016368385585
0.6548400343675052 -0.2796705512212229
0.6144763517381754 -0.17176439254492537
0.584203589766178 -0.08543946560388732
0.5337489864795159 -0.06385823386862781
0.5135671451648509 -0.08543946560388732
0.5034762245075185 -0.02069577039810879
0.5034762245075185 -0.042277002133368304
0.5135671451648509 -0.08543946560388732
0.5135671451648509 -0.10702069733914683
0.4732034625355211 -0.2365080877507039
0.4530216212208562 -0.38757670989752047
0.41265793859152644 -0.40915794163277996
0.4429307005635238 -0.40915794163277996
0.4429307005635238 -0.3444142464270014
0.4732034625355211 -0.452320405103299
0.4631125418781887 -0.495482868573818
0.4227488592488589 -0.5818077955148561
0.33193057333286685 -0.6249702589853751
0.31174873201820197 -0.6897139541911536
0.3420214939901993 -0.6681327224558941
0.3722942559621967 -0.7328764176616727
0.3016578113608695 -0.8407825763379702
0.25120320807420726 -0.8623638080732297
0.1906576841302126 -0.8623638080732297
0.2310213667595424 -0.8623638080732297
0.25120320807420726 -0.7760388811321917
0.24111228741687485 -0.7976201128674512
0.2108395254448775 -0.8407825763379702
0.1906576841302126 -0.9055262715437487
0.20074860478754505 -0.9055262715437487
0.18056676347288017 -0.8623638080732297
0.20074860478754505 -0.7760388811321917
0.2108395254448775 -0.7544576493969322
0.17047584281554773 -0.7976201128674512
0.12002123952888548 -0.8192013446027107
0.04938479492755835 -0.7976201128674512
0.06956663624222324 -0.6249702589853751
0.06956663624222324 -0.5170641003090776
0.14020308084355038 -0.38757670989752047
0.09983939821422058 -0.40915794163277996
0.0796575568995557 -0.40915794163277996
-0.0010698083591038797 -0.36599547816226097
0.009021112298228566 -0.2796705512212229
0.0594757155848908 -0.2365080877507039
0.0796575568995557 -0.17176439254492537
0.04938479492755835 -0.21492685601544437
0.019112032955561013 -0.17176439254492537
-0.011160729016436326 -0.10702069733914683
0.04938479492755835 0.0008854613371507181
0.04938479492755835 0.04404792480766974
0.0594757155848908 0.022466693072410227
0.029202953612893462 0.022466693072410227
-0.0010698083591038797 0.0008854613371507181
-0.0010698083591038797 0.022466693072410227
-0.011160729016436326 0.13037285174870777
0.029202953612893462 0.21669777868974582
0.029202953612893462 0.23827901042500532
0.019112032955561013 0.1735353152192268
-0.0010698083591038797 0.1735353152192268
-0.05152441164576611 0.1735353152192268
0.009021112298228566 0.32460393736604337
0.03929387427022591 0.34618516910130287
0.029202953612893462 0.3030227056307839
-0.0010698083591038797 0.3030227056307839
-0.021251649673768774 0.23827901042500532
-0.06161533230309856 0.3030227056307839
-0.041433490988433665 0.3893476325718219
-0.011160729016436326 0.4540913277776004
0.009021112298228566 0.3893476325718219
-0.011160729016436326 0.3893476325718219
-0.03134257033110122 0.36776640083656237
-0.03134257033110122 0.36776640083656237
-0.0010698083591038797 0.5188350229833789
-0.011160729016436326 0.5835787181891575
-0.021251649673768774 0.561997486453898
-0.011160729016436326 0.561997486453898
-0.041433490988433665 0.4540913277776004
-0.0918880942750959 0.4109288643070814
-0.0918880942750959 0.49725379124811947
-0.10197901493242835 0.5404162547186384
-0.03134257033110122 0.36776640083656237
-0.041433490988433665 0.1951165469544863
-0.041433490988433665 -0.02069577039810879
-0.08179717361776345 -0.21492685601544437
-0.03134257033110122 -0.40915794163277996
0.029202953612893462 -0.5602265637795966
0.0594757155848908 -0.7976201128674512
0.03929387427022591 -1.0565948936905654
0.029202953612893462 -1.1213385888963439
0.029202953612893462 -1.0350136619553059
0.0594757155848908 -1.0350136619553059
0.04938479492755835 -1.0350136619553059
0.009021112298228566 -0.9918511984847868
-0.0010698083591038797 -1.0565948936905654
-0.05152441164576611 -1.0565948936905654
-0.06161533230309856 -0.9918511984847868
-0.03134257033110122 -0.9271075032790083
0.009021112298228566 -0.8192013446027107
0.009021112298228566 -0.7544576493969322
0.019112032955561013 -0.7760388811321917
0.029202953612893462 -0.7328764176616727
0.04938479492755835 -0.7112951859264132
0.009021112298228566 -0.6249702589853751
0.0594757155848908 -0.452320405103299
0.10993031887155304 -0.5170641003090776
0.10993031887155304 -0.495482868573818
0.0796575568995557 -0.4739016368385585
0.029202953612893462 -0.43073917336803946
0.06956663624222324 -0.3012517829564824
0.08974847755688814 -0.21492685601544437
0.14020308084355038 -0.17176439254492537
0.09983939821422058 -0.2796705512212229
0.04938479492755835 -0.2796705512212229
0.029202953612893462 -0.19334562428018487
0.08974847755688814 -0.12860192907440635
0.13011216018621793 -0.06385823386862781
0.12002123952888548 -0.06385823386862781
0.08974847755688814 -0.10702069733914683
0.06956663624222324 -0.15018316080966584
0.0796575568995557 -0.08543946560388732
0.06956663624222324 -0.042277002133368304
0.08974847755688814 0.04404792480766974
0.08974847755688814 0.022466693072410227
0.10993031887155304 -0.042277002133368304
0.0594757155848908 -0.08543946560388732
0.04938479492755835 -0.06385823386862781
0.0594757155848908 0.022466693072410227
0.10993031887155304 0.10879162001344826
0.10993031887155304 0.04404792480766974
0.10993031887155304 -0.042277002133368304
0.0796575568995557 -0.08543946560388732
0.0796575568995557 -0.06385823386862781
0.08974847755688814 0.04404792480766974
0.10993031887155304 0.022466693072410227
0.13011216018621793 0.06562915654292925
0.08974847755688814 0.022466693072410227
0.0594757155848908 -0.15018316080966584
0.0594757155848908 -0.17176439254492537
0.03929387427022591 -0.19334562428018487
0.04938479492755835 -0.2365080877507039
0.0594757155848908 -0.36599547816226097
0.03929387427022591 -0.5386453320443371
0.029202953612893462 -0.7112951859264132
0.029202953612893462 -0.8623638080732297
0.019112032955561013 -0.8407825763379702
0.019112032955561013 -0.8192013446027107
0.029202953612893462 -0.7976201128674512
-0.011160729016436326 -0.7760388811321917
-0.021251649673768774 -0.7760388811321917
-0.041433490988433665 -0.5602265637795966
-0.03134257033110122 -0.495482868573818
0.08974847755688814 -0.36599547816226097
0.13011216018621793 -0.3228330146917419
0.08974847755688814 -0.3228330146917419
0.0796575568995557 -0.3228330146917419
0.0796575568995557 -0.2580893194859634
0.12002123952888548 -0.19334562428018487
0.14020308084355038 -0.06385823386862781
0.17047584281554773 -0.042277002133368304
0.13011216018621793 -0.02069577039810879
0.14020308084355038 -0.042277002133368304
0.08974847755688814 0.08721038827818876
0.12002123952888548 0.13037285174870777
0.15029400150088282 0.32460393736604337
0.18056676347288017 0.3030227056307839
0.16038492215821526 0.2814414738955244
0.09983939821422058 0.21669777868974582
0.06956663624222324 0.32460393736604337
0.10993031887155304 0.4109288643070814
0.12002123952888548 0.561997486453898
0.16038492215821526 0.5188350229833789
0.2108395254448775 0.5188350229833789
0.24111228741687485 0.4756725595128599
0.25120320807420726 0.5404162547186384
0.2310213667595424 0.6699036451301955
0.1906576841302126 0.7562285720712336
0.22093044610220994 0.7993910355417526
0.13011216018621793 0.7562285720712336
-0.03134257033110122 0.7993910355417526
-0.14234269756175813 0.8857159624827906
-0.2028882215057528 0.8209722672770121
-0.16252453887642304 0.8209722672770121
-0.0010698083591038797 0.648322413394936
0.1906576841302126 0.3893476325718219
0.4530216212208562 0.08721038827818876
0.6548400343675052 -0.3012517829564824
0.8566584475141541 -0.7976201128674512
1.058476860660803 -1.2076635158373819
1.330931718408779 -1.596125687072053
1.5832047348420903 -1.8766816996304267
1.7345685447020769 -2.17881894392406
1.8859323545620637 -2.5456998834234716
1.9464778785060584 -2.869418359452364
1.8758414339047311 -3.2147180672165163
1.7446594653594094 -3.4305303845691113
1.5731138141847578 -3.538436543245409
1.3813863216954414 -3.452111616304371
1.149295146576795 -3.2578805306870353
0.8566584475141541 -2.9341620546581426
0.5438399071368483 -2.5456998834234716
0.3420214939901993 -2.243562639129838
0.12002123952888548 -1.9414253948362052
-0.05152441164576611 -1.7040318457483505
-0.18270638019108792 -1.4018946014547173
-0.16252453887642304 -1.0781761254258249
-0.15243361821909057 -0.8407825763379702
-0.14234269756175813 -0.7328764176616727
-0.19279730084842037 -0.6897139541911536
-0.22307006282041772 -0.6465514907206346
-0.2836155867644124 -0.5386453320443371
-0.27352466610707993 -0.36599547816226097
-0.2937065074217448 -0.17176439254492537
-0.2634337454497475 -0.06385823386862781
-0.27352466610707993 -0.08543946560388732
-0.32397926939374216 0.04404792480766974
-0.33407019005107463 0.1735353152192268
-0.3542520313657395 0.3030227056307839
-0.3037974280790773 0.4540913277776004
-0.2836155867644124 0.5188350229833789
-0.2634337454497475 0.4756725595128599
-0.32397926939374216 0.4756725595128599
-0.33407019005107463 0.5835787181891575
-0.3037974280790773 0.691484876865455
-0.27352466610707993 0.7778098038064931
-0.2634337454497475 0.7993910355417526
-0.2937065074217448 0.734647340335974
-0.32397926939374216 0.7130661086007145
-0.31388834873640975 0.734647340335974
-0.27352466610707993 0.7562285720712336
-0.25334282479241504 0.9288784259533096
-0.25334282479241504 0.8857159624827906
-0.25334282479241504 0.7562285720712336
-0.25334282479241504 0.734647340335974
-0.2634337454497475 0.734647340335974
-0.2634337454497475 0.734647340335974
-0.23316098347775016 0.7130661086007145
-0.19279730084842037 0.6699036451301955
-0.22307006282041772 0.605159949924417
-0.2432519041350826 0.49725379124811947
-0.25334282479241504 0.36776640083656237
-0.22307006282041772 0.3030227056307839
-0.16252453887642304 0.2598602421602648
-0.14234269756175813 0.21669777868974582
-0.12216085624709325 0.06562915654292925
-0.10197901493242835 -0.08543946560388732
-0.0918880942750959 -0.21492685601544437
-0.041433490988433665 -0.3228330146917419
0.019112032955561013 -0.43073917336803946
0.0594757155848908 -0.5602265637795966
0.0594757155848908 -0.6465514907206346
0.06956663624222324 -0.7976201128674512
0.06956663624222324 -0.8192013446027107
0.08974847755688814 -0.7544576493969322
0.0796575568995557 -0.6897139541911536
0.12002123952888548 -0.6465514907206346
0.10993031887155304 -0.6897139541911536
0.04938479492755835 -0.7112951859264132
0.0594757155848908 -0.6465514907206346
0.08974847755688814 -0.5602265637795966
0.16038492215821526 -0.36599547816226097
0.18056676347288017 -0.2365080877507039
0.18056676347288017 -0.3228330146917419
0.15029400150088282 -0.2796705512212229
0.16038492215821526 -0.21492685601544437
0.18056676347288017 -0.08543946560388732
0.2310213667595424 0.0008854613371507181
0.2713850493888722 0.04404792480766974
0.2915668907035371 0.06562915654292925
0.26129412873153973 0.08721038827818876
0.25120320807420726 0.10879162001344826
0.2915668907035371 0.2814414738955244
0.3420214939901993 0.3893476325718219
0.3823851766195291 0.3893476325718219
0.39247609727686156 0.3893476325718219
0.3722942559621967 0.4756725595128599
0.32183965267553444 0.4756725595128599
0.3622033353048642 0.5835787181891575
0.40256701793419397 0.648322413394936
0.4227488592488589 0.648322413394936
0.40256701793419397 0.648322413394936
0.3823851766195291 0.605159949924417
0.3722942559621967 0.6267411816596765
0.39247609727686156 0.6699036451301955
0.40256701793419397 0.6699036451301955
0.41265793859152644 0.648322413394936
0.4328397799061913 0.6267411816596765
0.3622033353048642 0.5188350229833789
0.3420214939901993 0.5404162547186384
0.3420214939901993 0.561997486453898
0.3823851766195291 0.6267411816596765
0.3823851766195291 0.5404162547186384
0.33193057333286685 0.4109288643070814
0.31174873201820197 0.34618516910130287
0.33193057333286685 0.2814414738955244
0.3622033353048642 0.3030227056307839
0.41265793859152644 0.23827901042500532
0.4227488592488589 0.06562915654292925
0.39247609727686156 -0.08543946560388732
0.39247609727686156 -0.2796705512212229
0.39247609727686156 -0.495482868573818
0.39247609727686156 -0.5386453320443371
0.40256701793419397 -0.5602265637795966
0.4429307005635238 -0.7976201128674512
0.4631125418781887 -0.9486887350142678
0.4530216212208562 -1.1213385888963439
0.4328397799061913 -1.1213385888963439
0.41265793859152644 -1.0781761254258249
0.40256701793419397 -0.9486887350142678
0.39247609727686156 -0.9486887350142678
0.3722942559621967 -1.0134324302200461
0.3622033353048642 -1.0134324302200461
0.39247609727686156 -0.9055262715437487
0.39247609727686156 -0.8407825763379702
0.4328397799061913 -0.7328764176616727
0.4530216212208562 -0.6249702589853751
0.4631125418781887 -0.6465514907206346
0.4328397799061913 -0.6249702589853751
0.39247609727686156 -0.5602265637795966
0.3823851766195291 -0.40915794163277996
0.4227488592488589 -0.2580893194859634
0.4328397799061913 -0.2365080877507039
0.4328397799061913 -0.19334562428018487
0.4530216212208562 -0.10702069733914683
0.4631125418781887 -0.042277002133368304
0.4631125418781887 0.04404792480766974
0.49338530385018603 0.1735353152192268
0.48329438319285356 0.1951165469544863
0.5034762245075185 0.1951165469544863
0.5236580658221833 0.1735353152192268
0.49338530385018603 0.2598602421602648
0.5034762245075185 0.32460393736604337
0.5236580658221833 0.4540913277776004
0.5539308277941807 0.4756725595128599
0.5539308277941807 0.4109288643070814
0.5135671451648509 0.36776640083656237
0.5236580658221833 0.34618516910130287
0.5438399071368483 0.4109288643070814
0.5741126691088456 0.4325100960423409
0.5741126691088456 0.4756725595128599
0.5438399071368483 0.3893476325718219
0.5236580658221833 0.36776640083656237
0.5236580658221833 0.3893476325718219
0.5337489864795159 0.4109288643070814
0.5236580658221833 0.3893476325718219
0.5337489864795159 0.32460393736604337
0.5539308277941807 0.1735353152192268
0.5236580658221833 -0.06385823386862781
0.5135671451648509 -0.15018316080966584
0.5337489864795159 -0.19334562428018487
0.5539308277941807 -0.2365080877507039
0.5741126691088456 -0.36599547816226097
0.5438399071368483 -0.5602265637795966
0.49338530385018603 -0.6465514907206346
0.48329438319285356 -0.7112951859264132
0.48329438319285356 -0.7328764176616727
0.48329438319285356 -0.6465514907206346
0.4429307005635238 -0.6465514907206346
0.4227488592488589 -0.8407825763379702
0.39247609727686156 -0.8407825763379702
0.3622033353048642 -0.7976201128674512
0.3420214939901993 -0.7328764176616727
0.3420214939901993 -0.6681327224558941
0.35211241464753174 -0.6465514907206346
0.35211241464753174 -0.6897139541911536
0.32183965267553444 -0.6681327224558941
0.2814759700462046 -0.6681327224558941
0.2814759700462046 -0.4739016368385585
0.3420214939901993 -0.38757670989752047
0.3622033353048642 -0.3228330146917419
0.3622033353048642 -0.38757670989752047
0.2814759700462046 -0.40915794163277996
0.2814759700462046 -0.40915794163277996
0.31174873201820197 -0.3012517829564824
0.32183965267553444 -0.19334562428018487
0.3420214939901993 -0.21492685601544437
0.3420214939901993 -0.2365080877507039
0.33193057333286685 -0.3228330146917419
0.33193057333286685 -0.19334562428018487
0.32183965267553444 -0.06385823386862781
0.32183965267553444 0.022466693072410227
0.31174873201820197 -0.042277002133368304
0.2713850493888722 0.022466693072410227
0.26129412873153973 0.0008854613371507181
0.20074860478754505 0.08721038827818876
0.2108395254448775 0.21669777868974582
0.2310213667595424 0.3030227056307839
0.2814759700462046 0.2814414738955244
0.22093044610220994 0.13037285174870777
0.1906576841302126 0.04404792480766974
0.20074860478754505 0.06562915654292925
0.2310213667595424 0.10879162001344826
0.2814759700462046 0.1519540834839673
0.2915668907035371 0.10879162001344826
0.26129412873153973 0.0008854613371507181
0.22093044610220994 -0.06385823386862781
0.2310213667595424 0.0008854613371507181
0.26129412873153973 0.06562915654292925
0.2814759700462046 0.08721038827818876
0.2713850493888722 0.08721038827818876
0.25120320807420726 -0.02069577039810879
0.2310213667595424 -0.06385823386862781
0.2310213667595424 -0.12860192907440635
0.2713850493888722 -0.08543946560388732
0.2814759700462046 -0.15018316080966584
0.2713850493888722 -0.19334562428018487
0.25120320807420726 -0.2796705512212229
0.2814759700462046 -0.36599547816226097
0.2713850493888722 -0.38757670989752047
0.2915668907035371 -0.43073917336803946
0.3016578113608695 -0.40915794163277996
0.33193057333286685 -0.4739016368385585
0.32183965267553444 -0.5818077955148561
0.25120320807420726 -0.6465514907206346
0.20074860478754505 -0.6681327224558941
0.18056676347288017 -0.5818077955148561
0.22093044610220994 -0.5170641003090776
0.2310213667595424 -0.4739016368385585
0.20074860478754505 -0.5170641003090776
0.16038492215821526 -0.5602265637795966
0.15029400150088282 -0.5170641003090776
0.18056676347288017 -0.495482868573818
0.2108395254448775 -0.38757670989752047
0.22093044610220994 -0.38757670989752047
0.1906576841302126 -0.40915794163277996
0.12002123952888548 -0.38757670989752047
0.13011216018621793 -0.36599547816226097
0.20074860478754505 -0.2796705512212229
0.20074860478754505 -0.19334562428018487
0.18056676347288017 -0.21492685601544437
0.15029400150088282 -0.3012517829564824
0.15029400150088282 -0.2796705512212229
0.12002123952888548 -0.19334562428018487
0.10993031887155304 -0.17176439254492537
0.17047584281554773 -0.12860192907440635
0.25120320807420726 -0.12860192907440635
0.26129412873153973 -0.10702069733914683
0.22093044610220994 -0.17176439254492537
0.18056676347288017 -0.15018316080966584
0.20074860478754505 -0.06385823386862781
0.24111228741687485 0.08721038827818876
0.24111228741687485 0.06562915654292925
0.2108395254448775 0.022466693072410227
0.18056676347288017 -0.10702069733914683
0.17047584281554773 -0.08543946560388732
0.18056676347288017 -0.042277002133368304
0.2108395254448775 0.022466693072410227
0.2108395254448775 0.04404792480766974
0.1906576841302126 0.0008854613371507181
0.15029400150088282 0.08721038827818876
0.16038492215821526 0.08721038827818876
0.18056676347288017 0.1951165469544863
0.16038492215821526 0.3030227056307839
0.1906576841302126 0.2814414738955244
0.17047584281554773 0.23827901042500532
0.14020308084355038 0.23827901042500532
0.15029400150088282 0.3030227056307839
0.18056676347288017 0.4540913277776004
0.20074860478754505 0.49725379124811947
0.2310213667595424 0.4540913277776004
0.2108395254448775 0.2814414738955244
0.20074860478754505 0.1735353152192268
0.18056676347288017 0.10879162001344826
0.18056676347288017 0.06562915654292925
0.2310213667595424 -0.042277002133368304
0.25120320807420726 -0.15018316080966584
0.24111228741687485 -0.2580893194859634
0.20074860478754505 -0.4739016368385585
0.2310213667595424 -0.495482868573818
0.26129412873153973 -0.4739016368385585
0.3016578113608695 -0.43073917336803946
0.26129412873153973 -0.4739016368385585
0.18056676347288017 -0.4739016368385585
0.18056676347288017 -0.6249702589853751
0.15029400150088282 -0.6033890272501156
0.16038492215821526 -0.5602265637795966
0.17047584281554773 -0.495482868573818
0.20074860478754505 -0.40915794163277996
0.2310213667595424 -0.5170641003090776
0.20074860478754505 -0.495482868573818
0.17047584281554773 -0.495482868573818
0.1906576841302126 -0.452320405103299
0.22093044610220994 -0.36599547816226097
0.2814759700462046 -0.3444142464270014
0.2108395254448775 -0.3444142464270014
0.22093044610220994 -0.3444142464270014
0.18056676347288017 -0.3228330146917419
0.2108395254448775 -0.3228330146917419
0.2108395254448775 -0.2580893194859634
0.2108395254448775 -0.2365080877507039
0.2108395254448775 -0.3012517829564824
0.1906576841302126 -0.3228330146917419
0.2108395254448775 -0.3012517829564824
0.24111228741687485 -0.2580893194859634
0.25120320807420726 -0.19334562428018487
0.22093044610220994 -0.17176439254492537
0.24111228741687485 -0.2796705512212229
0.1906576841302126 -0.3228330146917419
0.17047584281554773 -0.2580893194859634
0.17047584281554773 -0.19334562428018487
0.1906576841302126 -0.15018316080966584
0.22093044610220994 -0.12860192907440635
0.20074860478754505 -0.15018316080966584
0.16038492215821526 -0.2365080877507039
0.15029400150088282 -0.2580893194859634
0.16038492215821526 -0.042277002133368304
0.20074860478754505 0.0008854613371507181
0.2108395254448775 0.022466693072410227
0.20074860478754505 0.04404792480766974
0.18056676347288017 0.022466693072410227
0.18056676347288017 0.08721038827818876
0.13011216018621793 0.21669777868974582
0.16038492215821526 0.36776640083656237
0.2108395254448775 0.3893476325718219
0.2310213667595424 0.3893476325718219
0.22093044610220994 0.4540913277776004
0.2310213667595424 0.5404162547186384
0.1906576841302126 0.5404162547186384
0.26129412873153973 0.561997486453898
0.35211241464753174 0.5188350229833789
0.4328397799061913 0.2814414738955244
0.4732034625355211 0.06562915654292925
0.5034762245075185 -0.08543946560388732
0.584203589766178 -0.3012517829564824
0.7355673996261647 -0.5602265637795966
0.8970221301434839 -0.9918511984847868
1.1089314639474652 -1.3803133697194578
1.3914772423527737 -1.72561307748361
1.6538411794434174 -2.0709127852477622
1.8859323545620637 -2.329887566070876
2.097841688366045 -2.5888623468939906
2.279478260198029 -2.8046746642465856
2.521660355974008 -2.9341620546581426
2.703296927805992 -2.9989057498639213
2.7840242930646513 -3.0852306768049593
2.844569817008646 -3.2794617624222946
2.864751658323311 -3.3442054576280733
2.733569689777989 -3.538436543245409
2.541842197288673 -3.581599006715928
2.329932863484691 -3.5168553115101493
2.0574780057367152 -3.3442054576280733
1.7345685447020769 -2.9125808229228833
1.3712954010381089 -2.524118651688212
0.9474767334301462 -2.286725102600357
0.604385431080843 -1.8982629313656862
0.3722942559621967 -1.639288150542572
0.15029400150088282 -1.2292447475726413
0.009021112298228566 -0.8839450398084892
-0.011160729016436326 -0.6465514907206346
-0.021251649673768774 -0.5170641003090776
-0.08179717361776345 -0.5170641003090776
-0.2028882215057528 -0.495482868573818
-0.23316098347775016 -0.43073917336803946
-0.2634337454497475 -0.2580893194859634
-0.25334282479241504 -0.15018316080966584
-0.27352466610707993 -0.15018316080966584
-0.34416111070840705 -0.17176439254492537
-0.40470663465240175 -0.12860192907440635
-0.4450703172817315 -0.042277002133368304
-0.4349793966243991 0.08721038827818876
-0.4147975553097342 0.08721038827818876
-0.4349793966243991 0.04404792480766974
-0.4652521585963964 0.022466693072410227
-0.5056158412257262 -0.02069577039810879
-0.5257976825403912 0.04404792480766974
-0.48543399991106134 0.1519540834839673
-0.4753430792537289 0.21669777868974582
-0.42488847596706664 0.1519540834839673
-0.4652521585963964 0.08721038827818876
-0.49552492056839376 -0.02069577039810879
-0.5056158412257262 0.0008854613371507181
-0.48543399991106134 -0.02069577039810879
-0.42488847596706664 0.022466693072410227
-0.4147975553097342 -0.08543946560388732
-0.455161237939064 -0.2580893194859634
-0.4753430792537289 -0.43073917336803946
-0.4450703172817315 -0.6249702589853751
-0.42488847596706664 -0.5818077955148561
-0.42488847596706664 -0.6681327224558941
-0.364342952023072 -0.6249702589853751
-0.3744338726804044 -0.6249702589853751
-0.31388834873640975 -0.6897139541911536
-0.33407019005107463 -0.6033890272501156
-0.31388834873640975 -0.4739016368385585
-0.25334282479241504 -0.3444142464270014
-0.2028882215057528 -0.3444142464270014
-0.19279730084842037 -0.3228330146917419
-0.21297914216308525 -0.2796705512212229
-0.21297914216308525 -0.2580893194859634
-0.15243361821909057 -0.19334562428018487
-0.11206993558976079 -0.06385823386862781
-0.07170625296043101 -0.06385823386862781
-0.12216085624709325 0.0008854613371507181
-0.16252453887642304 -0.06385823386862781
-0.1322517769044257 0.13037285174870777
-0.07170625296043101 0.21669777868974582
0.029202953612893462 0.32460393736604337
0.0594757155848908 0.4109288643070814
0.019112032955561013 0.4109288643070814
0.03929387427022591 0.4325100960423409
0.0796575568995557 0.5404162547186384
0.09983939821422058 0.6699036451301955
0.17047584281554773 0.7562285720712336
0.2108395254448775 0.7778098038064931
0.2108395254448775 0.691484876865455
0.20074860478754505 0.734647340335974
0.24111228741687485 0.7562285720712336
0.24111228741687485 0.9072971942180501
0.26129412873153973 0.9072971942180501
0.31174873201820197 0.8425534990122716
0.33193057333286685 0.8209722672770121
0.3622033353048642 0.7778098038064931
0.35211241464753174 0.8209722672770121
0.3622033353048642 0.7778098038064931
0.3722942559621967 0.9072971942180501
0.4227488592488589 0.8209722672770121
0.3823851766195291 0.7562285720712336
0.35211241464753174 0.691484876865455
0.2713850493888722 0.7130661086007145
0.3420214939901993 0.734647340335974
0.33193057333286685 0.8425534990122716
0.31174873201820197 0.734647340335974
0.2713850493888722 0.691484876865455
0.2108395254448775 0.5404162547186384
0.2108395254448775 0.561997486453898
0.22093044610220994 0.5188350229833789
0.22093044610220994 0.49725379124811947
0.20074860478754505 0.32460393736604337
0.17047584281554773 0.21669777868974582
0.16038492215821526 0.022466693072410227
0.10993031887155304 -0.17176439254492537
0.10993031887155304 -0.19334562428018487
0.13011216018621793 -0.3228330146917419
0.17047584281554773 -0.43073917336803946
0.13011216018621793 -0.5818077955148561
0.08974847755688814 -0.7544576493969322
0.0796575568995557 -0.8192013446027107
0.08974847755688814 -0.8623638080732297
0.16038492215821526 -0.7976201128674512
0.16038492215821526 -0.8407825763379702
0.14020308084355038 -0.9486887350142678
0.12002123952888548 -0.8623638080732297
0.15029400150088282 -0.8192013446027107
0.20074860478754505 -0.6249702589853751
0.2310213667595424 -0.5818077955148561
0.25120320807420726 -0.495482868573818
0.25120320807420726 -0.5170641003090776
0.2310213667595424 -0.452320405103299
0.2310213667595424 -0.3444142464270014
0.26129412873153973 -0.2365080877507039
0.2713850493888722 -0.08543946560388732
0.2814759700462046 -0.02069577039810879
0.2713850493888722 -0.08543946560388732
0.2310213667595424 -0.06385823386862781
0.20074860478754505 -0.042277002133368304
0.2108395254448775 0.10879162001344826
0.24111228741687485 0.2598602421602648
0.2310213667595424 0.23827901042500532
0.2108395254448775 0.23827901042500532
0.2310213667595424 0.2814414738955244
0.2108395254448775 0.3030227056307839
0.25120320807420726 0.4325100960423409
0.25120320807420726 0.5188350229833789
0.2713850493888722 0.5188350229833789
0.25120320807420726 0.49725379124811947
0.20074860478754505 0.5188350229833789
0.17047584281554773 0.4756725595128599
0.15029400150088282 0.605159949924417
0.18056676347288017 0.605159949924417
0.1906576841302126 0.6267411816596765
0.14020308084355038 0.49725379124811947
0.08974847755688814 0.4756725595128599
0.029202953612893462 0.49725379124811947
0.0594757155848908 0.6267411816596765
0.09983939821422058 0.6267411816596765
0.08974847755688814 0.5404162547186384
0.04938479492755835 0.4325100960423409
0.019112032955561013 0.34618516910130287
-0.021251649673768774 0.4109288643070814
-0.041433490988433665 0.21669777868974582
-0.0010698083591038797 0.13037285174870777
0.009021112298228566 -0.042277002133368304
0.03929387427022591 -0.3444142464270014
-0.011160729016436326 -0.5170641003090776
-0.03134257033110122 -0.6681327224558941
-0.03134257033110122 -0.7328764176616727
0.009021112298228566 -0.7112951859264132
-0.0010698083591038797 -0.7112951859264132
-0.06161533230309856 -0.7544576493969322
-0.08179717361776345 -0.7328764176616727
-0.06161533230309856 -0.7544576493969322
-0.011160729016436326 -0.6033890272501156
-0.0010698083591038797 -0.5170641003090776
0.009021112298228566 -0.4739016368385585
-0.011160729016436326 -0.495482868573818
0.019112032955561013 -0.4739016368385585
-0.0010698083591038797 -0.452320405103299
0.019112032955561013 -0.2580893194859634
0.03929387427022591 -0.21492685601544437
0.06956663624222324 -0.17176439254492537
0.0594757155848908 -0.19334562428018487
-0.0010698083591038797 -0.19334562428018487
-0.0010698083591038797 -0.17176439254492537
0.029202953612893462 0.022466693072410227
0.029202953612893462 0.13037285174870777
0.06956663624222324 0.10879162001344826
0.0796575568995557 0.08721038827818876
0.04938479492755835 0.13037285174870777
0.03929387427022591 0.1951165469544863
0.04938479492755835 0.2598602421602648
0.06956663624222324 0.32460393736604337
0.08974847755688814 0.3030227056307839
0.06956663624222324 0.1951165469544863
0.019112032955561013 0.10879162001344826
0.029202953612893462 0.1735353152192268
0.019112032955561013 0.2598602421602648
0.06956663624222324 0.2814414738955244
0.06956663624222324 0.23827901042500532
0.03929387427022591 0.10879162001344826
0.0594757155848908 0.08721038827818876
0.03929387427022591 0.10879162001344826
0.03929387427022591 0.21669777868974582
0.10993031887155304 0.2814414738955244
0.12002123952888548 0.21669777868974582
0.0796575568995557 0.08721038827818876
0.03929387427022591 0.022466693072410227
0.03929387427022591 0.06562915654292925
0.029202953612893462 0.10879162001344826
0.08974847755688814 0.1519540834839673
0.06956663624222324 0.04404792480766974
0.029202953612893462 -0.042277002133368304
0.019112032955561013 -0.12860192907440635
0.029202953612893462 -0.3228330146917419
0.029202953612893462 -0.36599547816226097
0.029202953612893462 -0.40915794163277996
0.019112032955561013 -0.5386453320443371
-0.03134257033110122 -0.6249702589853751
-0.05152441164576611 -0.7112951859264132
-0.06161533230309856 -0.7112951859264132
-0.08179717361776345 -0.6681327224558941
-0.07170625296043101 -0.6249702589853751
-0.10197901493242835 -0.6897139541911536
-0.0918880942750959 -0.6681327224558941
-0.11206993558976079 -0.6897139541911536
-0.11206993558976079 -0.6249702589853751
-0.10197901493242835 -0.4739016368385585
-0.07170625296043101 -0.38757670989752047
-0.06161533230309856 -0.2796705512212229
-0.06161533230309856 -0.3012517829564824
-0.08179717361776345 -0.3012517829564824
-0.0918880942750959 -0.19334562428018487
-0.0918880942750959 -0.06385823386862781
-0.0918880942750959 0.0008854613371507181
-0.06161533230309856 0.04404792480766974
-0.06161533230309856 0.06562915654292925
-0.1322517769044257 0.022466693072410227
-0.10197901493242835 0.08721038827818876
-0.06161533230309856 0.1951165469544863
-0.05152441164576611 0.3030227056307839
-0.06161533230309856 0.34618516910130287
-0.10197901493242835 0.3030227056307839
-0.1322517769044257 0.2598602421602648
-0.11206993558976079 0.32460393736604337
-0.10197901493242835 0.3030227056307839
-0.0918880942750959 0.32460393736604337
-0.05152441164576611 0.2814414738955244
-0.07170625296043101 0.21669777868974582
-0.0918880942750959 0.10879162001344826
-0.12216085624709325 0.1519540834839673
-0.06161533230309856 0.08721038827818876
-0.03134257033110122 0.10879162001344826
-0.03134257033110122 0.06562915654292925
-0.05152441164576611 -0.02069577039810879
-0.06161533230309856 -0.06385823386862781
-0.03134257033110122 -0.02069577039810879
-0.03134257033110122 0.022466693072410227
-0.0010698083591038797 0.08721038827818876
-0.011160729016436326 0.06562915654292925
-0.041433490988433665 0.0008854613371507181
-0.041433490988433665 -0.042277002133368304
-0.05152441164576611 -0.06385823386862781
-0.05152441164576611 -0.02069577039810879
-0.021251649673768774 0.022466693072410227
-0.0010698083591038797 -0.06385823386862781
-0.021251649673768774 -0.15018316080966584
-0.021251649673768774 -0.2580893194859634
-0.011160729016436326 -0.38757670989752047
0.019112032955561013 -0.40915794163277996
0.0594757155848908 -0.495482868573818
0.0594757155848908 -0.5818077955148561
0.04938479492755835 -0.6465514907206346
-0.011160729016436326 -0.7544576493969322
-0.05152441164576611 -0.7112951859264132
-0.03134257033110122 -0.5602265637795966
-0.011160729016436326 -0.40915794163277996
-0.03134257033110122 -0.38757670989752047
-0.05152441164576611 -0.43073917336803946
-0.0010698083591038797 -0.36599547816226097
0.12002123952888548 -0.2796705512212229
0.2108395254448775 -0.17176439254492537
0.25120320807420726 -0.08543946560388732
0.2915668907035371 -0.12860192907440635
0.3420214939901993 -0.10702069733914683
0.4227488592488589 -0.08543946560388732
0.4328397799061913 0.1519540834839673
0.4227488592488589 0.3893476325718219
0.5135671451648509 0.4325100960423409
0.5741126691088456 0.2598602421602648
0.6649309550248376 0.08721038827818876
0.8566584475141541 -0.08543946560388732
1.149295146576795 -0.2796705512212229
1.4520227662967684 -0.5170641003090776
1.7244776240447446 -0.7976201128674512
1.8859323545620637 -1.0997573571610844
1.9969324817927205 -1.4234758331899768
2.1281144503380425 -1.552963223601534
2.3097510221700266 -1.5745444553367935
2.4712057526873457 -1.639288150542572
2.6023877212326676 -1.7471943092188695
2.592296800575335 -2.0709127852477622
2.521660355974008 -2.524118651688212
2.3400237841420237 -2.826255895981845
2.0574780057367152 -2.8046746642465856
1.8758414339047311 -2.653606042099769
1.7042957827300795 -2.524118651688212
1.441931845639436 -2.329887566070876
1.0685677813181356 -2.092494016983022
0.6649309550248376 -1.7040318457483505
0.32183965267553444 -1.2939884427784198
0.03929387427022591 -0.9055262715437487
-0.12216085624709325 -0.4739016368385585
-0.2634337454497475 -0.2796705512212229
-0.3744338726804044 -0.2365080877507039
-0.4349793966243991 -0.21492685601544437
-0.4652521585963964 -0.17176439254492537
-0.4652521585963964 -0.17176439254492537
-0.4753430792537289 -0.12860192907440635
-0.545979523855056 -0.21492685601544437
-0.6065250477990507 -0.3444142464270014
-0.6468887304283805 -0.5386453320443371
-0.636797809771048 -0.6033890272501156
-0.6065250477990507 -0.6249702589853751
-0.6166159684563831 -0.6681327224558941
-0.5762522858270533 -0.8407825763379702
-0.5863432064843858 -0.9918511984847868
-0.5964341271417183 -1.1213385888963439
-0.6267068891137155 -1.1429198206316034
-0.6065250477990507 -1.0350136619553059
-0.5964341271417183 -0.9271075032790083
-0.5964341271417183 -0.9271075032790083
-0.6267068891137155 -0.9702699667495273
-0.6267068891137155 -0.9055262715437487
-0.6569796510857129 -0.7976201128674512
-0.6569796510857129 -0.6465514907206346
-0.5863432064843858 -0.5170641003090776
-0.5661613651697209 -0.5170641003090776
-0.5964341271417183 -0.5170641003090776
-0.5964341271417183 -0.43073917336803946
-0.6166159684563831 -0.3228330146917419
-0.5863432064843858 -0.21492685601544437
-0.5762522858270533 -0.06385823386862781
-0.545979523855056 0.0008854613371507181
-0.5157067618830586 0.06562915654292925
-0.5257976825403912 0.022466693072410227
-0.48543399991106134 0.10879162001344826
-0.4652521585963964 0.1519540834839673
-0.4450703172817315 0.32460393736604337
-0.4147975553097342 0.32460393736604337
-0.38452479333773687 0.23827901042500532
-0.3744338726804044 0.3030227056307839
-0.38452479333773687 0.36776640083656237
-0.3744338726804044 0.5188350229833789
-0.3037974280790773 0.561997486453898
-0.2432519041350826 0.5835787181891575
-0.23316098347775016 0.605159949924417
-0.2432519041350826 0.5835787181891575
-0.2634337454497475 0.648322413394936
-0.15243361821909057 0.7993910355417526
-0.0918880942750959 0.8425534990122716
-0.041433490988433665 0.8641347307475311
-0.07170625296043101 0.8425534990122716
-0.041433490988433665 0.8209722672770121
0.019112032955561013 0.8641347307475311
0.0594757155848908 0.9288784259533096
0.0796575568995557 1.0152033528943476
0.08974847755688814 1.0152033528943476
0.09983939821422058 0.9072971942180501
0.14020308084355038 0.8641347307475311
0.13011216018621793 0.8641347307475311
0.1906576841302126 0.8857159624827906
0.24111228741687485 0.8425534990122716
0.2713850493888722 0.7778098038064931
0.25120320807420726 0.6267411816596765
0.22093044610220994 0.3893476325718219
0.25120320807420726 0.1951165469544863
0.2814759700462046 0.04404792480766974
0.3420214939901993 -0.10702069733914683
0.35211241464753174 -0.36599547816226097
0.3016578113608695 -0.6033890272501156
0.2713850493888722 -0.7760388811321917
0.24111228741687485 -0.7544576493969322
0.16038492215821526 -0.7976201128674512
0.13011216018621793 -0.8192013446027107
0.0796575568995557 -0.8839450398084892
0.029202953612893462 -1.0134324302200461
-0.05152441164576611 -0.9702699667495273
-0.0918880942750959 -0.9486887350142678
-0.0918880942750959 -0.8192013446027107
-0.041433490988433665 -0.7328764176616727
-0.011160729016436326 -0.7760388811321917
-0.08179717361776345 -0.7112951859264132
-0.1322517769044257 -0.6465514907206346
-0.15243361821909057 -0.5170641003090776
-0.14234269756175813 -0.2796705512212229
-0.0918880942750959 -0.12860192907440635
-0.1322517769044257 -0.08543946560388732
-0.14234269756175813 -0.08543946560388732
-0.17261545953375548 -0.042277002133368304
-0.18270638019108792 0.022466693072410227
-0.16252453887642304 0.1735353152192268
-0.12216085624709325 0.21669777868974582
-0.16252453887642304 0.2814414738955244
-0.17261545953375548 0.21669777868974582
-0.22307006282041772 0.36776640083656237
-0.2432519041350826 0.4109288643070814
-0.19279730084842037 0.49725379124811947
-0.17261545953375548 0.561997486453898
-0.19279730084842037 0.5835787181891575
-0.21297914216308525 0.49725379124811947
-0.2634337454497475 0.5188350229833789
-0.27352466610707993 0.5404162547186384
-0.25334282479241504 0.6267411816596765
-0.22307006282041772 0.7562285720712336
-0.23316098347775016 0.7130661086007145
-0.25334282479241504 0.648322413394936
-0.2634337454497475 0.5835787181891575
-0.2634337454497475 0.648322413394936
-0.27352466610707993 0.648322413394936
-0.2432519041350826 0.7562285720712336
-0.2432519041350826 0.734647340335974
-0.2836155867644124 0.5835787181891575
-0.2836155867644124 0.49725379124811947
-0.31388834873640975 0.5404162547186384
-0.3037974280790773 0.605159949924417
-0.27352466610707993 0.6699036451301955
-0.2432519041350826 0.5835787181891575
-0.2836155867644124 0.36776640083656237
-0.2937065074217448 0.06562915654292925
-0.31388834873640975 -0.12860192907440635
-0.27352466610707993 -0.2796705512212229
-0.2634337454497475 -0.3228330146917419
-0.2634337454497475 -0.4739016368385585
-0.2836155867644124 -0.6249702589853751
-0.32397926939374216 -0.7112951859264132
-0.32397926939374216 -0.7976201128674512
-0.32397926939374216 -0.7760388811321917
-0.32397926939374216 -0.6249702589853751
-0.31388834873640975 -0.6033890272501156
-0.32397926939374216 -0.6249702589853751
-0.364342952023072 -0.5602265637795966
-0.34416111070840705 -0.495482868573818
-0.31388834873640975 -0.36599547816226097
-0.31388834873640975 -0.2365080877507039
-0.3037974280790773 -0.21492685601544437
-0.32397926939374216 -0.2365080877507039
-0.3542520313657395 -0.2796705512212229
-0.32397926939374216 -0.21492685601544437
-0.32397926939374216 -0.06385823386862781
-0.3037974280790773 0.04404792480766974
-0.2937065074217448 0.06562915654292925
-0.3037974280790773 0.06562915654292925
-0.2937065074217448 0.10879162001344826
-0.2937065074217448 0.10879162001344826
-0.32397926939374216 0.3030227056307839
-0.3037974280790773 0.4325100960423409
-0.3037974280790773 0.4540913277776004
-0.2634337454497475 0.49725379124811947
-0.2937065074217448 0.4756725595128599
-0.32397926939374216 0.5404162547186384
-0.31388834873640975 0.5835787181891575
-0.2937065074217448 0.691484876865455
-0.23316098347775016 0.648322413394936
-0.2836155867644124 0.5835787181891575
-0.3037974280790773 0.49725379124811947
-0.33407019005107463 0.4109288643070814
-0.33407019005107463 0.49725379124811947
-0.31388834873640975 0.605159949924417
-0.2432519041350826 0.49725379124811947
-0.33407019005107463 0.4540913277776004
-0.364342952023072 0.3893476325718219
-0.34416111070840705 0.3893476325718219
-0.32397926939374216 0.4109288643070814
-0.27352466610707993 0.4540913277776004
-0.3037974280790773 0.36776640083656237
-0.32397926939374216 0.32460393736604337
-0.33407019005107463 0.21669777868974582
-0.33407019005107463 0.23827901042500532
-0.34416111070840705 0.2814414738955244
-0.3037974280790773 0.23827901042500532
-0.2836155867644124 0.13037285174870777
-0.27352466610707993 -0.02069577039810879
-0.2836155867644124 -0.12860192907440635
-0.31388834873640975 -0.17176439254492537
-0.3037974280790773 -0.15018316080966584
-0.27352466610707993 -0.19334562428018487
-0.22307006282041772 -0.3228330146917419
-0.25334282479241504 -0.452320405103299
-0.2937065074217448 -0.6033890272501156
-0.3037974280790773 -0.6249702589853751
-0.2937065074217448 -0.6249702589853751
-0.2937065074217448 -0.495482868573818
-0.32397926939374216 -0.495482868573818
-0.38452479333773687 -0.5170641003090776
-0.38452479333773687 -0.495482868573818
-0.3542520313657395 -0.3444142464270014
-0.3037974280790773 -0.2580893194859634
-0.2836155867644124 -0.12860192907440635
-0.27352466610707993 -0.12860192907440635
-0.2836155867644124 -0.10702069733914683
-0.2836155867644124 -0.17176439254492537
-0.3037974280790773 -0.06385823386862781
-0.32397926939374216 0.022466693072410227
-0.31388834873640975 0.10879162001344826
-0.25334282479241504 0.13037285174870777
-0.2937065074217448 0.13037285174870777
-0.32397926939374216 0.04404792480766974
-0.31388834873640975 0.022466693072410227
-0.2836155867644124 0.1519540834839673
-0.2634337454497475 0.2814414738955244
-0.2937065074217448 0.1951165469544863
-0.34416111070840705 0.1951165469544863
-0.3542520313657395 0.1951165469544863
-0.34416111070840705 0.2598602421602648
-0.3037974280790773 0.36776640083656237
-0.3037974280790773 0.3893476325718219
-0.31388834873640975 0.4109288643070814
-0.32397926939374216 0.34618516910130287
-0.33407019005107463 0.32460393736604337
-0.38452479333773687 0.4325100960423409
-0.3542520313657395 0.561997486453898
-0.31388834873640975 0.5835787181891575
-0.27352466610707993 0.5404162547186384
-0.33407019005107463 0.561997486453898
-0.364342952023072 0.5188350229833789
-0.38452479333773687 0.6267411816596765
-0.34416111070840705 0.6267411816596765
-0.34416111070840705 0.6267411816596765
-0.33407019005107463 0.605159949924417
-0.31388834873640975 0.5188350229833789
-0.32397926939374216 0.2598602421602648
-0.2836155867644124 0.1519540834839673
-0.27352466610707993 0.1519540834839673
-0.2836155867644124 0.08721038827818876
-0.2432519041350826 -0.10702069733914683
-0.27352466610707993 -0.2796705512212229
-0.25334282479241504 -0.495482868573818
-0.2634337454497475 -0.495482868573818
-0.25334282479241504 -0.452320405103299
-0.25334282479241504 -0.38757670989752047
-0.23316098347775016 -0.40915794163277996
-0.2836155867644124 -0.5602265637795966
-0.32397926939374216 -0.6681327224558941
-0.34416111070840705 -0.5170641003090776
-0.32397926939374216 -0.4739016368385585
-0.2937065074217448 -0.2796705512212229
-0.3037974280790773 -0.38757670989752047
-0.31388834873640975 -0.40915794163277996
-0.31388834873640975 -0.43073917336803946
-0.2937065074217448 -0.3228330146917419
-0.3037974280790773 -0.2796705512212229
-0.2836155867644124 -0.17176439254492537
-0.25334282479241504 -0.12860192907440635
-0.2634337454497475 -0.21492685601544437
-0.2836155867644124 -0.2365080877507039
-0.2937065074217448 -0.17176439254492537
-0.23316098347775016 -0.06385823386862781
-0.21297914216308525 0.022466693072410227
-0.22307006282041772 0.08721038827818876
-0.2432519041350826 0.06562915654292925
-0.27352466610707993 0.0008854613371507181
-0.2432519041350826 0.13037285174870777
-0.21297914216308525 0.1519540834839673
-0.19279730084842037 0.2814414738955244
-0.2028882215057528 0.3030227056307839
-0.2028882215057528 0.2814414738955244
-0.25334282479241504 0.3030227056307839
-0.27352466610707993 0.36776640083656237
-0.2634337454497475 0.4109288643070814
-0.21297914216308525 0.5404162547186384
-0.22307006282041772 0.5404162547186384
-0.2634337454497475 0.4756725595128599
-0.3037974280790773 0.4756725595128599
-0.3037974280790773 0.5404162547186384
-0.27352466610707993 0.648322413394936
-0.2836155867644124 0.7130661086007145
-0.25334282479241504 0.6699036451301955
-0.19279730084842037 0.5404162547186384
-0.16252453887642304 0.4756725595128599
-0.14234269756175813 0.4325100960423409
-0.12216085624709325 0.4756725595128599
-0.1322517769044257 0.4325100960423409
-0.11206993558976079 0.2814414738955244
-0.17261545953375548 0.2598602421602648
-0.2937065074217448 0.1735353152192268
-0.40470663465240175 0.2598602421602648
-0.42488847596706664 0.32460393736604337
-0.4349793966243991 0.2598602421602648
-0.40470663465240175 0.13037285174870777
-0.3037974280790773 -0.08543946560388732
-0.1322517769044257 -0.2365080877507039
0.09983939821422058 -0.4739016368385585
0.2713850493888722 -0.7544576493969322
0.4530216212208562 -1.0350136619553059
0.6952037169968349 -1.2724072110431603
1.0382950193461382 -1.4882195283957556
1.2401134324927872 -1.682450614013091
1.3712954010381089 -1.8766816996304267
1.4116590836674388 -2.2004001756593192
1.351113559723444 -2.437793724747174
1.2098406705207898 -2.653606042099769
1.0282040986888057 -2.6751872738350286
0.8263856855421567 -2.480956188217693
0.5741126691088456 -2.1572377121888002
0.24111228741687485 -1.8335192361599075
-0.0010698083591038797 -1.466638296660496
-0.17261545953375548 -1.1213385888963439
-0.33407019005107463 -0.8407825763379702
-0.40470663465240175 -0.6249702589853751
-0.4147975553097342 -0.36599547816226097
-0.3946157139950693 -0.21492685601544437
-0.3744338726804044 -0.12860192907440635
-0.3946157139950693 -0.10702069733914683
-0.4450703172817315 -0.08543946560388732
-0.5157067618830586 -0.08543946560388732
-0.5157067618830586 0.0008854613371507181
-0.48543399991106134 0.1519540834839673
-0.4652521585963964 0.1951165469544863
-0.4652521585963964 0.1951165469544863
-0.49552492056839376 0.23827901042500532
-0.49552492056839376 0.1951165469544863
-0.5257976825403912 0.1951165469544863
-0.545979523855056 0.34618516910130287
-0.5056158412257262 0.3893476325718219
-0.48543399991106134 0.3030227056307839
-0.49552492056839376 0.2814414738955244
-0.545979523855056 0.08721038827818876
-0.5157067618830586 -0.042277002133368304
-0.455161237939064 -0.08543946560388732
-0.42488847596706664 -0.08543946560388732
-0.40470663465240175 -0.2365080877507039
-0.4450703172817315 -0.40915794163277996
-0.455161237939064 -0.38757670989752047
-0.4450703172817315 -0.38757670989752047
-0.4147975553097342 -0.3444142464270014
-0.38452479333773687 -0.3444142464270014
-0.364342952023072 -0.3444142464270014
-0.3744338726804044 -0.43073917336803946
-0.4147975553097342 -0.43073917336803946
-0.42488847596706664 -0.43073917336803946
-0.4147975553097342 -0.2796705512212229
-0.364342952023072 -0.2365080877507039
-0.38452479333773687 -0.2580893194859634
-0.34416111070840705 -0.3012517829564824
-0.34416111070840705 -0.3228330146917419
-0.2937065074217448 -0.2796705512212229
-0.22307006282041772 -0.2365080877507039
-0.19279730084842037 -0.06385823386862781
-0.1322517769044257 0.04404792480766974
-0.07170625296043101 -0.02069577039810879
-0.06161533230309856 0.0008854613371507181
-0.041433490988433665 0.08721038827818876
0.019112032955561013 0.21669777868974582
0.10993031887155304 0.2814414738955244
0.15029400150088282 0.3030227056307839
0.1906576841302126 0.3030227056307839
0.18056676347288017 0.2814414738955244
0.20074860478754505 0.32460393736604337
0.26129412873153973 0.4325100960423409
0.35211241464753174 0.5404162547186384
0.3823851766195291 0.4756725595128599
0.35211241464753174 0.4540913277776004
0.3722942559621967 0.4109288643070814
0.40256701793419397 0.4756725595128599
0.4631125418781887 0.6267411816596765
0.5135671451648509 0.6267411816596765
0.5135671451648509 0.691484876865455
0.48329438319285356 0.605159949924417
0.48329438319285356 0.49725379124811947
0.48329438319285356 0.5835787181891575
0.5034762245075185 0.648322413394936
0.5135671451648509 0.7778098038064931
0.5236580658221833 0.6267411816596765
0.5034762245075185 0.5835787181891575
0.4631125418781887 0.49725379124811947
0.41265793859152644 0.4325100960423409
0.40256701793419397 0.5404162547186384
0.4227488592488589 0.4756725595128599
0.3823851766195291 0.36776640083656237
0.31174873201820197 0.2598602421602648
0.25120320807420726 0.1735353152192268
0.26129412873153973 0.08721038827818876
0.2713850493888722 0.10879162001344826
0.26129412873153973 0.06562915654292925
0.2310213667595424 0.06562915654292925
0.1906576841302126 -0.02069577039810879
0.12002123952888548 -0.10702069733914683
0.10993031887155304 -0.08543946560388732
0.08974847755688814 -0.02069577039810879
0.06956663624222324 0.022466693072410227
0.0594757155848908 -0.02069577039810879
0.019112032955561013 -0.06385823386862781
-0.041433490988433665 -0.06385823386862781
-0.06161533230309856 -0.042277002133368304
-0.06161533230309856 0.13037285174870777
-0.03134257033110122 0.21669777868974582
-0.021251649673768774 0.1735353152192268
-0.041433490988433665 0.1951165469544863
-0.0918880942750959 0.21669777868974582
-0.08179717361776345 0.3030227056307839
-0.10197901493242835 0.4109288643070814
-0.0918880942750959 0.4325100960423409
-0.0918880942750959 0.4109288643070814
-0.07170625296043101 0.36776640083656237
-0.08179717361776345 0.32460393736604337
-0.08179717361776345 0.34618516910130287
-0.06161533230309856 0.3893476325718219
-0.0010698083591038797 0.4325100960423409
0.0594757155848908 0.4756725595128599
0.029202953612893462 0.4109288643070814
0.009021112298228566 0.3893476325718219
-0.011160729016436326 0.4756725595128599
0.019112032955561013 0.5404162547186384
0.03929387427022591 0.648322413394936
0.04938479492755835 0.605159949924417
0.03929387427022591 0.5188350229833789
0.029202953612893462 0.4325100960423409
-0.011160729016436326 0.4325100960423409
0.03929387427022591 0.49725379124811947
0.09983939821422058 0.5188350229833789
0.10993031887155304 0.4325100960423409
0.12002123952888548 0.3030227056307839
0.0594757155848908 0.21669777868974582
0.029202953612893462 0.21669777868974582
0.06956663624222324 0.21669777868974582
0.09983939821422058 0.1735353152192268
0.09983939821422058 0.13037285174870777
0.0796575568995557 -0.02069577039810879
0.03929387427022591 -0.08543946560388732
0.06956663624222324 -0.08543946560388732
0.0796575568995557 -0.10702069733914683
0.10993031887155304 -0.042277002133368304
0.12002123952888548 -0.15018316080966584
0.0594757155848908 -0.12860192907440635
0.0594757155848908 -0.19334562428018487
0.03929387427022591 -0.17176439254492537
0.0594757155848908 -0.12860192907440635
0.0594757155848908 -0.08543946560388732
0.0594757155848908 -0.10702069733914683
0.009021112298228566 -0.19334562428018487
-0.041433490988433665 -0.2580893194859634
-0.03134257033110122 -0.19334562428018487
-0.03134257033110122 0.022466693072410227
-0.03134257033110122 0.08721038827818876
-0.03134257033110122 0.08721038827818876
-0.03134257033110122 0.13037285174870777
-0.011160729016436326 0.13037285174870777
-0.05152441164576611 0.21669777868974582
-0.03134257033110122 0.34618516910130287
0.019112032955561013 0.4109288643070814
0.03929387427022591 0.3893476325718219
0.029202953612893462 0.3893476325718219
-0.0010698083591038797 0.32460393736604337
-0.03134257033110122 0.4325100960423409
-0.0010698083591038797 0.5188350229833789
-0.011160729016436326 0.6699036451301955
-0.03134257033110122 0.561997486453898
-0.03134257033110122 0.561997486453898
-0.11206993558976079 0.49725379124811947
-0.06161533230309856 0.5188350229833789
-0.05152441164576611 0.5404162547186384
-0.021251649673768774 0.561997486453898
-0.0010698083591038797 0.5835787181891575
-0.041433490988433665 0.49725379124811947
-0.03134257033110122 0.4325100960423409
-0.0010698083591038797 0.4109288643070814
0.029202953612893462 0.4109288643070814
0.03929387427022591 0.4325100960423409
0.06956663624222324 0.4540913277776004
0.0594757155848908 0.36776640083656237
0.019112032955561013 0.32460393736604337
0.029202953612893462 0.32460393736604337
0.029202953612893462 0.4325100960423409
0.03929387427022591 0.4756725595128599
0.029202953612893462 0.4325100960423409
0.019112032955561013 0.34618516910130287
0.009021112298228566 0.23827901042500532
0.009021112298228566 0.21669777868974582
0.019112032955561013 0.2598602421602648
0.03929387427022591 0.3030227056307839
0.03929387427022591 0.23827901042500532
0.019112032955561013 0.1735353152192268
-0.021251649673768774 0.10879162001344826
-0.041433490988433665 0.1519540834839673
-0.05152441164576611 0.13037285174870777
-0.021251649673768774 0.2598602421602648
0.009021112298228566 0.21669777868974582
-0.041433490988433665 0.06562915654292925
-0.0918880942750959 0.0008854613371507181
-0.0918880942750959 0.06562915654292925
-0.08179717361776345 0.08721038827818876
-0.041433490988433665 0.1519540834839673
-0.08179717361776345 0.1519540834839673
-0.0918880942750959 0.08721038827818876
-0.0918880942750959 0.08721038827818876
-0.08179717361776345 0.10879162001344826
-0.05152441164576611 0.21669777868974582
-0.021251649673768774 0.3030227056307839
-0.0010698083591038797 0.2598602421602648
0.009021112298228566 0.21669777868974582
-0.011160729016436326 0.23827901042500532
0.009021112298228566 0.23827901042500532
0.0594757155848908 0.36776640083656237
0.08974847755688814 0.49725379124811947
0.0796575568995557 0.4756725595128599
0.03929387427022591 0.32460393736604337
0.029202953612893462 0.32460393736604337
0.019112032955561013 0.32460393736604337
0.0594757155848908 0.3893476325718219
0.06956663624222324 0.4109288643070814
0.13011216018621793 0.3030227056307839
0.09983939821422058 0.3030227056307839
0.03929387427022591 0.2598602421602648
0.009021112298228566 0.2814414738955244
0.03929387427022591 0.3030227056307839
0.08974847755688814 0.3030227056307839
0.09983939821422058 0.21669777868974582
0.04938479492755835 0.13037285174870777
0.0594757155848908 0.10879162001344826
0.06956663624222324 0.10879162001344826
0.09983939821422058 0.1735353152192268
0.14020308084355038 0.2814414738955244
0.14020308084355038 0.23827901042500532
0.0796575568995557 0.1735353152192268
0.03929387427022591 0.10879162001344826
0.019112032955561013 0.13037285174870777
0.0594757155848908 0.1951165469544863
0.13011216018621793 0.23827901042500532
0.09983939821422058 0.23827901042500532
0.06956663624222324 0.13037285174870777
0.04938479492755835 0.06562915654292925
0.0594757155848908 0.06562915654292925
0.09983939821422058 0.06562915654292925
0.14020308084355038 0.08721038827818876
0.13011216018621793 0.0008854613371507181
0.12002123952888548 -0.06385823386862781
0.08974847755688814 -0.19334562428018487
0.08974847755688814 -0.19334562428018487
0.08974847755688814 -0.12860192907440635
0.0796575568995557 -0.06385823386862781
0.10993031887155304 0.0008854613371507181
0.06956663624222324 -0.08543946560388732
0.019112032955561013 -0.042277002133368304
-0.011160729016436326 0.06562915654292925
0.019112032955561013 0.08721038827818876
0.06956663624222324 0.1735353152192268
0.04938479492755835 0.06562915654292925
0.019112032955561013 0.022466693072410227
-0.041433490988433665 -0.042277002133368304
-0.0010698083591038797 -0.02069577039810879
0.029202953612893462 0.06562915654292925
0.0796575568995557 0.1519540834839673
0.0796575568995557 0.13037285174870777
0.029202953612893462 0.13037285174870777
0.03929387427022591 0.10879162001344826
0.029202953612893462 0.1519540834839673
0.029202953612893462 0.21669777868974582
0.0796575568995557 0.34618516910130287
0.08974847755688814 0.34618516910130287
0.06956663624222324 0.3030227056307839
0.03929387427022591 0.3030227056307839
0.009021112298228566 0.3893476325718219
0.0594757155848908 0.5188350229833789
0.09983939821422058 0.5835787181891575
0.10993031887155304 0.561997486453898
0.04938479492755835 0.6267411816596765
0.029202953612893462 0.561997486453898
0.0594757155848908 0.648322413394936
0.15029400150088282 0.7993910355417526
0.18056676347288017 0.9288784259533096
0.16038492215821526 0.9504596576885691
0.12002123952888548 0.8425534990122716
0.12002123952888548 0.9072971942180501
0.17047584281554773 0.7778098038064931
0.22093044610220994 0.8209722672770121
0.26129412873153973 0.8641347307475311
0.3016578113608695 0.8209722672770121
0.2915668907035371 0.5835787181891575
0.33193057333286685 0.32460393736604337
0.48329438319285356 0.1735353152192268
0.786022002912827 0.04404792480766974
1.098840543290133 -0.17176439254492537
1.351113559723444 -0.6249702589853751
1.552931972870093 -1.0350136619553059
1.754750386016742 -1.4018946014547173
2.007023402450053 -1.552963223601534
2.2895691808553615 -1.596125687072053
2.430842070058016 -1.768775540954129
2.5317512766313404 -2.135656480453541
2.5115694353166753 -2.524118651688212
2.3400237841420237 -2.9125808229228833
2.148296291652707 -2.9557432863934023
1.9666597198207232 -2.739930969040807
1.7446594653594094 -2.567281115158731
1.351113559723444 -2.394631261276655
0.8364766061994892 -2.0277503217772432
0.41265793859152644 -1.768775540954129
0.13011216018621793 -1.3587321379841983
-0.06161533230309856 -1.0134324302200461
-0.21297914216308525 -0.7112951859264132
-0.23316098347775016 -0.6249702589853751
-0.2432519041350826 -0.5170641003090776
-0.27352466610707993 -0.495482868573818
-0.32397926939374216 -0.40915794163277996
-0.32397926939374216 -0.2580893194859634
-0.32397926939374216 -0.10702069733914683
-0.3542520313657395 -0.15018316080966584
-0.42488847596706664 -0.15018316080966584
-0.48543399991106134 -0.10702069733914683
-0.48543399991106134 -0.06385823386862781
-0.4450703172817315 0.08721038827818876
-0.4349793966243991 0.1735353152192268
-0.4147975553097342 0.1735353152192268
-0.4450703172817315 0.1951165469544863
-0.455161237939064 0.13037285174870777
-0.455161237939064 0.3030227056307839
-0.4450703172817315 0.4109288643070814
-0.40470663465240175 0.4325100960423409
-0.38452479333773687 0.4540913277776004
-0.4147975553097342 0.3893476325718219
-0.4753430792537289 0.4540913277776004
-0.5157067618830586 0.4756725595128599
-0.4652521585963964 0.605159949924417
-0.4652521585963964 0.691484876865455
-0.4450703172817315 0.6267411816596765
-0.4652521585963964 0.605159949924417
-0.48543399991106134 0.6267411816596765
-0.48543399991106134 0.6699036451301955
-0.4753430792537289 0.7562285720712336
-0.455161237939064 0.7778098038064931
-0.4147975553097342 0.7562285720712336
-0.3946157139950693 0.6699036451301955
-0.4147975553097342 0.6699036451301955
-0.4147975553097342 0.691484876865455
-0.38452479333773687 0.7993910355417526
-0.2937065074217448 0.8641347307475311
-0.2836155867644124 0.7778098038064931
-0.27352466610707993 0.691484876865455
-0.2937065074217448 0.648322413394936
-0.2028882215057528 0.648322413394936
-0.14234269756175813 0.648322413394936
-0.07170625296043101 0.6267411816596765
-0.021251649673768774 0.5404162547186384
0.009021112298228566 0.36776640083656237
0.019112032955561013 0.2598602421602648
0.0594757155848908 0.21669777868974582
0.15029400150088282 0.1735353152192268
0.24111228741687485 0.1951165469544863
0.26129412873153973 -0.042277002133368304
0.2713850493888722 -0.19334562428018487
0.2915668907035371 -0.36599547816226097
0.35211241464753174 -0.452320405103299
0.41265793859152644 -0.40915794163277996
0.4631125418781887 -0.40915794163277996
0.48329438319285356 -0.5386453320443371
0.5034762245075185 -0.6249702589853751
0.5034762245075185 -0.6249702589853751
0.49338530385018603 -0.5602265637795966
0.5236580658221833 -0.4739016368385585
0.5539308277941807 -0.3012517829564824
0.5337489864795159 -0.3012517829564824
0.49338530385018603 -0.3012517829564824
0.4328397799061913 -0.19334562428018487
0.41265793859152644 -0.21492685601544437
0.39247609727686156 0.04404792480766974
0.3622033353048642 0.13037285174870777
0.32183965267553444 0.1951165469544863
0.2915668907035371 0.1951165469544863
0.25120320807420726 0.21669777868974582
0.20074860478754505 0.3030227056307839
0.2310213667595424 0.4325100960423409
0.20074860478754505 0.5404162547186384
0.20074860478754505 0.5188350229833789
0.18056676347288017 0.5188350229833789
0.08974847755688814 0.5404162547186384
0.04938479492755835 0.648322413394936
0.03929387427022591 0.691484876865455
0.04938479492755835 0.7562285720712336
0.03929387427022591 0.7778098038064931
0.03929387427022591 0.7778098038064931
0.009021112298228566 0.7778098038064931
-0.06161533230309856 0.8641347307475311
-0.05152441164576611 1.0152033528943476
-0.0010698083591038797 1.1015282798353858
0.009021112298228566 1.1446907433059048
-0.011160729016436326 1.0799470481001263
-0.041433490988433665 1.1231095115706453
-0.021251649673768774 1.2525969019822023
0.03929387427022591 1.3389218289232403
0.0594757155848908 1.489990451070057
0.04938479492755835 1.3605030606584998
0.009021112298228566 1.3389218289232403
-0.011160729016436326 1.2957593654527213
0.009021112298228566 1.2957593654527213
0.019112032955561013 1.2310156702469428
0.04938479492755835 1.1015282798353858
0.04938479492755835 0.7993910355417526
0.029202953612893462 0.4109288643070814
0.019112032955561013 0.08721038827818876
-0.021251649673768774 -0.19334562428018487
0.04938479492755835 -0.3444142464270014
0.0796575568995557 -0.3444142464270014
0.0796575568995557 -0.5170641003090776
0.0594757155848908 -0.6681327224558941
-0.021251649673768774 -0.6897139541911536
-0.011160729016436326 -0.6897139541911536
0.019112032955561013 -0.6249702589853751
-0.011160729016436326 -0.6249702589853751
-0.0010698083591038797 -0.6681327224558941
-0.0010698083591038797 -0.7112951859264132
-0.041433490988433665 -0.7544576493969322
-0.021251649673768774 -0.7112951859264132
-0.0010698083591038797 -0.6897139541911536
-0.0010698083591038797 -0.6465514907206346
0.019112032955561013 -0.6465514907206346
0.029202953612893462 -0.7328764176616727
-0.021251649673768774 -0.7328764176616727
-0.05152441164576611 -0.6897139541911536
-0.041433490988433665 -0.6465514907206346
-0.03134257033110122 -0.5818077955148561
-0.011160729016436326 -0.5386453320443371
-0.03134257033110122 -0.5818077955148561
-0.08179717361776345 -0.6249702589853751
-0.12216085624709325 -0.452320405103299
-0.0918880942750959 -0.38757670989752047
-0.05152441164576611 -0.2796705512212229
-0.06161533230309856 -0.3444142464270014
-0.12216085624709325 -0.2580893194859634
-0.1322517769044257 -0.2796705512212229
-0.10197901493242835 -0.15018316080966584
-0.05152441164576611 0.022466693072410227
-0.07170625296043101 0.10879162001344826
-0.0918880942750959 0.10879162001344826
-0.0918880942750959 0.1519540834839673
-0.0918880942750959 0.1735353152192268
-0.08179717361776345 0.3030227056307839
-0.11206993558976079 0.4109288643070814
-0.08179717361776345 0.49725379124811947
-0.07170625296043101 0.561997486453898
-0.10197901493242835 0.5404162547186384
-0.1322517769044257 0.5404162547186384
-0.16252453887642304 0.6267411816596765
-0.15243361821909057 0.6699036451301955
-0.0918880942750959 0.7778098038064931
-0.08179717361776345 0.734647340335974
-0.10197901493242835 0.7130661086007145
-0.16252453887642304 0.6699036451301955
-0.16252453887642304 0.7562285720712336
-0.10197901493242835 0.8641347307475311
-0.0918880942750959 0.9288784259533096
-0.05152441164576611 0.8857159624827906
-0.08179717361776345 0.8641347307475311
-0.10197901493242835 0.8209722672770121
-0.10197901493242835 0.8641347307475311
-0.08179717361776345 0.9504596576885691
-0.03134257033110122 1.1015282798353858
-0.041433490988433665 1.036784584629607
-0.07170625296043101 1.036784584629607
-0.14234269756175813 1.0583658163648666
-0.16252453887642304 1.1015282798353858
-0.14234269756175813 1.2310156702469428
-0.11206993558976079 1.2957593654527213
-0.11206993558976079 1.2094344385116833
-0.10197901493242835 0.9504596576885691
-0.10197901493242835 0.6699036451301955
-0.10197901493242835 0.5188350229833789
-0.08179717361776345 0.36776640083656237
-0.06161533230309856 0.10879162001344826
-0.041433490988433665 -0.17176439254492537
-0.03134257033110122 -0.38757670989752047
-0.06161533230309856 -0.5386453320443371
-0.05152441164576611 -0.5170641003090776
-0.021251649673768774 -0.4739016368385585
0.029202953612893462 -0.495482868573818
0.029202953612893462 -0.5170641003090776
-0.021251649673768774 -0.5386453320443371
-0.021251649673768774 -0.5602265637795966
-0.011160729016436326 -0.5386453320443371
-0.011160729016436326 -0.452320405103299
0.019112032955561013 -0.40915794163277996
0.029202953612893462 -0.38757670989752047
0.029202953612893462 -0.3012517829564824
-0.021251649673768774 -0.2580893194859634
0.019112032955561013 -0.10702069733914683
0.0594757155848908 0.04404792480766974
0.17047584281554773 0.13037285174870777
0.17047584281554773 0.23827901042500532
0.14020308084355038 0.10879162001344826
0.18056676347288017 0.022466693072410227
0.2915668907035371 0.04404792480766974
0.4530216212208562 0.04404792480766974
0.5539308277941807 0.06562915654292925
0.6245672723955078 -0.06385823386862781
0.765840161598162 -0.3012517829564824
0.9474767334301462 -0.6033890272501156
1.2300225118354546 -0.8192013446027107
1.532750131555428 -0.9702699667495273
1.8455686719327338 -1.1645010523668629
2.0675689263940478 -1.466638296660496
2.2592964188833644 -1.811938004424648
2.4207511494006835 -1.8982629313656862
2.5822058799180025 -1.9198441631009457
2.7436606104353216 -1.8335192361599075
2.844569817008646 -1.9198441631009457
2.8344788963513134 -2.1572377121888002
2.703296927805992 -2.5888623468939906
2.501478514659343 -2.653606042099769
2.2592964188833644 -2.5025374199529526
1.9666597198207232 -2.243562639129838
1.5630228935274253 -1.8766816996304267
1.0181131780314732 -1.4882195283957556
0.5034762245075185 -1.0565948936905654
0.13011216018621793 -0.7976201128674512
-0.18270638019108792 -0.36599547816226097
-0.34416111070840705 -0.06385823386862781
-0.4147975553097342 0.06562915654292925
-0.3946157139950693 0.022466693072410227
-0.3946157139950693 0.0008854613371507181
-0.455161237939064 0.0008854613371507181
-0.5056158412257262 0.022466693072410227
-0.5358886031977236 0.0008854613371507181
-0.5358886031977236 0.022466693072410227
-0.5257976825403912 -0.10702069733914683
-0.545979523855056 -0.21492685601544437
-0.6166159684563831 -0.2796705512212229
-0.6166159684563831 -0.2796705512212229
-0.6065250477990507 -0.21492685601544437
-0.5863432064843858 -0.15018316080966584
-0.5863432064843858 -0.10702069733914683
-0.5863432064843858 -0.12860192907440635
-0.636797809771048 -0.10702069733914683
-0.6065250477990507 -0.06385823386862781
-0.5560704445123884 0.08721038827818876
-0.5863432064843858 0.13037285174870777
-0.5358886031977236 0.10879162001344826
-0.5661613651697209 0.022466693072410227
-0.6065250477990507 0.0008854613371507181
-0.5863432064843858 0.022466693072410227
-0.545979523855056 0.13037285174870777
-0.4753430792537289 0.21669777868974582
-0.4652521585963964 0.21669777868974582
-0.4753430792537289 0.1519540834839673
-0.49552492056839376 0.1735353152192268
-0.4652521585963964 0.2598602421602648
-0.42488847596706664 0.3893476325718219
-0.40470663465240175 0.4540913277776004
-0.3744338726804044 0.49725379124811947
-0.34416111070840705 0.4756725595128599
-0.34416111070840705 0.4756725595128599
-0.34416111070840705 0.561997486453898
-0.3037974280790773 0.605159949924417
-0.25334282479241504 0.6699036451301955
-0.23316098347775016 0.7130661086007145
-0.2028882215057528 0.6699036451301955
-0.23316098347775016 0.605159949924417
-0.18270638019108792 0.691484876865455
-0.1322517769044257 0.7778098038064931
-0.041433490988433665 0.8857159624827906
-0.041433490988433665 0.8857159624827906
-0.021251649673768774 0.734647340335974
-0.0010698083591038797 0.734647340335974
0.08974847755688814 0.6699036451301955
0.15029400150088282 0.734647340335974
0.1906576841302126 0.691484876865455
0.2108395254448775 0.561997486453898
0.2310213667595424 0.4325100960423409
0.2108395254448775 0.2814414738955244
0.24111228741687485 0.1735353152192268
0.3016578113608695 0.1735353152192268
0.33193057333286685 0.1951165469544863
0.32183965267553444 0.08721038827818876
0.31174873201820197 -0.02069577039810879
0.31174873201820197 -0.12860192907440635
0.33193057333286685 -0.042277002133368304
0.3722942559621967 -0.02069577039810879
0.39247609727686156 -0.06385823386862781
0.3823851766195291 -0.06385823386862781
0.3622033353048642 -0.06385823386862781
0.26129412873153973 -0.10702069733914683
0.2713850493888722 -0.15018316080966584
0.2915668907035371 -0.042277002133368304
0.2915668907035371 0.06562915654292925
0.26129412873153973 0.06562915654292925
0.20074860478754505 0.04404792480766974
0.13011216018621793 0.1735353152192268
0.12002123952888548 0.1951165469544863
0.13011216018621793 0.32460393736604337
0.12002123952888548 0.49725379124811947
0.08974847755688814 0.49725379124811947
0.0796575568995557 0.5188350229833789
0.03929387427022591 0.49725379124811947
-0.011160729016436326 0.5835787181891575
-0.0010698083591038797 0.6267411816596765
0.03929387427022591 0.8209722672770121
0.04938479492755835 0.734647340335974
0.019112032955561013 0.7130661086007145
-0.03134257033110122 0.7130661086007145
-0.08179717361776345 0.7130661086007145
-0.021251649673768774 0.8425534990122716
-0.0010698083591038797 0.9072971942180501
-0.0010698083591038797 0.8425534990122716
-0.08179717361776345 0.7993910355417526
-0.12216085624709325 0.734647340335974
-0.0918880942750959 0.7130661086007145
-0.041433490988433665 0.7778098038064931
-0.05152441164576611 0.8425534990122716
-0.0918880942750959 0.7130661086007145
-0.1322517769044257 0.648322413394936
-0.12216085624709325 0.605159949924417
-0.15243361821909057 0.605159949924417
-0.15243361821909057 0.6267411816596765
-0.15243361821909057 0.648322413394936
-0.16252453887642304 0.605159949924417
-0.18270638019108792 0.4756725595128599
-0.21297914216308525 0.4540913277776004
-0.22307006282041772 0.4325100960423409
-0.22307006282041772 0.49725379124811947
-0.15243361821909057 0.4756725595128599
-0.16252453887642304 0.4109288643070814
-0.18270638019108792 0.32460393736604337
-0.2028882215057528 0.1951165469544863
-0.2028882215057528 0.1735353152192268
-0.19279730084842037 0.13037285174870777
-0.15243361821909057 0.08721038827818876
-0.18270638019108792 0.022466693072410227
-0.2432519041350826 -0.10702069733914683
-0.23316098347775016 -0.12860192907440635
-0.23316098347775016 -0.15018316080966584
-0.2634337454497475 -0.10702069733914683
-0.25334282479241504 -0.08543946560388732
-0.22307006282041772 -0.12860192907440635
-0.23316098347775016 -0.19334562428018487
-0.2937065074217448 -0.15018316080966584
-0.33407019005107463 -0.08543946560388732
-0.31388834873640975 -0.042277002133368304
-0.21297914216308525 0.06562915654292925
-0.21297914216308525 0.06562915654292925
-0.25334282479241504 0.13037285174870777
-0.27352466610707993 0.1951165469544863
-0.25334282479241504 0.3030227056307839
-0.2432519041350826 0.4325100960423409
-0.19279730084842037 0.4756725595128599
-0.21297914216308525 0.4756725595128599
-0.25334282479241504 0.5188350229833789
-0.2634337454497475 0.49725379124811947
-0.27352466610707993 0.605159949924417
-0.2634337454497475 0.734647340335974
-0.25334282479241504 0.7778098038064931
-0.23316098347775016 0.7562285720712336
-0.27352466610707993 0.734647340335974
-0.2634337454497475 0.648322413394936
-0.2634337454497475 0.691484876865455
-0.23316098347775016 0.7778098038064931
-0.16252453887642304 0.7993910355417526
-0.19279730084842037 0.8209722672770121
-0.23316098347775016 0.6699036451301955
-0.23316098347775016 0.5188350229833789
-0.2028882215057528 0.4109288643070814
-0.17261545953375548 0.34618516910130287
-0.18270638019108792 0.32460393736604337
-0.17261545953375548 0.21669777868974582
-0.15243361821909057 0.06562915654292925
-0.17261545953375548 0.04404792480766974
-0.17261545953375548 0.022466693072410227
-0.14234269756175813 0.10879162001344826
-0.11206993558976079 0.1519540834839673
-0.11206993558976079 0.10879162001344826
-0.12216085624709325 0.0008854613371507181
-0.18270638019108792 -0.02069577039810879
-0.19279730084842037 -0.042277002133368304
-0.16252453887642304 0.04404792480766974
-0.1322517769044257 -0.02069577039810879
-0.15243361821909057 -0.10702069733914683
-0.18270638019108792 -0.17176439254492537
-0.22307006282041772 -0.2365080877507039
-0.21297914216308525 -0.21492685601544437
-0.23316098347775016 -0.15018316080966584
-0.2432519041350826 -0.2365080877507039
-0.23316098347775016 -0.17176439254492537
-0.2634337454497475 -0.3012517829564824
-0.32397926939374216 -0.3012517829564824
-0.33407019005107463 -0.3012517829564824
-0.32397926939374216 -0.15018316080966584
-0.2836155867644124 -0.06385823386862781
-0.3037974280790773 -0.02069577039810879
-0.38452479333773687 -0.02069577039810879
-0.38452479333773687 -0.02069577039810879
-0.3744338726804044 0.04404792480766974
-0.3744338726804044 0.21669777868974582
-0.364342952023072 0.21669777868974582
-0.3542520313657395 0.34618516910130287
-0.3946157139950693 0.4325100960423409
-0.3946157139950693 0.4325100960423409
-0.40470663465240175 0.5835787181891575
-0.3946157139950693 0.7562285720712336
-0.3744338726804044 0.8209722672770121
-0.4147975553097342 0.8209722672770121
-0.4349793966243991 0.7778098038064931
-0.42488847596706664 0.7778098038064931
-0.40470663465240175 0.7993910355417526
-0.38452479333773687 0.8857159624827906
-0.3946157139950693 0.9720408894238287
-0.3744338726804044 0.9288784259533096
-0.3744338726804044 0.8209722672770121
-0.38452479333773687 0.8209722672770121
-0.3542520313657395 0.9072971942180501
-0.33407019005107463 0.9936221211590882
-0.3037974280790773 1.0152033528943476
-0.27352466610707993 0.9720408894238287
-0.2937065074217448 0.8209722672770121
-0.3542520313657395 0.7993910355417526
-0.33407019005107463 0.7993910355417526
-0.27352466610707993 0.8641347307475311
-0.17261545953375548 0.8425534990122716
-0.10197901493242835 0.7130661086007145
-0.041433490988433665 0.6699036451301955
-0.041433490988433665 0.5188350229833789
-0.03134257033110122 0.5188350229833789
0.10993031887155304 0.5835787181891575
0.25120320807420726 0.6267411816596765
0.2915668907035371 0.6699036451301955
0.2814759700462046 0.561997486453898
0.2814759700462046 0.32460393736604337
0.3722942559621967 0.1951165469544863
0.5942945104235104 0.08721038827818876
0.9172039714581488 -0.17176439254492537
1.2401134324927872 -0.5170641003090776
1.5024773695834306 -0.9702699667495273
1.62356841747142 -1.3371509062489388
1.8354777512754015 -1.5745444553367935
2.138205370995375 -1.639288150542572
2.3097510221700266 -1.855100467895167
2.329932863484691 -2.243562639129838
2.1785690536247047 -2.7615122007760666
1.8960232752193962 -2.9773245181286616
1.6134774968140877 -2.869418359452364
1.3208407977514467 -2.5888623468939906
0.9777494954021435 -2.243562639129838
0.5438399071368483 -1.9414253948362052
0.10993031887155304 -1.639288150542572
-0.2028882215057528 -1.2939884427784198
-0.4147975553097342 -0.9486887350142678
-0.545979523855056 -0.6033890272501156
-0.5560704445123884 -0.38757670989752047
-0.5762522858270533 -0.3012517829564824
-0.6166159684563831 -0.17176439254492537
-0.6872524130577102 -0.10702069733914683
-0.7175251750297076 0.0008854613371507181
-0.7377070163443725 0.10879162001344826
-0.7175251750297076 0.3030227056307839
-0.6973433337150428 0.3030227056307839
-0.7578888576590374 0.2598602421602648
-0.7881616196310347 0.3030227056307839
-0.8184343816030321 0.34618516910130287
-0.7679797783163699 0.4325100960423409
-0.7578888576590374 0.5188350229833789
-0.7780706989737023 0.49725379124811947
-0.838616222917697 0.4109288643070814
-0.838616222917697 0.36776640083656237
-0.8184343816030321 0.3893476325718219
-0.7881616196310347 0.4109288643070814
-0.7578888576590374 0.4325100960423409
-0.7578888576590374 0.4109288643070814
-0.7881616196310347 0.21669777868974582
-0.8083434609456996 0.1519540834839673
-0.8083434609456996 0.1519540834839673
-0.8083434609456996 0.2814414738955244
-0.7679797783163699 0.3030227056307839
-0.7780706989737023 0.3030227056307839
-0.7780706989737023 0.3030227056307839
-0.7679797783163699 0.23827901042500532
-0.7377070163443725 0.3030227056307839
-0.6973433337150428 0.2814414738955244
-0.6973433337150428 0.3893476325718219
-0.7175251750297076 0.32460393736604337
-0.6872524130577102 0.1951165469544863
-0.6872524130577102 0.21669777868974582
-0.7074342543723752 0.21669777868974582
-0.636797809771048 0.3030227056307839
-0.5964341271417183 0.3030227056307839
-0.5661613651697209 0.23827901042500532
-0.5358886031977236 0.1735353152192268
-0.5661613651697209 0.21669777868974582
-0.5661613651697209 0.1951165469544863
-0.5056158412257262 0.34618516910130287
-0.455161237939064 0.4756725595128599
-0.40470663465240175 0.49725379124811947
-0.4147975553097342 0.5404162547186384
-0.40470663465240175 0.4756725595128599
-0.38452479333773687 0.5835787181891575
-0.2937065074217448 0.6699036451301955
-0.23316098347775016 0.6699036451301955
-0.2432519041350826 0.6267411816596765
-0.23316098347775016 0.5835787181891575
-0.21297914216308525 0.5404162547186384
-0.16252453887642304 0.605159949924417
-0.15243361821909057 0.648322413394936
-0.07170625296043101 0.6699036451301955
-0.03134257033110122 0.5835787181891575
-0.0010698083591038797 0.49725379124811947
-0.0010698083591038797 0.4109288643070814
-0.011160729016436326 0.49725379124811947
0.019112032955561013 0.49725379124811947
0.08974847755688814 0.5188350229833789
0.06956663624222324 0.36776640083656237
0.04938479492755835 0.36776640083656237
-0.011160729016436326 0.32460393736604337
-0.041433490988433665 0.32460393736604337
-0.021251649673768774 0.36776640083656237
-0.041433490988433665 0.34618516910130287
-0.05152441164576611 0.1735353152192268
-0.0918880942750959 0.08721038827818876
-0.1322517769044257 0.1519540834839673
-0.16252453887642304 0.13037285174870777
-0.18270638019108792 0.10879162001344826
-0.16252453887642304 0.1951165469544863
-0.2028882215057528 0.13037285174870777
-0.25334282479241504 0.13037285174870777
-0.32397926939374216 0.13037285174870777
-0.33407019005107463 0.1519540834839673
-0.31388834873640975 0.2814414738955244
-0.2836155867644124 0.34618516910130287
-0.32397926939374216 0.32460393736604337
-0.38452479333773687 0.23827901042500532
-0.38452479333773687 0.21669777868974582
-0.4450703172817315 0.32460393736604337
-0.42488847596706664 0.4756725595128599
-0.40470663465240175 0.3893476325718219
-0.3946157139950693 0.4325100960423409
-0.4147975553097342 0.3030227056307839
-0.455161237939064 0.1951165469544863
-0.4349793966243991 0.1951165469544863
-0.4147975553097342 0.1735353152192268
-0.364342952023072 0.21669777868974582
-0.38452479333773687 0.13037285174870777
-0.42488847596706664 0.10879162001344826
-0.42488847596706664 0.06562915654292925
-0.40470663465240175 0.1735353152192268
-0.40470663465240175 0.21669777868974582
-0.3744338726804044 0.2814414738955244
-0.40470663465240175 0.1951165469544863
-0.3542520313657395 0.10879162001344826
-0.364342952023072 -0.02069577039810879
-0.3744338726804044 -0.042277002133368304
-0.34416111070840705 0.022466693072410227
-0.3037974280790773 0.10879162001344826
-0.2634337454497475 0.10879162001344826
-0.2836155867644124 0.04404792480766974
-0.34416111070840705 0.08721038827818876
-0.32397926939374216 0.08721038827818876
-0.25334282479241504 0.1951165469544863
-0.25334282479241504 0.1951165469544863
-0.27352466610707993 0.21669777868974582
-0.27352466610707993 0.13037285174870777
-0.32397926939374216 0.1519540834839673
-0.34416111070840705 0.1735353152192268
-0.34416111070840705 0.3030227056307839
-0.32397926939374216 0.32460393736604337
-0.33407019005107463 0.32460393736604337
-0.364342952023072 0.23827901042500532
-0.40470663465240175 0.2598602421602648
-0.38452479333773687 0.3893476325718219
-0.33407019005107463 0.4325100960423409
-0.32397926939374216 0.4540913277776004
-0.3542520313657395 0.36776640083656237
-0.34416111070840705 0.34618516910130287
-0.3542520313657395 0.3030227056307839
-0.32397926939374216 0.36776640083656237
-0.2634337454497475 0.4325100960423409
-0.12216085624709325 0.4540913277776004
-0.05152441164576611 0.5188350229833789
-0.07170625296043101 0.4325100960423409
-0.15243361821909057 0.3893476325718219
-0.21297914216308525 0.4756725595128599
-0.34416111070840705 0.5404162547186384
-0.545979523855056 0.7130661086007145
-0.72761609568704 0.734647340335974
-0.7881616196310347 0.7993910355417526
-0.6468887304283805 0.734647340335974
-0.364342952023072 0.6699036451301955
-0.0010698083591038797 0.4109288643070814
0.3016578113608695 0.06562915654292925
0.5539308277941807 -0.495482868573818
0.8465675268568217 -0.7976201128674512
1.1392042259194626 -1.0997573571610844
1.3813863216954414 -1.3371509062489388
1.5731138141847578 -1.7040318457483505
1.5731138141847578 -2.092494016983022
1.4822955282687658 -2.480956188217693
1.3612044803807763 -2.61044357862925
1.16947698789146 -2.61044357862925
0.9272948921154812 -2.394631261276655
0.604385431080843 -2.0709127852477622
0.26129412873153973 -1.7040318457483505
-0.021251649673768774 -1.3587321379841983
-0.2937065074217448 -1.1645010523668629
-0.5863432064843858 -0.7976201128674512
-0.6267068891137155 -0.5386453320443371
-0.6468887304283805 -0.2796705512212229
-0.6166159684563831 -0.2365080877507039
-0.636797809771048 -0.12860192907440635
-0.6670705717430454 -0.15018316080966584
-0.7377070163443725 -0.08543946560388732
-0.7477979370017049 0.06562915654292925
-0.7477979370017049 0.1519540834839673
-0.72761609568704 0.21669777868974582
-0.7175251750297076 0.21669777868974582
-0.7477979370017049 0.1951165469544863
-0.8083434609456996 0.1735353152192268
-0.8285253022603645 0.23827901042500532
-0.7881616196310347 0.36776640083656237
-0.7780706989737023 0.49725379124811947
-0.8184343816030321 0.4325100960423409
-0.8285253022603645 0.36776640083656237
-0.8688889848896943 0.3893476325718219
-0.838616222917697 0.4540913277776004
-0.8184343816030321 0.5404162547186384
-0.7881616196310347 0.5835787181891575
-0.7578888576590374 0.4756725595128599
-0.7780706989737023 0.4325100960423409
-0.8285253022603645 0.3893476325718219
-0.8184343816030321 0.4109288643070814
-0.7679797783163699 0.4756725595128599
-0.7377070163443725 0.4756725595128599
-0.7074342543723752 0.4540913277776004
-0.7377070163443725 0.34618516910130287
-0.6973433337150428 0.34618516910130287
-0.6771614924003778 0.32460393736604337
-0.636797809771048 0.2814414738955244
-0.5661613651697209 0.2598602421602648
-0.4652521585963964 0.21669777868974582
-0.42488847596706664 0.1735353152192268
-0.4147975553097342 0.04404792480766974
-0.364342952023072 -0.02069577039810879
-0.2836155867644124 0.06562915654292925
-0.2432519041350826 0.08721038827818876
-0.2028882215057528 0.0008854613371507181
-0.17261545953375548 -0.10702069733914683
-0.15243361821909057 -0.15018316080966584
-0.12216085624709325 -0.17176439254492537
-0.05152441164576611 -0.02069577039810879
0.029202953612893462 -0.02069577039810879
0.09983939821422058 -0.06385823386862781
0.10993031887155304 -0.12860192907440635
0.10993031887155304 -0.12860192907440635
0.13011216018621793 -0.15018316080966584
0.18056676347288017 -0.06385823386862781
0.20074860478754505 -0.08543946560388732
0.1906576841302126 -0.06385823386862781
0.10993031887155304 -0.17176439254492537
0.12002123952888548 -0.08543946560388732
0.12002123952888548 -0.02069577039810879
0.12002123952888548 0.10879162001344826
0.09983939821422058 0.21669777868974582
0.0594757155848908 0.21669777868974582
0.03929387427022591 0.2814414738955244
-0.0010698083591038797 0.2814414738955244
-0.06161533230309856 0.4109288643070814
-0.06161533230309856 0.5188350229833789
-0.05152441164576611 0.605159949924417
-0.041433490988433665 0.561997486453898
-0.06161533230309856 0.5404162547186384
-0.16252453887642304 0.605159949924417
-0.2028882215057528 0.6267411816596765
-0.21297914216308525 0.734647340335974
-0.15243361821909057 0.7562285720712336
-0.18270638019108792 0.7778098038064931
-0.2432519041350826 0.691484876865455
-0.3037974280790773 0.6267411816596765
-0.2836155867644124 0.6267411816596765
-0.2432519041350826 0.7130661086007145
-0.23316098347775016 0.7993910355417526
-0.2634337454497475 0.734647340335974
-0.32397926939374216 0.7130661086007145
-0.32397926939374216 0.648322413394936
-0.32397926939374216 0.691484876865455
-0.2836155867644124 0.691484876865455
-0.27352466610707993 0.6699036451301955
-0.3037974280790773 0.5835787181891575
-0.2836155867644124 0.4756725595128599
-0.32397926939374216 0.4756725595128599
-0.364342952023072 0.4540913277776004
-0.3542520313657395 0.3893476325718219
-0.2836155867644124 0.4109288643070814
-0.2634337454497475 0.3030227056307839
-0.3037974280790773 0.1951165469544863
-0.32397926939374216 0.10879162001344826
-0.32397926939374216 0.08721038827818876
-0.2836155867644124 0.1519540834839673
-0.27352466610707993 0.08721038827818876
-0.27352466610707993 0.022466693072410227
-0.3037974280790773 -0.12860192907440635
-0.34416111070840705 -0.10702069733914683
-0.27352466610707993 -0.10702069733914683
-0.27352466610707993 -0.17176439254492537
-0.23316098347775016 -0.15018316080966584
-0.21297914216308525 -0.2796705512212229
-0.22307006282041772 -0.3012517829564824
-0.23316098347775016 -0.38757670989752047
-0.2836155867644124 -0.3228330146917419
-0.2634337454497475 -0.2796705512212229
-0.2836155867644124 -0.17176439254492537
-0.2634337454497475 -0.17176439254492537
-0.32397926939374216 -0.2796705512212229
-0.364342952023072 -0.3012517829564824
-0.33407019005107463 -0.21492685601544437
-0.32397926939374216 -0.15018316080966584
-0.3037974280790773 -0.10702069733914683
-0.33407019005107463 -0.08543946560388732
-0.38452479333773687 -0.042277002133368304
-0.3946157139950693 -0.02069577039810879
-0.40470663465240175 0.08721038827818876
-0.4147975553097342 0.21669777868974582
-0.42488847596706664 0.3030227056307839
-0.455161237939064 0.2814414738955244
-0.455161237939064 0.34618516910130287
-0.4147975553097342 0.4109288643070814
-0.4450703172817315 0.3893476325718219
-0.42488847596706664 0.4756725595128599
-0.40470663465240175 0.605159949924417
-0.38452479333773687 0.49725379124811947
