1.552931972870093 -0.9702699667495273
1.5630228935274253 -0.7760388811321917
1.5832047348420903 -0.5170641003090776
1.532750131555428 -0.3444142464270014
1.5226592108980956 -0.3444142464270014
1.5024773695834306 -0.2365080877507039
1.5226592108980956 -0.10702069733914683
1.5024773695834306 0.10879162001344826
1.4923864489260983 0.08721038827818876
1.4015681630101062 0.0008854613371507181
1.3813863216954414 0.04404792480766974
1.441931845639436 0.23827901042500532
1.5226592108980956 0.21669777868974582
1.5428410522127605 0.10879162001344826
1.5024773695834306 0.1951165469544863
1.5024773695834306 0.5404162547186384
1.5630228935274253 0.9072971942180501
1.6033865761567552 1.1662719750411643
1.6942048620727472 1.1662719750411643
1.7446594653594094 0.9720408894238287
1.8455686719327338 0.8641347307475311
1.916205116534061 1.1015282798353858
1.9969324817927205 1.576315378011095
2.1079326090233774 1.9647775492457662
2.2391145775686994 2.0295212444515447
2.299660101512694 1.79212769536369
2.3602056254566888 1.4036655241290188
2.430842070058016 0.9288784259533096
2.57211495926067 0.34618516910130287
2.622569562547332 -0.02069577039810879
2.6528423245193298 -0.21492685601544437
2.6932060071486594 -0.10702069733914683
2.6528423245193298 0.13037285174870777
2.683115086491327 0.13037285174870777
2.6528423245193298 -0.3228330146917419
2.6427514038619973 -1.0997573571610844
2.622569562547332 -2.221981407394579
2.57211495926067 -3.1715556037459973
2.501478514659343 -3.9484799462153397
2.3702965461140213 -4.272198422244232
2.249205498226032 -4.272198422244232
2.1583872123100396 -4.056386104891637
1.9767506404780557 -3.624761470186447
1.7042957827300795 -3.1068119085402186
1.3914772423527737 -2.653606042099769
1.1795679085487925 -2.394631261276655
1.0282040986888057 -2.1572377121888002
0.9878404160594759 -1.9198441631009457
1.0080222573741409 -1.639288150542572
0.9979313367168083 -1.5313819918662746
0.9172039714581488 -1.4882195283957556
0.8162947648848243 -1.509800760131015
0.7456583202834972 -1.3803133697194578
0.7153855583114999 -1.1860822841021224
0.6952037169968349 -0.7760388811321917
0.7052946376541674 -0.19334562428018487
0.6750218756821701 0.691484876865455
0.6144763517381754 1.4684092193347973
0.5236580658221833 1.705802768422652
0.48329438319285356 1.1662719750411643
0.4328397799061913 0.23827901042500532
0.4530216212208562 -0.8407825763379702
0.5034762245075185 -1.466638296660496
0.5640217484515131 -1.6177069188073125
0.5236580658221833 -1.4018946014547173
0.4429307005635238 -0.8839450398084892
0.4429307005635238 -0.5170641003090776
0.5640217484515131 -0.19334562428018487
0.5741126691088456 0.04404792480766974
0.5034762245075185 0.36776640083656237
0.4732034625355211 0.734647340335974
0.5135671451648509 1.2741781337174618
0.5539308277941807 1.6842215366873925
0.5640217484515131 1.705802768422652
0.4631125418781887 1.3605030606584998
0.3823851766195291 0.5404162547186384
0.35211241464753174 -0.2580893194859634
0.4227488592488589 -0.7328764176616727
0.5135671451648509 -0.6897139541911536
0.5438399071368483 -0.5170641003090776
0.5135671451648509 -0.3012517829564824
0.4429307005635238 -0.10702069733914683
0.39247609727686156 0.1735353152192268
0.40256701793419397 0.6267411816596765
0.40256701793419397 1.2310156702469428
0.4227488592488589 1.7273840001579115
0.40256701793419397 1.835290158834209
0.35211241464753174 1.533152914540576
0.3420214939901993 0.8857159624827906
0.4328397799061913 -0.02069577039810879
0.5438399071368483 -0.8407825763379702
0.6447491137101727 -1.509800760131015
0.604385431080843 -1.7471943092188695
0.584203589766178 -1.682450614013091
0.5741126691088456 -1.5745444553367935
0.6144763517381754 -1.3155696745136793
0.584203589766178 -1.1860822841021224
0.604385431080843 -1.0565948936905654
0.6548400343675052 -1.0997573571610844
0.6447491137101727 -0.9271075032790083
0.7153855583114999 -0.6249702589853751
0.6750218756821701 -0.2365080877507039
0.6952037169968349 0.1519540834839673
0.6952037169968349 0.23827901042500532
0.786022002912827 0.022466693072410227
0.8364766061994892 -0.3012517829564824
0.8667493681714865 -0.4739016368385585
0.9575676540874786 -0.40915794163277996
0.9979313367168083 -0.36599547816226097
1.0282040986888057 -0.3228330146917419
1.0181131780314732 -0.452320405103299
0.9777494954021435 -0.452320405103299
0.967658574744811 -0.3444142464270014
0.9878404160594759 -0.15018316080966584
1.0382950193461382 -0.02069577039810879
0.9979313367168083 0.08721038827818876
0.9878404160594759 0.34618516910130287
0.967658574744811 0.8425534990122716
0.9575676540874786 1.8137089270989495
0.9474767334301462 2.763283123450368
0.9474767334301462 2.892770513861925
0.9373858127728136 2.1158461713925827
0.9071130508008163 0.8641347307475311
0.9272948921154812 -0.3444142464270014
0.9474767334301462 -1.2939884427784198
0.9777494954021435 -1.5745444553367935
0.9474767334301462 -1.3371509062489388
0.9878404160594759 -1.1429198206316034
0.9575676540874786 -1.0134324302200461
0.9272948921154812 -0.7760388811321917
0.876840288828819 -0.38757670989752047
0.9172039714581488 0.04404792480766974
0.9373858127728136 0.36776640083656237
0.8970221301434839 0.4325100960423409
0.8566584475141541 0.1519540834839673
0.8062038442274919 -0.06385823386862781
0.7961129235701594 -0.3228330146917419
0.8062038442274919 -0.452320405103299
0.7961129235701594 -0.5170641003090776
0.8062038442274919 -0.495482868573818
0.8162947648848243 -0.38757670989752047
0.8062038442274919 -0.15018316080966584
0.8162947648848243 0.10879162001344826
0.8062038442274919 0.4109288643070814
0.8162947648848243 0.561997486453898
0.7759310822554946 0.648322413394936
0.7254764789688323 0.561997486453898
0.7153855583114999 0.4540913277776004
0.7254764789688323 0.4540913277776004
0.7355673996261647 0.561997486453898
0.8263856855421567 0.32460393736604337
0.876840288828819 -0.36599547816226097
0.8162947648848243 -1.0781761254258249
0.765840161598162 -1.72561307748361
0.7153855583114999 -2.221981407394579
0.7254764789688323 -2.5456998834234716
0.8263856855421567 -2.480956188217693
0.8667493681714865 -2.2004001756593192
0.8263856855421567 -1.9198441631009457
0.765840161598162 -1.466638296660496
0.7153855583114999 -0.8839450398084892
0.7456583202834972 -0.19334562428018487
0.7456583202834972 0.1951165469544863
0.7557492409408296 0.1735353152192268
0.6952037169968349 -0.3444142464270014
0.6245672723955078 -0.7976201128674512
0.6548400343675052 -1.1860822841021224
0.6851127963395025 -1.3587321379841983
0.7355673996261647 -1.2076635158373819
0.7456583202834972 -0.9918511984847868
0.7254764789688323 -0.8192013446027107
0.7254764789688323 -0.5170641003090776
0.7153855583114999 -0.12860192907440635
0.6548400343675052 0.34618516910130287
0.6851127963395025 0.7562285720712336
0.7153855583114999 0.9504596576885691
0.7254764789688323 1.0799470481001263
0.6952037169968349 1.1231095115706453
0.6750218756821701 1.1231095115706453
0.6649309550248376 1.1878532067764238
0.7052946376541674 1.0799470481001263
0.7355673996261647 0.8641347307475311
0.7355673996261647 0.4540913277776004
0.7153855583114999 0.0008854613371507181
0.7153855583114999 -0.2580893194859634
0.7052946376541674 -0.38757670989752047
0.7456583202834972 -0.3228330146917419
0.7254764789688323 -0.02069577039810879
0.7052946376541674 0.1519540834839673
0.7557492409408296 0.2598602421602648
0.7557492409408296 0.2598602421602648
0.7052946376541674 0.21669777868974582
0.7052946376541674 -0.042277002133368304
0.6447491137101727 -0.3228330146917419
0.6346581930528402 -0.5602265637795966
0.6548400343675052 -0.5602265637795966
0.6952037169968349 -0.452320405103299
0.7254764789688323 -0.3228330146917419
0.7052946376541674 -0.19334562428018487
0.6952037169968349 -0.2365080877507039
0.6447491137101727 -0.3012517829564824
0.6144763517381754 -0.21492685601544437
0.584203589766178 -0.042277002133368304
0.6144763517381754 0.1735353152192268
0.6346581930528402 0.3893476325718219
0.6346581930528402 0.3030227056307839
0.584203589766178 0.13037285174870777
0.5236580658221833 -0.02069577039810879
0.5438399071368483 -0.17176439254492537
0.584203589766178 -0.21492685601544437
0.6245672723955078 -0.40915794163277996
0.6144763517381754 -0.7328764176616727
0.5741126691088456 -1.1213385888963439
0.5640217484515131 -1.4234758331899768
0.5640217484515131 -1.4018946014547173
0.584203589766178 -1.3155696745136793
0.604385431080843 -1.0997573571610844
0.584203589766178 -0.8839450398084892
0.584203589766178 -0.7328764176616727
0.5640217484515131 -0.6249702589853751
0.5741126691088456 -0.6033890272501156
0.5741126691088456 -0.7544576493969322
0.5741126691088456 -1.1213385888963439
0.5942945104235104 -1.6177069188073125
0.5640217484515131 -2.0493315535125025
0.5337489864795159 -2.221981407394579
0.4631125418781887 -2.1140752487182812
0.48329438319285356 -1.8982629313656862
0.5337489864795159 -1.6608693822778315
0.5539308277941807 -1.4450570649252366
0.5438399071368483 -1.2724072110431603
0.4530216212208562 -0.9918511984847868
0.4631125418781887 -0.40915794163277996
0.4530216212208562 0.1735353152192268
0.4631125418781887 0.5188350229833789
0.4732034625355211 0.4325100960423409
0.4328397799061913 -0.042277002133368304
0.3722942559621967 -0.6465514907206346
0.40256701793419397 -1.1645010523668629
0.4732034625355211 -1.466638296660496
0.49338530385018603 -1.4450570649252366
0.49338530385018603 -1.3155696745136793
0.4530216212208562 -1.1645010523668629
0.41265793859152644 -0.9055262715437487
0.3722942559621967 -0.6033890272501156
0.4328397799061913 -0.21492685601544437
0.4732034625355211 0.23827901042500532
0.4732034625355211 0.6267411816596765
0.4328397799061913 1.1231095115706453
0.3823851766195291 1.2741781337174618
0.41265793859152644 1.1231095115706453
0.48329438319285356 0.4540913277776004
0.6447491137101727 -0.12860192907440635
0.8162947648848243 -0.5602265637795966
0.9878404160594759 -0.5818077955148561
1.098840543290133 -0.3228330146917419
1.16947698789146 0.1519540834839673
1.2502043531501195 0.691484876865455
1.3813863216954414 1.0152033528943476
1.532750131555428 1.1231095115706453
1.6336593381287525 1.2525969019822023
1.7244776240447446 1.576315378011095
1.8657505132473988 1.8137089270989495
1.9868415611353882 1.7273840001579115
2.0473870850793827 1.1446907433059048
2.0473870850793827 0.1951165469544863
2.0171143231073856 -0.6249702589853751
2.007023402450053 -1.466638296660496
2.03729616442205 -2.0493315535125025
2.027205243764718 -2.5025374199529526
1.9868415611353882 -2.8478371277171046
1.9061141958767285 -3.3442054576280733
1.7648413066740742 -3.581599006715928
1.62356841747142 -3.5168553115101493
1.4923864489260983 -3.1715556037459973
1.3410226390661115 -2.5888623468939906
1.1392042259194626 -2.0277503217772432
0.8062038442274919 -1.855100467895167
0.4732034625355211 -1.811938004424648
0.31174873201820197 -1.9630066265714647
0.17047584281554773 -1.8982629313656862
0.08974847755688814 -1.855100467895167
0.04938479492755835 -1.9414253948362052
-0.03134257033110122 -1.9845878583067242
-0.03134257033110122 -2.092494016983022
-0.07170625296043101 -1.9845878583067242
-0.1322517769044257 -1.682450614013091
-0.2432519041350826 -1.1429198206316034
-0.3037974280790773 -0.6681327224558941
-0.3542520313657395 -0.36599547816226097
-0.364342952023072 -0.495482868573818
-0.40470663465240175 -0.8623638080732297
-0.40470663465240175 -1.3803133697194578
-0.364342952023072 -1.7471943092188695
-0.2937065074217448 -2.0061690900419835
-0.32397926939374216 -2.1572377121888002
-0.40470663465240175 -2.243562639129838
-0.4450703172817315 -2.1140752487182812
-0.5056158412257262 -1.9414253948362052
-0.5056158412257262 -1.466638296660496
-0.4349793966243991 -1.0350136619553059
-0.4450703172817315 -0.5170641003090776
-0.5257976825403912 -0.042277002133368304
-0.6065250477990507 0.13037285174870777
-0.5964341271417183 -0.02069577039810879
-0.5358886031977236 -0.3444142464270014
-0.4349793966243991 -0.6897139541911536
-0.3744338726804044 -0.9271075032790083
-0.364342952023072 -0.8192013446027107
-0.455161237939064 -0.6897139541911536
-0.4450703172817315 -0.6465514907206346
-0.4349793966243991 -0.9055262715437487
-0.364342952023072 -1.1213385888963439
-0.3542520313657395 -1.1645010523668629
-0.3542520313657395 -1.0134324302200461
-0.38452479333773687 -0.8623638080732297
-0.4753430792537289 -0.8407825763379702
-0.5661613651697209 -0.9486887350142678
-0.5964341271417183 -0.9271075032790083
-0.4652521585963964 -0.9702699667495273
-0.32397926939374216 -0.8407825763379702
-0.2836155867644124 -0.7544576493969322
-0.33407019005107463 -0.5602265637795966
-0.32397926939374216 -0.36599547816226097
-0.2836155867644124 -0.2580893194859634
-0.2634337454497475 -0.042277002133368304
-0.25334282479241504 0.2598602421602648
-0.27352466610707993 0.5835787181891575
-0.2836155867644124 0.8857159624827906
-0.2432519041350826 0.7993910355417526
-0.23316098347775016 0.605159949924417
-0.19279730084842037 0.1735353152192268
-0.19279730084842037 0.022466693072410227
-0.21297914216308525 0.022466693072410227
-0.19279730084842037 0.21669777868974582
-0.14234269756175813 0.34618516910130287
-0.07170625296043101 0.4540913277776004
-0.03134257033110122 0.561997486453898
-0.0918880942750959 0.9072971942180501
-0.15243361821909057 1.533152914540576
-0.17261545953375548 2.3100772570099184
-0.11206993558976079 2.5043083426272537
-0.011160729016436326 1.878452622304728
0.029202953612893462 0.5835787181891575
0.009021112298228566 -0.7976201128674512
0.03929387427022591 -1.811938004424648
0.029202953612893462 -2.308306334335617
0.04938479492755835 -2.329887566070876
0.09983939821422058 -1.8982629313656862
0.06956663624222324 -1.552963223601534
0.0594757155848908 -1.3803133697194578
-0.0010698083591038797 -1.2724072110431603
-0.05152441164576611 -1.1429198206316034
-0.07170625296043101 -1.0565948936905654
0.019112032955561013 -1.0350136619553059
0.03929387427022591 -1.1860822841021224
0.009021112298228566 -1.4018946014547173
-0.06161533230309856 -1.6608693822778315
-0.1322517769044257 -1.552963223601534
-0.1322517769044257 -1.3155696745136793
-0.0918880942750959 -1.0997573571610844
-0.10197901493242835 -0.9271075032790083
-0.1322517769044257 -0.8407825763379702
-0.19279730084842037 -0.7328764176616727
-0.25334282479241504 -0.40915794163277996
-0.25334282479241504 0.04404792480766974
-0.23316098347775016 0.648322413394936
-0.2432519041350826 0.9720408894238287
-0.2836155867644124 0.8857159624827906
-0.31388834873640975 0.5404162547186384
-0.2836155867644124 0.08721038827818876
-0.19279730084842037 -0.2580893194859634
-0.18270638019108792 -0.5602265637795966
-0.23316098347775016 -0.9055262715437487
-0.3037974280790773 -1.2076635158373819
-0.31388834873640975 -1.5313819918662746
-0.31388834873640975 -1.5313819918662746
-0.2937065074217448 -1.3803133697194578
-0.2836155867644124 -0.8839450398084892
-0.2836155867644124 -0.4739016368385585
-0.33407019005107463 -0.21492685601544437
-0.42488847596706664 -0.2580893194859634
-0.49552492056839376 -0.21492685601544437
-0.455161237939064 -0.36599547816226097
-0.32397926939374216 -0.5386453320443371
-0.2836155867644124 -0.9055262715437487
-0.364342952023072 -0.9918511984847868
-0.455161237939064 -0.7544576493969322
-0.5358886031977236 -0.19334562428018487
-0.5157067618830586 0.36776640083656237
-0.42488847596706664 0.5404162547186384
-0.455161237939064 0.1519540834839673
-0.4753430792537289 -0.40915794163277996
-0.5056158412257262 -0.9486887350142678
-0.4450703172817315 -1.1429198206316034
-0.364342952023072 -0.9918511984847868
-0.38452479333773687 -0.7760388811321917
-0.3946157139950693 -0.5386453320443371
-0.455161237939064 -0.3444142464270014
-0.5056158412257262 -0.2365080877507039
-0.5560704445123884 -0.06385823386862781
-0.6166159684563831 0.1735353152192268
-0.6468887304283805 0.5188350229833789
-0.6670705717430454 1.0152033528943476
-0.6771614924003778 1.4468279875995378
-0.7175251750297076 1.705802768422652
-0.72761609568704 1.489990451070057
-0.7780706989737023 0.9288784259533096
-0.72761609568704 0.10879162001344826
-0.7074342543723752 -0.8192013446027107
-0.6468887304283805 -1.639288150542572
-0.636797809771048 -2.0493315535125025
-0.6267068891137155 -2.0709127852477622
-0.5762522858270533 -1.855100467895167
-0.5257976825403912 -1.6608693822778315
-0.5257976825403912 -1.2724072110431603
-0.5762522858270533 -0.7328764176616727
-0.636797809771048 -0.042277002133368304
-0.636797809771048 0.36776640083656237
-0.6267068891137155 0.1951165469544863
-0.6267068891137155 -0.495482868573818
-0.6468887304283805 -1.2508259793079008
-0.6267068891137155 -1.7471943092188695
-0.5358886031977236 -1.855100467895167
-0.455161237939064 -1.552963223601534
-0.455161237939064 -1.3371509062489388
-0.4652521585963964 -1.1645010523668629
-0.4753430792537289 -1.2076635158373819
-0.5358886031977236 -1.0565948936905654
-0.6065250477990507 -0.7976201128674512
-0.6267068891137155 -0.5386453320443371
-0.636797809771048 -0.06385823386862781
-0.5964341271417183 0.5188350229833789
-0.6166159684563831 0.9504596576885691
-0.6872524130577102 1.0152033528943476
-0.72761609568704 0.691484876865455
-0.7074342543723752 0.1735353152192268
-0.6569796510857129 -0.2796705512212229
-0.5964341271417183 -0.5818077955148561
-0.6065250477990507 -0.6897139541911536
-0.5964341271417183 -0.5170641003090776
-0.5964341271417183 -0.02069577039810879
-0.6468887304283805 0.691484876865455
-0.7175251750297076 1.1662719750411643
-0.7074342543723752 0.9720408894238287
-0.6973433337150428 0.21669777868974582
-0.7780706989737023 -0.5818077955148561
-0.7578888576590374 -1.0997573571610844
-0.6973433337150428 -1.2939884427784198
-0.6468887304283805 -1.3155696745136793
-0.6065250477990507 -1.1645010523668629
-0.6468887304283805 -0.9918511984847868
-0.7578888576590374 -0.7544576493969322
-0.6973433337150428 -0.5386453320443371
-0.6468887304283805 -0.38757670989752047
-0.6872524130577102 -0.2580893194859634
-0.6973433337150428 -0.08543946560388732
-0.7679797783163699 -0.15018316080966584
-0.7679797783163699 -0.3012517829564824
-0.8184343816030321 -0.5818077955148561
-0.8285253022603645 -0.7976201128674512
-0.7982525402883672 -0.8623638080732297
-0.7679797783163699 -0.7544576493969322
-0.7578888576590374 -0.6897139541911536
-0.7578888576590374 -0.5818077955148561
-0.7578888576590374 -0.5602265637795966
-0.8083434609456996 -0.40915794163277996
-0.8587980642323618 -0.042277002133368304
-0.9193435881763565 0.5404162547186384
-0.9798891121203512 1.1662719750411643
-0.9597072708056863 1.3389218289232403
-0.9193435881763565 0.8425534990122716
-0.9092526675190241 -0.12860192907440635
-0.8991617468616916 -1.1860822841021224
-0.8285253022603645 -1.8982629313656862
-0.7578888576590374 -2.243562639129838
-0.7578888576590374 -2.329887566070876
-0.8184343816030321 -2.2004001756593192
-0.8487071435750294 -1.9198441631009457
-0.7679797783163699 -1.4450570649252366
-0.72761609568704 -0.8623638080732297
-0.7175251750297076 0.04404792480766974
-0.7578888576590374 0.8641347307475311
-0.7679797783163699 1.1231095115706453
-0.8285253022603645 0.5188350229833789
-0.9395254294910215 -0.6465514907206346
-0.9294345088336889 -1.9845878583067242
-0.838616222917697 -2.696768505570288
-0.7578888576590374 -2.653606042099769
-0.7780706989737023 -2.2004001756593192
-0.7982525402883672 -1.596125687072053
-0.8184343816030321 -1.2076635158373819
-0.7881616196310347 -0.9486887350142678
-0.7982525402883672 -0.7544576493969322
-0.838616222917697 -0.5818077955148561
-0.8890708262043592 -0.43073917336803946
-0.9193435881763565 -0.452320405103299
-0.8789799055470268 -0.36599547816226097
-0.8487071435750294 -0.5170641003090776
-0.7982525402883672 -0.5386453320443371
-0.72761609568704 -0.495482868573818
-0.6267068891137155 -0.21492685601544437
-0.5560704445123884 0.08721038827818876
-0.4753430792537289 0.4756725595128599
-0.2836155867644124 0.7130661086007145
-0.1322517769044257 0.734647340335974
-0.0010698083591038797 0.734647340335974
0.0796575568995557 0.691484876865455
0.20074860478754505 0.5404162547186384
0.3823851766195291 0.4325100960423409
0.5539308277941807 0.561997486453898
0.765840161598162 0.6267411816596765
0.9878404160594759 0.4109288643070814
1.1089314639474652 0.022466693072410227
1.149295146576795 -0.38757670989752047
1.1795679085487925 -0.6249702589853751
1.1795679085487925 -0.7328764176616727
1.2300225118354546 -0.9271075032790083
1.1896588292061248 -1.2939884427784198
1.1392042259194626 -1.811938004424648
1.0685677813181356 -2.265143870865098
0.967658574744811 -2.739930969040807
0.8263856855421567 -3.0636494450696996
0.6952037169968349 -3.408949152833852
0.4631125418781887 -3.797411324068523
0.2814759700462046 -3.8621550192743017
0.12002123952888548 -3.7326676288627443
-0.18270638019108792 -3.3442054576280733
-0.4349793966243991 -2.9557432863934023
-0.6468887304283805 -2.6320248103645096
-0.8991617468616916 -2.416212493011914
-1.1514347632950028 -1.9845878583067242
-1.3936168590709814 -1.682450614013091
-1.4743442243296412 -1.3587321379841983
-1.4238896210429788 -1.2724072110431603
-1.3633440970989843 -1.466638296660496
-1.3734350177563166 -1.7903567726893885
-1.4339805417003113 -2.0709127852477622
-1.5247988276163034 -2.243562639129838
-1.5247988276163034 -2.265143870865098
-1.4844351449869735 -2.17881894392406
-1.4440714623576438 -2.17881894392406
-1.5046169863016385 -2.1140752487182812
-1.605526192874963 -1.8982629313656862
-1.6458898755042928 -1.639288150542572
-1.6357989548469603 -1.2076635158373819
-1.585344351560298 -0.9702699667495273
-1.6156171135322954 -0.7976201128674512
-1.6660717168189576 -0.6249702589853751
-1.7467990820776171 -0.495482868573818
-1.7467990820776171 -0.43073917336803946
-1.7467990820776171 -0.38757670989752047
-1.7266172407629523 -0.17176439254492537
-1.7064353994482875 0.022466693072410227
-1.7467990820776171 0.13037285174870777
-1.8275264473362767 0.10879162001344826
-1.8275264473362767 0.1519540834839673
-1.8275264473362767 0.04404792480766974
-1.787162764706947 -0.06385823386862781
-1.7367081614202846 -0.19334562428018487
-1.7770718440496145 -0.2796705512212229
-1.8174355266789444 -0.08543946560388732
-1.787162764706947 0.34618516910130287
-1.7568900027349497 0.9504596576885691
-1.7367081614202846 1.489990451070057
-1.787162764706947 1.619477841481614
-1.8477082886509417 1.4252467558642783
-1.9284356539096013 0.734647340335974
-1.988981177853596 -0.06385823386862781
-1.8477082886509417 -0.7328764176616727
-1.7064353994482875 -1.0997573571610844
-1.6761626374762901 -1.3155696745136793
-1.7972536853642793 -1.3371509062489388
-1.9082538125949364 -1.1213385888963439
-1.898162891937604 -0.8192013446027107
-1.7972536853642793 -0.4739016368385585
-1.7165263201056198 -0.19334562428018487
-1.766980923392282 0.0008854613371507181
-1.8477082886509417 0.10879162001344826
-1.9385265745669336 0.21669777868974582
-1.8880719712802714 0.3893476325718219
-1.7972536853642793 0.561997486453898
-1.7367081614202846 0.561997486453898
-1.6660717168189576 0.34618516910130287
-1.6660717168189576 0.13037285174870777
-1.6660717168189576 -0.10702069733914683
-1.6660717168189576 -0.17176439254492537
-1.6458898755042928 -0.36599547816226097
-1.605526192874963 -0.6033890272501156
-1.605526192874963 -0.7976201128674512
-1.5550715895883007 -0.9918511984847868
-1.565162510245633 -1.0781761254258249
-1.534889748273636 -0.8839450398084892
-1.494526065644306 -0.3444142464270014
-1.3633440970989843 0.3893476325718219
-1.312889493812322 0.7562285720712336
-1.3532531764416518 0.4540913277776004
-1.3936168590709814 -0.5386453320443371
-1.4238896210429788 -1.5313819918662746
-1.3835259384136491 -2.308306334335617
-1.292707652497657 -2.653606042099769
-1.1716166046096677 -2.5888623468939906
-1.1615256839523354 -2.329887566070876
-1.1817075252670002 -2.0277503217772432
-1.1413438426376703 -1.639288150542572
-1.131252921980338 -1.1429198206316034
-1.111071080665673 -0.6897139541911536
-1.1211620013230055 -0.3444142464270014
-1.1514347632950028 0.13037285174870777
-1.2321621285536624 0.5404162547186384
-1.2624348905256597 0.6699036451301955
-1.2523439698683272 0.4756725595128599
-1.2624348905256597 0.0008854613371507181
-1.2826167318403245 -0.495482868573818
-1.3229804144696544 -0.7760388811321917
-1.2725258111829922 -0.9271075032790083
-1.2119802872389975 -0.8623638080732297
-1.201889366581665 -0.6249702589853751
-1.2321621285536624 -0.43073917336803946
-1.2422530492109949 -0.3444142464270014
-1.2826167318403245 -0.2796705512212229
-1.3229804144696544 -0.15018316080966584
-1.3734350177563166 0.08721038827818876
-1.3835259384136491 0.23827901042500532
-1.3633440970989843 0.49725379124811947
-1.3027985731549896 0.648322413394936
-1.3027985731549896 0.6267411816596765
-1.3734350177563166 0.605159949924417
-1.4137987003856465 0.4109288643070814
-1.4642533036723087 0.36776640083656237
-1.4440714623576438 0.3893476325718219
-1.4137987003856465 0.23827901042500532
-1.4137987003856465 0.04404792480766974
-1.5046169863016385 -0.08543946560388732
-1.534889748273636 -0.15018316080966584
-1.565162510245633 0.13037285174870777
-1.5550715895883007 0.36776640083656237
-1.5449806689309682 0.49725379124811947
-1.5752534309029655 0.32460393736604337
-1.534889748273636 -0.08543946560388732
-1.534889748273636 -0.5818077955148561
-1.494526065644306 -0.9918511984847868
-1.5046169863016385 -1.0781761254258249
-1.5247988276163034 -1.0565948936905654
-1.5954352722176304 -1.0565948936905654
-1.6458898755042928 -1.0350136619553059
-1.6458898755042928 -0.9271075032790083
-1.6458898755042928 -0.6465514907206346
-1.6156171135322954 -0.5170641003090776
-1.605526192874963 -0.7112951859264132
-1.605526192874963 -0.9918511984847868
-1.6156171135322954 -1.3587321379841983
-1.655980796161625 -1.5313819918662746
-1.6357989548469603 -1.4450570649252366
-1.585344351560298 -1.2724072110431603
-1.5752534309029655 -0.7328764176616727
-1.5752534309029655 -0.21492685601544437
-1.6257080341896277 0.1735353152192268
-1.655980796161625 -0.10702069733914683
-1.7064353994482875 -0.8407825763379702
-1.7165263201056198 -1.5745444553367935
-1.7770718440496145 -2.0493315535125025
-1.7467990820776171 -2.286725102600357
-1.7467990820776171 -2.1140752487182812
-1.696344478790955 -1.6608693822778315
-1.6862535581336224 -1.2508259793079008
-1.7165263201056198 -0.9055262715437487
-1.7064353994482875 -0.6897139541911536
-1.6862535581336224 -0.43073917336803946
-1.7064353994482875 0.04404792480766974
-1.7266172407629523 0.605159949924417
-1.7266172407629523 0.9504596576885691
-1.7064353994482875 0.8641347307475311
-1.655980796161625 0.4325100960423409
-1.6357989548469603 0.022466693072410227
-1.6357989548469603 -0.43073917336803946
-1.6257080341896277 -0.452320405103299
-1.585344351560298 -0.3012517829564824
-1.5752534309029655 -0.17176439254492537
-1.565162510245633 0.06562915654292925
-1.5954352722176304 0.21669777868974582
-1.655980796161625 0.5404162547186384
-1.655980796161625 0.7993910355417526
-1.655980796161625 0.9720408894238287
-1.605526192874963 1.0152033528943476
-1.6156171135322954 0.648322413394936
-1.6660717168189576 0.23827901042500532
-1.7467990820776171 -0.2796705512212229
-1.7367081614202846 -0.5602265637795966
-1.6660717168189576 -0.5386453320443371
-1.585344351560298 -0.2580893194859634
-1.5954352722176304 -0.08543946560388732
-1.6660717168189576 0.06562915654292925
-1.7165263201056198 0.08721038827818876
-1.7165263201056198 0.1951165469544863
-1.7165263201056198 0.08721038827818876
-1.6862535581336224 -0.17176439254492537
-1.7064353994482875 -0.6033890272501156
-1.696344478790955 -0.9702699667495273
-1.6761626374762901 -1.0134324302200461
-1.7266172407629523 -0.8839450398084892
-1.7467990820776171 -0.6897139541911536
-1.7568900027349497 -0.4739016368385585
-1.696344478790955 -0.6033890272501156
-1.6660717168189576 -0.7112951859264132
-1.655980796161625 -0.7112951859264132
-1.6660717168189576 -0.6033890272501156
-1.655980796161625 -0.4739016368385585
-1.6660717168189576 -0.5170641003090776
-1.6458898755042928 -1.0781761254258249
-1.655980796161625 -1.639288150542572
-1.655980796161625 -1.9845878583067242
-1.7064353994482875 -2.0493315535125025
-1.655980796161625 -1.8335192361599075
-1.696344478790955 -1.552963223601534
-1.6761626374762901 -1.3587321379841983
-1.6660717168189576 -1.2939884427784198
-1.6660717168189576 -1.2292447475726413
-1.696344478790955 -1.0350136619553059
-1.7266172407629523 -0.6465514907206346
-1.696344478790955 -0.2365080877507039
-1.6862535581336224 -0.02069577039810879
-1.6357989548469603 -0.15018316080966584
-1.696344478790955 -0.43073917336803946
-1.7467990820776171 -0.6033890272501156
-1.766980923392282 -0.6465514907206346
-1.8174355266789444 -0.6465514907206346
-1.787162764706947 -0.5602265637795966
-1.766980923392282 -0.2580893194859634
-1.7165263201056198 0.32460393736604337
-1.6862535581336224 0.8857159624827906
-1.5954352722176304 1.2310156702469428
-1.4440714623576438 1.1446907433059048
-1.2725258111829922 0.7130661086007145
-1.0807983186936756 0.3893476325718219
-0.9294345088336889 0.23827901042500532
-0.7679797783163699 0.4756725595128599
-0.5661613651697209 1.036784584629607
-0.364342952023072 1.748965231893171
-0.23316098347775016 2.2453335618041397
-0.14234269756175813 2.3748209522156967
-0.011160729016436326 2.1805898665983614
0.25120320807420726 2.0295212444515447
0.4631125418781887 1.705802768422652
0.6245672723955078 1.1662719750411643
0.7153855583114999 0.4109288643070814
0.7355673996261647 -0.2796705512212229
0.6851127963395025 -0.9271075032790083
0.7254764789688323 -1.4450570649252366
0.8062038442274919 -1.768775540954129
0.8062038442274919 -1.8982629313656862
0.765840161598162 -2.17881894392406
0.7052946376541674 -2.5888623468939906
0.5640217484515131 -3.0852306768049593
0.3420214939901993 -3.2794617624222946
0.14020308084355038 -3.1931368354812566
0.019112032955561013 -3.0420682133344403
-0.11206993558976079 -2.8909995911876236
-0.27352466610707993 -2.653606042099769
-0.6267068891137155 -2.1572377121888002
-1.131252921980338 -1.639288150542572
-1.534889748273636 -1.3587321379841983
-1.7165263201056198 -1.4450570649252366
-1.8477082886509417 -1.768775540954129
-2.059617622454923 -2.1140752487182812
-2.2008905116575774 -2.308306334335617
-2.2311632736295746 -2.265143870865098
-2.190799591000245 -2.0493315535125025
-2.0898903844269205 -1.811938004424648
-2.1504359083709153 -1.72561307748361
-2.2311632736295746 -1.7040318457483505
-2.321981559545567 -1.6177069188073125
-2.3421634008602314 -1.3803133697194578
-2.382527083489561 -0.8839450398084892
-2.4127998454615587 -0.12860192907440635
-2.4733453694055534 0.6267411816596765
-2.5036181313775505 1.2741781337174618
-2.5237999726922156 1.2525969019822023
-2.533890893349548 0.4325100960423409
-2.594436417293543 -0.7544576493969322
-2.594436417293543 -1.8982629313656862
-2.5540727346642127 -2.869418359452364
-2.513709052034883 -3.1931368354812566
-2.533890893349548 -2.9557432863934023
-2.5540727346642127 -2.437793724747174
-2.5540727346642127 -1.9630066265714647
-2.5540727346642127 -1.552963223601534
-2.483436290062886 -1.1645010523668629
-2.5237999726922156 -0.6681327224558941
-2.594436417293543 -0.2365080877507039
-2.6348000999228725 0.1519540834839673
-2.5742545759788777 0.2598602421602648
-2.5439818140068806 -0.19334562428018487
-2.594436417293543 -0.9918511984847868
-2.675163782552202 -1.7471943092188695
-2.735709306496197 -2.0277503217772432
-2.7256183858388643 -1.9198441631009457
-2.6146182586082074 -1.5745444553367935
-2.4935272107202184 -1.1645010523668629
-2.4935272107202184 -0.8407825763379702
-2.5843454966362103 -0.6681327224558941
-2.594436417293543 -0.452320405103299
-2.533890893349548 -0.3444142464270014
-2.4935272107202184 -0.17176439254492537
-2.4531635280908883 0.0008854613371507181
-2.4531635280908883 0.23827901042500532
-2.483436290062886 0.5188350229833789
-2.5036181313775505 0.7130661086007145
-2.5439818140068806 0.691484876865455
-2.513709052034883 0.5188350229833789
-2.4127998454615587 0.34618516910130287
-2.3421634008602314 0.13037285174870777
-2.332072480202899 0.06562915654292925
-2.372436162832229 0.06562915654292925
-2.352254321517564 0.23827901042500532
-2.261436035601572 0.5188350229833789
-2.261436035601572 0.8857159624827906
-2.2311632736295746 1.4036655241290188
-2.2311632736295746 1.748965231893171
-2.2008905116575774 1.9000338540399877
-2.1403449877135827 1.5978966097463545
-2.0898903844269205 0.9288784259533096
-1.9990720985109283 0.0008854613371507181
-1.9183447332522687 -0.9918511984847868
-1.9183447332522687 -1.5313819918662746
-1.9385265745669336 -1.682450614013091
-1.9788902571962634 -1.5313819918662746
-1.9587084158815986 -1.2939884427784198
-1.898162891937604 -1.0781761254258249
-1.8477082886509417 -0.9702699667495273
-1.8174355266789444 -0.9271075032790083
-1.8275264473362767 -0.9055262715437487
-1.8174355266789444 -0.7112951859264132
-1.7770718440496145 -0.5602265637795966
-1.766980923392282 -0.452320405103299
-1.8073446060216118 -0.4739016368385585
-1.8073446060216118 -0.6681327224558941
-1.8678901299656065 -0.8623638080732297
-1.9082538125949364 -1.0781761254258249
-1.898162891937604 -1.3155696745136793
-1.8880719712802714 -1.2939884427784198
-1.857799209308274 -1.1429198206316034
-1.9183447332522687 -1.0350136619553059
-1.9990720985109283 -0.8839450398084892
-2.079799463769588 -0.8192013446027107
-2.0898903844269205 -0.8192013446027107
-2.059617622454923 -0.8839450398084892
-2.110072225741585 -0.9486887350142678
-2.2008905116575774 -0.9271075032790083
-2.3118906388882343 -0.8623638080732297
-2.372436162832229 -0.5818077955148561
-2.443072607433556 -0.21492685601544437
-2.463254448748221 0.21669777868974582
-2.443072607433556 0.4756725595128599
-2.4127998454615587 0.49725379124811947
-2.4329816867762237 0.4540913277776004
-2.4531635280908883 0.4756725595128599
-2.3926180041468936 0.49725379124811947
-2.382527083489561 0.561997486453898
-2.402708924804226 0.7130661086007145
-2.4531635280908883 0.7778098038064931
-2.594436417293543 1.1446907433059048
-2.594436417293543 1.4468279875995378
-2.533890893349548 1.3173405971879808
-2.4329816867762237 0.6267411816596765
-2.402708924804226 -0.2796705512212229
-2.443072607433556 -0.6897139541911536
-2.4935272107202184 -0.4739016368385585
-2.5439818140068806 0.022466693072410227
-2.533890893349548 0.4325100960423409
-2.4733453694055534 0.5188350229833789
-2.4733453694055534 0.23827901042500532
-2.5036181313775505 0.022466693072410227
-2.5742545759788777 -0.17176439254492537
-2.5540727346642127 0.0008854613371507181
-2.5540727346642127 0.0008854613371507181
-2.513709052034883 -0.2365080877507039
-2.4733453694055534 -0.7544576493969322
-2.4733453694055534 -1.1213385888963439
-2.483436290062886 -1.0997573571610844
-2.5036181313775505 -0.6249702589853751
-2.513709052034883 -0.08543946560388732
-2.533890893349548 0.08721038827818876
-2.4935272107202184 -0.36599547816226097
-2.483436290062886 -1.0781761254258249
-2.4733453694055534 -1.5313819918662746
-2.4935272107202184 -1.855100467895167
-2.4531635280908883 -1.596125687072053
-2.4329816867762237 -1.1213385888963439
-2.4531635280908883 -0.5818077955148561
-2.513709052034883 -0.21492685601544437
-2.594436417293543 -0.06385823386862781
-2.5742545759788777 -0.3228330146917419
-2.463254448748221 -0.6033890272501156
-2.382527083489561 -0.8623638080732297
-2.3926180041468936 -0.9702699667495273
-2.402708924804226 -0.8839450398084892
-2.463254448748221 -0.8192013446027107
-2.4935272107202184 -0.6249702589853751
-2.5036181313775505 -0.36599547816226097
-2.5036181313775505 0.06562915654292925
-2.5540727346642127 0.21669777868974582
-2.6146182586082074 0.1519540834839673
-2.594436417293543 0.0008854613371507181
-2.594436417293543 -0.2365080877507039
-2.644891020580205 -0.3444142464270014
-2.6852547032095346 -0.17176439254492537
-2.7256183858388643 -0.08543946560388732
-2.6852547032095346 -0.10702069733914683
-2.66507286189487 -0.21492685601544437
-2.6852547032095346 -0.3228330146917419
-2.7659820684681944 -0.3444142464270014
-2.7458002271535293 -0.17176439254492537
-2.735709306496197 -0.02069577039810879
-2.7458002271535293 0.08721038827818876
-2.7256183858388643 0.1735353152192268
-2.7256183858388643 0.4756725595128599
-2.695345623866867 0.9072971942180501
-2.7054365445241997 1.3173405971879808
-2.735709306496197 1.4252467558642783
-2.7659820684681944 1.1446907433059048
-2.786163909782859 0.5404162547186384
-2.7458002271535293 0.13037285174870777
-2.7256183858388643 0.06562915654292925
-2.715527465181532 0.13037285174870777
-2.7256183858388643 0.1735353152192268
-2.7054365445241997 -0.02069577039810879
-2.7054365445241997 -0.3228330146917419
-2.6549819412375375 -0.7328764176616727
-2.6348000999228725 -0.9702699667495273
-2.594436417293543 -0.9918511984847868
-2.6146182586082074 -0.7544576493969322
-2.695345623866867 -0.4739016368385585
-2.7256183858388643 -0.2365080877507039
-2.644891020580205 -0.10702069733914683
-2.644891020580205 -0.2580893194859634
-2.6348000999228725 -0.6033890272501156
-2.6852547032095346 -0.9271075032790083
-2.6549819412375375 -1.0781761254258249
-2.6549819412375375 -1.1645010523668629
-2.66507286189487 -1.0134324302200461
-2.6348000999228725 -1.1645010523668629
-2.62470917926554 -1.1213385888963439
-2.66507286189487 -1.1429198206316034
-2.66507286189487 -1.0134324302200461
-2.644891020580205 -0.6249702589853751
-2.6146182586082074 -0.36599547816226097
-2.5742545759788777 -0.21492685601544437
-2.594436417293543 -0.36599547816226097
-2.6146182586082074 -0.6681327224558941
-2.6549819412375375 -1.0781761254258249
-2.695345623866867 -1.3371509062489388
-2.715527465181532 -1.2076635158373819
-2.715527465181532 -1.0997573571610844
-2.675163782552202 -0.9918511984847868
-2.695345623866867 -0.8839450398084892
-2.7458002271535293 -0.7112951859264132
-2.755891147810862 -0.4739016368385585
-2.755891147810862 -0.21492685601544437
-2.755891147810862 0.13037285174870777
-2.776072989125527 0.34618516910130287
-2.755891147810862 0.4756725595128599
-2.7659820684681944 0.5835787181891575
-2.8366185130695216 0.6267411816596765
-2.9980732435868407 0.5404162547186384
-3.0888915295028325 0.4540913277776004
-2.967800481614843 0.1951165469544863
-2.8568003543841862 -0.3012517829564824
-2.826527592412189 -0.5818077955148561
-2.897164037013516 -0.8192013446027107
-2.9072549576708484 -0.6897139541911536
-2.8769821956988513 -0.43073917336803946
-2.8467094337268537 -0.02069577039810879
-2.8366185130695216 0.3030227056307839
-2.8668912750415187 0.4756725595128599
-2.9274367989855135 0.36776640083656237
-2.9476186403001785 0.1735353152192268
-2.826527592412189 -0.08543946560388732
-2.735709306496197 -0.15018316080966584
-2.715527465181532 -0.2796705512212229
-2.776072989125527 -0.3228330146917419
-2.8568003543841862 -0.2580893194859634
-2.887073116356184 -0.042277002133368304
-2.8668912750415187 0.21669777868974582
-2.7962548304401915 0.23827901042500532
-2.715527465181532 -0.042277002133368304
-2.6852547032095346 -0.4739016368385585
-2.715527465181532 -0.7976201128674512
-2.7458002271535293 -0.9702699667495273
-2.6348000999228725 -0.8839450398084892
-2.443072607433556 -0.6249702589853751
-2.221072352972242 -0.5170641003090776
-2.0898903844269205 -0.40915794163277996
-2.039435781140258 -0.21492685601544437
-1.9082538125949364 0.3030227056307839
-1.6357989548469603 1.0799470481001263
-1.4541623830149761 2.094264939657323
-1.312889493812322 2.892770513861925
-1.1514347632950028 2.849608050391406
-0.9798891121203512 1.8568713905694685
-0.72761609568704 0.605159949924417
-0.34416111070840705 -0.4739016368385585
0.019112032955561013 -0.9271075032790083
0.26129412873153973 -1.0565948936905654
0.25120320807420726 -1.0350136619553059
0.17047584281554773 -1.0350136619553059
0.15029400150088282 -0.9702699667495273
0.14020308084355038 -0.8407825763379702
0.0796575568995557 -0.5602265637795966
0.04938479492755835 -0.9486887350142678
-0.15243361821909057 -1.8766816996304267
-0.455161237939064 -2.7615122007760666
-0.7679797783163699 -3.3010429941575543
-1.0908892393510081 -3.365786689363333
-1.4743442243296412 -3.1499743720107376
-1.9284356539096013 -2.739930969040807
-2.402708924804226 -2.329887566070876
-2.7256183858388643 -1.9630066265714647
-2.967800481614843 -1.4882195283957556
-3.1393461327894947 -0.9702699667495273
-3.230164418705487 -0.6681327224558941
-3.3613463872508085 -0.6465514907206346
-3.53289203842546 -0.7544576493969322
-3.633801244998785 -0.7112951859264132
-3.664074006970782 -0.6249702589853751
-3.684255848285447 -0.40915794163277996
-3.6943467689427796 -0.36599547816226097
-3.6943467689427796 -0.40915794163277996
-3.6741649276281145 -0.452320405103299
-3.6943467689427796 -0.495482868573818
-3.664074006970782 -0.43073917336803946
-3.633801244998785 -0.3228330146917419
-3.61361940368412 -0.3228330146917419
-3.7044376896001117 -0.21492685601544437
-3.8356196581454336 -0.15018316080966584
-3.8961651820894283 -0.2365080877507039
-3.8759833407747633 -0.2365080877507039
-3.845710578802766 -0.40915794163277996
-3.775074134201439 -0.40915794163277996
-3.7448013722294418 -0.2580893194859634
-3.795255975516104 -0.06385823386862781
-3.865892420117431 0.022466693072410227
-3.8759833407747633 0.23827901042500532
-3.8154378168307685 0.5404162547186384
-3.775074134201439 1.036784584629607
-3.7851650548587714 1.6842215366873925
-3.795255975516104 2.1590086348631017
-3.8356196581454336 2.1374274031278424
-3.8558014994600986 1.3605030606584998
-3.8154378168307685 0.32460393736604337
-3.714528610257444 -0.40915794163277996
-3.61361940368412 -0.9486887350142678
-3.6741649276281145 -0.8839450398084892
-3.7448013722294418 -0.5386453320443371
-3.7649832135441064 -0.12860192907440635
-3.714528610257444 0.23827901042500532
-3.6539830863134495 0.6267411816596765
-3.61361940368412 0.8857159624827906
-3.5934375623694548 0.9720408894238287
-3.5934375623694548 0.9936221211590882
-3.5833466417121227 0.9720408894238287
-3.5934375623694548 0.7562285720712336
-3.553073879740125 0.5404162547186384
-3.5127101971107955 0.2598602421602648
-3.522801117768128 0.08721038827818876
-3.522801117768128 0.04404792480766974
-3.482437435138798 0.21669777868974582
-3.4017100698801386 0.49725379124811947
-3.3512554665934764 0.561997486453898
-3.391619149222806 0.3893476325718219
-3.421891911194803 -0.10702069733914683
-3.3815282285654735 -0.36599547816226097
-3.280619021992149 -0.2796705512212229
-3.1998916567334894 0.2598602421602648
-3.1090733708174976 0.8425534990122716
-3.1494370534468272 0.9720408894238287
-3.260437180677484 0.4325100960423409
-3.3008008633068138 -0.43073917336803946
-3.189800736076157 -0.9918511984847868
-3.028346005558838 -0.9486887350142678
-3.008164164244173 -0.5386453320443371
-3.0182550849015053 0.06562915654292925
-3.0384369262161703 0.2598602421602648
-3.0586187675308354 0.06562915654292925
-3.0586187675308354 -0.10702069733914683
-3.008164164244173 -0.19334562428018487
-2.9274367989855135 -0.21492685601544437
-2.937527719642846 -0.36599547816226097
-3.0182550849015053 -0.4739016368385585
-3.1696188947614923 -0.6465514907206346
-3.2200734980481545 -0.7760388811321917
-3.1696188947614923 -0.8623638080732297
-3.1090733708174976 -0.8192013446027107
-2.9980732435868407 -0.7328764176616727
-2.987982322929508 -0.5818077955148561
-3.0182550849015053 -0.4739016368385585
-3.0384369262161703 -0.2365080877507039
-3.008164164244173 0.022466693072410227
-2.9980732435868407 0.32460393736604337
-3.008164164244173 0.6699036451301955
-3.048527846873503 1.0152033528943476
-3.098982450160165 1.1878532067764238
-3.1393461327894947 0.9936221211590882
-3.179709815418825 0.734647340335974
-3.2200734980481545 0.4325100960423409
-3.1998916567334894 0.3030227056307839
-3.1494370534468272 0.4109288643070814
-3.11916429147483 0.648322413394936
-3.1696188947614923 0.9936221211590882
-3.260437180677484 1.2741781337174618
-3.2705281013348166 1.3173405971879808
-3.2200734980481545 1.2525969019822023
-3.129255212132162 0.9288784259533096
-3.0586187675308354 0.6699036451301955
-3.048527846873503 0.36776640083656237
-3.0788006088455 0.36776640083656237
-3.0788006088455 0.3893476325718219
-3.1494370534468272 0.36776640083656237
-3.2402553393628195 0.1735353152192268
-3.2705281013348166 0.022466693072410227
-3.1998916567334894 0.10879162001344826
-3.1595279741041598 0.34618516910130287
-3.1393461327894947 0.648322413394936
-3.1393461327894947 0.9072971942180501
-3.179709815418825 1.0799470481001263
-3.1998916567334894 1.2094344385116833
-3.189800736076157 1.1446907433059048
-3.1696188947614923 0.6699036451301955
-3.1090733708174976 -0.19334562428018487
-3.0788006088455 -1.0350136619553059
-2.9980732435868407 -1.509800760131015
-2.887073116356184 -1.811938004424648
-2.755891147810862 -1.811938004424648
-2.5036181313775505 -1.639288150542572
-2.321981559545567 -1.3803133697194578
-2.3118906388882343 -1.0781761254258249
-2.422890766118891 -0.7328764176616727
-2.5843454966362103 -0.2365080877507039
-2.6549819412375375 0.4540913277776004
-2.7458002271535293 1.2310156702469428
-2.8769821956988513 2.0295212444515447
-2.897164037013516 2.67695819650933
-2.8568003543841862 2.849608050391406
-2.786163909782859 2.6553769647740704
-2.776072989125527 2.2021710983336207
-2.9980732435868407 1.4468279875995378
-3.230164418705487 0.5404162547186384
-3.421891911194803 -0.495482868573818
-3.4925283557961304 -1.1645010523668629
-3.4420737525094682 -1.4018946014547173
-3.280619021992149 -1.4882195283957556
-3.0586187675308354 -1.4450570649252366
-2.887073116356184 -1.5313819918662746
-2.786163909782859 -1.4018946014547173
-2.6549819412375375 -1.2508259793079008
-2.3623452421748965 -1.1860822841021224
-1.9385265745669336 -1.4234758331899768
-1.5046169863016385 -2.0061690900419835
-1.2220712078963298 -2.739930969040807
-1.1009801600083406 -3.408949152833852
-1.131252921980338 -3.797411324068523
-1.292707652497657 -3.9053174827448207
-1.3835259384136491 -3.667923933656966
-1.5247988276163034 -3.2794617624222946
-1.7770718440496145 -2.869418359452364
-2.079799463769588 -2.459374956482433
-2.422890766118891 -2.0277503217772432
-2.695345623866867 -1.6177069188073125
-2.9778914022721756 -1.3371509062489388
-3.280619021992149 -0.9918511984847868
-3.4723465144814654 -0.6897139541911536
-3.4622555938241333 -0.5386453320443371
-3.3815282285654735 -0.36599547816226097
-3.3512554665934764 -0.38757670989752047
-3.421891911194803 -0.3444142464270014
-3.4521646731668008 -0.38757670989752047
-3.4319828318521357 -0.3444142464270014
-3.4521646731668008 -0.21492685601544437
-3.522801117768128 0.21669777868974582
-3.6237103243414523 0.7562285720712336
-3.7246195309147767 1.1662719750411643
-3.6943467689427796 1.036784584629607
-3.57325572105479 0.4325100960423409
-3.53289203842546 -0.3012517829564824
-3.553073879740125 -0.8623638080732297
-3.5127101971107955 -1.2076635158373819
-3.4925283557961304 -1.5313819918662746
-3.371437307908141 -1.72561307748361
-3.3310736252788113 -1.7471943092188695
-3.3108917839641463 -1.7040318457483505
-3.3108917839641463 -1.552963223601534
-3.3008008633068138 -1.3587321379841983
-3.260437180677484 -1.1213385888963439
-3.230164418705487 -0.9271075032790083
-3.1595279741041598 -1.0134324302200461
-3.129255212132162 -1.0350136619553059
-3.11916429147483 -1.2292447475726413
-3.068709688188168 -1.2939884427784198
-2.987982322929508 -1.1213385888963439
-2.8467094337268537 -1.0997573571610844
-2.7458002271535293 -0.9918511984847868
-2.66507286189487 -1.1213385888963439
-2.62470917926554 -1.0134324302200461
-2.6045273379508753 -0.5602265637795966
-2.564163655321545 0.0008854613371507181
-2.483436290062886 0.734647340335974
-2.422890766118891 1.1015282798353858
-2.422890766118891 0.9720408894238287
-2.5843454966362103 0.4109288643070814
-2.5843454966362103 -0.3228330146917419
-2.422890766118891 -1.0565948936905654
-2.1504359083709153 -1.3803133697194578
-2.009163019168261 -1.2939884427784198
-2.059617622454923 -1.0565948936905654
-2.1403449877135827 -0.7760388811321917
-2.1201631463989177 -0.4739016368385585
-2.1201631463989177 0.06562915654292925
-2.0999813050842526 0.6699036451301955
-2.1201631463989177 1.489990451070057
-2.1605268290282473 1.705802768422652
-2.241254194286907 1.1878532067764238
-2.3118906388882343 0.34618516910130287
-2.382527083489561 -0.3444142464270014
-2.352254321517564 -0.5602265637795966
-2.372436162832229 -0.452320405103299
-2.3926180041468936 -0.19334562428018487
-2.4935272107202184 0.0008854613371507181
-2.594436417293543 0.13037285174870777
-2.675163782552202 0.3893476325718219
-2.675163782552202 0.7130661086007145
-2.6549819412375375 1.1446907433059048
-2.7054365445241997 1.3820842923937593
-2.887073116356184 1.3605030606584998
-2.987982322929508 1.0583658163648666
-3.0182550849015053 0.648322413394936
-3.0182550849015053 0.1735353152192268
-2.9476186403001785 -0.3012517829564824
-2.917345878328181 -0.6249702589853751
-2.9476186403001785 -0.9055262715437487
-2.967800481614843 -1.0350136619553059
-2.937527719642846 -1.1429198206316034
-2.9274367989855135 -1.0350136619553059
-2.937527719642846 -0.8839450398084892
-2.967800481614843 -0.7328764176616727
-3.0384369262161703 -0.6249702589853751
-3.028346005558838 -0.6249702589853751
-3.048527846873503 -0.6033890272501156
-3.0788006088455 -0.7328764176616727
-2.9980732435868407 -1.0565948936905654
-2.8668912750415187 -1.4234758331899768
-2.826527592412189 -1.6177069188073125
-2.8568003543841862 -1.509800760131015
-2.917345878328181 -1.3155696745136793
-2.887073116356184 -1.0997573571610844
-2.8568003543841862 -0.9271075032790083
-2.897164037013516 -0.8839450398084892
-2.917345878328181 -0.9055262715437487
-2.897164037013516 -0.9271075032790083
-2.8769821956988513 -1.0350136619553059
-2.8164366717548566 -1.2939884427784198
-2.7962548304401915 -1.552963223601534
-2.8366185130695216 -1.7471943092188695
-2.8467094337268537 -1.639288150542572
-2.897164037013516 -1.509800760131015
-2.937527719642846 -1.1429198206316034
-2.917345878328181 -0.7112951859264132
-2.8366185130695216 -0.3228330146917419
-2.786163909782859 -0.02069577039810879
-2.8366185130695216 0.4109288643070814
-2.937527719642846 0.734647340335974
-3.008164164244173 0.9288784259533096
-3.0182550849015053 0.8425534990122716
-2.9577095609575106 0.4756725595128599
-2.8568003543841862 -0.19334562428018487
-2.8568003543841862 -0.5602265637795966
-2.897164037013516 -0.6249702589853751
-2.9476186403001785 -0.40915794163277996
-2.9476186403001785 0.022466693072410227
-2.937527719642846 0.36776640083656237
-2.887073116356184 0.7130661086007145
-2.9072549576708484 0.9936221211590882
-3.0182550849015053 1.1662719750411643
-3.098982450160165 1.1878532067764238
-3.11916429147483 1.0583658163648666
-3.0788006088455 0.7130661086007145
-2.987982322929508 0.06562915654292925
-2.9577095609575106 -0.5602265637795966
-2.9476186403001785 -1.1213385888963439
-2.987982322929508 -1.3803133697194578
-2.9980732435868407 -1.4018946014547173
-2.9072549576708484 -1.3155696745136793
-2.826527592412189 -1.3155696745136793
-2.897164037013516 -1.2508259793079008
-2.9476186403001785 -1.2508259793079008
-2.9476186403001785 -1.3371509062489388
-2.897164037013516 -1.2939884427784198
-2.7962548304401915 -1.2724072110431603
-2.806345751097524 -1.2508259793079008
-2.8568003543841862 -1.2724072110431603
-2.887073116356184 -1.2076635158373819
-2.8568003543841862 -0.9271075032790083
-2.8568003543841862 -0.2365080877507039
-2.8568003543841862 0.7562285720712336
-2.8769821956988513 1.489990451070057
-2.8769821956988513 1.4684092193347973
-2.8568003543841862 0.691484876865455
-2.806345751097524 -0.6033890272501156
-2.776072989125527 -1.9414253948362052
-2.66507286189487 -2.6751872738350286
-2.564163655321545 -2.9341620546581426
-2.5439818140068806 -2.783093432511326
-2.644891020580205 -2.459374956482433
-2.6852547032095346 -1.9414253948362052
-2.6348000999228725 -1.639288150542572
-2.6045273379508753 -1.3587321379841983
-2.6549819412375375 -1.1213385888963439
-2.695345623866867 -0.9486887350142678
-2.715527465181532 -0.5602265637795966
-2.7054365445241997 -0.042277002133368304
-2.695345623866867 0.4109288643070814
-2.7054365445241997 0.561997486453898
-2.7054365445241997 0.32460393736604337
-2.755891147810862 -0.2796705512212229
-2.8366185130695216 -0.9702699667495273
-2.8467094337268537 -1.3155696745136793
-2.7458002271535293 -1.3155696745136793
-2.6146182586082074 -1.0997573571610844
-2.594436417293543 -1.0997573571610844
-2.675163782552202 -1.1860822841021224
-2.7256183858388643 -1.0565948936905654
-2.755891147810862 -0.8192013446027107
-2.735709306496197 -0.3228330146917419
-2.7256183858388643 0.2598602421602648
-2.7458002271535293 1.2741781337174618
-2.8164366717548566 2.094264939657323
-2.8366185130695216 2.2237523300688804
-2.8568003543841862 1.1878532067764238
-2.8769821956988513 -0.2796705512212229
-2.7962548304401915 -1.639288150542572
-2.66507286189487 -2.286725102600357
-2.675163782552202 -2.243562639129838
-2.735709306496197 -1.7903567726893885
-2.7962548304401915 -1.466638296660496
-2.776072989125527 -1.2508259793079008
-2.7659820684681944 -1.0134324302200461
-2.7659820684681944 -0.8839450398084892
-2.806345751097524 -0.6033890272501156
-2.826527592412189 -0.2796705512212229
-2.826527592412189 0.1735353152192268
-2.806345751097524 0.648322413394936
-2.735709306496197 0.7562285720712336
-2.66507286189487 0.34618516910130287
-2.594436417293543 -0.36599547816226097
-2.66507286189487 -1.0781761254258249
-2.7659820684681944 -1.596125687072053
-2.7458002271535293 -1.72561307748361
-2.594436417293543 -1.6177069188073125
-2.513709052034883 -1.5745444553367935
-2.5237999726922156 -1.4234758331899768
-2.564163655321545 -1.3155696745136793
-2.5237999726922156 -1.0565948936905654
-2.533890893349548 -0.495482868573818
-2.5036181313775505 0.1951165469544863
-2.5439818140068806 0.7130661086007145
-2.644891020580205 0.49725379124811947
-2.6348000999228725 -0.40915794163277996
-2.5742545759788777 -1.3803133697194578
-2.4935272107202184 -1.8982629313656862
-2.422890766118891 -1.811938004424648
-2.463254448748221 -1.6608693822778315
-2.5036181313775505 -1.4882195283957556
-2.5036181313775505 -1.3155696745136793
-2.483436290062886 -1.0997573571610844
-2.5036181313775505 -0.8623638080732297
-2.5036181313775505 -0.5170641003090776
-2.5036181313775505 -0.19334562428018487
-2.5540727346642127 0.23827901042500532
-2.644891020580205 0.6699036451301955
-2.6549819412375375 0.8641347307475311
-2.564163655321545 0.5188350229833789
-2.402708924804226 -0.08543946560388732
-2.3421634008602314 -0.8407825763379702
-2.3926180041468936 -1.4018946014547173
-2.4329816867762237 -1.5745444553367935
-2.352254321517564 -1.4018946014547173
-2.2513451149442396 -1.0350136619553059
-2.0495267017975904 -0.5170641003090776
-1.8880719712802714 -0.02069577039810879
-1.7367081614202846 0.5188350229833789
-1.5046169863016385 1.3173405971879808
-1.2220712078963298 2.3532397204804374
-0.9294345088336889 3.087001599479261
-0.6468887304283805 3.065420367744001
-0.4753430792537289 2.2669147935393994
-0.21297914216308525 1.036784584629607
0.13011216018621793 -0.2580893194859634
0.5034762245075185 -1.2724072110431603
0.8364766061994892 -1.768775540954129
1.0786587019754679 -2.0493315535125025
1.1392042259194626 -2.2004001756593192
1.0887496226328004 -2.286725102600357
0.9373858127728136 -2.567281115158731
0.8364766061994892 -2.9341620546581426
0.7052946376541674 -3.1931368354812566
0.39247609727686156 -3.1931368354812566
0.04938479492755835 -3.1068119085402186
-0.31388834873640975 -3.0852306768049593
-0.7175251750297076 -3.1068119085402186
-1.2624348905256597 -3.0636494450696996
-1.7367081614202846 -2.9557432863934023
-2.0495267017975904 -2.6320248103645096
-2.402708924804226 -2.17881894392406
-2.755891147810862 -1.6177069188073125
-2.8769821956988513 -1.2076635158373819
-2.8769821956988513 -0.7544576493969322
-2.8164366717548566 -0.2365080877507039
-2.8769821956988513 0.1735353152192268
-2.9778914022721756 0.3030227056307839
-3.0182550849015053 0.32460393736604337
-3.068709688188168 0.4540913277776004
-3.0586187675308354 0.4756725595128599
-3.0384369262161703 0.13037285174870777
-3.028346005558838 -0.5170641003090776
-3.0788006088455 -1.2508259793079008
-3.11916429147483 -1.7903567726893885
-3.1595279741041598 -1.8982629313656862
-3.129255212132162 -1.6177069188073125
-3.098982450160165 -1.2292447475726413
-3.098982450160165 -1.0350136619553059
-3.129255212132162 -1.0134324302200461
-3.179709815418825 -0.9702699667495273
-3.2503462600201516 -0.9055262715437487
-3.260437180677484 -0.6465514907206346
-3.189800736076157 -0.40915794163277996
-3.11916429147483 -0.10702069733914683
-3.129255212132162 0.04404792480766974
-3.1090733708174976 0.10879162001344826
-3.0788006088455 0.2598602421602648
-3.0788006088455 0.4540913277776004
-3.11916429147483 0.4109288643070814
-3.179709815418825 -0.2796705512212229
-3.1998916567334894 -1.1860822841021224
-3.179709815418825 -1.8335192361599075
-3.179709815418825 -1.9845878583067242
-3.098982450160165 -1.5313819918662746
-3.048527846873503 -1.0997573571610844
-3.008164164244173 -0.8623638080732297
-3.0384369262161703 -0.9271075032790083
-3.0888915295028325 -1.0350136619553059
-3.068709688188168 -1.0134324302200461
-3.048527846873503 -1.0781761254258249
-2.9980732435868407 -1.1860822841021224
-2.9980732435868407 -1.3371509062489388
-2.987982322929508 -1.4018946014547173
-2.9980732435868407 -1.3803133697194578
-2.9980732435868407 -1.2292447475726413
-2.9577095609575106 -1.0134324302200461
-2.9072549576708484 -0.7760388811321917
-2.8467094337268537 -0.6897139541911536
-2.8467094337268537 -0.6249702589853751
-2.897164037013516 -0.6465514907206346
-2.8769821956988513 -0.7328764176616727
-2.826527592412189 -0.6681327224558941
-2.755891147810862 -0.5170641003090776
-2.7458002271535293 -0.3228330146917419
-2.776072989125527 -0.042277002133368304
-2.755891147810862 0.1951165469544863
-2.715527465181532 0.1735353152192268
-2.6852547032095346 -0.042277002133368304
-2.62470917926554 -0.3228330146917419
-2.5843454966362103 -0.6249702589853751
-2.5540727346642127 -0.7544576493969322
-2.5036181313775505 -0.6897139541911536
-2.422890766118891 -0.38757670989752047
-2.382527083489561 -0.19334562428018487
-2.3926180041468936 -0.3444142464270014
-2.3623452421748965 -0.495482868573818
-2.3623452421748965 -0.5602265637795966
-2.3623452421748965 -0.4739016368385585
-2.3421634008602314 -0.36599547816226097
-2.321981559545567 -0.2365080877507039
-2.271526956258904 0.04404792480766974
-2.190799591000245 0.1735353152192268
-2.17061774968558 0.4325100960423409
-2.221072352972242 0.734647340335974
-2.321981559545567 1.2094344385116833
-2.3421634008602314 1.7273840001579115
-2.241254194286907 1.748965231893171
-2.13025406705625 1.1231095115706453
-2.0898903844269205 0.04404792480766974
-2.0999813050842526 -0.9055262715437487
-2.0898903844269205 -1.3803133697194578
-2.059617622454923 -1.3371509062489388
-2.0495267017975904 -1.0565948936905654
-2.0697085431122555 -0.8839450398084892
-2.059617622454923 -0.7976201128674512
-2.0898903844269205 -0.9918511984847868
-2.110072225741585 -1.0565948936905654
-2.13025406705625 -1.0350136619553059
-2.1504359083709153 -0.8407825763379702
-2.13025406705625 -0.6249702589853751
-2.1504359083709153 -0.6033890272501156
-2.1605268290282473 -0.4739016368385585
-2.17061774968558 -0.2796705512212229
-2.17061774968558 -0.19334562428018487
-2.13025406705625 -0.5170641003090776
-2.0999813050842526 -1.2076635158373819
-2.1403449877135827 -1.7903567726893885
-2.17061774968558 -2.092494016983022
-2.2008905116575774 -1.9630066265714647
-2.1605268290282473 -1.5313819918662746
-2.079799463769588 -0.9702699667495273
-2.039435781140258 -0.6249702589853751
-2.13025406705625 -0.40915794163277996
-2.190799591000245 -0.21492685601544437
-2.1807086703429124 -0.10702069733914683
-2.1403449877135827 -0.02069577039810879
-2.110072225741585 -0.10702069733914683
-2.0898903844269205 -0.4739016368385585
-2.0898903844269205 -1.1429198206316034
-2.039435781140258 -1.8766816996304267
-2.029344860482926 -2.286725102600357
-1.9284356539096013 -2.286725102600357
-1.8477082886509417 -2.0709127852477622
-1.8477082886509417 -1.7471943092188695
-1.857799209308274 -1.4882195283957556
-1.9183447332522687 -1.3803133697194578
-1.9990720985109283 -1.3371509062489388
-2.029344860482926 -1.1860822841021224
-2.0495267017975904 -1.0134324302200461
-2.17061774968558 -0.7328764176616727
-2.372436162832229 -0.5170641003090776
-2.66507286189487 -0.2580893194859634
-3.028346005558838 -0.2580893194859634
-3.341164545936144 -0.495482868573818
-3.53289203842546 -1.2292447475726413
-3.6539830863134495 -2.2004001756593192
-3.7548922928867743 -3.2362992989517756
-3.936528864718758 -3.970061177950599
-4.037438071292082 -4.013223641421118
-4.06771083326408 -3.9484799462153397
-4.02734715063475 -4.056386104891637
-3.936528864718758 -4.056386104891637
-3.8356196581454336 -4.099548568362156
-3.865892420117431 -4.229035958773713
-3.936528864718758 -4.466429507861568
-3.98698346800542 -4.660660593478903
-3.926437944061426 -4.81172921562572
-3.7851650548587714 -4.790147983890461
-3.6741649276281145 -4.682241825214163
-3.5631648003974576 -4.444848276126308
-3.3815282285654735 -4.164292263567935
-3.1595279741041598 -3.883736251009561
-2.9476186403001785 -3.667923933656966
-2.755891147810862 -3.452111616304371
-2.66507286189487 -3.3442054576280733
-2.6348000999228725 -2.9773245181286616
-2.644891020580205 -2.5456998834234716
-2.5742545759788777 -2.2004001756593192
-2.4935272107202184 -2.092494016983022
-2.422890766118891 -2.092494016983022
-2.3623452421748965 -2.135656480453541
-2.332072480202899 -2.17881894392406
-2.321981559545567 -2.092494016983022
-2.2008905116575774 -1.9198441631009457
-2.0697085431122555 -1.811938004424648
-1.988981177853596 -1.639288150542572
-1.9788902571962634 -1.2939884427784198
-1.9183447332522687 -0.8407825763379702
-1.898162891937604 -0.2580893194859634
-1.857799209308274 0.10879162001344826
-1.857799209308274 0.32460393736604337
-1.8376173679936092 0.5188350229833789
-1.7972536853642793 0.7130661086007145
-1.787162764706947 0.7130661086007145
-1.7568900027349497 0.4325100960423409
-1.6761626374762901 -0.12860192907440635
-1.5954352722176304 -0.6465514907206346
-1.5147079069589708 -0.9055262715437487
-1.494526065644306 -0.9055262715437487
-1.4844351449869735 -0.7112951859264132
-1.4743442243296412 -0.5386453320443371
-1.4339805417003113 -0.495482868573818
-1.333071335126987 -0.5386453320443371
-1.2523439698683272 -0.495482868573818
-1.1716166046096677 -0.36599547816226097
-1.0707073980363433 -0.17176439254492537
-1.040434636064346 0.08721038827818876
-0.9899800327776836 0.3030227056307839
-0.9092526675190241 0.4325100960423409
-0.8083434609456996 0.3893476325718219
-0.7679797783163699 0.21669777868974582
-0.7175251750297076 0.1519540834839673
-0.6468887304283805 0.23827901042500532
-0.5157067618830586 0.3893476325718219
-0.4147975553097342 0.648322413394936
-0.33407019005107463 0.9504596576885691
-0.27352466610707993 1.3605030606584998
-0.21297914216308525 1.748965231893171
-0.15243361821909057 2.051102476186804
0.03929387427022591 2.2884960252746587
0.2108395254448775 2.2237523300688804
0.2915668907035371 1.533152914540576
0.33193057333286685 0.6699036451301955
0.3420214939901993 0.13037285174870777
0.3420214939901993 0.08721038827818876
0.4732034625355211 0.49725379124811947
0.6144763517381754 0.9720408894238287
0.6851127963395025 1.4036655241290188
0.6144763517381754 1.2525969019822023
0.5337489864795159 0.9504596576885691
0.48329438319285356 0.6267411816596765
0.5337489864795159 0.32460393736604337
0.5135671451648509 0.08721038827818876
0.4631125418781887 -0.042277002133368304
0.41265793859152644 -0.06385823386862781
0.2915668907035371 0.0008854613371507181
0.16038492215821526 0.10879162001344826
0.019112032955561013 0.36776640083656237
-0.12216085624709325 0.49725379124811947
-0.2432519041350826 0.36776640083656237
-0.4349793966243991 0.10879162001344826
-0.6166159684563831 0.0008854613371507181
-0.7578888576590374 -0.10702069733914683
-0.8487071435750294 -0.15018316080966584
-0.9193435881763565 -0.08543946560388732
-1.000070953435016 0.13037285174870777
-1.0707073980363433 0.4325100960423409
-1.111071080665673 0.9288784259533096
-1.1716166046096677 1.1878532067764238
-1.3229804144696544 0.8641347307475311
-1.4339805417003113 0.23827901042500532
-1.494526065644306 -0.36599547816226097
-1.5147079069589708 -0.8623638080732297
-1.5046169863016385 -1.1429198206316034
-1.4238896210429788 -1.2292447475726413
-1.3734350177563166 -1.0565948936905654
-1.4440714623576438 -0.8839450398084892
-1.5247988276163034 -0.8192013446027107
-1.5449806689309682 -0.8839450398084892
-1.5752534309029655 -0.9055262715437487
-1.6357989548469603 -0.5386453320443371
-1.7064353994482875 0.10879162001344826
-1.7568900027349497 0.49725379124811947
-1.7770718440496145 0.2598602421602648
-1.7568900027349497 -0.5170641003090776
-1.7165263201056198 -1.6177069188073125
-1.605526192874963 -2.221981407394579
-1.5550715895883007 -2.265143870865098
-1.5449806689309682 -2.1140752487182812
-1.5046169863016385 -1.855100467895167
-1.5550715895883007 -1.6608693822778315
-1.6156171135322954 -1.466638296660496
-1.6862535581336224 -0.9702699667495273
-1.696344478790955 -0.43073917336803946
-1.6761626374762901 -0.15018316080966584
-1.6761626374762901 -0.2365080877507039
-1.6862535581336224 -0.5386453320443371
-1.6761626374762901 -0.9918511984847868
-1.6458898755042928 -1.1429198206316034
-1.6156171135322954 -1.2292447475726413
-1.605526192874963 -1.3371509062489388
-1.605526192874963 -1.4882195283957556
-1.6357989548469603 -1.682450614013091
-1.6761626374762901 -1.8335192361599075
-1.6761626374762901 -1.596125687072053
-1.6761626374762901 -0.9702699667495273
-1.6458898755042928 -0.2796705512212229
-1.6156171135322954 0.06562915654292925
-1.5954352722176304 -0.17176439254492537
-1.585344351560298 -0.6681327224558941
-1.6458898755042928 -1.1429198206316034
-1.7467990820776171 -1.4018946014547173
-1.766980923392282 -1.596125687072053
-1.655980796161625 -1.7903567726893885
-1.5954352722176304 -1.9630066265714647
-1.5752534309029655 -2.092494016983022
-1.6156171135322954 -2.0277503217772432
-1.6660717168189576 -1.7040318457483505
-1.7367081614202846 -1.3803133697194578
-1.7266172407629523 -1.0350136619553059
-1.7467990820776171 -0.6465514907206346
-1.766980923392282 -0.38757670989752047
-1.766980923392282 -0.3012517829564824
-1.7266172407629523 -0.21492685601544437
-1.6458898755042928 -0.2796705512212229
-1.585344351560298 -0.3444142464270014
-1.5954352722176304 -0.2365080877507039
-1.6862535581336224 0.0008854613371507181
-1.7770718440496145 0.1519540834839673
-1.7165263201056198 -0.042277002133368304
-1.655980796161625 -0.4739016368385585
-1.5954352722176304 -0.9918511984847868
-1.605526192874963 -1.2724072110431603
-1.605526192874963 -1.3371509062489388
-1.605526192874963 -1.1860822841021224
-1.6458898755042928 -0.8407825763379702
-1.655980796161625 -0.5386453320443371
-1.6357989548469603 -0.15018316080966584
-1.6257080341896277 0.08721038827818876
-1.6357989548469603 0.1735353152192268
-1.6862535581336224 -0.042277002133368304
-1.6357989548469603 -0.5386453320443371
-1.4844351449869735 -0.9918511984847868
-1.4440714623576438 -1.0565948936905654
-1.5449806689309682 -1.0565948936905654
-1.7064353994482875 -0.9271075032790083
-1.7064353994482875 -1.0565948936905654
-1.5954352722176304 -1.5313819918662746
-1.494526065644306 -1.811938004424648
-1.5449806689309682 -1.855100467895167
-1.6458898755042928 -1.72561307748361
-1.7266172407629523 -1.4882195283957556
-1.7367081614202846 -1.2292447475726413
-1.6458898755042928 -0.8839450398084892
-1.5449806689309682 -0.5170641003090776
-1.5449806689309682 -0.4739016368385585
-1.5247988276163034 -0.6681327224558941
-1.565162510245633 -0.9271075032790083
-1.6156171135322954 -1.0350136619553059
-1.6458898755042928 -0.9486887350142678
-1.605526192874963 -0.6465514907206346
-1.585344351560298 -0.5602265637795966
-1.5954352722176304 -0.6465514907206346
-1.6156171135322954 -0.7328764176616727
-1.605526192874963 -0.9486887350142678
-1.5954352722176304 -1.1860822841021224
-1.565162510245633 -1.2939884427784198
-1.5550715895883007 -1.3803133697194578
-1.5954352722176304 -1.4450570649252366
-1.655980796161625 -1.3587321379841983
-1.6761626374762901 -1.0350136619553059
-1.7064353994482875 -0.7112951859264132
-1.696344478790955 -0.6249702589853751
-1.655980796161625 -0.6033890272501156
-1.605526192874963 -0.7760388811321917
-1.585344351560298 -0.7976201128674512
-1.5954352722176304 -0.6681327224558941
-1.5954352722176304 -0.40915794163277996
-1.6257080341896277 0.04404792480766974
-1.605526192874963 0.4325100960423409
-1.5954352722176304 0.561997486453898
-1.605526192874963 0.3893476325718219
-1.565162510245633 -0.10702069733914683
-1.5046169863016385 -0.5818077955148561
-1.4642533036723087 -0.6249702589853751
-1.4137987003856465 -0.452320405103299
-1.3532531764416518 -0.495482868573818
-1.292707652497657 -0.7328764176616727
-1.2624348905256597 -1.0350136619553059
-1.131252921980338 -1.0781761254258249
-0.9395254294910215 -0.9918511984847868
-0.7477979370017049 -0.8623638080732297
-0.545979523855056 -0.7112951859264132
-0.33407019005107463 -0.5170641003090776
-0.14234269756175813 -0.17176439254492537
0.009021112298228566 0.4325100960423409
0.17047584281554773 0.7993910355417526
0.33193057333286685 1.0152033528943476
0.5236580658221833 0.9504596576885691
0.786022002912827 0.7562285720712336
1.12911330526213 0.5404162547186384
1.4722046076114335 0.2814414738955244
1.7042957827300795 0.022466693072410227
1.7850231479887393 -0.2796705512212229
1.7446594653594094 -0.6465514907206346
1.754750386016742 -1.2076635158373819
1.7244776240447446 -1.768775540954129
1.6538411794434174 -2.17881894392406
1.6538411794434174 -2.6320248103645096
1.4520227662967684 -2.869418359452364
1.1089314639474652 -2.8909995911876236
0.7759310822554946 -2.696768505570288
0.4328397799061913 -2.308306334335617
0.009021112298228566 -2.135656480453541
-0.4652521585963964 -2.459374956482433
-0.8587980642323618 -2.9341620546581426
-1.1514347632950028 -3.365786689363333
-1.333071335126987 -3.538436543245409
-1.494526065644306 -3.2147180672165163
-1.6458898755042928 -2.6751872738350286
-1.7064353994482875 -2.135656480453541
-1.766980923392282 -1.6608693822778315
-1.7972536853642793 -1.2939884427784198
-1.8477082886509417 -1.0350136619553059
-1.968799336538931 -0.9702699667495273
-2.0192539398255933 -1.0781761254258249
-2.039435781140258 -1.2076635158373819
-2.009163019168261 -1.3587321379841983
-2.009163019168261 -1.3587321379841983
-2.0697085431122555 -1.2724072110431603
-2.079799463769588 -0.9702699667495273
-2.0898903844269205 -0.6033890272501156
-2.059617622454923 -0.3444142464270014
-2.039435781140258 -0.3228330146917419
-2.039435781140258 -0.3444142464270014
-2.039435781140258 -0.2365080877507039
-2.110072225741585 0.04404792480766974
-2.1605268290282473 0.32460393736604337
-2.1403449877135827 0.49725379124811947
-2.0999813050842526 0.4325100960423409
-2.039435781140258 -0.02069577039810879
-2.039435781140258 -0.5170641003090776
-2.0697085431122555 -0.9918511984847868
-2.059617622454923 -1.1213385888963439
-1.9990720985109283 -1.1645010523668629
-1.968799336538931 -1.0997573571610844
-1.968799336538931 -0.9271075032790083
-1.9385265745669336 -0.7976201128674512
-1.968799336538931 -0.6465514907206346
-1.988981177853596 -0.6465514907206346
-1.9587084158815986 -0.8192013446027107
-1.8880719712802714 -1.0565948936905654
-1.8880719712802714 -1.2939884427784198
-1.877981050622939 -1.3803133697194578
-1.9385265745669336 -1.3587321379841983
-1.948617495224266 -1.1429198206316034
-1.9587084158815986 -0.8192013446027107
-1.8880719712802714 -0.5386453320443371
-1.8678901299656065 -0.40915794163277996
-1.857799209308274 -0.43073917336803946
-1.8678901299656065 -0.3228330146917419
-1.8678901299656065 0.08721038827818876
-1.877981050622939 0.4756725595128599
-1.857799209308274 0.3893476325718219
-1.8678901299656065 -0.19334562428018487
-1.9082538125949364 -0.7544576493969322
-1.968799336538931 -1.4882195283957556
-1.898162891937604 -1.9845878583067242
-1.787162764706947 -2.0061690900419835
-1.6761626374762901 -1.7471943092188695
-1.655980796161625 -1.466638296660496
-1.7467990820776171 -1.2292447475726413
-1.8275264473362767 -0.9918511984847868
-1.8073446060216118 -0.5170641003090776
-1.7972536853642793 0.10879162001344826
-1.766980923392282 0.8425534990122716
-1.766980923392282 1.0152033528943476
-1.766980923392282 0.691484876865455
-1.7367081614202846 0.1951165469544863
-1.7064353994482875 -0.2365080877507039
-1.6357989548469603 -0.5386453320443371
-1.565162510245633 -0.8839450398084892
-1.5449806689309682 -1.0565948936905654
-1.5046169863016385 -1.0134324302200461
-1.494526065644306 -0.9055262715437487
-1.4743442243296412 -0.6681327224558941
-1.4339805417003113 -0.495482868573818
-1.403707779728314 -0.2365080877507039
-1.3835259384136491 -0.10702069733914683
-1.3835259384136491 0.1951165469544863
-1.403707779728314 0.561997486453898
-1.4137987003856465 1.2094344385116833
-1.3936168590709814 1.6410590732168735
-1.333071335126987 1.5115716828053165
-1.3229804144696544 0.9504596576885691
-1.3431622557843192 0.13037285174870777
-1.3431622557843192 -0.5602265637795966
-1.3229804144696544 -0.8407825763379702
-1.2624348905256597 -0.7544576493969322
-1.1817075252670002 -0.452320405103299
-1.1716166046096677 -0.3012517829564824
-1.1716166046096677 -0.17176439254492537
-1.2119802872389975 -0.042277002133368304
-1.2826167318403245 0.3030227056307839
-1.2119802872389975 0.561997486453898
-1.1615256839523354 1.1231095115706453
-1.131252921980338 1.748965231893171
-1.1413438426376703 1.9647775492457662
-1.1917984459243327 1.576315378011095
-1.201889366581665 0.8425534990122716
-1.1817075252670002 0.022466693072410227
-1.1413438426376703 -0.6897139541911536
-1.0908892393510081 -1.2076635158373819
-1.0505255567216782 -1.6608693822778315
-1.0202527947496811 -1.9845878583067242
-1.000070953435016 -2.1140752487182812
-1.0202527947496811 -2.1572377121888002
-1.040434636064346 -2.092494016983022
-1.0807983186936756 -2.092494016983022
-1.111071080665673 -1.9630066265714647
-1.1211620013230055 -1.639288150542572
-1.1917984459243327 -1.2292447475726413
-1.1716166046096677 -0.7544576493969322
-1.1615256839523354 -0.452320405103299
-1.1211620013230055 -0.7760388811321917
-1.040434636064346 -1.466638296660496
-1.000070953435016 -2.135656480453541
-0.9798891121203512 -2.437793724747174
-0.9899800327776836 -2.394631261276655
-1.0202527947496811 -2.092494016983022
-0.9899800327776836 -1.8766816996304267
-1.000070953435016 -1.7471943092188695
-1.040434636064346 -1.4882195283957556
-1.1009801600083406 -1.2292447475726413
-1.0807983186936756 -1.0134324302200461
-1.0505255567216782 -0.7760388811321917
-1.0303437154070134 -0.495482868573818
-1.0606164773790108 -0.21492685601544437
-1.0908892393510081 0.2814414738955244
-1.111071080665673 0.7778098038064931
-1.1009801600083406 1.3173405971879808
-1.0505255567216782 1.4684092193347973
-1.0303437154070134 0.9072971942180501
-1.0505255567216782 -0.08543946560388732
-1.1211620013230055 -1.0997573571610844
-1.1716166046096677 -1.6177069188073125
-1.0908892393510081 -1.6177069188073125
-0.9798891121203512 -1.1213385888963439
-0.9294345088336889 -0.5386453320443371
-1.0202527947496811 -0.17176439254492537
-1.1211620013230055 0.1735353152192268
-1.0908892393510081 0.3893476325718219
-0.9899800327776836 0.36776640083656237
-0.8688889848896943 -0.042277002133368304
-0.7780706989737023 -0.7112951859264132
-0.7679797783163699 -1.0565948936905654
-0.7982525402883672 -1.2724072110431603
-0.7982525402883672 -0.9486887350142678
-0.7578888576590374 -0.6033890272501156
-0.6468887304283805 -0.36599547816226097
-0.5661613651697209 -0.15018316080966584
-0.4450703172817315 0.06562915654292925
-0.2634337454497475 0.34618516910130287
-0.03134257033110122 0.8425534990122716
0.2310213667595424 1.4036655241290188
0.4631125418781887 1.9431963175105067
0.6346581930528402 2.2669147935393994
0.8263856855421567 2.3964021839509564
1.0483859400034705 2.1158461713925827
1.4520227662967684 1.6842215366873925
2.097841688366045 1.0152033528943476
2.592296800575335 0.34618516910130287
2.794115213721984 -0.21492685601544437
2.7638424517499867 -0.40915794163277996
2.7840242930646513 -0.40915794163277996
2.814297055036649 -0.12860192907440635
2.703296927805992 -0.10702069733914683
2.551933117946005 -1.0134324302200461
2.2895691808553615 -2.6320248103645096
1.8960232752193962 -4.142711031832675
1.5630228935274253 -5.005960301243055
1.2502043531501195 -5.0707039964488345
0.967658574744811 -4.639079361743644
0.5135671451648509 -4.077967336626896
-0.021251649673768774 -3.5600177749806683
-0.4652521585963964 -3.1931368354812566
-0.8083434609456996 -2.8478371277171046
-1.1211620013230055 -2.373050029541395
-1.3027985731549896 -1.9198441631009457
-1.3431622557843192 -1.5313819918662746
-1.333071335126987 -1.1645010523668629
-1.4137987003856465 -0.8407825763379702
-1.4642533036723087 -0.7760388811321917
-1.494526065644306 -0.8192013446027107
-1.494526065644306 -1.0781761254258249
-1.565162510245633 -1.2939884427784198
-1.6156171135322954 -1.3587321379841983
-1.6458898755042928 -1.2292447475726413
-1.6257080341896277 -1.0134324302200461
-1.6257080341896277 -0.7760388811321917
-1.6862535581336224 -0.452320405103299
-1.7266172407629523 -0.06385823386862781
-1.7568900027349497 0.2598602421602648
-1.7972536853642793 0.8857159624827906
-1.8073446060216118 1.7705464636284305
-1.8477082886509417 2.3964021839509564
-1.8376173679936092 2.1374274031278424
-1.787162764706947 1.2094344385116833
-1.7165263201056198 -0.12860192907440635
-1.7165263201056198 -1.4234758331899768
-1.7367081614202846 -2.1572377121888002
-1.655980796161625 -2.243562639129838
-1.655980796161625 -2.092494016983022
-1.605526192874963 -1.72561307748361
-1.565162510245633 -1.466638296660496
-1.494526065644306 -1.2292447475726413
-1.4642533036723087 -1.0565948936905654
-1.4743442243296412 -0.8839450398084892
-1.4642533036723087 -0.6465514907206346
-1.4238896210429788 -0.3228330146917419
-1.3734350177563166 -0.12860192907440635
-1.3734350177563166 -0.06385823386862781
-1.3734350177563166 -0.19334562428018487
-1.333071335126987 -0.2796705512212229
-1.2826167318403245 -0.36599547816226097
-1.2523439698683272 -0.495482868573818
-1.2725258111829922 -0.6033890272501156
-1.2119802872389975 -0.6897139541911536
-1.0807983186936756 -0.7544576493969322
-1.000070953435016 -0.7328764176616727
-0.9899800327776836 -0.6681327224558941
-1.0101618740923486 -0.5170641003090776
-1.000070953435016 -0.3228330146917419
-0.9798891121203512 -0.21492685601544437
-0.9798891121203512 -0.19334562428018487
-0.9798891121203512 -0.08543946560388732
-0.9193435881763565 0.13037285174870777
-0.8789799055470268 0.3893476325718219
-0.8487071435750294 0.5835787181891575
-0.8487071435750294 0.36776640083656237
-0.8184343816030321 -0.12860192907440635
-0.8083434609456996 -0.7328764176616727
-0.7881616196310347 -1.2724072110431603
-0.7780706989737023 -1.4882195283957556
-0.7477979370017049 -1.509800760131015
-0.7679797783163699 -1.3371509062489388
-0.7477979370017049 -1.1860822841021224
-0.6973433337150428 -0.9702699667495273
-0.6670705717430454 -0.7976201128674512
-0.7377070163443725 -0.6465514907206346
-0.8587980642323618 -0.5386453320443371
-0.8789799055470268 -0.495482868573818
-0.8789799055470268 -0.40915794163277996
-0.838616222917697 -0.2580893194859634
-0.8487071435750294 -0.08543946560388732
-0.9193435881763565 0.04404792480766974
-0.9193435881763565 0.1735353152192268
-0.9092526675190241 0.2814414738955244
-0.9193435881763565 0.4325100960423409
-0.9697981914630188 0.561997486453898
-1.0505255567216782 0.4540913277776004
-1.0908892393510081 0.13037285174870777
-1.111071080665673 -0.40915794163277996
-1.1211620013230055 -0.8839450398084892
-1.1009801600083406 -1.1429198206316034
-1.0807983186936756 -1.1429198206316034
-1.040434636064346 -0.9271075032790083
-1.0606164773790108 -0.6249702589853751
-1.0807983186936756 -0.5602265637795966
-1.1211620013230055 -0.3228330146917419
-1.111071080665673 -0.2365080877507039
-1.1009801600083406 -0.2796705512212229
-1.111071080665673 -0.43073917336803946
-1.1009801600083406 -0.5818077955148561
-1.1009801600083406 -0.7544576493969322
-1.0606164773790108 -0.9271075032790083
-1.0505255567216782 -1.0781761254258249
-1.0807983186936756 -1.1213385888963439
-1.1009801600083406 -1.1645010523668629
-1.0707073980363433 -0.8407825763379702
-1.000070953435016 -0.5170641003090776
-0.9798891121203512 -0.08543946560388732
-0.9899800327776836 0.34618516910130287
-1.040434636064346 0.734647340335974
-1.0303437154070134 0.7993910355417526
-1.111071080665673 0.4540913277776004
-1.2422530492109949 -0.2365080877507039
-1.2624348905256597 -0.8623638080732297
-1.1716166046096677 -1.2292447475726413
-1.040434636064346 -1.3803133697194578
-0.9697981914630188 -1.2724072110431603
-1.0606164773790108 -1.1429198206316034
-1.1009801600083406 -1.0350136619553059
-1.1211620013230055 -0.8839450398084892
-1.131252921980338 -0.5386453320443371
-1.1009801600083406 -0.12860192907440635
-1.0807983186936756 0.4756725595128599
-1.1514347632950028 1.0799470481001263
-1.201889366581665 1.533152914540576
-1.2624348905256597 1.4036655241290188
-1.2826167318403245 0.7130661086007145
-1.2422530492109949 -0.2365080877507039
-1.201889366581665 -1.0350136619553059
-1.1211620013230055 -1.5313819918662746
-1.0908892393510081 -1.811938004424648
-1.131252921980338 -1.6177069188073125
-1.1615256839523354 -1.3587321379841983
-1.1817075252670002 -0.9271075032790083
-1.131252921980338 -0.6465514907206346
-1.0707073980363433 -0.3444142464270014
-1.040434636064346 -0.2796705512212229
-1.0606164773790108 -0.042277002133368304
-1.1009801600083406 0.3893476325718219
-1.1615256839523354 0.9720408894238287
-1.201889366581665 1.4252467558642783
-1.2321621285536624 1.4468279875995378
-1.2220712078963298 0.8425534990122716
-1.1817075252670002 -0.02069577039810879
-1.0807983186936756 -0.7328764176616727
-1.0101618740923486 -1.1429198206316034
-0.9496163501483539 -1.2076635158373819
-0.9899800327776836 -1.0565948936905654
-1.040434636064346 -0.9486887350142678
-1.0505255567216782 -0.9486887350142678
-1.0202527947496811 -0.9486887350142678
-1.0202527947496811 -0.8407825763379702
-1.0101618740923486 -0.7112951859264132
-1.0303437154070134 -0.5170641003090776
-1.0707073980363433 -0.3012517829564824
-1.1615256839523354 0.08721038827818876
-1.2523439698683272 0.561997486453898
-1.2422530492109949 0.9288784259533096
-1.1413438426376703 0.9720408894238287
-1.1009801600083406 0.7130661086007145
-1.0908892393510081 0.13037285174870777
-1.0707073980363433 -0.5170641003090776
-1.0606164773790108 -0.9486887350142678
-1.1009801600083406 -1.0565948936905654
-1.1009801600083406 -1.0997573571610844
-1.0807983186936756 -1.1860822841021224
-0.9899800327776836 -1.1645010523668629
-0.9496163501483539 -1.0997573571610844
-1.0101618740923486 -0.9271075032790083
-1.0807983186936756 -0.7328764176616727
-1.0606164773790108 -0.43073917336803946
-0.9395254294910215 -0.042277002133368304
-0.9496163501483539 0.3893476325718219
-1.000070953435016 0.8425534990122716
-1.0908892393510081 1.0152033528943476
-1.0807983186936756 1.1231095115706453
-1.0303437154070134 0.9072971942180501
-1.000070953435016 0.5835787181891575
-1.040434636064346 -0.15018316080966584
-1.040434636064346 -0.7544576493969322
-1.0807983186936756 -1.1429198206316034
-1.0505255567216782 -1.2724072110431603
-0.9899800327776836 -1.2508259793079008
-0.9597072708056863 -1.0565948936905654
-0.9294345088336889 -0.9486887350142678
-0.9597072708056863 -0.9918511984847868
-0.9798891121203512 -0.9702699667495273
-0.9496163501483539 -0.8192013446027107
-0.9193435881763565 -0.6249702589853751
-0.8991617468616916 -0.36599547816226097
-0.9798891121203512 -0.042277002133368304
-1.0606164773790108 0.34618516910130287
-1.1211620013230055 0.7993910355417526
-1.0908892393510081 1.1015282798353858
-1.000070953435016 0.9504596576885691
-0.9395254294910215 0.5835787181891575
-0.8991617468616916 -0.042277002133368304
-0.9092526675190241 -0.4739016368385585
-0.9697981914630188 -0.8623638080732297
-0.9193435881763565 -1.0997573571610844
-0.9092526675190241 -1.3155696745136793
-0.9496163501483539 -1.3803133697194578
-0.9496163501483539 -1.3371509062489388
-0.9395254294910215 -1.0997573571610844
-0.9092526675190241 -0.6897139541911536
-0.9092526675190241 -0.06385823386862781
-0.9697981914630188 0.3893476325718219
-0.9496163501483539 0.4325100960423409
-0.9899800327776836 0.1735353152192268
-0.9496163501483539 -0.21492685601544437
-0.9597072708056863 -0.6249702589853751
-0.9193435881763565 -0.7328764176616727
-0.9193435881763565 -0.6033890272501156
-0.8890708262043592 -0.17176439254492537
-0.8890708262043592 0.4325100960423409
-0.9193435881763565 0.8641347307475311
-0.9597072708056863 0.8857159624827906
-0.8789799055470268 0.4109288643070814
-0.8285253022603645 -0.3228330146917419
-0.7679797783163699 -0.9918511984847868
-0.7881616196310347 -1.3587321379841983
-0.8487071435750294 -1.4234758331899768
-0.8688889848896943 -1.1860822841021224
-0.7982525402883672 -0.9271075032790083
-0.6872524130577102 -0.6681327224558941
-0.545979523855056 -0.3444142464270014
-0.4753430792537289 0.022466693072410227
-0.34416111070840705 0.4540913277776004
-0.18270638019108792 0.6267411816596765
-0.011160729016436326 0.734647340335974
0.1906576841302126 0.734647340335974
0.3622033353048642 0.8209722672770121
0.5236580658221833 1.036784584629607
0.6548400343675052 1.1878532067764238
0.8465675268568217 1.0799470481001263
1.1392042259194626 0.9504596576885691
1.5428410522127605 0.691484876865455
1.8960232752193962 0.4756725595128599
2.11802352968071 0.1735353152192268
2.2592964188833644 -0.06385823386862781
2.2693873395406965 -0.2365080877507039
2.329932863484691 -0.12860192907440635
2.3803874667713534 0.08721038827818876
2.329932863484691 0.5835787181891575
2.1785690536247047 0.8209722672770121
2.0171143231073856 0.1735353152192268
1.7244776240447446 -1.0565948936905654
1.4822955282687658 -2.5025374199529526
1.3107498770941142 -3.6031802384511873
1.1997497498634573 -4.207454727038454
0.9777494954021435 -4.336942117450011
0.5135671451648509 -4.077967336626896
-0.07170625296043101 -3.5600177749806683
-0.4652521585963964 -3.0204869815991806
-0.6771614924003778 -2.5456998834234716
-0.8285253022603645 -2.0709127852477622
-1.040434636064346 -1.5745444553367935
-1.2119802872389975 -1.0350136619553059
-1.3027985731549896 -0.40915794163277996
-1.2826167318403245 0.08721038827818876
-1.3229804144696544 0.4756725595128599
-1.3532531764416518 0.605159949924417
-1.4642533036723087 0.3893476325718219
-1.5954352722176304 0.0008854613371507181
-1.6357989548469603 -0.3012517829564824
-1.5752534309029655 -0.5170641003090776
-1.5147079069589708 -0.5170641003090776
-1.494526065644306 -0.3444142464270014
-1.5147079069589708 -0.38757670989752047
-1.585344351560298 -0.36599547816226097
-1.6156171135322954 -0.36599547816226097
-1.6761626374762901 -0.2365080877507039
-1.655980796161625 -0.06385823386862781
-1.5954352722176304 0.23827901042500532
-1.5954352722176304 0.3893476325718219
-1.5954352722176304 0.7562285720712336
-1.6660717168189576 1.2957593654527213
-1.6761626374762901 2.094264939657323
-1.7165263201056198 2.720120659979849
-1.7165263201056198 2.8280268186561464
-1.7064353994482875 2.3748209522156967
-1.6761626374762901 1.2741781337174618
-1.605526192874963 0.022466693072410227
-1.585344351560298 -0.9271075032790083
-1.5550715895883007 -1.4450570649252366
-1.565162510245633 -1.5745444553367935
-1.5752534309029655 -1.6608693822778315
-1.565162510245633 -1.5745444553367935
-1.565162510245633 -1.4450570649252366
-1.5752534309029655 -1.2076635158373819
-1.585344351560298 -0.9486887350142678
-1.5247988276163034 -0.8623638080732297
-1.4642533036723087 -0.8839450398084892
-1.4642533036723087 -0.8407825763379702
-1.5147079069589708 -0.8839450398084892
-1.5247988276163034 -0.6033890272501156
-1.534889748273636 -0.12860192907440635
-1.5247988276163034 0.32460393736604337
-1.5147079069589708 0.605159949924417
-1.5247988276163034 0.605159949924417
-1.5046169863016385 0.34618516910130287
-1.494526065644306 -0.042277002133368304
-1.4440714623576438 -0.495482868573818
-1.3431622557843192 -0.9486887350142678
-1.2523439698683272 -1.2508259793079008
-1.2422530492109949 -1.3587321379841983
-1.2624348905256597 -1.3803133697194578
-1.2725258111829922 -1.3155696745136793
-1.2725258111829922 -1.1213385888963439
-1.2826167318403245 -0.9271075032790083
-1.2725258111829922 -0.6681327224558941
-1.292707652497657 -0.36599547816226097
-1.333071335126987 -0.06385823386862781
-1.333071335126987 0.3893476325718219
-1.2826167318403245 1.1015282798353858
-1.2119802872389975 1.7705464636284305
-1.1615256839523354 2.3316584887451777
-1.1716166046096677 2.3532397204804374
-1.1917984459243327 1.835290158834209
-1.1917984459243327 0.9288784259533096
-1.0707073980363433 0.06562915654292925
-0.9496163501483539 -0.5602265637795966
-0.8688889848896943 -0.9486887350142678
-0.9092526675190241 -1.0781761254258249
-1.0202527947496811 -0.9918511984847868
-0.9597072708056863 -0.7112951859264132
-0.8285253022603645 -0.40915794163277996
-0.7679797783163699 -0.15018316080966584
-0.8184343816030321 0.04404792480766974
-0.8587980642323618 0.1519540834839673
-0.8587980642323618 0.23827901042500532
-0.8487071435750294 0.4109288643070814
-0.8083434609456996 0.5188350229833789
-0.7780706989737023 0.691484876865455
-0.7578888576590374 0.8209722672770121
-0.7679797783163699 0.9936221211590882
-0.8184343816030321 1.1878532067764238
-0.838616222917697 1.5547341462758355
-0.838616222917697 1.6410590732168735
-0.8184343816030321 1.662640304952133
-0.8083434609456996 1.3820842923937593
-0.838616222917697 0.9720408894238287
-0.8688889848896943 0.6699036451301955
-0.7982525402883672 0.7130661086007145
-0.7578888576590374 0.605159949924417
-0.6771614924003778 0.34618516910130287
-0.7074342543723752 -0.21492685601544437
-0.7679797783163699 -0.6465514907206346
-0.7578888576590374 -1.0134324302200461
-0.7477979370017049 -1.0781761254258249
-0.7175251750297076 -1.1645010523668629
-0.7175251750297076 -1.1429198206316034
-0.7175251750297076 -1.0565948936905654
-0.7477979370017049 -1.0134324302200461
-0.7780706989737023 -0.9055262715437487
-0.7578888576590374 -0.7544576493969322
-0.7578888576590374 -0.6249702589853751
-0.7377070163443725 -0.6897139541911536
-0.7578888576590374 -0.8192013446027107
-0.8083434609456996 -0.9486887350142678
-0.7982525402883672 -1.1213385888963439
-0.7881616196310347 -1.0134324302200461
-0.7679797783163699 -0.8839450398084892
-0.7578888576590374 -0.6465514907206346
-0.7477979370017049 -0.40915794163277996
-0.7175251750297076 -0.2365080877507039
-0.7679797783163699 -0.10702069733914683
-0.8184343816030321 -0.042277002133368304
-0.838616222917697 0.022466693072410227
-0.8285253022603645 -0.06385823386862781
-0.838616222917697 -0.06385823386862781
-0.7679797783163699 -0.2365080877507039
-0.8184343816030321 -0.17176439254492537
-0.8587980642323618 -0.10702069733914683
-0.8487071435750294 -0.02069577039810879
-0.7780706989737023 0.21669777868974582
-0.72761609568704 0.3893476325718219
-0.7377070163443725 0.34618516910130287
-0.7780706989737023 0.2598602421602648
-0.7679797783163699 0.4109288643070814
-0.6771614924003778 0.5188350229833789
-0.5358886031977236 0.7130661086007145
-0.42488847596706664 0.9504596576885691
-0.3946157139950693 1.1231095115706453
-0.38452479333773687 1.1231095115706453
-0.42488847596706664 1.1662719750411643
-0.5560704445123884 1.3389218289232403
-0.6670705717430454 1.4684092193347973
-0.7477979370017049 1.705802768422652
-0.7982525402883672 2.0726837079220637
-0.7477979370017049 2.5258895743625134
-0.6166159684563831 2.763283123450368
-0.5056158412257262 2.7417018917151084
-0.545979523855056 2.6122145013035514
-0.6267068891137155 2.094264939657323
-0.7074342543723752 1.4036655241290188
-0.6973433337150428 0.6267411816596765
-0.6166159684563831 0.08721038827818876
-0.4753430792537289 -0.3444142464270014
-0.40470663465240175 -0.6681327224558941
-0.32397926939374216 -1.1213385888963439
-0.10197901493242835 -1.639288150542572
0.2310213667595424 -2.0493315535125025
0.5135671451648509 -2.221981407394579
0.7254764789688323 -2.373050029541395
0.9777494954021435 -2.524118651688212
1.2401134324927872 -2.783093432511326
1.4116590836674388 -2.9125808229228833
1.3107498770941142 -2.9989057498639213
1.1392042259194626 -2.9773245181286616
0.9777494954021435 -2.9989057498639213
0.8465675268568217 -2.9557432863934023
0.6447491137101727 -2.869418359452364
0.3016578113608695 -2.783093432511326
-0.06161533230309856 -2.567281115158731
-0.4147975553097342 -2.394631261276655
-0.6872524130577102 -1.9630066265714647
-0.8991617468616916 -1.5313819918662746
-1.040434636064346 -1.1860822841021224
-1.131252921980338 -1.0350136619553059
-1.1615256839523354 -0.9271075032790083
-1.1817075252670002 -0.9702699667495273
-1.1716166046096677 -1.1429198206316034
-1.1615256839523354 -1.2076635158373819
-1.1413438426376703 -1.3803133697194578
-1.1514347632950028 -1.3587321379841983
-1.201889366581665 -1.2292447475726413
-1.2321621285536624 -0.8839450398084892
-1.2220712078963298 -0.38757670989752047
-1.2624348905256597 0.13037285174870777
-1.2826167318403245 0.6267411816596765
-1.292707652497657 0.8425534990122716
-1.292707652497657 0.561997486453898
-1.333071335126987 0.1519540834839673
-1.3835259384136491 -0.2796705512212229
-1.3936168590709814 -0.6033890272501156
-1.333071335126987 -0.5386453320443371
-1.2624348905256597 -0.3012517829564824
-1.2321621285536624 0.06562915654292925
-1.1917984459243327 0.3030227056307839
-1.1817075252670002 0.5835787181891575
-1.1211620013230055 0.9504596576885691
-1.0908892393510081 1.1231095115706453
-1.0807983186936756 1.1878532067764238
-1.111071080665673 1.0799470481001263
-1.0707073980363433 1.0152033528943476
-0.9798891121203512 0.9288784259533096
-0.9193435881763565 0.8209722672770121
-0.8991617468616916 0.5188350229833789
-0.9092526675190241 0.13037285174870777
-0.9395254294910215 -0.21492685601544437
-0.8890708262043592 -0.2796705512212229
-0.838616222917697 -0.19334562428018487
-0.7175251750297076 -0.19334562428018487
-0.6569796510857129 -0.19334562428018487
-0.6166159684563831 -0.12860192907440635
-0.5964341271417183 -0.2580893194859634
-0.5661613651697209 -0.3228330146917419
-0.545979523855056 -0.2580893194859634
-0.5056158412257262 -0.06385823386862781
-0.5257976825403912 0.10879162001344826
-0.5056158412257262 0.2598602421602648
-0.48543399991106134 0.4756725595128599
-0.4450703172817315 0.5835787181891575
-0.34416111070840705 0.34618516910130287
-0.2432519041350826 -0.21492685601544437
-0.2028882215057528 -1.1213385888963439
-0.27352466610707993 -1.8335192361599075
-0.34416111070840705 -2.265143870865098
-0.3542520313657395 -2.243562639129838
-0.2432519041350826 -1.9630066265714647
-0.16252453887642304 -1.72561307748361
-0.16252453887642304 -1.6177069188073125
-0.2028882215057528 -1.552963223601534
-0.25334282479241504 -1.4018946014547173
-0.2634337454497475 -1.1429198206316034
-0.2432519041350826 -0.7328764176616727
-0.2634337454497475 -0.042277002133368304
-0.27352466610707993 0.4109288643070814
-0.34416111070840705 0.561997486453898
-0.455161237939064 0.3893476325718219
-0.545979523855056 0.13037285174870777
-0.6267068891137155 -0.15018316080966584
-0.6065250477990507 -0.17176439254492537
-0.5257976825403912 -0.2796705512212229
-0.49552492056839376 -0.2580893194859634
-0.5762522858270533 -0.2580893194859634
-0.7175251750297076 -0.15018316080966584
-0.7477979370017049 -0.2365080877507039
-0.7780706989737023 -0.19334562428018487
-0.7578888576590374 -0.02069577039810879
-0.8083434609456996 0.10879162001344826
-0.8083434609456996 0.23827901042500532
-0.8688889848896943 0.4109288643070814
-0.8587980642323618 0.605159949924417
-0.8487071435750294 0.7993910355417526
-0.838616222917697 0.734647340335974
-0.8789799055470268 0.6267411816596765
-0.9294345088336889 0.5835787181891575
-0.9395254294910215 0.561997486453898
-0.9496163501483539 0.5404162547186384
-0.9496163501483539 0.5404162547186384
-0.8890708262043592 0.5188350229833789
-0.8789799055470268 0.561997486453898
-0.8890708262043592 0.5835787181891575
-0.8890708262043592 0.5404162547186384
-0.8890708262043592 0.49725379124811947
-0.8789799055470268 0.5188350229833789
-0.8789799055470268 0.4756725595128599
-0.8688889848896943 0.36776640083656237
-0.9395254294910215 0.5404162547186384
-0.8890708262043592 0.9072971942180501
-0.8487071435750294 1.3605030606584998
-0.7982525402883672 1.489990451070057
-0.8285253022603645 0.9720408894238287
-0.8184343816030321 0.32460393736604337
-0.7175251750297076 -0.3228330146917419
-0.636797809771048 -0.8407825763379702
-0.6166159684563831 -0.9702699667495273
-0.6468887304283805 -0.8623638080732297
-0.6771614924003778 -0.6465514907206346
-0.6973433337150428 -0.5818077955148561
-0.7074342543723752 -0.495482868573818
-0.7074342543723752 -0.2365080877507039
-0.7377070163443725 0.1735353152192268
-0.6973433337150428 0.4325100960423409
-0.636797809771048 0.32460393736604337
-0.636797809771048 -0.19334562428018487
-0.6670705717430454 -0.7328764176616727
-0.6872524130577102 -1.2076635158373819
-0.6468887304283805 -1.2939884427784198
-0.6065250477990507 -1.1213385888963439
-0.6468887304283805 -0.9055262715437487
-0.6771614924003778 -0.7328764176616727
-0.6973433337150428 -0.6465514907206346
-0.72761609568704 -0.4739016368385585
-0.6973433337150428 -0.2580893194859634
-0.5661613651697209 -0.12860192907440635
-0.40470663465240175 -0.15018316080966584
-0.23316098347775016 -0.17176439254492537
-0.041433490988433665 -0.12860192907440635
0.24111228741687485 0.10879162001344826
0.49338530385018603 0.5188350229833789
0.5942945104235104 0.9720408894238287
0.6447491137101727 1.4036655241290188
0.7153855583114999 1.6410590732168735
0.8970221301434839 1.748965231893171
1.2703861944647845 1.748965231893171
1.7244776240447446 1.619477841481614
2.097841688366045 1.4684092193347973
2.299660101512694 1.2310156702469428
2.390478387428686 0.9288784259533096
2.4712057526873457 0.691484876865455
2.551933117946005 0.5188350229833789
2.551933117946005 0.34618516910130287
2.5317512766313404 -0.10702069733914683
2.521660355974008 -0.9055262715437487
2.3400237841420237 -1.9630066265714647
2.0675689263940478 -2.6751872738350286
1.7042957827300795 -2.8909995911876236
1.3914772423527737 -2.783093432511326
1.1392042259194626 -2.437793724747174
0.6851127963395025 -1.9630066265714647
0.17047584281554773 -1.6177069188073125
-0.2634337454497475 -1.4882195283957556
-0.5863432064843858 -1.4234758331899768
-0.8083434609456996 -1.4018946014547173
-0.9899800327776836 -1.2939884427784198
-1.0807983186936756 -1.1645010523668629
-1.0807983186936756 -1.0997573571610844
-1.1009801600083406 -0.8192013446027107
-1.1615256839523354 -0.5170641003090776
-1.2321621285536624 -0.12860192907440635
-1.2119802872389975 0.06562915654292925
-1.3027985731549896 -0.02069577039810879
-1.3532531764416518 -0.042277002133368304
-1.403707779728314 0.04404792480766974
-1.3835259384136491 0.2814414738955244
-1.312889493812322 0.4540913277776004
-1.312889493812322 0.1735353152192268
-1.3431622557843192 -0.3444142464270014
-1.3734350177563166 -0.7544576493969322
-1.3431622557843192 -1.0565948936905654
-1.3532531764416518 -1.0134324302200461
-1.3633440970989843 -0.6897139541911536
-1.3734350177563166 -0.40915794163277996
-1.3835259384136491 0.022466693072410227
-1.4440714623576438 0.36776640083656237
-1.4238896210429788 0.691484876865455
-1.4238896210429788 0.7778098038064931
-1.3431622557843192 0.605159949924417
-1.312889493812322 0.06562915654292925
-1.292707652497657 -0.5170641003090776
-1.3431622557843192 -0.7328764176616727
-1.3532531764416518 -0.6033890272501156
-1.3431622557843192 -0.19334562428018487
-1.333071335126987 -0.02069577039810879
-1.2725258111829922 -0.19334562428018487
-1.2422530492109949 -0.4739016368385585
-1.2220712078963298 -0.5170641003090776
-1.2422530492109949 -0.43073917336803946
-1.2725258111829922 -0.12860192907440635
-1.292707652497657 0.1951165469544863
-1.333071335126987 0.4756725595128599
-1.2725258111829922 0.4325100960423409
-1.2119802872389975 0.1951165469544863
-1.1716166046096677 -0.12860192907440635
-1.111071080665673 -0.2365080877507039
-1.0707073980363433 -0.19334562428018487
-1.0303437154070134 -0.08543946560388732
-0.9697981914630188 -0.042277002133368304
-0.9697981914630188 0.0008854613371507181
-0.9496163501483539 0.06562915654292925
-0.9496163501483539 0.23827901042500532
-0.8991617468616916 0.23827901042500532
-0.8587980642323618 0.32460393736604337
-0.8789799055470268 0.32460393736604337
-0.8587980642323618 0.5404162547186384
-0.8285253022603645 0.6699036451301955
-0.7477979370017049 1.036784584629607
-0.72761609568704 1.489990451070057
-0.7074342543723752 1.4684092193347973
-0.6670705717430454 0.9072971942180501
-0.6569796510857129 0.08721038827818876
-0.6569796510857129 -0.6465514907206346
-0.5863432064843858 -1.1860822841021224
-0.545979523855056 -1.4234758331899768
-0.4753430792537289 -1.2724072110431603
-0.4753430792537289 -1.0350136619553059
-0.5056158412257262 -0.6897139541911536
-0.5661613651697209 -0.2796705512212229
-0.6267068891137155 0.2598602421602648
-0.6468887304283805 0.7562285720712336
-0.6569796510857129 0.7130661086007145
-0.6468887304283805 0.32460393736604337
-0.7175251750297076 -0.17176439254492537
-0.7074342543723752 -0.6249702589853751
-0.6670705717430454 -0.7328764176616727
-0.6468887304283805 -0.6681327224558941
-0.6670705717430454 -0.4739016368385585
-0.6670705717430454 -0.5170641003090776
-0.6569796510857129 -0.495482868573818
-0.6771614924003778 -0.452320405103299
-0.7578888576590374 -0.3444142464270014
-0.7780706989737023 0.06562915654292925
-0.7679797783163699 0.4540913277776004
-0.7578888576590374 0.6699036451301955
-0.7780706989737023 0.561997486453898
-0.8083434609456996 0.36776640083656237
-0.7982525402883672 0.13037285174870777
-0.7679797783163699 -0.10702069733914683
-0.7377070163443725 -0.08543946560388732
-0.7780706989737023 -0.042277002133368304
-0.8184343816030321 0.1519540834839673
-0.7982525402883672 0.36776640083656237
-0.7477979370017049 0.4756725595128599
-0.6973433337150428 0.3893476325718219
-0.7578888576590374 0.1519540834839673
-0.7982525402883672 -0.042277002133368304
-0.8587980642323618 -0.08543946560388732
-0.9193435881763565 -0.06385823386862781
-0.9496163501483539 0.04404792480766974
-0.9395254294910215 0.1735353152192268
-0.9395254294910215 0.3893476325718219
-0.8991617468616916 0.605159949924417
-0.8285253022603645 0.734647340335974
-0.8487071435750294 0.648322413394936
-0.8083434609456996 0.3030227056307839
-0.7780706989737023 0.022466693072410227
-0.6973433337150428 -0.21492685601544437
-0.6973433337150428 -0.36599547816226097
-0.8083434609456996 -0.3012517829564824
-0.9092526675190241 -0.042277002133368304
-0.9294345088336889 0.23827901042500532
-0.8285253022603645 0.5188350229833789
-0.7377070163443725 0.5835787181891575
-0.7881616196310347 0.3893476325718219
-0.838616222917697 0.10879162001344826
-0.8890708262043592 -0.02069577039810879
-0.8285253022603645 0.06562915654292925
-0.7377070163443725 0.13037285174870777
-0.6973433337150428 0.32460393736604337
-0.7578888576590374 0.36776640083656237
-0.7780706989737023 0.2598602421602648
-0.838616222917697 0.13037285174870777
-0.8688889848896943 0.08721038827818876
-0.8789799055470268 0.06562915654292925
-0.8587980642323618 0.022466693072410227
-0.8184343816030321 -0.06385823386862781
-0.7982525402883672 -0.06385823386862781
-0.8083434609456996 0.08721038827818876
-0.8083434609456996 0.4540913277776004
-0.7679797783163699 0.691484876865455
-0.7377070163443725 0.691484876865455
-0.7679797783163699 0.4325100960423409
-0.8285253022603645 0.1951165469544863
-0.838616222917697 -0.042277002133368304
-0.7377070163443725 -0.06385823386862781
-0.7175251750297076 0.04404792480766974
-0.7477979370017049 0.08721038827818876
-0.8083434609456996 -0.10702069733914683
-0.7578888576590374 -0.43073917336803946
-0.7477979370017049 -0.7112951859264132
-0.7074342543723752 -0.8407825763379702
-0.72761609568704 -0.8623638080732297
-0.72761609568704 -0.7328764176616727
-0.7175251750297076 -0.495482868573818
-0.7074342543723752 -0.2580893194859634
-0.7477979370017049 -0.042277002133368304
-0.7881616196310347 0.0008854613371507181
-0.8285253022603645 -0.2796705512212229
-0.7881616196310347 -0.6249702589853751
-0.6872524130577102 -0.9486887350142678
-0.6670705717430454 -1.1645010523668629
-0.7477979370017049 -1.0134324302200461
-0.7578888576590374 -0.7544576493969322
-0.7377070163443725 -0.5818077955148561
-0.6771614924003778 -0.6249702589853751
-0.6468887304283805 -0.7760388811321917
-0.6771614924003778 -0.9055262715437487
-0.6872524130577102 -0.9055262715437487
-0.6670705717430454 -0.7112951859264132
-0.6468887304283805 -0.4739016368385585
-0.6670705717430454 -0.2580893194859634
-0.72761609568704 -0.2580893194859634
-0.7377070163443725 -0.12860192907440635
-0.7477979370017049 0.0008854613371507181
-0.7175251750297076 0.2814414738955244
-0.72761609568704 0.6699036451301955
-0.7175251750297076 0.9504596576885691
-0.7477979370017049 1.1231095115706453
-0.7982525402883672 1.1015282798353858
-0.8285253022603645 0.8425534990122716
-0.8083434609456996 0.5188350229833789
-0.7377070163443725 0.1735353152192268
-0.6670705717430454 -0.17176439254492537
-0.6569796510857129 -0.452320405103299
-0.6973433337150428 -0.495482868573818
-0.72761609568704 -0.36599547816226097
-0.7377070163443725 -0.042277002133368304
-0.7679797783163699 0.2598602421602648
-0.7477979370017049 0.6267411816596765
-0.7477979370017049 1.0583658163648666
-0.7377070163443725 1.4252467558642783
-0.7074342543723752 1.4036655241290188
-0.7477979370017049 1.1446907433059048
-0.7578888576590374 0.6699036451301955
-0.6973433337150428 0.32460393736604337
-0.6569796510857129 0.04404792480766974
-0.6569796510857129 -0.10702069733914683
-0.6670705717430454 -0.08543946560388732
-0.6771614924003778 0.022466693072410227
-0.7175251750297076 0.10879162001344826
-0.72761609568704 0.36776640083656237
-0.7982525402883672 0.648322413394936
-0.8688889848896943 0.8641347307475311
-0.8991617468616916 0.9288784259533096
-0.7881616196310347 0.691484876865455
-0.6973433337150428 0.1735353152192268
-0.6166159684563831 -0.21492685601544437
-0.5661613651697209 -0.4739016368385585
-0.5560704445123884 -0.5818077955148561
-0.5661613651697209 -0.6033890272501156
-0.5863432064843858 -0.43073917336803946
-0.545979523855056 -0.3444142464270014
-0.545979523855056 -0.36599547816226097
-0.545979523855056 -0.3444142464270014
-0.5964341271417183 -0.38757670989752047
-0.6468887304283805 -0.495482868573818
-0.6569796510857129 -0.6033890272501156
-0.6267068891137155 -0.7328764176616727
-0.6267068891137155 -0.8623638080732297
-0.5661613651697209 -1.1213385888963439
-0.5661613651697209 -1.1645010523668629
-0.5863432064843858 -1.0565948936905654
-0.6267068891137155 -0.7976201128674512
-0.6468887304283805 -0.452320405103299
-0.6670705717430454 -0.2365080877507039
-0.6569796510857129 -0.15018316080966584
-0.636797809771048 -0.2796705512212229
-0.6267068891137155 -0.3444142464270014
-0.6569796510857129 -0.6249702589853751
-0.6670705717430454 -0.7544576493969322
-0.6468887304283805 -0.8839450398084892
-0.6267068891137155 -0.9702699667495273
-0.6166159684563831 -0.9486887350142678
-0.636797809771048 -0.8407825763379702
-0.6468887304283805 -0.5602265637795966
-0.6670705717430454 -0.15018316080966584
-0.6771614924003778 0.4540913277776004
-0.6771614924003778 0.8425534990122716
-0.6872524130577102 0.9720408894238287
-0.7477979370017049 0.6267411816596765
-0.8184343816030321 0.10879162001344826
-0.7780706989737023 -0.3228330146917419
-0.6166159684563831 -0.5170641003090776
-0.5964341271417183 -0.4739016368385585
-0.6166159684563831 -0.3444142464270014
-0.6771614924003778 0.0008854613371507181
-0.636797809771048 0.1735353152192268
-0.6065250477990507 0.2814414738955244
-0.5964341271417183 0.4109288643070814
-0.6065250477990507 0.5835787181891575
-0.636797809771048 0.734647340335974
-0.6166159684563831 0.7130661086007145
-0.636797809771048 0.648322413394936
-0.6468887304283805 0.6267411816596765
-0.6569796510857129 0.5404162547186384
-0.6468887304283805 0.4756725595128599
-0.6267068891137155 0.2814414738955244
-0.636797809771048 0.06562915654292925
-0.6468887304283805 -0.02069577039810879
-0.6267068891137155 0.10879162001344826
-0.5863432064843858 0.32460393736604337
-0.5762522858270533 0.605159949924417
-0.6065250477990507 0.9072971942180501
-0.6468887304283805 1.1662719750411643
-0.6468887304283805 1.1231095115706453
-0.6267068891137155 0.8209722672770121
-0.5560704445123884 0.1735353152192268
-0.48543399991106134 -0.5170641003090776
-0.3744338726804044 -1.0565948936905654
-0.32397926939374216 -1.2508259793079008
-0.3946157139950693 -1.1213385888963439
-0.4349793966243991 -0.9271075032790083
-0.4349793966243991 -0.6681327224558941
-0.4147975553097342 -0.452320405103299
-0.364342952023072 -0.2796705512212229
-0.3946157139950693 -0.10702069733914683
-0.3542520313657395 0.13037285174870777
-0.32397926939374216 0.2598602421602648
-0.2836155867644124 0.32460393736604337
-0.31388834873640975 0.2598602421602648
-0.364342952023072 0.13037285174870777
-0.3037974280790773 -0.15018316080966584
-0.21297914216308525 -0.2365080877507039
-0.08179717361776345 -0.3012517829564824
0.0796575568995557 -0.40915794163277996
0.25120320807420726 -0.38757670989752047
0.41265793859152644 -0.2365080877507039
0.5942945104235104 0.13037285174870777
0.7557492409408296 0.691484876865455
0.9373858127728136 1.3173405971879808
1.098840543290133 1.7273840001579115
1.2098406705207898 1.79212769536369
1.330931718408779 1.5978966097463545
1.421750004324771 1.4036655241290188
1.6639321001007499 1.3173405971879808
2.027205243764718 1.3820842923937593
2.410660228743351 1.3605030606584998
2.622569562547332 1.2525969019822023
2.683115086491327 0.9936221211590882
2.5822058799180025 0.6699036451301955
2.501478514659343 0.4325100960423409
2.683115086491327 0.36776640083656237
2.8243879756939814 0.1735353152192268
2.8243879756939814 -0.02069577039810879
2.7234787691206566 -0.5386453320443371
2.6023877212326676 -1.1213385888963439
2.4207511494006835 -1.596125687072053
2.1987508949393697 -1.9630066265714647
1.9666597198207232 -2.308306334335617
1.6841139414154147 -2.739930969040807
1.351113559723444 -3.0204869815991806
0.9878404160594759 -3.0420682133344403
0.5741126691088456 -2.9125808229228833
0.17047584281554773 -2.567281115158731
-0.17261545953375548 -2.135656480453541
-0.3037974280790773 -1.7903567726893885
-0.455161237939064 -1.4450570649252366
-0.636797809771048 -1.0134324302200461
-0.7477979370017049 -0.6033890272501156
-0.7881616196310347 -0.3012517829564824
-0.7477979370017049 -0.042277002133368304
-0.7477979370017049 -0.02069577039810879
-0.7477979370017049 0.0008854613371507181
-0.8487071435750294 0.04404792480766974
-0.9798891121203512 0.08721038827818876
-1.1211620013230055 0.1519540834839673
-1.1211620013230055 0.13037285174870777
-1.0505255567216782 -0.08543946560388732
-0.9798891121203512 -0.3228330146917419
-0.9798891121203512 -0.38757670989752047
-1.0303437154070134 -0.3444142464270014
-1.040434636064346 -0.3444142464270014
-1.040434636064346 -0.19334562428018487
-1.0303437154070134 -0.17176439254492537
-1.0908892393510081 -0.02069577039810879
-1.1615256839523354 0.4109288643070814
-1.131252921980338 0.6699036451301955
-1.040434636064346 0.4540913277776004
-1.0202527947496811 -0.17176439254492537
-1.0908892393510081 -0.8623638080732297
-1.1413438426376703 -1.4450570649252366
-1.0807983186936756 -1.6608693822778315
-1.040434636064346 -1.5313819918662746
-1.040434636064346 -1.3155696745136793
-1.0505255567216782 -1.0781761254258249
-1.040434636064346 -0.9055262715437487
-1.040434636064346 -0.7328764176616727
-1.1009801600083406 -0.452320405103299
-1.111071080665673 -0.15018316080966584
-1.0606164773790108 -0.15018316080966584
-0.9798891121203512 -0.2796705512212229
-0.9395254294910215 -0.40915794163277996
-0.9697981914630188 -0.38757670989752047
-1.040434636064346 -0.40915794163277996
-1.0606164773790108 -0.19334562428018487
-1.0807983186936756 0.0008854613371507181
-1.1009801600083406 0.21669777868974582
-1.0807983186936756 0.4540913277776004
-1.0707073980363433 0.6699036451301955
-1.0707073980363433 0.7562285720712336
-1.040434636064346 0.7130661086007145
-1.0101618740923486 0.561997486453898
-0.9899800327776836 0.36776640083656237
-0.9597072708056863 0.32460393736604337
-1.0101618740923486 0.49725379124811947
-1.0303437154070134 0.8425534990122716
-1.0202527947496811 1.2310156702469428
-1.000070953435016 1.5547341462758355
-0.9193435881763565 1.5978966097463545
-0.8991617468616916 1.4252467558642783
-0.8890708262043592 1.1015282798353858
-0.9092526675190241 0.7778098038064931
-0.8890708262043592 0.648322413394936
-0.8285253022603645 0.4540913277776004
-0.7881616196310347 0.10879162001344826
-0.7780706989737023 -0.06385823386862781
-0.7578888576590374 -0.08543946560388732
-0.7175251750297076 0.022466693072410227
-0.6670705717430454 0.1951165469544863
-0.6267068891137155 0.4756725595128599
-0.6166159684563831 0.734647340335974
-0.5762522858270533 0.9072971942180501
-0.5762522858270533 0.7562285720712336
-0.5560704445123884 0.605159949924417
-0.5257976825403912 0.4109288643070814
-0.4450703172817315 0.23827901042500532
-0.364342952023072 0.2814414738955244
-0.31388834873640975 0.1735353152192268
-0.32397926939374216 0.1951165469544863
-0.32397926939374216 0.2598602421602648
-0.34416111070840705 0.4540913277776004
-0.27352466610707993 0.7130661086007145
-0.2432519041350826 0.9072971942180501
-0.25334282479241504 0.9288784259533096
-0.2432519041350826 0.9936221211590882
-0.25334282479241504 1.1878532067764238
-0.22307006282041772 1.3605030606584998
-0.21297914216308525 1.2310156702469428
-0.22307006282041772 0.734647340335974
-0.2432519041350826 0.04404792480766974
-0.22307006282041772 -0.2580893194859634
-0.22307006282041772 -0.3228330146917419
-0.23316098347775016 -0.02069577039810879
-0.18270638019108792 0.2598602421602648
-0.16252453887642304 0.2814414738955244
-0.2028882215057528 0.1951165469544863
-0.25334282479241504 -0.12860192907440635
-0.2432519041350826 -0.3012517829564824
-0.23316098347775016 -0.10702069733914683
-0.21297914216308525 0.21669777868974582
-0.23316098347775016 0.4756725595128599
-0.25334282479241504 0.691484876865455
-0.2937065074217448 0.691484876865455
-0.33407019005107463 0.5188350229833789
-0.38452479333773687 0.4325100960423409
-0.3744338726804044 0.3893476325718219
-0.2937065074217448 0.3893476325718219
-0.27352466610707993 0.1735353152192268
-0.2836155867644124 -0.02069577039810879
-0.3542520313657395 -0.2580893194859634
-0.3542520313657395 -0.21492685601544437
-0.33407019005107463 -0.10702069733914683
-0.3037974280790773 0.13037285174870777
-0.34416111070840705 0.3030227056307839
-0.32397926939374216 0.4109288643070814
-0.33407019005107463 0.4325100960423409
-0.31388834873640975 0.2598602421602648
-0.2432519041350826 0.10879162001344826
-0.22307006282041772 -0.08543946560388732
-0.22307006282041772 -0.06385823386862781
-0.2634337454497475 0.04404792480766974
-0.2937065074217448 0.10879162001344826
-0.31388834873640975 0.13037285174870777
-0.2836155867644124 0.1951165469544863
-0.21297914216308525 0.1735353152192268
-0.2432519041350826 0.21669777868974582
-0.2634337454497475 0.3030227056307839
-0.3037974280790773 0.4756725595128599
-0.2937065074217448 0.734647340335974
-0.21297914216308525 0.9072971942180501
-0.1322517769044257 0.9072971942180501
-0.05152441164576611 0.8209722672770121
-0.0010698083591038797 0.648322413394936
0.019112032955561013 0.34618516910130287
0.15029400150088282 0.06562915654292925
0.3420214939901993 -0.12860192907440635
0.4732034625355211 -0.06385823386862781
0.5438399071368483 0.0008854613371507181
0.5741126691088456 0.08721038827818876
0.6245672723955078 0.13037285174870777
0.6346581930528402 0.13037285174870777
0.5337489864795159 0.08721038827818876
0.25120320807420726 0.04404792480766974
-0.2634337454497475 -0.02069577039810879
-0.8688889848896943 -0.02069577039810879
-1.4642533036723087 -0.06385823386862781
-1.9385265745669336 0.0008854613371507181
-2.321981559545567 0.10879162001344826
-2.5843454966362103 0.5188350229833789
-2.7256183858388643 1.1015282798353858
-2.7962548304401915 1.662640304952133
-2.8568003543841862 2.1158461713925827
-2.887073116356184 2.3748209522156967
-2.887073116356184 2.6985394282445894
-2.9072549576708484 3.13016406294978
-2.9072549576708484 3.6912760880665267
-2.937527719642846 4.338713040124312
-2.937527719642846 5.007731223917357
-2.9476186403001785 5.396193395152028
-2.917345878328181 5.698330639445661
-2.887073116356184 5.914142956798257
-2.8769821956988513 5.957305420268775
-2.897164037013516 6.022049115474554
-2.8769821956988513 6.216280201091889
-2.7962548304401915 6.173117737621371
-2.735709306496197 5.978886652004035
-2.6045273379508753 5.568843249034105
-2.5237999726922156 5.0724749191231355
-2.422890766118891 4.597687820947426
-2.352254321517564 4.44661919880061
-2.2513451149442396 4.40345673533009
-2.13025406705625 4.46820043053587
-1.988981177853596 4.338713040124312
-1.8275264473362767 4.144481954506976
-1.605526192874963 3.863925941948603
-1.3431622557843192 3.5186262341844508
-1.0807983186936756 3.1733265264202988
-0.7679797783163699 2.979095440802963
-0.455161237939064 2.849608050391406
-0.14234269756175813 2.547470806097773
0.08974847755688814 2.1158461713925827
0.2814759700462046 1.576315378011095
0.4631125418781887 0.9504596576885691
0.6447491137101727 0.34618516910130287
0.8364766061994892 -0.042277002133368304
0.9373858127728136 -0.17176439254492537
0.967658574744811 -0.3228330146917419
1.0181131780314732 -0.40915794163277996
1.1190223846047977 -0.3444142464270014
1.2098406705207898 -0.3012517829564824
1.260295273807452 -0.08543946560388732
1.2804771151221168 -0.06385823386862781
1.330931718408779 -0.3444142464270014
1.4318409249821036 -0.5818077955148561
1.4822955282687658 -0.9271075032790083
1.4722046076114335 -1.4450570649252366
1.5428410522127605 -1.811938004424648
1.7042957827300795 -2.135656480453541
1.8758414339047311 -2.1572377121888002
1.8960232752193962 -2.0493315535125025
1.916205116534061 -1.768775540954129
1.9767506404780557 -1.4882195283957556
2.1079326090233774 -1.1645010523668629
2.208841815596702 -0.9055262715437487
2.299660101512694 -0.6897139541911536
2.3501147047993562 -0.5602265637795966
2.521660355974008 -0.2580893194859634
2.733569689777989 -0.19334562428018487
2.9353881029246383 -0.7112951859264132
3.0564791508126277 -1.6177069188073125
3.1170246747566224 -2.351468797806136
3.2582975639592764 -2.8478371277171046
3.4197522944765955 -3.1715556037459973
3.611479786965912 -3.2578805306870353
3.772934517483231 -3.0204869815991806
3.883934644713888 -2.6751872738350286
4.035298454573875 -2.5456998834234716
4.136207661147199 -2.5025374199529526
4.247207788377856 -2.394631261276655
4.338026074293849 -2.373050029541395
4.479298963496502 -2.524118651688212
4.650844614671154 -2.653606042099769
4.782026583216476 -2.7615122007760666
4.852663027817803 -2.9557432863934023
4.8829357897898005 -3.1715556037459973
4.953572234391127 -3.322624225892814
5.014117758335122 -3.365786689363333
5.024208678992455 -3.408949152833852
4.993935917020457 -3.4305303845691113
4.933390393076462 -3.4305303845691113
4.9031176311044655 -3.2147180672165163
4.862753948475135 -3.1068119085402186
4.832481186503138 -3.0852306768049593
4.792117503873809 -3.0852306768049593
4.701299217957816 -3.0852306768049593
4.570117249412495 -2.9557432863934023
4.358207915608513 -2.61044357862925
4.196753185091194 -2.394631261276655
4.09584397851787 -2.0709127852477622
3.9343892480005502 -1.9845878583067242
3.7830254381405637 -2.0493315535125025
3.5812070249939145 -2.480956188217693
3.429843215133928 -2.9773245181286616
3.3087521672459386 -3.2794617624222946
3.2179338813299467 -3.322624225892814
3.046388230155295 -3.1499743720107376
2.844569817008646 -2.9773245181286616
2.501478514659343 -2.8046746642465856
2.2895691808553615 -2.5456998834234716
2.168478132967372 -2.221981407394579
2.0473870850793827 -1.7903567726893885
