0.17516139843726708 -0.46839049695782414
0.04961045667022305 -0.46839049695782414
0.04961045667022305 -0.5015980521541343
0.028685299709049043 -0.4517867193596691
-0.01316501421329897 -0.43518294176151395
0.007760142747875037 -0.4185791641633589
0.04961045667022305 -0.35216405377073856
0.11238592755374507 -0.28574894337811824
0.1960865553984411 -0.28574894337811824
0.25886202628196314 -0.26914516577996317
0.30071234020431115 -0.28574894337811824
0.30071234020431115 -0.25254138818180805
0.2379368693207891 -0.3023527209762733
0.30071234020431115 -0.3023527209762733
0.2170117123596151 -0.36876783136889363
0.2797871832431371 -0.3023527209762733
0.2797871832431371 -0.3023527209762733
0.2379368693207891 -0.25254138818180805
0.34256265412665915 -0.20273005538734282
0.38441296804900715 -0.10310738979841234
0.4471884389325292 -0.03669227940579201
0.4890387528548772 -0.03669227940579201
0.4890387528548772 -0.06989983460210218
0.5308890667772252 -0.02008850180763693
0.5727393806995732 -0.03669227940579201
0.5518142237383992 -0.0034847242094818505
0.5936645376607472 -0.02008850180763693
0.6564400085442692 -0.0034847242094818505
0.7192154794277913 0.04632660858498339
0.7401406363889652 0.06293038618313848
0.7819909503113133 0.16255305177206897
0.8656915781560093 0.2289681621646893
0.9284670490395314 0.3119870501554647
0.9912425199230533 0.3451946053517749
1.1167934616900974 0.3451946053517749
1.0749431477677494 0.36179838294992994
1.0958683047289233 0.27877949495915455
1.1586437756124455 0.44481727094070533
1.2004940895347933 0.378402160548085
1.2423444034571414 0.44481727094070533
1.2423444034571414 0.5112323813333257
1.3678953452241855 0.577647491725946
1.4097456591465334 0.6938739349130316
1.5352966009135776 0.776892822903807
1.5980720717970995 0.7602890453056519
1.6399223857194476 0.8765154884927375
1.7026978566029696 0.8931192660908925
1.7654733274864916 0.8765154884927375
1.7026978566029696 0.9263268212872027
1.7445481705253176 0.9097230436890477
1.7654733274864916 0.9263268212872027
1.8491739553311877 0.9429305988853578
1.8282487983700135 0.9429305988853578
1.8910242692535357 1.0425532644742883
1.9119494262147096 1.0259494868761332
1.9956500540594058 1.1089683748669086
2.0165752110205797 1.1753834852595288
2.0584255249429275 1.158779707661374
2.1212009958264497 1.191987262857684
2.0375003679817536 1.1089683748669086
2.0375003679817536 1.0923645972687535
1.9747248970982316 1.0923645972687535
2.0165752110205797 1.009345709277978
1.9747248970982316 1.009345709277978
1.9328745831758836 0.9429305988853578
1.8491739553311877 0.8599117108945824
1.8491739553311877 0.8931192660908925
1.8073236414088396 0.8599117108945824
1.7654733274864916 0.8267041556982723
1.7236230135641435 0.7602890453056519
1.5562217578747515 0.6606663797167214
1.4097456591465334 0.561043714127791
1.3678953452241855 0.42821349334255027
1.1795689325736194 0.3119870501554647
1.1377186186512713 0.2621757173609994
0.9912425199230533 0.1293454965757588
0.8447664211948352 0.06293038618313848
0.7401406363889652 -0.0034847242094818505
0.6982903224666173 -0.06989983460210218
0.6355148515830953 -0.11971116739656743
0.5518142237383992 -0.16952250019103265
0.5518142237383992 -0.20273005538734282
0.46811359589370316 -0.25254138818180805
0.4053381250101812 -0.3023527209762733
0.3216374971654851 -0.4185791641633589
0.2379368693207891 -0.5015980521541343
0.11238592755374507 -0.5182018297522893
0.07053561363139706 -0.5514093849485996
-0.01316501421329897 -0.6012207177430647
-0.05501532813564698 -0.5514093849485996
0.007760142747875037 -0.5846169401449097
0.007760142747875037 -0.5680131625467546
-0.03409017117447297 -0.6178244953412199
0.09146077059257106 -0.634428272939375
-0.03409017117447297 -0.6676358281356851
-0.05501532813564698 -0.7008433833319953
-0.05501532813564698 -0.7174471609301504
-0.096865642057995 -0.7838622713227706
-0.138715955980343 -0.8170698265190809
-0.138715955980343 -0.8170698265190809
-0.18056626990269103 -0.7838622713227706
-0.159641112941517 -0.7506547161264605
-0.096865642057995 -0.7008433833319953
-0.159641112941517 -0.7340509385283054
-0.07594048509682098 -0.6842396057338402
-0.05501532813564698 -0.6676358281356851
-0.03409017117447297 -0.7174471609301504
-0.138715955980343 -0.7506547161264605
-0.07594048509682098 -0.850277381715391
-0.138715955980343 -0.8336736041172359
-0.159641112941517 -0.8668811593135461
-0.20149142686386504 -0.8170698265190809
-0.20149142686386504 -0.8170698265190809
-0.18056626990269103 -0.7672584937246156
-0.117790799019169 -0.7672584937246156
-0.096865642057995 -0.7672584937246156
-0.03409017117447297 -0.7008433833319953
0.07053561363139706 -0.7174471609301504
-0.03409017117447297 -0.7174471609301504
-0.01316501421329897 -0.7008433833319953
-0.05501532813564698 -0.7340509385283054
-0.138715955980343 -0.7506547161264605
-0.096865642057995 -0.8004660489209258
-0.096865642057995 -0.7838622713227706
-0.138715955980343 -0.7838622713227706
-0.18056626990269103 -0.7174471609301504
-0.117790799019169 -0.7506547161264605
-0.03409017117447297 -0.6676358281356851
-0.01316501421329897 -0.6178244953412199
0.028685299709049043 -0.6012207177430647
0.028685299709049043 -0.6676358281356851
-0.01316501421329897 -0.6178244953412199
-0.01316501421329897 -0.634428272939375
-0.096865642057995 -0.7174471609301504
-0.117790799019169 -0.7506547161264605
-0.138715955980343 -0.7174471609301504
-0.138715955980343 -0.7174471609301504
-0.138715955980343 -0.7008433833319953
-0.117790799019169 -0.6178244953412199
-0.03409017117447297 -0.634428272939375
-0.096865642057995 -0.6178244953412199
-0.01316501421329897 -0.6012207177430647
-0.01316501421329897 -0.6676358281356851
-0.03409017117447297 -0.634428272939375
-0.07594048509682098 -0.7174471609301504
-0.096865642057995 -0.7340509385283054
-0.20149142686386504 -0.7340509385283054
-0.18056626990269103 -0.8170698265190809
-0.22241658382503904 -0.7672584937246156
-0.24334174078621304 -0.7340509385283054
-0.159641112941517 -0.7340509385283054
-0.138715955980343 -0.6676358281356851
-0.138715955980343 -0.7008433833319953
-0.117790799019169 -0.6842396057338402
-0.18056626990269103 -0.7008433833319953
-0.159641112941517 -0.7506547161264605
-0.159641112941517 -0.7838622713227706
-0.20149142686386504 -0.8170698265190809
-0.26426689774738704 -0.8834849369117012
-0.24334174078621304 -0.9166924921080113
-0.28519205470856107 -0.9166924921080113
-0.30611721166973505 -0.850277381715391
-0.24334174078621304 -0.8336736041172359
-0.26426689774738704 -0.8170698265190809
-0.24334174078621304 -0.7340509385283054
-0.20149142686386504 -0.7340509385283054
-0.18056626990269103 -0.7506547161264605
-0.20149142686386504 -0.8170698265190809
-0.22241658382503904 -0.8004660489209258
-0.3270423686309091 -0.8668811593135461
-0.3688926825532571 -0.9166924921080113
-0.3688926825532571 -0.9000887145098563
-0.4316681534367791 -0.9000887145098563
-0.49444362432030114 -0.9000887145098563
-0.4316681534367791 -0.7506547161264605
-0.34796752559208305 -0.7340509385283054
-0.34796752559208305 -0.7672584937246156
-0.26426689774738704 -0.7008433833319953
-0.3270423686309091 -0.7506547161264605
-0.26426689774738704 -0.8336736041172359
-0.30611721166973505 -0.8336736041172359
-0.3898178395144311 -0.8336736041172359
-0.3898178395144311 -0.8336736041172359
-0.3898178395144311 -0.8834849369117012
-0.4735184673591271 -0.8336736041172359
-0.5153687812814751 -0.8170698265190809
-0.4525933103979531 -0.7506547161264605
-0.4316681534367791 -0.8004660489209258
-0.3688926825532571 -0.7672584937246156
-0.3270423686309091 -0.7506547161264605
-0.4316681534367791 -0.7506547161264605
-0.4316681534367791 -0.8336736041172359
-0.4107429964756051 -0.850277381715391
-0.4107429964756051 -0.850277381715391
-0.49444362432030114 -0.8668811593135461
-0.49444362432030114 -0.8834849369117012
-0.5572190952038232 -0.8834849369117012
-0.4735184673591271 -0.8170698265190809
-0.4316681534367791 -0.850277381715391
-0.4107429964756051 -0.7506547161264605
-0.4107429964756051 -0.7506547161264605
-0.30611721166973505 -0.7008433833319953
-0.34796752559208305 -0.7672584937246156
-0.3688926825532571 -0.8170698265190809
-0.3898178395144311 -0.8336736041172359
-0.4735184673591271 -0.9000887145098563
-0.4735184673591271 -0.850277381715391
-0.4525933103979531 -0.8834849369117012
-0.5153687812814751 -0.8668811593135461
-0.49444362432030114 -0.8668811593135461
-0.49444362432030114 -0.8004660489209258
-0.4316681534367791 -0.8170698265190809
-0.34796752559208305 -0.7672584937246156
-0.30611721166973505 -0.7838622713227706
-0.34796752559208305 -0.7672584937246156
-0.3898178395144311 -0.7838622713227706
-0.3270423686309091 -0.8336736041172359
-0.3898178395144311 -0.9000887145098563
-0.4316681534367791 -0.9166924921080113
-0.4525933103979531 -0.9332962697061664
-0.49444362432030114 -0.8834849369117012
-0.4735184673591271 -0.9000887145098563
-0.4316681534367791 -0.9166924921080113
-0.34796752559208305 -0.8336736041172359
-0.34796752559208305 -0.7672584937246156
-0.30611721166973505 -0.8170698265190809
-0.28519205470856107 -0.7838622713227706
-0.3270423686309091 -0.8336736041172359
-0.34796752559208305 -0.8668811593135461
-0.4107429964756051 -0.9166924921080113
-0.4107429964756051 -0.9332962697061664
-0.3898178395144311 -0.9499000473043215
-0.4735184673591271 -0.9166924921080113
-0.4107429964756051 -0.850277381715391
-0.4107429964756051 -0.850277381715391
-0.3270423686309091 -0.8004660489209258
-0.30611721166973505 -0.8004660489209258
-0.28519205470856107 -0.850277381715391
-0.3270423686309091 -0.7672584937246156
-0.3270423686309091 -0.8170698265190809
-0.3688926825532571 -0.8668811593135461
-0.4107429964756051 -0.8834849369117012
-0.4107429964756051 -0.8834849369117012
-0.4525933103979531 -0.9000887145098563
-0.4316681534367791 -0.9499000473043215
-0.49444362432030114 -0.9166924921080113
-0.4525933103979531 -0.8336736041172359
-0.3898178395144311 -0.850277381715391
-0.4316681534367791 -0.7340509385283054
-0.34796752559208305 -0.7672584937246156
-0.34796752559208305 -0.7838622713227706
-0.3898178395144311 -0.7506547161264605
-0.3688926825532571 -0.7506547161264605
-0.34796752559208305 -0.7506547161264605
-0.4107429964756051 -0.8004660489209258
-0.4316681534367791 -0.8668811593135461
-0.4525933103979531 -0.850277381715391
-0.4525933103979531 -0.8004660489209258
-0.4735184673591271 -0.8004660489209258
-0.4316681534367791 -0.7174471609301504
-0.3898178395144311 -0.7174471609301504
-0.34796752559208305 -0.7174471609301504
-0.3898178395144311 -0.7174471609301504
-0.3270423686309091 -0.7340509385283054
-0.4107429964756051 -0.8170698265190809
-0.4525933103979531 -0.8170698265190809
-0.4107429964756051 -0.9000887145098563
-0.49444362432030114 -0.850277381715391
-0.4735184673591271 -0.8336736041172359
-0.49444362432030114 -0.8336736041172359
-0.4735184673591271 -0.7672584937246156
-0.4107429964756051 -0.7340509385283054
-0.3898178395144311 -0.7340509385283054
-0.3270423686309091 -0.7672584937246156
-0.34796752559208305 -0.7340509385283054
-0.3898178395144311 -0.7340509385283054
-0.4107429964756051 -0.8004660489209258
-0.4107429964756051 -0.8170698265190809
-0.4735184673591271 -0.850277381715391
-0.4316681534367791 -0.8170698265190809
-0.4525933103979531 -0.850277381715391
-0.5153687812814751 -0.8170698265190809
-0.4525933103979531 -0.7506547161264605
-0.4735184673591271 -0.7174471609301504
-0.4107429964756051 -0.6842396057338402
-0.30611721166973505 -0.7340509385283054
-0.4107429964756051 -0.7174471609301504
-0.3898178395144311 -0.7008433833319953
-0.4107429964756051 -0.7008433833319953
-0.49444362432030114 -0.8170698265190809
-0.5153687812814751 -0.8170698265190809
-0.49444362432030114 -0.8170698265190809
-0.49444362432030114 -0.7838622713227706
-0.49444362432030114 -0.7174471609301504
-0.4107429964756051 -0.7672584937246156
-0.4107429964756051 -0.7174471609301504
-0.34796752559208305 -0.6842396057338402
-0.34796752559208305 -0.6842396057338402
-0.3270423686309091 -0.6842396057338402
-0.3688926825532571 -0.7008433833319953
-0.3270423686309091 -0.7174471609301504
-0.3270423686309091 -0.7506547161264605
-0.28519205470856107 -0.8170698265190809
-0.24334174078621304 -0.8170698265190809
-0.24334174078621304 -0.8004660489209258
-0.159641112941517 -0.7672584937246156
-0.07594048509682098 -0.7672584937246156
-0.03409017117447297 -0.7008433833319953
-0.03409017117447297 -0.7008433833319953
0.028685299709049043 -0.65103205053753
0.04961045667022305 -0.6676358281356851
0.09146077059257106 -0.65103205053753
0.13331108451491908 -0.6012207177430647
0.13331108451491908 -0.634428272939375
0.15423624147609308 -0.5846169401449097
0.1960865553984411 -0.6178244953412199
0.2379368693207891 -0.5348056073504445
0.2170117123596151 -0.4517867193596691
0.1960865553984411 -0.36876783136889363
0.2797871832431371 -0.26914516577996317
0.2379368693207891 -0.2193338329854979
0.13331108451491908 -0.25254138818180805
0.15423624147609308 -0.20273005538734282
0.15423624147609308 -0.23593761058365298
0.11238592755374507 -0.3189564985744284
0.028685299709049043 -0.3355602761725835
0.007760142747875037 -0.35216405377073856
-0.03409017117447297 -0.35216405377073856
-0.159641112941517 -0.43518294176151395
-0.24334174078621304 -0.4019753865652038
-0.28519205470856107 -0.36876783136889363
-0.24334174078621304 -0.35216405377073856
-0.20149142686386504 -0.36876783136889363
-0.22241658382503904 -0.43518294176151395
-0.28519205470856107 -0.5182018297522893
-0.3270423686309091 -0.5514093849485996
-0.3898178395144311 -0.634428272939375
-0.34796752559208305 -0.7008433833319953
-0.4316681534367791 -0.7008433833319953
-0.4525933103979531 -0.8004660489209258
-0.4735184673591271 -0.6842396057338402
-0.49444362432030114 -0.7174471609301504
-0.49444362432030114 -0.634428272939375
-0.4316681534367791 -0.634428272939375
-0.5362939382426491 -0.6178244953412199
-0.4735184673591271 -0.6676358281356851
-0.4107429964756051 -0.65103205053753
-0.4316681534367791 -0.7174471609301504
-0.5362939382426491 -0.7340509385283054
-0.5362939382426491 -0.7838622713227706
-0.5153687812814751 -0.8170698265190809
-0.5362939382426491 -0.8170698265190809
-0.5781442521649971 -0.8004660489209258
-0.5362939382426491 -0.7672584937246156
-0.5362939382426491 -0.7506547161264605
-0.4525933103979531 -0.6842396057338402
-0.3270423686309091 -0.6676358281356851
-0.30611721166973505 -0.6842396057338402
-0.3688926825532571 -0.7008433833319953
-0.4107429964756051 -0.65103205053753
-0.3688926825532571 -0.7174471609301504
-0.3898178395144311 -0.7340509385283054
-0.30611721166973505 -0.7838622713227706
-0.159641112941517 -0.7838622713227706
0.09146077059257106 -0.65103205053753
0.46811359589370316 -0.43518294176151395
0.9912425199230533 0.029722830986828312
1.5771469148359256 0.6606663797167214
2.183976466709972 1.2417985956521493
2.832656332506366 2.022176142765438
3.188384000846324 2.7527423570842617
3.3557852565357162 3.450101016206775
3.16745884388515 4.047837009740358
2.6443299198558 4.280289896114529
1.8491739553311877 4.164063452927444
0.8447664211948352 3.5165161265993956
-0.30611721166973505 2.5202894707100905
-1.3105247458060874 1.4078363716337001
-2.0638303964083518 0.27877949495915455
-2.4614083786706575 -0.7174471609301504
-2.4614083786706575 -1.2487680440711129
-2.1056807103306996 -1.3151831544637334
-1.7499530419907414 -1.1159378232858723
-1.4360756875731313 -0.7506547161264605
-1.2268241179613915 -0.5348056073504445
-1.0384977053108253 -0.4019753865652038
-0.9129467635437812 -0.38537160896704875
-0.7455455078543892 -0.4849942745559792
-0.7036951939320412 -0.5514093849485996
-0.5572190952038232 -0.5680131625467546
-0.3898178395144311 -0.5514093849485996
-0.28519205470856107 -0.5182018297522893
-0.22241658382503904 -0.4517867193596691
-0.28519205470856107 -0.46839049695782414
-0.34796752559208305 -0.46839049695782414
-0.3898178395144311 -0.5182018297522893
-0.34796752559208305 -0.5348056073504445
-0.3898178395144311 -0.6012207177430647
-0.4107429964756051 -0.65103205053753
-0.3898178395144311 -0.65103205053753
-0.34796752559208305 -0.634428272939375
-0.28519205470856107 -0.6178244953412199
-0.30611721166973505 -0.5514093849485996
-0.20149142686386504 -0.46839049695782414
-0.138715955980343 -0.4849942745559792
-0.07594048509682098 -0.4517867193596691
-0.117790799019169 -0.4517867193596691
-0.18056626990269103 -0.4849942745559792
-0.18056626990269103 -0.5182018297522893
-0.20149142686386504 -0.5348056073504445
-0.18056626990269103 -0.5514093849485996
-0.24334174078621304 -0.5846169401449097
-0.18056626990269103 -0.5015980521541343
-0.20149142686386504 -0.5182018297522893
-0.138715955980343 -0.4849942745559792
-0.05501532813564698 -0.4185791641633589
-0.01316501421329897 -0.4019753865652038
0.028685299709049043 -0.4517867193596691
-0.05501532813564698 -0.35216405377073856
-0.07594048509682098 -0.43518294176151395
-0.01316501421329897 -0.4019753865652038
-0.07594048509682098 -0.4517867193596691
-0.01316501421329897 -0.4517867193596691
-0.03409017117447297 -0.4849942745559792
-0.07594048509682098 -0.4517867193596691
-0.05501532813564698 -0.4185791641633589
-0.07594048509682098 -0.38537160896704875
-0.01316501421329897 -0.26914516577996317
0.007760142747875037 -0.28574894337811824
0.11238592755374507 -0.3023527209762733
0.11238592755374507 -0.25254138818180805
0.09146077059257106 -0.26914516577996317
0.04961045667022305 -0.3023527209762733
0.028685299709049043 -0.26914516577996317
0.07053561363139706 -0.28574894337811824
0.09146077059257106 -0.26914516577996317
0.07053561363139706 -0.26914516577996317
0.09146077059257106 -0.23593761058365298
0.1960865553984411 -0.18612627778918775
0.2170117123596151 -0.20273005538734282
0.30071234020431115 -0.06989983460210218
0.34256265412665915 -0.053296057003947093
0.34256265412665915 -0.11971116739656743
0.38441296804900715 -0.06989983460210218
0.3634878110878331 -0.053296057003947093
0.38441296804900715 -0.10310738979841234
0.3216374971654851 -0.10310738979841234
0.3216374971654851 -0.053296057003947093
0.2379368693207891 -0.03669227940579201
0.4053381250101812 0.013119053388673231
0.42626328197135516 0.029722830986828312
0.5518142237383992 0.09613794137944864
0.5727393806995732 0.16255305177206897
0.6355148515830953 0.2289681621646893
0.6982903224666173 0.24557193976284436
0.7610657933501392 0.24557193976284436
0.7192154794277913 0.17915682937022404
0.7401406363889652 0.2123643845665342
0.7610657933501392 0.2289681621646893
0.8029161072724873 0.24557193976284436
0.8029161072724873 0.2953832725573096
0.8447664211948352 0.3119870501554647
0.9703173629618793 0.46142104853886046
1.0540179908065754 0.46142104853886046
1.0540179908065754 0.5278361589314807
1.1795689325736194 0.6108550469222561
1.2423444034571414 0.6772701573148765
1.2632695604183155 0.6274588245204112
1.3469701882630114 0.6440626021185664
1.3469701882630114 0.5942512693241011
1.3678953452241855 0.6606663797167214
1.4515959730688814 0.6606663797167214
1.4097456591465334 0.6938739349130316
1.4725211300300556 0.793496600501962
1.5771469148359256 0.776892822903807
1.5980720717970995 0.9097230436890477
1.5980720717970995 0.9595343764835129
1.6817726996417957 1.0259494868761332
1.7026978566029696 1.0259494868761332
1.7654733274864916 1.0425532644742883
1.7863984844476657 1.009345709277978
1.7026978566029696 0.9761381540816679
1.7026978566029696 0.9429305988853578
1.7236230135641435 0.8931192660908925
1.7236230135641435 0.9263268212872027
1.6817726996417957 0.9097230436890477
1.7026978566029696 1.0259494868761332
1.6817726996417957 0.9263268212872027
1.6608475426806215 0.9263268212872027
1.6608475426806215 0.8765154884927375
1.6189972287582735 0.8101003781001171
1.5562217578747515 0.7436852677074968
1.4306708161077075 0.6274588245204112
1.3051198743406633 0.5278361589314807
1.1795689325736194 0.46142104853886046
1.0958683047289233 0.39500593814624013
0.8866167351171833 0.27877949495915455
0.8029161072724873 0.19576060696837913
0.8238412642336613 0.17915682937022404
0.7192154794277913 0.11274171897760372
0.6355148515830953 0.11274171897760372
0.6145896946219213 0.013119053388673231
0.5308890667772252 -0.053296057003947093
0.42626328197135516 -0.16952250019103265
0.3216374971654851 -0.23593761058365298
0.13331108451491908 -0.35216405377073856
0.07053561363139706 -0.4517867193596691
-0.03409017117447297 -0.4849942745559792
-0.07594048509682098 -0.5348056073504445
-0.20149142686386504 -0.6012207177430647
-0.22241658382503904 -0.5514093849485996
-0.20149142686386504 -0.5348056073504445
-0.20149142686386504 -0.5680131625467546
-0.159641112941517 -0.5680131625467546
-0.20149142686386504 -0.6012207177430647
-0.20149142686386504 -0.634428272939375
-0.28519205470856107 -0.7174471609301504
-0.26426689774738704 -0.7340509385283054
-0.3270423686309091 -0.7340509385283054
-0.3898178395144311 -0.7340509385283054
-0.3898178395144311 -0.7672584937246156
-0.3688926825532571 -0.7506547161264605
-0.30611721166973505 -0.7340509385283054
-0.28519205470856107 -0.7174471609301504
-0.30611721166973505 -0.6676358281356851
-0.24334174078621304 -0.7174471609301504
-0.20149142686386504 -0.7340509385283054
-0.28519205470856107 -0.7838622713227706
-0.28519205470856107 -0.7672584937246156
-0.30611721166973505 -0.8170698265190809
-0.3270423686309091 -0.850277381715391
-0.3270423686309091 -0.8834849369117012
-0.3688926825532571 -0.8336736041172359
-0.3270423686309091 -0.8170698265190809
-0.3688926825532571 -0.8004660489209258
-0.3270423686309091 -0.7506547161264605
-0.28519205470856107 -0.7174471609301504
-0.24334174078621304 -0.7838622713227706
-0.22241658382503904 -0.7506547161264605
-0.24334174078621304 -0.7838622713227706
-0.24334174078621304 -0.8004660489209258
-0.26426689774738704 -0.8336736041172359
-0.28519205470856107 -0.850277381715391
-0.34796752559208305 -0.8668811593135461
-0.3898178395144311 -0.9166924921080113
-0.3270423686309091 -0.8668811593135461
-0.3270423686309091 -0.8004660489209258
-0.30611721166973505 -0.8004660489209258
-0.26426689774738704 -0.8004660489209258
-0.22241658382503904 -0.7506547161264605
-0.30611721166973505 -0.7340509385283054
-0.24334174078621304 -0.7838622713227706
-0.18056626990269103 -0.850277381715391
-0.28519205470856107 -0.8336736041172359
-0.30611721166973505 -0.8668811593135461
-0.3270423686309091 -0.8668811593135461
-0.4316681534367791 -0.8668811593135461
-0.3898178395144311 -0.850277381715391
-0.3898178395144311 -0.7838622713227706
-0.3898178395144311 -0.8004660489209258
-0.28519205470856107 -0.7340509385283054
-0.22241658382503904 -0.7506547161264605
-0.22241658382503904 -0.8004660489209258
-0.24334174078621304 -0.8336736041172359
-0.22241658382503904 -0.850277381715391
-0.34796752559208305 -0.8668811593135461
-0.3688926825532571 -0.9000887145098563
-0.4107429964756051 -0.8834849369117012
-0.4735184673591271 -0.9665038249024765
-0.5153687812814751 -0.9332962697061664
-0.49444362432030114 -0.8834849369117012
-0.4735184673591271 -0.9000887145098563
-0.4316681534367791 -0.8668811593135461
-0.4107429964756051 -0.9000887145098563
-0.4107429964756051 -0.8668811593135461
-0.3898178395144311 -0.9166924921080113
-0.4735184673591271 -0.9499000473043215
-0.5781442521649971 -0.9831076025006317
-0.5572190952038232 -1.032918935295097
-0.6618448800096932 -1.0993340456877172
-0.6199945660873452 -1.032918935295097
-0.5781442521649971 -1.0163151576969418
-0.5572190952038232 -0.9332962697061664
-0.49444362432030114 -0.9831076025006317
-0.4735184673591271 -0.9831076025006317
-0.49444362432030114 -0.9499000473043215
-0.49444362432030114 -0.9166924921080113
-0.4735184673591271 -0.9332962697061664
-0.49444362432030114 -0.9332962697061664
-0.5781442521649971 -1.0163151576969418
-0.5572190952038232 -1.0163151576969418
-0.5990694091261711 -1.0661264904914072
-0.5572190952038232 -1.049522712893252
-0.5990694091261711 -1.0163151576969418
-0.5153687812814751 -1.0163151576969418
-0.5362939382426491 -1.0163151576969418
-0.5362939382426491 -0.9332962697061664
-0.49444362432030114 -0.9499000473043215
-0.5153687812814751 -1.032918935295097
-0.5362939382426491 -1.0163151576969418
-0.5781442521649971 -1.1159378232858723
-0.6199945660873452 -1.1491453784821826
-0.7246203508932152 -1.1159378232858723
-0.6199945660873452 -1.1657491560803375
-0.6409197230485192 -1.1325416008840274
-0.6827700369708671 -1.082730268089562
-0.6199945660873452 -1.0661264904914072
-0.5990694091261711 -1.082730268089562
-0.5153687812814751 -1.0163151576969418
-0.4735184673591271 -1.032918935295097
-0.49444362432030114 -1.032918935295097
-0.5153687812814751 -1.0661264904914072
-0.5362939382426491 -1.0993340456877172
-0.5572190952038232 -1.1325416008840274
-0.5990694091261711 -1.1325416008840274
-0.6618448800096932 -1.1823529336784926
-0.6409197230485192 -1.1823529336784926
-0.6409197230485192 -1.1325416008840274
-0.6199945660873452 -1.0993340456877172
-0.6199945660873452 -1.0661264904914072
-0.5781442521649971 -1.049522712893252
-0.5572190952038232 -1.082730268089562
-0.5362939382426491 -1.0993340456877172
-0.5572190952038232 -1.0661264904914072
-0.5781442521649971 -1.082730268089562
-0.5990694091261711 -1.1657491560803375
-0.6618448800096932 -1.1989567112766477
-0.6409197230485192 -1.1989567112766477
-0.7246203508932152 -1.1989567112766477
-0.6618448800096932 -1.1657491560803375
-0.6618448800096932 -1.1491453784821826
-0.6618448800096932 -1.082730268089562
-0.6618448800096932 -1.1159378232858723
-0.5990694091261711 -1.0661264904914072
-0.6199945660873452 -1.0993340456877172
-0.6199945660873452 -1.1159378232858723
-0.5990694091261711 -1.1823529336784926
-0.6827700369708671 -1.1491453784821826
-0.7036951939320412 -1.2155604888748028
-0.7036951939320412 -1.232164266472958
-0.8083209787379112 -1.2155604888748028
-0.7664706648155633 -1.1657491560803375
-0.6618448800096932 -1.1657491560803375
-0.6827700369708671 -1.1159378232858723
-0.6618448800096932 -1.0661264904914072
-0.6199945660873452 -1.082730268089562
-0.6409197230485192 -1.1159378232858723
-0.6199945660873452 -1.1491453784821826
-0.6409197230485192 -1.1491453784821826
-0.6618448800096932 -1.1657491560803375
-0.7455455078543892 -1.2155604888748028
-0.7246203508932152 -1.2487680440711129
-0.7455455078543892 -1.232164266472958
-0.7664706648155633 -1.1989567112766477
-0.8083209787379112 -1.1491453784821826
-0.7246203508932152 -1.1159378232858723
-0.7246203508932152 -1.1159378232858723
-0.6827700369708671 -1.1159378232858723
-0.6618448800096932 -1.1159378232858723
-0.6409197230485192 -1.1491453784821826
-0.6827700369708671 -1.1823529336784926
-0.7664706648155633 -1.265371821669268
-0.7873958217767372 -1.2155604888748028
-0.8083209787379112 -1.265371821669268
-0.7664706648155633 -1.2487680440711129
-0.8501712926602593 -1.2155604888748028
-0.7873958217767372 -1.2155604888748028
-0.7664706648155633 -1.1491453784821826
-0.7246203508932152 -1.1325416008840274
-0.6199945660873452 -1.082730268089562
-0.6618448800096932 -1.1325416008840274
-0.6618448800096932 -1.1989567112766477
-0.6618448800096932 -1.1823529336784926
-0.7246203508932152 -1.2487680440711129
-0.7664706648155633 -1.1989567112766477
-0.8083209787379112 -1.232164266472958
-0.8292461356990852 -1.2155604888748028
-0.8083209787379112 -1.2155604888748028
-0.7664706648155633 -1.2155604888748028
-0.7246203508932152 -1.1823529336784926
-0.7036951939320412 -1.1491453784821826
-0.6618448800096932 -1.1325416008840274
-0.6199945660873452 -1.1325416008840274
-0.6827700369708671 -1.1657491560803375
-0.7455455078543892 -1.232164266472958
-0.7873958217767372 -1.232164266472958
-0.8083209787379112 -1.2487680440711129
-0.7873958217767372 -1.2487680440711129
-0.7873958217767372 -1.2487680440711129
-0.8083209787379112 -1.2155604888748028
-0.7873958217767372 -1.1989567112766477
-0.7664706648155633 -1.1823529336784926
-0.7664706648155633 -1.1823529336784926
-0.7036951939320412 -1.1823529336784926
-0.6827700369708671 -1.1989567112766477
-0.7036951939320412 -1.2487680440711129
-0.7664706648155633 -1.265371821669268
-0.8501712926602593 -1.3151831544637334
-0.8083209787379112 -1.265371821669268
-0.8292461356990852 -1.2985793768655782
-0.8710964496214333 -1.281975599267423
-0.8292461356990852 -1.2487680440711129
-0.7873958217767372 -1.1823529336784926
-0.7455455078543892 -1.1989567112766477
-0.6618448800096932 -1.1325416008840274
-0.6827700369708671 -1.1491453784821826
-0.6409197230485192 -1.1823529336784926
-0.6827700369708671 -1.1823529336784926
-0.6618448800096932 -1.2487680440711129
-0.7246203508932152 -1.265371821669268
-0.7664706648155633 -1.2487680440711129
-0.8292461356990852 -1.3483907096600434
-0.7664706648155633 -1.232164266472958
-0.7455455078543892 -1.232164266472958
-0.6827700369708671 -1.232164266472958
-0.5781442521649971 -1.1989567112766477
-0.5572190952038232 -1.232164266472958
-0.4316681534367791 -1.1823529336784926
-0.4735184673591271 -1.1989567112766477
-0.4525933103979531 -1.232164266472958
-0.4525933103979531 -1.2155604888748028
-0.49444362432030114 -1.1823529336784926
-0.4735184673591271 -1.1325416008840274
-0.3898178395144311 -1.1325416008840274
-0.34796752559208305 -1.0993340456877172
-0.3270423686309091 -1.0163151576969418
-0.30611721166973505 -1.0163151576969418
-0.20149142686386504 -0.9499000473043215
-0.096865642057995 -0.8668811593135461
-0.07594048509682098 -0.8170698265190809
-0.05501532813564698 -0.7838622713227706
-0.18056626990269103 -0.8004660489209258
-0.28519205470856107 -0.8336736041172359
-0.30611721166973505 -0.850277381715391
-0.3688926825532571 -0.8170698265190809
-0.4316681534367791 -0.9166924921080113
-0.4525933103979531 -0.9000887145098563
-0.4525933103979531 -0.8336736041172359
-0.49444362432030114 -0.8004660489209258
-0.5362939382426491 -0.850277381715391
-0.5990694091261711 -0.8336736041172359
-0.6618448800096932 -0.8834849369117012
-0.6199945660873452 -0.9000887145098563
-0.6827700369708671 -0.9997113800987868
-0.7246203508932152 -1.0993340456877172
-0.7455455078543892 -1.1657491560803375
-0.7664706648155633 -1.1823529336784926
-0.8710964496214333 -1.281975599267423
-0.8920216065826072 -1.232164266472958
-0.9129467635437812 -1.1823529336784926
-0.9338719205049553 -1.1823529336784926
-0.8501712926602593 -1.1491453784821826
-0.8501712926602593 -1.082730268089562
-0.8501712926602593 -1.082730268089562
-0.8710964496214333 -1.0993340456877172
-0.9129467635437812 -1.1491453784821826
-0.8501712926602593 -1.1657491560803375
-0.9129467635437812 -1.265371821669268
-0.8920216065826072 -1.232164266472958
-0.9129467635437812 -1.281975599267423
-1.0175725483496514 -1.2487680440711129
-0.9966473913884772 -1.2155604888748028
-0.9129467635437812 -1.1823529336784926
-0.9129467635437812 -1.1823529336784926
-0.9547970774661293 -1.1491453784821826
-0.8710964496214333 -1.1491453784821826
-0.9129467635437812 -1.1823529336784926
-0.9129467635437812 -1.2155604888748028
-0.9129467635437812 -1.265371821669268
-0.9129467635437812 -1.2487680440711129
-0.9129467635437812 -1.2487680440711129
-0.9547970774661293 -1.281975599267423
-0.9547970774661293 -1.281975599267423
-0.9129467635437812 -1.2155604888748028
-0.7873958217767372 -1.1657491560803375
-0.5572190952038232 -1.0993340456877172
-0.24334174078621304 -0.9166924921080113
0.17516139843726708 -0.634428272939375
0.5936645376607472 -0.26914516577996317
1.1167934616900974 0.3285908277536198
1.4934462869912295 0.9595343764835129
1.8073236414088396 1.5240628148207858
1.8491739553311877 2.022176142765438
1.6399223857194476 2.48708191551378
1.1167934616900974 2.7195348018879515
0.34256265412665915 2.669723469093486
-0.5572190952038232 2.204817696345144
-1.4988511584566535 1.4244401492318552
-2.377707750825962 0.39500593814624013
-3.0891630875058778 -0.8668811593135461
-3.46581591280701 -1.9627304807917816
-3.5285913836905323 -2.693296695110605
-3.193788872311748 -2.942353359082931
-2.796210890049442 -2.6268815847179847
-2.377707750825962 -2.1619758119696426
-2.0847555533695257 -1.7800889272120757
-1.8755039837577856 -1.4314095976508188
-1.6453272571848714 -1.2985793768655782
-1.4570008445343055 -1.1989567112766477
-1.1640486470778693 -1.1657491560803375
-0.9547970774661293 -1.1989567112766477
-0.7664706648155633 -1.1491453784821826
-0.7246203508932152 -1.0661264904914072
-0.6618448800096932 -1.1159378232858723
-0.6618448800096932 -1.1159378232858723
-0.7873958217767372 -1.1823529336784926
-0.8083209787379112 -1.1989567112766477
-0.8083209787379112 -1.1325416008840274
-0.7664706648155633 -1.0993340456877172
-0.8083209787379112 -1.082730268089562
-0.7664706648155633 -1.0661264904914072
-0.7246203508932152 -1.032918935295097
-0.6827700369708671 -1.032918935295097
-0.5990694091261711 -0.9997113800987868
-0.5572190952038232 -1.032918935295097
-0.5990694091261711 -1.0163151576969418
-0.5990694091261711 -1.082730268089562
-0.6618448800096932 -1.0993340456877172
-0.6409197230485192 -1.0993340456877172
-0.6199945660873452 -1.0993340456877172
-0.6618448800096932 -1.1325416008840274
-0.6827700369708671 -1.032918935295097
-0.5572190952038232 -1.049522712893252
-0.5990694091261711 -0.9499000473043215
-0.5362939382426491 -0.9332962697061664
-0.5153687812814751 -0.9166924921080113
-0.5362939382426491 -0.8834849369117012
-0.5362939382426491 -0.8834849369117012
-0.5572190952038232 -0.9831076025006317
-0.5781442521649971 -0.9665038249024765
-0.5990694091261711 -1.0163151576969418
-0.5153687812814751 -1.0163151576969418
-0.4735184673591271 -0.9665038249024765
-0.49444362432030114 -0.9332962697061664
-0.4525933103979531 -0.8170698265190809
-0.3898178395144311 -0.7838622713227706
-0.3270423686309091 -0.7672584937246156
-0.3270423686309091 -0.7506547161264605
-0.30611721166973505 -0.7340509385283054
-0.26426689774738704 -0.7838622713227706
-0.26426689774738704 -0.7340509385283054
-0.24334174078621304 -0.8004660489209258
-0.30611721166973505 -0.7838622713227706
-0.30611721166973505 -0.7672584937246156
-0.3270423686309091 -0.7174471609301504
-0.22241658382503904 -0.6842396057338402
-0.18056626990269103 -0.5846169401449097
-0.22241658382503904 -0.5182018297522893
-0.159641112941517 -0.5182018297522893
-0.096865642057995 -0.4185791641633589
-0.03409017117447297 -0.4185791641633589
-0.03409017117447297 -0.38537160896704875
-0.03409017117447297 -0.4019753865652038
-0.01316501421329897 -0.4517867193596691
-0.03409017117447297 -0.43518294176151395
0.007760142747875037 -0.4185791641633589
0.028685299709049043 -0.3189564985744284
0.09146077059257106 -0.25254138818180805
0.15423624147609308 -0.23593761058365298
0.2379368693207891 -0.1363149449947225
0.3216374971654851 -0.06989983460210218
0.4471884389325292 -0.03669227940579201
0.4471884389325292 0.013119053388673231
0.5308890667772252 0.013119053388673231
0.4890387528548772 0.04632660858498339
0.5099639098160512 0.04632660858498339
0.5308890667772252 0.09613794137944864
0.5727393806995732 0.09613794137944864
0.6355148515830953 0.16255305177206897
0.7401406363889652 0.2289681621646893
0.8029161072724873 0.27877949495915455
0.9493922060007053 0.4116097157443952
0.9912425199230533 0.5112323813333257
1.1167934616900974 0.5444399365296358
1.2214192464959674 0.577647491725946
1.2423444034571414 0.6772701573148765
1.2632695604183155 0.6108550469222561
1.2214192464959674 0.6440626021185664
1.3469701882630114 0.6938739349130316
1.3260450313018375 0.7104777125111866
1.3469701882630114 0.7270814901093418
1.3888205021853595 0.793496600501962
1.4306708161077075 0.8433079332964273
1.4515959730688814 0.9097230436890477
1.5352966009135776 0.992741931679823
1.6608475426806215 1.0425532644742883
1.6817726996417957 1.009345709277978
1.7236230135641435 0.992741931679823
1.6608475426806215 1.009345709277978
1.6399223857194476 0.9263268212872027
1.6399223857194476 0.8599117108945824
1.5771469148359256 0.8765154884927375
1.5352966009135776 0.8433079332964273
1.5143714439524034 0.8433079332964273
1.5143714439524034 0.8101003781001171
1.4515959730688814 0.793496600501962
1.4306708161077075 0.7104777125111866
1.3888205021853595 0.7104777125111866
1.3051198743406633 0.6108550469222561
1.2841947173794894 0.561043714127791
1.1377186186512713 0.378402160548085
1.0749431477677494 0.3285908277536198
0.9493922060007053 0.17915682937022404
0.8656915781560093 0.09613794137944864
0.6982903224666173 -0.0034847242094818505
0.6145896946219213 -0.053296057003947093
0.5518142237383992 -0.10310738979841234
0.5099639098160512 -0.16952250019103265
0.42626328197135516 -0.2193338329854979
0.38441296804900715 -0.26914516577996317
0.2797871832431371 -0.35216405377073856
0.1960865553984411 -0.5015980521541343
0.11238592755374507 -0.5514093849485996
0.007760142747875037 -0.65103205053753
-0.117790799019169 -0.7008433833319953
-0.22241658382503904 -0.7506547161264605
-0.22241658382503904 -0.8170698265190809
-0.28519205470856107 -0.7506547161264605
-0.34796752559208305 -0.7672584937246156
-0.28519205470856107 -0.8004660489209258
-0.3270423686309091 -0.8004660489209258
-0.30611721166973505 -0.850277381715391
-0.26426689774738704 -0.8004660489209258
-0.26426689774738704 -0.8668811593135461
-0.28519205470856107 -0.9166924921080113
-0.30611721166973505 -0.9831076025006317
-0.3688926825532571 -0.9831076025006317
-0.3898178395144311 -0.9831076025006317
-0.3898178395144311 -0.9997113800987868
-0.4525933103979531 -0.9997113800987868
-0.4316681534367791 -0.9166924921080113
-0.34796752559208305 -0.9332962697061664
-0.34796752559208305 -0.8834849369117012
-0.34796752559208305 -0.9000887145098563
-0.3688926825532571 -0.9166924921080113
-0.3270423686309091 -0.9499000473043215
-0.3688926825532571 -0.9831076025006317
-0.3898178395144311 -1.0163151576969418
-0.4316681534367791 -1.0163151576969418
-0.4735184673591271 -1.049522712893252
-0.4735184673591271 -1.032918935295097
-0.49444362432030114 -0.9997113800987868
-0.5153687812814751 -0.9831076025006317
-0.4525933103979531 -0.9166924921080113
-0.4525933103979531 -0.9166924921080113
-0.3898178395144311 -0.8834849369117012
-0.34796752559208305 -0.8834849369117012
-0.34796752559208305 -0.9499000473043215
-0.30611721166973505 -0.9499000473043215
-0.3688926825532571 -0.9831076025006317
-0.4316681534367791 -1.0163151576969418
-0.4525933103979531 -1.0163151576969418
-0.4525933103979531 -0.9665038249024765
-0.4107429964756051 -0.9332962697061664
-0.4316681534367791 -0.9332962697061664
-0.3688926825532571 -0.8668811593135461
-0.4316681534367791 -0.850277381715391
-0.3270423686309091 -0.850277381715391
-0.24334174078621304 -0.8336736041172359
-0.26426689774738704 -0.8668811593135461
-0.3270423686309091 -0.9000887145098563
-0.3270423686309091 -0.9166924921080113
-0.4107429964756051 -0.9332962697061664
-0.4107429964756051 -0.9665038249024765
-0.4316681534367791 -0.9665038249024765
-0.3898178395144311 -0.9000887145098563
-0.4107429964756051 -0.9499000473043215
-0.3688926825532571 -0.9166924921080113
-0.34796752559208305 -0.8834849369117012
-0.34796752559208305 -0.8668811593135461
-0.3688926825532571 -0.9166924921080113
-0.4107429964756051 -0.9166924921080113
-0.3688926825532571 -0.9332962697061664
-0.4107429964756051 -0.9332962697061664
-0.4316681534367791 -0.9997113800987868
-0.4316681534367791 -0.9332962697061664
-0.49444362432030114 -0.9332962697061664
-0.4107429964756051 -0.9831076025006317
-0.4735184673591271 -0.9000887145098563
-0.4316681534367791 -0.9499000473043215
-0.4107429964756051 -0.9000887145098563
-0.4107429964756051 -0.9166924921080113
-0.3688926825532571 -0.9332962697061664
-0.4525933103979531 -0.9499000473043215
-0.4525933103979531 -0.9665038249024765
-0.4735184673591271 -0.9997113800987868
-0.4735184673591271 -1.032918935295097
-0.5362939382426491 -1.032918935295097
-0.5781442521649971 -0.9831076025006317
-0.5781442521649971 -1.0163151576969418
-0.5572190952038232 -0.9831076025006317
-0.4735184673591271 -0.9665038249024765
-0.4107429964756051 -0.8834849369117012
-0.4107429964756051 -0.9332962697061664
-0.4525933103979531 -0.9332962697061664
-0.4107429964756051 -0.9499000473043215
-0.4316681534367791 -1.0163151576969418
-0.4525933103979531 -0.9499000473043215
-0.5153687812814751 -1.049522712893252
-0.5153687812814751 -1.1159378232858723
-0.5781442521649971 -1.049522712893252
-0.5572190952038232 -0.9831076025006317
-0.5572190952038232 -0.9831076025006317
-0.5781442521649971 -0.9499000473043215
-0.5153687812814751 -0.9499000473043215
-0.4316681534367791 -0.9499000473043215
-0.4525933103979531 -0.9000887145098563
-0.4107429964756051 -0.9831076025006317
-0.4107429964756051 -0.9997113800987868
-0.49444362432030114 -1.0661264904914072
-0.5362939382426491 -1.032918935295097
-0.5990694091261711 -1.049522712893252
-0.5990694091261711 -1.049522712893252
-0.5362939382426491 -0.9997113800987868
-0.5572190952038232 -0.9831076025006317
-0.5990694091261711 -0.9831076025006317
-0.5362939382426491 -0.9166924921080113
-0.5153687812814751 -0.9997113800987868
-0.4525933103979531 -0.9332962697061664
-0.4735184673591271 -0.9831076025006317
-0.4735184673591271 -0.9665038249024765
-0.5990694091261711 -0.9997113800987868
-0.6199945660873452 -1.049522712893252
-0.5781442521649971 -1.049522712893252
-0.6409197230485192 -1.032918935295097
-0.5990694091261711 -1.0661264904914072
-0.6199945660873452 -0.9499000473043215
-0.5990694091261711 -0.9665038249024765
-0.5362939382426491 -0.9332962697061664
-0.5153687812814751 -0.9000887145098563
-0.4316681534367791 -0.9665038249024765
-0.49444362432030114 -0.9499000473043215
-0.4735184673591271 -0.9499000473043215
-0.5990694091261711 -1.032918935295097
-0.5572190952038232 -0.9831076025006317
-0.5781442521649971 -1.032918935295097
-0.6618448800096932 -0.9997113800987868
-0.5990694091261711 -1.032918935295097
-0.5990694091261711 -0.9499000473043215
-0.5781442521649971 -0.9831076025006317
-0.5572190952038232 -0.9000887145098563
-0.4735184673591271 -0.8668811593135461
-0.4525933103979531 -0.9000887145098563
-0.4107429964756051 -0.9499000473043215
-0.49444362432030114 -0.9000887145098563
-0.5153687812814751 -0.9997113800987868
-0.5362939382426491 -0.9831076025006317
-0.5781442521649971 -0.9831076025006317
-0.6827700369708671 -0.9665038249024765
-0.6618448800096932 -0.9665038249024765
-0.6409197230485192 -0.9332962697061664
-0.6409197230485192 -0.8668811593135461
-0.49444362432030114 -0.8834849369117012
-0.49444362432030114 -0.8336736041172359
-0.4735184673591271 -0.8668811593135461
-0.5153687812814751 -0.8834849369117012
-0.5153687812814751 -0.9166924921080113
-0.5572190952038232 -0.9332962697061664
-0.5153687812814751 -0.9665038249024765
-0.6199945660873452 -0.9831076025006317
-0.6409197230485192 -1.0163151576969418
-0.6409197230485192 -0.9997113800987868
-0.5781442521649971 -0.9166924921080113
-0.5153687812814751 -0.9000887145098563
-0.49444362432030114 -0.8004660489209258
-0.4316681534367791 -0.8170698265190809
-0.49444362432030114 -0.850277381715391
-0.4316681534367791 -0.8336736041172359
-0.4525933103979531 -0.9000887145098563
-0.5362939382426491 -0.9665038249024765
-0.5153687812814751 -0.9997113800987868
-0.5572190952038232 -0.9831076025006317
-0.5572190952038232 -0.9997113800987868
-0.5362939382426491 -0.9997113800987868
-0.5572190952038232 -0.8668811593135461
-0.4735184673591271 -0.8834849369117012
-0.4525933103979531 -0.8668811593135461
-0.4107429964756051 -0.8668811593135461
-0.3898178395144311 -0.8668811593135461
-0.3898178395144311 -0.8170698265190809
-0.3898178395144311 -0.9665038249024765
-0.4316681534367791 -0.9332962697061664
-0.4316681534367791 -0.9831076025006317
-0.5153687812814751 -0.9997113800987868
-0.5153687812814751 -0.9831076025006317
-0.49444362432030114 -0.9166924921080113
-0.49444362432030114 -0.850277381715391
-0.4735184673591271 -0.8170698265190809
-0.3898178395144311 -0.8336736041172359
-0.4107429964756051 -0.7672584937246156
-0.4525933103979531 -0.7506547161264605
-0.4525933103979531 -0.8004660489209258
-0.4525933103979531 -0.8336736041172359
-0.4525933103979531 -0.8834849369117012
-0.4316681534367791 -0.8668811593135461
-0.4735184673591271 -0.9332962697061664
-0.4735184673591271 -0.9332962697061664
-0.5153687812814751 -0.8668811593135461
-0.5362939382426491 -0.850277381715391
-0.3898178395144311 -0.850277381715391
-0.3898178395144311 -0.8004660489209258
-0.3270423686309091 -0.7506547161264605
-0.34796752559208305 -0.7506547161264605
-0.34796752559208305 -0.7838622713227706
-0.3270423686309091 -0.8336736041172359
-0.3898178395144311 -0.8170698265190809
-0.4316681534367791 -0.8336736041172359
-0.4525933103979531 -0.8834849369117012
-0.5153687812814751 -0.8336736041172359
-0.5153687812814751 -0.7672584937246156
-0.49444362432030114 -0.7506547161264605
-0.34796752559208305 -0.7506547161264605
-0.3688926825532571 -0.65103205053753
-0.28519205470856107 -0.6842396057338402
-0.3898178395144311 -0.6676358281356851
-0.26426689774738704 -0.7174471609301504
-0.24334174078621304 -0.7340509385283054
-0.24334174078621304 -0.7672584937246156
-0.30611721166973505 -0.7506547161264605
-0.28519205470856107 -0.8336736041172359
-0.26426689774738704 -0.8336736041172359
-0.22241658382503904 -0.8004660489209258
-0.138715955980343 -0.7838622713227706
-0.096865642057995 -0.7340509385283054
-0.07594048509682098 -0.7340509385283054
-0.03409017117447297 -0.6842396057338402
-0.03409017117447297 -0.6842396057338402
0.04961045667022305 -0.6676358281356851
0.13331108451491908 -0.6178244953412199
0.09146077059257106 -0.634428272939375
0.13331108451491908 -0.65103205053753
0.15423624147609308 -0.6178244953412199
0.1960865553984411 -0.6012207177430647
0.2379368693207891 -0.5182018297522893
0.2797871832431371 -0.46839049695782414
0.2797871832431371 -0.38537160896704875
0.2797871832431371 -0.25254138818180805
0.2379368693207891 -0.2193338329854979
0.13331108451491908 -0.25254138818180805
0.11238592755374507 -0.28574894337811824
0.07053561363139706 -0.3023527209762733
0.04961045667022305 -0.3023527209762733
-0.03409017117447297 -0.3355602761725835
-0.07594048509682098 -0.35216405377073856
-0.07594048509682098 -0.35216405377073856
-0.159641112941517 -0.43518294176151395
-0.22241658382503904 -0.3355602761725835
-0.18056626990269103 -0.4019753865652038
-0.20149142686386504 -0.4019753865652038
-0.22241658382503904 -0.38537160896704875
-0.20149142686386504 -0.4849942745559792
-0.26426689774738704 -0.4849942745559792
-0.34796752559208305 -0.5680131625467546
-0.4107429964756051 -0.6178244953412199
-0.4107429964756051 -0.5846169401449097
-0.4525933103979531 -0.65103205053753
-0.4525933103979531 -0.6676358281356851
-0.4735184673591271 -0.6178244953412199
-0.4735184673591271 -0.6178244953412199
-0.4525933103979531 -0.5846169401449097
-0.4107429964756051 -0.5680131625467546
-0.3898178395144311 -0.6178244953412199
-0.3688926825532571 -0.65103205053753
-0.4316681534367791 -0.634428272939375
-0.4316681534367791 -0.7174471609301504
-0.4316681534367791 -0.7506547161264605
-0.5362939382426491 -0.7838622713227706
-0.5572190952038232 -0.7340509385283054
-0.5153687812814751 -0.7838622713227706
-0.49444362432030114 -0.7506547161264605
-0.4735184673591271 -0.7008433833319953
-0.4316681534367791 -0.7174471609301504
-0.4316681534367791 -0.65103205053753
-0.3688926825532571 -0.6012207177430647
-0.3688926825532571 -0.6842396057338402
-0.34796752559208305 -0.6842396057338402
-0.30611721166973505 -0.65103205053753
-0.34796752559208305 -0.6676358281356851
-0.3898178395144311 -0.7174471609301504
-0.4316681534367791 -0.7340509385283054
-0.34796752559208305 -0.7340509385283054
-0.159641112941517 -0.7340509385283054
0.15423624147609308 -0.6012207177430647
0.4890387528548772 -0.35216405377073856
0.9703173629618793 0.013119053388673231
1.4725211300300556 0.46142104853886046
1.9747248970982316 1.0259494868761332
2.5815544489722777 1.6568930356060263
3.041907902118106 2.3210441395322294
3.37671041349689 2.9353839106639676
3.502261355263934 3.649346347384636
3.313934942613368 4.197271008123754
2.832656332506366 4.512742782488701
2.0584255249429275 4.429723894497925
1.2423444034571414 3.9814218993477377
0.25886202628196314 3.234251907430759
-0.5781442521649971 2.221421473943299
-1.4779260014954794 1.1089683748669086
-2.1056807103306996 -0.02008850180763693
-2.2940071229812657 -0.8336736041172359
-2.1893813381753957 -1.1491453784821826
-1.8964291407189595 -1.0993340456877172
-1.6244021002236975 -0.8336736041172359
-1.3314499027672613 -0.5846169401449097
-1.1012731761943473 -0.3023527209762733
-0.8501712926602593 -0.20273005538734282
-0.5990694091261711 -0.16952250019103265
-0.5153687812814751 -0.20273005538734282
-0.28519205470856107 -0.3023527209762733
-0.138715955980343 -0.3023527209762733
-0.096865642057995 -0.36876783136889363
-0.096865642057995 -0.35216405377073856
-0.05501532813564698 -0.38537160896704875
-0.159641112941517 -0.4019753865652038
-0.20149142686386504 -0.43518294176151395
-0.24334174078621304 -0.43518294176151395
-0.30611721166973505 -0.4849942745559792
-0.24334174078621304 -0.4517867193596691
-0.22241658382503904 -0.4185791641633589
-0.117790799019169 -0.36876783136889363
-0.096865642057995 -0.3189564985744284
0.04961045667022305 -0.3189564985744284
0.007760142747875037 -0.3355602761725835
0.028685299709049043 -0.3189564985744284
-0.03409017117447297 -0.36876783136889363
0.007760142747875037 -0.35216405377073856
-0.05501532813564698 -0.38537160896704875
-0.01316501421329897 -0.38537160896704875
-0.096865642057995 -0.36876783136889363
-0.07594048509682098 -0.3355602761725835
-0.07594048509682098 -0.3355602761725835
-0.01316501421329897 -0.25254138818180805
-0.07594048509682098 -0.25254138818180805
0.07053561363139706 -0.16952250019103265
0.09146077059257106 -0.23593761058365298
0.13331108451491908 -0.2193338329854979
0.17516139843726708 -0.20273005538734282
0.15423624147609308 -0.2193338329854979
0.09146077059257106 -0.28574894337811824
0.028685299709049043 -0.26914516577996317
-0.03409017117447297 -0.26914516577996317
-0.01316501421329897 -0.2193338329854979
0.07053561363139706 -0.16952250019103265
0.13331108451491908 -0.18612627778918775
0.17516139843726708 -0.11971116739656743
0.1960865553984411 -0.06989983460210218
0.25886202628196314 -0.03669227940579201
0.2379368693207891 -0.11971116739656743
0.2170117123596151 -0.0034847242094818505
0.25886202628196314 -0.06989983460210218
0.25886202628196314 -0.10310738979841234
0.17516139843726708 -0.1363149449947225
0.17516139843726708 -0.08650361220025726
0.1960865553984411 -0.053296057003947093
0.25886202628196314 0.013119053388673231
0.34256265412665915 0.04632660858498339
0.4053381250101812 0.09613794137944864
0.42626328197135516 0.16255305177206897
0.4471884389325292 0.09613794137944864
0.4890387528548772 0.11274171897760372
0.4890387528548772 0.14594927417391387
0.5308890667772252 0.17915682937022404
0.46811359589370316 0.11274171897760372
0.4890387528548772 0.07953416378129356
0.5099639098160512 0.19576060696837913
0.46811359589370316 0.19576060696837913
0.6145896946219213 0.2621757173609994
0.6564400085442692 0.3451946053517749
0.7192154794277913 0.36179838294992994
0.7610657933501392 0.4116097157443952
0.8866167351171833 0.42821349334255027
0.8656915781560093 0.46142104853886046
0.9284670490395314 0.44481727094070533
0.9912425199230533 0.44481727094070533
0.9912425199230533 0.46142104853886046
0.9912425199230533 0.4780248261370155
1.0540179908065754 0.4946286037351706
1.1167934616900974 0.5444399365296358
1.1795689325736194 0.6606663797167214
1.2841947173794894 0.6938739349130316
1.2632695604183155 0.793496600501962
1.4097456591465334 0.9097230436890477
1.5143714439524034 0.8599117108945824
1.5562217578747515 0.8931192660908925
1.6189972287582735 0.9097230436890477
1.5980720717970995 0.9097230436890477
1.6399223857194476 0.9097230436890477
1.6399223857194476 0.8931192660908925
1.7445481705253176 0.9429305988853578
1.7863984844476657 1.009345709277978
1.8282487983700135 1.0757608196705986
1.9328745831758836 1.158779707661374
1.9328745831758836 1.2584023732503042
2.0375003679817536 1.2916099284466145
2.1212009958264497 1.3414212612410799
2.100275838865276 1.2251948180539942
2.1630513097487976 1.2584023732503042
2.1212009958264497 1.2750061508484594
2.0584255249429275 1.2584023732503042
2.0584255249429275 1.3082137060447696
2.079350681904102 1.2584023732503042
2.0375003679817536 1.3248174836429247
2.100275838865276 1.3580250388392348
2.1630513097487976 1.3414212612410799
2.1421261527876236 1.3580250388392348
2.1421261527876236 1.3414212612410799
2.1421261527876236 1.3248174836429247
2.100275838865276 1.2417985956521493
1.9747248970982316 1.1089683748669086
1.8073236414088396 1.0591570420724434
1.7236230135641435 0.9595343764835129
1.6189972287582735 0.8599117108945824
1.4725211300300556 0.776892822903807
1.3469701882630114 0.7104777125111866
1.2214192464959674 0.6938739349130316
1.1377186186512713 0.6772701573148765
1.0540179908065754 0.6274588245204112
1.0749431477677494 0.561043714127791
0.9703173629618793 0.378402160548085
0.9075418920783573 0.3451946053517749
0.8029161072724873 0.2621757173609994
0.6355148515830953 0.14594927417391387
0.5518142237383992 0.06293038618313848
0.34256265412665915 -0.0034847242094818505
0.2379368693207891 -0.02008850180763693
0.17516139843726708 -0.03669227940579201
0.17516139843726708 -0.06989983460210218
0.2379368693207891 -0.06989983460210218
0.2379368693207891 -0.08650361220025726
0.25886202628196314 -0.08650361220025726
0.25886202628196314 -0.1363149449947225
0.25886202628196314 -0.16952250019103265
0.1960865553984411 -0.16952250019103265
0.11238592755374507 -0.2193338329854979
0.09146077059257106 -0.23593761058365298
0.028685299709049043 -0.26914516577996317
0.028685299709049043 -0.3023527209762733
-0.01316501421329897 -0.3355602761725835
-0.117790799019169 -0.3023527209762733
-0.03409017117447297 -0.26914516577996317
-0.01316501421329897 -0.23593761058365298
-0.01316501421329897 -0.2193338329854979
0.07053561363139706 -0.2193338329854979
0.028685299709049043 -0.23593761058365298
0.07053561363139706 -0.3189564985744284
0.007760142747875037 -0.28574894337811824
-0.07594048509682098 -0.36876783136889363
-0.03409017117447297 -0.36876783136889363
-0.01316501421329897 -0.3355602761725835
-0.07594048509682098 -0.3355602761725835
-0.117790799019169 -0.28574894337811824
-0.03409017117447297 -0.25254138818180805
0.028685299709049043 -0.25254138818180805
0.028685299709049043 -0.20273005538734282
0.09146077059257106 -0.20273005538734282
0.07053561363139706 -0.2193338329854979
0.028685299709049043 -0.28574894337811824
0.07053561363139706 -0.3355602761725835
-0.01316501421329897 -0.3023527209762733
-0.01316501421329897 -0.3355602761725835
-0.01316501421329897 -0.38537160896704875
-0.03409017117447297 -0.3189564985744284
-0.01316501421329897 -0.28574894337811824
0.04961045667022305 -0.26914516577996317
0.13331108451491908 -0.23593761058365298
0.07053561363139706 -0.18612627778918775
0.13331108451491908 -0.23593761058365298
0.13331108451491908 -0.23593761058365298
0.17516139843726708 -0.26914516577996317
0.07053561363139706 -0.26914516577996317
0.04961045667022305 -0.26914516577996317
0.028685299709049043 -0.28574894337811824
0.09146077059257106 -0.26914516577996317
0.028685299709049043 -0.23593761058365298
0.09146077059257106 -0.23593761058365298
0.11238592755374507 -0.2193338329854979
0.11238592755374507 -0.18612627778918775
0.15423624147609308 -0.1363149449947225
0.17516139843726708 -0.18612627778918775
0.11238592755374507 -0.2193338329854979
0.13331108451491908 -0.26914516577996317
0.09146077059257106 -0.3023527209762733
0.04961045667022305 -0.3189564985744284
0.04961045667022305 -0.26914516577996317
-0.01316501421329897 -0.26914516577996317
-0.01316501421329897 -0.25254138818180805
0.007760142747875037 -0.20273005538734282
0.028685299709049043 -0.18612627778918775
0.028685299709049043 -0.16952250019103265
-0.01316501421329897 -0.1529187225928776
0.028685299709049043 -0.2193338329854979
-0.01316501421329897 -0.2193338329854979
0.007760142747875037 -0.23593761058365298
-0.07594048509682098 -0.23593761058365298
-0.096865642057995 -0.3023527209762733
-0.159641112941517 -0.26914516577996317
-0.117790799019169 -0.3189564985744284
-0.138715955980343 -0.3023527209762733
-0.117790799019169 -0.2193338329854979
-0.096865642057995 -0.23593761058365298
-0.03409017117447297 -0.18612627778918775
-0.01316501421329897 -0.1529187225928776
-0.05501532813564698 -0.25254138818180805
-0.05501532813564698 -0.2193338329854979
-0.03409017117447297 -0.23593761058365298
-0.03409017117447297 -0.28574894337811824
-0.05501532813564698 -0.3023527209762733
-0.07594048509682098 -0.3355602761725835
-0.159641112941517 -0.35216405377073856
-0.096865642057995 -0.3189564985744284
-0.138715955980343 -0.28574894337811824
-0.117790799019169 -0.28574894337811824
-0.117790799019169 -0.20273005538734282
-0.03409017117447297 -0.18612627778918775
-0.096865642057995 -0.23593761058365298
-0.05501532813564698 -0.25254138818180805
-0.096865642057995 -0.25254138818180805
-0.138715955980343 -0.3023527209762733
-0.18056626990269103 -0.3023527209762733
-0.22241658382503904 -0.3355602761725835
-0.18056626990269103 -0.36876783136889363
-0.34796752559208305 -0.3189564985744284
-0.28519205470856107 -0.28574894337811824
-0.22241658382503904 -0.3023527209762733
-0.18056626990269103 -0.28574894337811824
-0.117790799019169 -0.20273005538734282
-0.07594048509682098 -0.25254138818180805
-0.117790799019169 -0.25254138818180805
-0.159641112941517 -0.3189564985744284
-0.22241658382503904 -0.3189564985744284
-0.18056626990269103 -0.38537160896704875
-0.3270423686309091 -0.35216405377073856
-0.3270423686309091 -0.35216405377073856
-0.3688926825532571 -0.36876783136889363
-0.26426689774738704 -0.28574894337811824
-0.26426689774738704 -0.26914516577996317
-0.28519205470856107 -0.26914516577996317
-0.26426689774738704 -0.2193338329854979
-0.159641112941517 -0.2193338329854979
-0.18056626990269103 -0.23593761058365298
-0.18056626990269103 -0.3023527209762733
-0.26426689774738704 -0.35216405377073856
-0.28519205470856107 -0.3355602761725835
-0.26426689774738704 -0.28574894337811824
-0.30611721166973505 -0.3189564985744284
-0.3688926825532571 -0.28574894337811824
-0.3270423686309091 -0.28574894337811824
-0.3270423686309091 -0.25254138818180805
-0.20149142686386504 -0.20273005538734282
-0.18056626990269103 -0.18612627778918775
-0.159641112941517 -0.20273005538734282
-0.20149142686386504 -0.3355602761725835
-0.159641112941517 -0.25254138818180805
-0.20149142686386504 -0.28574894337811824
-0.26426689774738704 -0.28574894337811824
-0.26426689774738704 -0.26914516577996317
-0.30611721166973505 -0.36876783136889363
-0.26426689774738704 -0.3189564985744284
-0.22241658382503904 -0.3023527209762733
-0.18056626990269103 -0.3023527209762733
-0.22241658382503904 -0.2193338329854979
-0.159641112941517 -0.18612627778918775
-0.138715955980343 -0.23593761058365298
-0.138715955980343 -0.25254138818180805
-0.138715955980343 -0.26914516577996317
-0.138715955980343 -0.23593761058365298
-0.26426689774738704 -0.3023527209762733
-0.18056626990269103 -0.3023527209762733
-0.28519205470856107 -0.35216405377073856
-0.26426689774738704 -0.28574894337811824
-0.26426689774738704 -0.18612627778918775
-0.22241658382503904 -0.2193338329854979
-0.22241658382503904 -0.20273005538734282
-0.18056626990269103 -0.1363149449947225
-0.117790799019169 -0.18612627778918775
-0.18056626990269103 -0.2193338329854979
-0.20149142686386504 -0.23593761058365298
-0.28519205470856107 -0.25254138818180805
-0.26426689774738704 -0.28574894337811824
-0.24334174078621304 -0.26914516577996317
-0.30611721166973505 -0.25254138818180805
-0.24334174078621304 -0.3023527209762733
-0.22241658382503904 -0.28574894337811824
-0.159641112941517 -0.28574894337811824
-0.159641112941517 -0.23593761058365298
-0.159641112941517 -0.16952250019103265
-0.138715955980343 -0.20273005538734282
-0.117790799019169 -0.2193338329854979
-0.159641112941517 -0.2193338329854979
-0.18056626990269103 -0.25254138818180805
-0.22241658382503904 -0.26914516577996317
-0.28519205470856107 -0.26914516577996317
-0.26426689774738704 -0.28574894337811824
-0.26426689774738704 -0.25254138818180805
-0.22241658382503904 -0.20273005538734282
-0.22241658382503904 -0.18612627778918775
-0.28519205470856107 -0.18612627778918775
-0.159641112941517 -0.1529187225928776
-0.138715955980343 -0.16952250019103265
-0.138715955980343 -0.18612627778918775
-0.07594048509682098 -0.20273005538734282
-0.18056626990269103 -0.23593761058365298
-0.30611721166973505 -0.25254138818180805
-0.22241658382503904 -0.28574894337811824
-0.26426689774738704 -0.28574894337811824
-0.28519205470856107 -0.26914516577996317
-0.22241658382503904 -0.23593761058365298
-0.22241658382503904 -0.16952250019103265
-0.24334174078621304 -0.1363149449947225
-0.159641112941517 -0.11971116739656743
-0.18056626990269103 -0.16952250019103265
-0.138715955980343 -0.20273005538734282
-0.18056626990269103 -0.20273005538734282
-0.22241658382503904 -0.2193338329854979
-0.24334174078621304 -0.25254138818180805
-0.26426689774738704 -0.23593761058365298
-0.22241658382503904 -0.26914516577996317
-0.26426689774738704 -0.2193338329854979
-0.22241658382503904 -0.26914516577996317
-0.28519205470856107 -0.2193338329854979
-0.26426689774738704 -0.1529187225928776
-0.18056626990269103 -0.11971116739656743
-0.096865642057995 -0.1363149449947225
-0.117790799019169 -0.16952250019103265
-0.159641112941517 -0.16952250019103265
-0.159641112941517 -0.20273005538734282
-0.20149142686386504 -0.2193338329854979
-0.22241658382503904 -0.25254138818180805
-0.26426689774738704 -0.23593761058365298
-0.22241658382503904 -0.20273005538734282
-0.22241658382503904 -0.1529187225928776
-0.138715955980343 -0.16952250019103265
-0.07594048509682098 -0.10310738979841234
-0.05501532813564698 -0.1363149449947225
-0.03409017117447297 -0.1529187225928776
0.04961045667022305 -0.1363149449947225
0.04961045667022305 -0.18612627778918775
0.07053561363139706 -0.28574894337811824
0.09146077059257106 -0.3023527209762733
0.04961045667022305 -0.25254138818180805
0.04961045667022305 -0.23593761058365298
0.04961045667022305 -0.23593761058365298
0.11238592755374507 -0.10310738979841234
0.2170117123596151 -0.03669227940579201
0.3216374971654851 -0.03669227940579201
0.3634878110878331 0.06293038618313848
0.42626328197135516 -0.02008850180763693
0.46811359589370316 0.029722830986828312
0.46811359589370316 0.09613794137944864
0.4890387528548772 0.11274171897760372
0.42626328197135516 0.1293454965757588
0.3634878110878331 0.16255305177206897
0.3216374971654851 0.2123643845665342
0.25886202628196314 0.2621757173609994
0.2379368693207891 0.24557193976284436
0.30071234020431115 0.27877949495915455
0.1960865553984411 0.27877949495915455
0.25886202628196314 0.27877949495915455
0.2170117123596151 0.2953832725573096
0.15423624147609308 0.2621757173609994
0.09146077059257106 0.19576060696837913
0.04961045667022305 0.17915682937022404
-0.03409017117447297 0.09613794137944864
-0.096865642057995 0.06293038618313848
-0.18056626990269103 0.029722830986828312
-0.24334174078621304 0.013119053388673231
-0.26426689774738704 -0.03669227940579201
-0.159641112941517 -0.0034847242094818505
-0.138715955980343 -0.02008850180763693
-0.117790799019169 -0.0034847242094818505
-0.096865642057995 -0.03669227940579201
-0.138715955980343 -0.053296057003947093
-0.117790799019169 -0.06989983460210218
-0.28519205470856107 -0.08650361220025726
-0.28519205470856107 -0.18612627778918775
-0.34796752559208305 -0.20273005538734282
-0.3688926825532571 -0.2193338329854979
-0.3688926825532571 -0.25254138818180805
-0.34796752559208305 -0.16952250019103265
-0.30611721166973505 -0.20273005538734282
-0.22241658382503904 -0.11971116739656743
-0.18056626990269103 -0.08650361220025726
-0.24334174078621304 -0.11971116739656743
-0.22241658382503904 -0.11971116739656743
-0.20149142686386504 -0.1363149449947225
-0.26426689774738704 -0.2193338329854979
-0.28519205470856107 -0.18612627778918775
-0.3688926825532571 -0.2193338329854979
-0.4107429964756051 -0.23593761058365298
-0.3270423686309091 -0.25254138818180805
-0.28519205470856107 -0.1529187225928776
-0.26426689774738704 -0.1529187225928776
-0.20149142686386504 -0.10310738979841234
-0.138715955980343 -0.06989983460210218
-0.07594048509682098 -0.11971116739656743
0.11238592755374507 -0.1529187225928776
0.38441296804900715 -0.06989983460210218
0.7192154794277913 0.14594927417391387
1.0958683047289233 0.577647491725946
1.5352966009135776 1.0923645972687535
1.9956500540594058 1.6734968132041814
2.53970413504993 2.404063027523005
2.832656332506366 3.0848179090473633
2.874506646428714 3.6991576801791015
2.623404762894626 4.097648342534823
2.0584255249429275 4.230478563320064
1.2423444034571414 3.898403011356962
0.3216374971654851 3.2010443522344487
-0.6409197230485192 2.2712328067377645
-1.5616266293401755 1.191987262857684
-2.2312316520977435 0.06293038618313848
-2.5660341634765276 -0.7672584937246156
-2.503258692593006 -1.2487680440711129
-2.2312316520977435 -1.281975599267423
-1.7918033559130895 -0.9665038249024765
-1.4151505306119574 -0.4849942745559792
-1.1221983331555214 -0.18612627778918775
-0.7873958217767372 -0.02008850180763693
-0.6618448800096932 0.04632660858498339
-0.6409197230485192 -0.02008850180763693
-0.4525933103979531 -0.02008850180763693
-0.34796752559208305 -0.03669227940579201
-0.28519205470856107 -0.06989983460210218
-0.20149142686386504 -0.03669227940579201
-0.159641112941517 0.013119053388673231
-0.096865642057995 -0.02008850180763693
-0.138715955980343 -0.03669227940579201
-0.138715955980343 0.04632660858498339
-0.096865642057995 0.029722830986828312
-0.03409017117447297 0.09613794137944864
-0.01316501421329897 0.013119053388673231
-0.07594048509682098 -0.02008850180763693
-0.03409017117447297 -0.02008850180763693
-0.01316501421329897 -0.053296057003947093
0.007760142747875037 -0.0034847242094818505
-0.03409017117447297 -0.03669227940579201
-0.03409017117447297 -0.03669227940579201
-0.05501532813564698 0.013119053388673231
-0.03409017117447297 0.013119053388673231
0.007760142747875037 0.07953416378129356
0.07053561363139706 0.06293038618313848
0.11238592755374507 0.1293454965757588
0.15423624147609308 0.07953416378129356
0.13331108451491908 0.1293454965757588
0.15423624147609308 0.07953416378129356
0.11238592755374507 0.06293038618313848
0.09146077059257106 0.06293038618313848
0.07053561363139706 0.06293038618313848
0.07053561363139706 0.06293038618313848
0.13331108451491908 0.029722830986828312
0.13331108451491908 0.11274171897760372
0.15423624147609308 0.16255305177206897
0.25886202628196314 0.2123643845665342
0.25886202628196314 0.2123643845665342
0.2379368693207891 0.2289681621646893
0.3216374971654851 0.19576060696837913
0.3216374971654851 0.2289681621646893
0.2797871832431371 0.19576060696837913
0.2797871832431371 0.2123643845665342
0.2379368693207891 0.2289681621646893
0.25886202628196314 0.2621757173609994
0.2379368693207891 0.24557193976284436
0.3216374971654851 0.27877949495915455
0.30071234020431115 0.3119870501554647
0.4471884389325292 0.3451946053517749
0.4890387528548772 0.42821349334255027
0.5518142237383992 0.46142104853886046
0.5936645376607472 0.39500593814624013
0.5518142237383992 0.39500593814624013
0.5308890667772252 0.378402160548085
0.5308890667772252 0.36179838294992994
0.5308890667772252 0.39500593814624013
0.4890387528548772 0.4116097157443952
0.4890387528548772 0.42821349334255027
0.5099639098160512 0.4780248261370155
0.5936645376607472 0.4946286037351706
0.6982903224666173 0.577647491725946
0.7192154794277913 0.6772701573148765
0.7610657933501392 0.6606663797167214
0.8866167351171833 0.6938739349130316
0.9075418920783573 0.7104777125111866
0.8656915781560093 0.7270814901093418
0.9284670490395314 0.7104777125111866
0.8447664211948352 0.7602890453056519
0.8029161072724873 0.7602890453056519
0.9493922060007053 0.8267041556982723
0.9912425199230533 0.9097230436890477
1.0749431477677494 0.9595343764835129
1.2004940895347933 1.009345709277978
1.1795689325736194 1.1421759300632188
1.3469701882630114 1.1089683748669086
1.3678953452241855 1.158779707661374
1.4306708161077075 1.158779707661374
1.4306708161077075 1.1255721524650637
1.4725211300300556 1.158779707661374
1.5143714439524034 1.191987262857684
1.5143714439524034 1.2916099284466145
1.6399223857194476 1.391232594035545
1.7236230135641435 1.391232594035545
1.8700991122923616 1.4410439268300101
1.9328745831758836 1.4908552596244755
1.9119494262147096 1.5572703700170958
2.0375003679817536 1.590477925213406
2.079350681904102 1.6402892580078712
2.183976466709972 1.6402892580078712
2.1630513097487976 1.6402892580078712
2.1421261527876236 1.6402892580078712
2.1212009958264497 1.623685480409716
2.1630513097487976 1.6901005908023365
2.183976466709972 1.6901005908023365
2.204901623671146 1.806327033989422
2.288602251515842 1.806327033989422
2.2676770945546676 1.773119478793112
2.2676770945546676 1.773119478793112
2.309527408477016 1.7565157011949568
2.288602251515842 1.7233081459986466
2.288602251515842 1.7067043684004914
2.183976466709972 1.6568930356060263
2.100275838865276 1.5572703700170958
2.0165752110205797 1.4908552596244755
1.8700991122923616 1.4078363716337001
1.8282487983700135 1.391232594035545
1.7445481705253176 1.391232594035545
1.7026978566029696 1.3248174836429247
1.6608475426806215 1.2584023732503042
1.5980720717970995 1.2417985956521493
1.5562217578747515 1.0923645972687535
1.4306708161077075 0.9761381540816679
1.3051198743406633 0.8765154884927375
1.1167934616900974 0.793496600501962
0.9493922060007053 0.6606663797167214
0.9284670490395314 0.5942512693241011
0.7610657933501392 0.4780248261370155
0.6982903224666173 0.4116097157443952
0.6145896946219213 0.39500593814624013
0.5518142237383992 0.3451946053517749
0.5099639098160512 0.36179838294992994
0.5099639098160512 0.3119870501554647
0.42626328197135516 0.2289681621646893
0.34256265412665915 0.19576060696837913
0.30071234020431115 0.16255305177206897
0.30071234020431115 0.06293038618313848
0.2379368693207891 0.013119053388673231
0.17516139843726708 -0.06989983460210218
0.11238592755374507 -0.06989983460210218
0.04961045667022305 -0.10310738979841234
0.09146077059257106 -0.06989983460210218
0.09146077059257106 -0.053296057003947093
0.11238592755374507 -0.02008850180763693
0.11238592755374507 -0.02008850180763693
0.15423624147609308 -0.03669227940579201
0.15423624147609308 -0.06989983460210218
0.11238592755374507 -0.10310738979841234
0.07053561363139706 -0.11971116739656743
-0.01316501421329897 -0.1363149449947225
0.007760142747875037 -0.18612627778918775
-0.05501532813564698 -0.18612627778918775
-0.096865642057995 -0.16952250019103265
-0.05501532813564698 -0.16952250019103265
0.007760142747875037 -0.16952250019103265
0.007760142747875037 -0.08650361220025726
0.09146077059257106 -0.03669227940579201
0.13331108451491908 -0.053296057003947093
0.07053561363139706 -0.053296057003947093
0.09146077059257106 -0.10310738979841234
-0.01316501421329897 -0.16952250019103265
-0.03409017117447297 -0.16952250019103265
-0.05501532813564698 -0.16952250019103265
-0.03409017117447297 -0.18612627778918775
-0.117790799019169 -0.18612627778918775
0.007760142747875037 -0.10310738979841234
0.04961045667022305 -0.10310738979841234
-0.01316501421329897 -0.053296057003947093
0.09146077059257106 -0.03669227940579201
0.13331108451491908 -0.10310738979841234
0.13331108451491908 -0.06989983460210218
0.028685299709049043 -0.1363149449947225
0.07053561363139706 -0.16952250019103265
-0.01316501421329897 -0.1529187225928776
-0.01316501421329897 -0.20273005538734282
-0.03409017117447297 -0.20273005538734282
-0.01316501421329897 -0.1363149449947225
-0.03409017117447297 -0.06989983460210218
-0.01316501421329897 -0.08650361220025726
-0.03409017117447297 -0.03669227940579201
0.028685299709049043 -0.08650361220025726
0.09146077059257106 -0.11971116739656743
0.09146077059257106 -0.08650361220025726
0.07053561363139706 -0.1529187225928776
0.007760142747875037 -0.20273005538734282
-0.03409017117447297 -0.18612627778918775
-0.07594048509682098 -0.1529187225928776
-0.05501532813564698 -0.16952250019103265
-0.07594048509682098 -0.20273005538734282
-0.117790799019169 -0.18612627778918775
-0.07594048509682098 -0.1363149449947225
-0.01316501421329897 -0.06989983460210218
-0.03409017117447297 -0.08650361220025726
0.028685299709049043 -0.06989983460210218
-0.01316501421329897 -0.1363149449947225
-0.01316501421329897 -0.18612627778918775
-0.05501532813564698 -0.20273005538734282
-0.05501532813564698 -0.25254138818180805
-0.138715955980343 -0.2193338329854979
-0.20149142686386504 -0.23593761058365298
-0.20149142686386504 -0.2193338329854979
-0.18056626990269103 -0.18612627778918775
-0.18056626990269103 -0.16952250019103265
-0.159641112941517 -0.18612627778918775
-0.117790799019169 -0.16952250019103265
-0.138715955980343 -0.20273005538734282
-0.138715955980343 -0.18612627778918775
-0.159641112941517 -0.18612627778918775
-0.18056626990269103 -0.23593761058365298
-0.24334174078621304 -0.28574894337811824
-0.34796752559208305 -0.3023527209762733
-0.34796752559208305 -0.3023527209762733
-0.4525933103979531 -0.38537160896704875
-0.4316681534367791 -0.25254138818180805
-0.34796752559208305 -0.26914516577996317
-0.28519205470856107 -0.2193338329854979
-0.20149142686386504 -0.18612627778918775
-0.22241658382503904 -0.2193338329854979
-0.30611721166973505 -0.23593761058365298
-0.28519205470856107 -0.3023527209762733
-0.3270423686309091 -0.28574894337811824
-0.3270423686309091 -0.3189564985744284
-0.34796752559208305 -0.3189564985744284
-0.34796752559208305 -0.3355602761725835
-0.3898178395144311 -0.3355602761725835
-0.30611721166973505 -0.3355602761725835
-0.3688926825532571 -0.26914516577996317
-0.30611721166973505 -0.25254138818180805
-0.26426689774738704 -0.25254138818180805
-0.18056626990269103 -0.20273005538734282
-0.22241658382503904 -0.2193338329854979
-0.24334174078621304 -0.28574894337811824
-0.20149142686386504 -0.26914516577996317
-0.34796752559208305 -0.3355602761725835
-0.3898178395144311 -0.38537160896704875
-0.4316681534367791 -0.35216405377073856
-0.3688926825532571 -0.36876783136889363
-0.34796752559208305 -0.3189564985744284
-0.30611721166973505 -0.28574894337811824
-0.26426689774738704 -0.26914516577996317
-0.28519205470856107 -0.23593761058365298
-0.24334174078621304 -0.23593761058365298
-0.20149142686386504 -0.28574894337811824
-0.22241658382503904 -0.3023527209762733
-0.28519205470856107 -0.3189564985744284
-0.28519205470856107 -0.38537160896704875
-0.3270423686309091 -0.3189564985744284
-0.4107429964756051 -0.38537160896704875
-0.3898178395144311 -0.3355602761725835
-0.30611721166973505 -0.3189564985744284
-0.26426689774738704 -0.3023527209762733
-0.3270423686309091 -0.28574894337811824
-0.22241658382503904 -0.23593761058365298
-0.18056626990269103 -0.26914516577996317
-0.159641112941517 -0.25254138818180805
-0.18056626990269103 -0.26914516577996317
-0.22241658382503904 -0.3189564985744284
-0.30611721166973505 -0.36876783136889363
-0.30611721166973505 -0.35216405377073856
-0.34796752559208305 -0.4019753865652038
-0.34796752559208305 -0.4019753865652038
-0.3270423686309091 -0.3355602761725835
-0.34796752559208305 -0.28574894337811824
-0.30611721166973505 -0.28574894337811824
-0.30611721166973505 -0.26914516577996317
-0.22241658382503904 -0.28574894337811824
-0.26426689774738704 -0.28574894337811824
-0.20149142686386504 -0.3189564985744284
-0.26426689774738704 -0.38537160896704875
-0.26426689774738704 -0.36876783136889363
-0.3270423686309091 -0.4185791641633589
-0.3270423686309091 -0.35216405377073856
-0.4107429964756051 -0.4019753865652038
-0.3688926825532571 -0.3189564985744284
-0.3688926825532571 -0.3189564985744284
-0.30611721166973505 -0.26914516577996317
-0.24334174078621304 -0.25254138818180805
-0.20149142686386504 -0.3189564985744284
-0.20149142686386504 -0.3355602761725835
-0.24334174078621304 -0.3189564985744284
-0.28519205470856107 -0.38537160896704875
-0.28519205470856107 -0.43518294176151395
-0.34796752559208305 -0.38537160896704875
-0.3898178395144311 -0.38537160896704875
-0.3688926825532571 -0.38537160896704875
-0.34796752559208305 -0.36876783136889363
-0.30611721166973505 -0.3355602761725835
-0.3270423686309091 -0.3189564985744284
-0.28519205470856107 -0.26914516577996317
-0.26426689774738704 -0.3189564985744284
-0.20149142686386504 -0.35216405377073856
-0.24334174078621304 -0.4019753865652038
-0.30611721166973505 -0.35216405377073856
-0.3270423686309091 -0.4019753865652038
-0.3898178395144311 -0.4019753865652038
-0.4316681534367791 -0.38537160896704875
-0.3688926825532571 -0.36876783136889363
-0.3898178395144311 -0.35216405377073856
-0.30611721166973505 -0.26914516577996317
-0.30611721166973505 -0.3023527209762733
-0.30611721166973505 -0.3355602761725835
-0.30611721166973505 -0.28574894337811824
-0.26426689774738704 -0.3023527209762733
-0.26426689774738704 -0.3023527209762733
-0.30611721166973505 -0.38537160896704875
-0.3898178395144311 -0.4185791641633589
-0.3688926825532571 -0.36876783136889363
-0.3898178395144311 -0.4185791641633589
-0.3688926825532571 -0.38537160896704875
-0.3688926825532571 -0.3189564985744284
-0.30611721166973505 -0.28574894337811824
-0.30611721166973505 -0.23593761058365298
-0.24334174078621304 -0.23593761058365298
-0.30611721166973505 -0.23593761058365298
-0.26426689774738704 -0.3023527209762733
-0.26426689774738704 -0.3023527209762733
-0.26426689774738704 -0.36876783136889363
-0.34796752559208305 -0.3355602761725835
-0.3270423686309091 -0.38537160896704875
-0.4107429964756051 -0.43518294176151395
-0.4525933103979531 -0.35216405377073856
-0.3898178395144311 -0.3023527209762733
-0.4316681534367791 -0.3189564985744284
-0.3688926825532571 -0.26914516577996317
-0.28519205470856107 -0.28574894337811824
-0.30611721166973505 -0.28574894337811824
-0.24334174078621304 -0.28574894337811824
-0.30611721166973505 -0.3189564985744284
-0.3270423686309091 -0.3355602761725835
-0.3270423686309091 -0.4019753865652038
-0.30611721166973505 -0.36876783136889363
-0.3898178395144311 -0.35216405377073856
-0.3898178395144311 -0.36876783136889363
-0.30611721166973505 -0.3023527209762733
-0.24334174078621304 -0.3023527209762733
-0.138715955980343 -0.3355602761725835
-0.03409017117447297 -0.28574894337811824
0.007760142747875037 -0.3355602761725835
-0.03409017117447297 -0.36876783136889363
-0.01316501421329897 -0.3355602761725835
-0.03409017117447297 -0.3355602761725835
-0.03409017117447297 -0.36876783136889363
-0.096865642057995 -0.3355602761725835
-0.03409017117447297 -0.38537160896704875
0.007760142747875037 -0.3355602761725835
0.15423624147609308 -0.23593761058365298
0.2379368693207891 -0.2193338329854979
0.30071234020431115 -0.11971116739656743
0.34256265412665915 -0.053296057003947093
0.42626328197135516 0.029722830986828312
0.3634878110878331 0.04632660858498339
0.3634878110878331 0.06293038618313848
0.30071234020431115 0.029722830986828312
0.2379368693207891 0.029722830986828312
0.13331108451491908 -0.0034847242094818505
0.028685299709049043 0.029722830986828312
0.007760142747875037 0.029722830986828312
-0.01316501421329897 0.04632660858498339
-0.03409017117447297 0.07953416378129356
-0.05501532813564698 0.07953416378129356
-0.03409017117447297 0.09613794137944864
-0.03409017117447297 0.04632660858498339
-0.07594048509682098 -0.0034847242094818505
-0.138715955980343 -0.06989983460210218
-0.24334174078621304 -0.1529187225928776
-0.3688926825532571 -0.18612627778918775
-0.4107429964756051 -0.25254138818180805
-0.4316681534367791 -0.3189564985744284
-0.49444362432030114 -0.3355602761725835
-0.49444362432030114 -0.28574894337811824
-0.5153687812814751 -0.3023527209762733
-0.3898178395144311 -0.23593761058365298
-0.3270423686309091 -0.23593761058365298
-0.28519205470856107 -0.3023527209762733
-0.3898178395144311 -0.28574894337811824
-0.3688926825532571 -0.3023527209762733
-0.3898178395144311 -0.4019753865652038
-0.4525933103979531 -0.4019753865652038
-0.5362939382426491 -0.4185791641633589
-0.5153687812814751 -0.4517867193596691
-0.5572190952038232 -0.4517867193596691
-0.5781442521649971 -0.4019753865652038
-0.4525933103979531 -0.4019753865652038
-0.4316681534367791 -0.38537160896704875
-0.3898178395144311 -0.36876783136889363
-0.4107429964756051 -0.35216405377073856
-0.3688926825532571 -0.35216405377073856
-0.3688926825532571 -0.43518294176151395
-0.4525933103979531 -0.38537160896704875
-0.49444362432030114 -0.43518294176151395
-0.5153687812814751 -0.46839049695782414
-0.49444362432030114 -0.4517867193596691
-0.5362939382426491 -0.4849942745559792
-0.5153687812814751 -0.4019753865652038
-0.4735184673591271 -0.38537160896704875
-0.4316681534367791 -0.3355602761725835
-0.3688926825532571 -0.3355602761725835
-0.22241658382503904 -0.35216405377073856
-0.05501532813564698 -0.43518294176151395
0.1960865553984411 -0.28574894337811824
0.5727393806995732 -0.06989983460210218
0.9284670490395314 0.27877949495915455
1.4097456591465334 0.793496600501962
1.8282487983700135 1.4078363716337001
2.414153193282886 2.0553836979617484
2.769880861622844 2.6863272466916412
3.000057588195758 3.3338745730196897
3.06283305907928 3.9316105665532723
2.74895570466167 4.3467050065071495
2.0375003679817536 4.3467050065071495
1.2841947173794894 3.9150067889551172
0.4053381250101812 3.267459462627069
-0.6199945660873452 2.3376479171303846
-1.5825517863013494 1.158779707661374
-2.3358574369036136 0.029722830986828312
-2.691585105243572 -0.850277381715391
-2.586959320437702 -1.281975599267423
-2.273081966020092 -1.265371821669268
-1.8755039837577856 -0.8668811593135461
-1.4570008445343055 -0.5015980521541343
-1.1640486470778693 -0.23593761058365298
-0.9966473913884772 -0.10310738979841234
-0.8292461356990852 -0.11971116739656743
-0.7036951939320412 -0.16952250019103265
-0.49444362432030114 -0.25254138818180805
-0.3898178395144311 -0.26914516577996317
-0.30611721166973505 -0.3189564985744284
-0.30611721166973505 -0.35216405377073856
-0.30611721166973505 -0.36876783136889363
-0.34796752559208305 -0.3023527209762733
-0.28519205470856107 -0.28574894337811824
-0.30611721166973505 -0.2193338329854979
-0.26426689774738704 -0.25254138818180805
-0.20149142686386504 -0.23593761058365298
-0.20149142686386504 -0.26914516577996317
-0.22241658382503904 -0.28574894337811824
-0.18056626990269103 -0.35216405377073856
-0.22241658382503904 -0.3355602761725835
-0.26426689774738704 -0.35216405377073856
-0.28519205470856107 -0.36876783136889363
-0.28519205470856107 -0.3189564985744284
-0.30611721166973505 -0.3189564985744284
-0.26426689774738704 -0.23593761058365298
-0.18056626990269103 -0.18612627778918775
-0.05501532813564698 -0.20273005538734282
-0.096865642057995 -0.18612627778918775
-0.05501532813564698 -0.25254138818180805
-0.05501532813564698 -0.2193338329854979
-0.05501532813564698 -0.28574894337811824
-0.07594048509682098 -0.3023527209762733
-0.096865642057995 -0.25254138818180805
-0.159641112941517 -0.25254138818180805
-0.07594048509682098 -0.18612627778918775
-0.117790799019169 -0.25254138818180805
-0.03409017117447297 -0.2193338329854979
-0.05501532813564698 -0.20273005538734282
-0.03409017117447297 -0.10310738979841234
0.007760142747875037 -0.20273005538734282
-0.05501532813564698 -0.20273005538734282
0.028685299709049043 -0.20273005538734282
-0.01316501421329897 -0.1529187225928776
-0.01316501421329897 -0.18612627778918775
-0.03409017117447297 -0.20273005538734282
-0.01316501421329897 -0.20273005538734282
-0.01316501421329897 -0.1529187225928776
0.007760142747875037 -0.1529187225928776
0.04961045667022305 -0.06989983460210218
0.13331108451491908 -0.02008850180763693
0.17516139843726708 0.029722830986828312
0.2379368693207891 0.07953416378129356
0.2379368693207891 0.013119053388673231
0.2797871832431371 0.029722830986828312
0.2379368693207891 -0.0034847242094818505
0.1960865553984411 -0.0034847242094818505
0.2379368693207891 -0.03669227940579201
0.17516139843726708 0.013119053388673231
0.17516139843726708 0.06293038618313848
0.25886202628196314 0.06293038618313848
0.34256265412665915 0.1293454965757588
0.4053381250101812 0.19576060696837913
0.4471884389325292 0.2123643845665342
0.5099639098160512 0.24557193976284436
0.5727393806995732 0.24557193976284436
0.5727393806995732 0.3119870501554647
0.5518142237383992 0.2621757173609994
0.5936645376607472 0.2289681621646893
0.5727393806995732 0.2953832725573096
0.5308890667772252 0.24557193976284436
0.5936645376607472 0.3119870501554647
0.6564400085442692 0.39500593814624013
0.6982903224666173 0.4780248261370155
0.7819909503113133 0.5278361589314807
0.9075418920783573 0.561043714127791
0.9912425199230533 0.6606663797167214
1.0121676768842274 0.5942512693241011
1.0540179908065754 0.6274588245204112
1.0540179908065754 0.6440626021185664
1.0749431477677494 0.6274588245204112
1.0540179908065754 0.7270814901093418
1.1377186186512713 0.7436852677074968
1.1795689325736194 0.7104777125111866
1.2841947173794894 0.8765154884927375
1.3260450313018375 0.8765154884927375
1.3469701882630114 0.9761381540816679
1.4725211300300556 1.0259494868761332
1.5143714439524034 1.0425532644742883
1.5980720717970995 1.0591570420724434
1.6189972287582735 1.0923645972687535
1.6399223857194476 1.1255721524650637
1.6608475426806215 1.1421759300632188
1.6399223857194476 1.1421759300632188
1.5980720717970995 1.1255721524650637
1.6608475426806215 1.1753834852595288
1.6608475426806215 1.208591040455839
1.7445481705253176 1.2251948180539942
1.7445481705253176 1.3248174836429247
1.8282487983700135 1.3248174836429247
1.8491739553311877 1.3746288164373899
1.8700991122923616 1.2750061508484594
1.8282487983700135 1.208591040455839
1.8491739553311877 1.2251948180539942
1.7445481705253176 1.1753834852595288
1.7654733274864916 1.1753834852595288
1.7026978566029696 1.1089683748669086
1.6608475426806215 1.0757608196705986
1.6189972287582735 1.0757608196705986
1.5980720717970995 1.0591570420724434
1.4934462869912295 1.0425532644742883
1.5143714439524034 0.992741931679823
1.4725211300300556 0.8931192660908925
1.2632695604183155 0.8267041556982723
1.2423444034571414 0.7104777125111866
1.1377186186512713 0.6440626021185664
0.9912425199230533 0.4946286037351706
0.8447664211948352 0.39500593814624013
0.7401406363889652 0.2953832725573096
0.6564400085442692 0.3285908277536198
0.6145896946219213 0.2953832725573096
0.5727393806995732 0.2289681621646893
0.42626328197135516 0.19576060696837913
0.38441296804900715 0.14594927417391387
0.30071234020431115 0.06293038618313848
0.2797871832431371 -0.02008850180763693
0.1960865553984411 -0.06989983460210218
0.13331108451491908 -0.1529187225928776
0.028685299709049043 -0.23593761058365298
0.007760142747875037 -0.26914516577996317
-0.138715955980343 -0.35216405377073856
-0.159641112941517 -0.35216405377073856
-0.18056626990269103 -0.35216405377073856
-0.159641112941517 -0.3189564985744284
-0.18056626990269103 -0.28574894337811824
-0.20149142686386504 -0.3189564985744284
-0.18056626990269103 -0.3189564985744284
-0.18056626990269103 -0.38537160896704875
-0.20149142686386504 -0.4185791641633589
-0.26426689774738704 -0.46839049695782414
-0.34796752559208305 -0.4849942745559792
-0.34796752559208305 -0.4849942745559792
-0.3898178395144311 -0.5182018297522893
-0.3898178395144311 -0.5015980521541343
-0.3688926825532571 -0.5015980521541343
-0.3688926825532571 -0.4849942745559792
-0.3270423686309091 -0.4517867193596691
-0.30611721166973505 -0.43518294176151395
-0.28519205470856107 -0.4185791641633589
-0.26426689774738704 -0.4517867193596691
-0.30611721166973505 -0.5182018297522893
-0.30611721166973505 -0.46839049695782414
-0.3270423686309091 -0.5182018297522893
-0.30611721166973505 -0.5182018297522893
-0.3898178395144311 -0.5846169401449097
-0.4107429964756051 -0.5680131625467546
-0.4735184673591271 -0.5015980521541343
-0.3688926825532571 -0.46839049695782414
-0.34796752559208305 -0.4849942745559792
-0.30611721166973505 -0.43518294176151395
-0.30611721166973505 -0.4185791641633589
-0.30611721166973505 -0.4517867193596691
-0.3270423686309091 -0.46839049695782414
-0.3270423686309091 -0.4517867193596691
-0.26426689774738704 -0.5514093849485996
-0.3270423686309091 -0.5015980521541343
-0.3688926825532571 -0.5348056073504445
-0.34796752559208305 -0.5182018297522893
-0.3270423686309091 -0.4517867193596691
-0.28519205470856107 -0.4185791641633589
-0.24334174078621304 -0.38537160896704875
-0.24334174078621304 -0.36876783136889363
-0.28519205470856107 -0.3189564985744284
-0.30611721166973505 -0.36876783136889363
-0.28519205470856107 -0.36876783136889363
-0.26426689774738704 -0.4185791641633589
-0.30611721166973505 -0.4185791641633589
-0.3270423686309091 -0.4849942745559792
-0.3688926825532571 -0.4517867193596691
-0.3898178395144311 -0.43518294176151395
-0.3898178395144311 -0.4019753865652038
-0.3270423686309091 -0.38537160896704875
-0.30611721166973505 -0.38537160896704875
-0.28519205470856107 -0.3355602761725835
-0.3688926825532571 -0.38537160896704875
-0.30611721166973505 -0.36876783136889363
-0.3270423686309091 -0.4019753865652038
-0.4525933103979531 -0.46839049695782414
-0.3688926825532571 -0.46839049695782414
-0.3898178395144311 -0.4517867193596691
-0.4525933103979531 -0.5015980521541343
-0.4316681534367791 -0.5015980521541343
-0.4525933103979531 -0.43518294176151395
-0.4735184673591271 -0.4019753865652038
-0.4735184673591271 -0.4019753865652038
-0.4525933103979531 -0.4019753865652038
-0.3688926825532571 -0.38537160896704875
-0.4107429964756051 -0.43518294176151395
-0.4107429964756051 -0.43518294176151395
-0.4107429964756051 -0.43518294176151395
-0.4107429964756051 -0.5015980521541343
-0.5153687812814751 -0.5514093849485996
-0.5572190952038232 -0.5348056073504445
-0.5572190952038232 -0.4849942745559792
-0.5990694091261711 -0.4849942745559792
-0.5572190952038232 -0.4849942745559792
-0.49444362432030114 -0.43518294176151395
-0.4316681534367791 -0.38537160896704875
-0.5572190952038232 -0.43518294176151395
-0.4735184673591271 -0.43518294176151395
-0.4316681534367791 -0.4849942745559792
-0.5153687812814751 -0.5348056073504445
-0.5362939382426491 -0.5514093849485996
-0.5990694091261711 -0.5348056073504445
-0.6199945660873452 -0.6012207177430647
-0.6618448800096932 -0.5182018297522893
-0.6618448800096932 -0.5348056073504445
-0.6199945660873452 -0.43518294176151395
-0.5572190952038232 -0.46839049695782414
-0.5362939382426491 -0.4185791641633589
-0.49444362432030114 -0.4517867193596691
-0.4525933103979531 -0.46839049695782414
-0.4735184673591271 -0.4849942745559792
-0.49444362432030114 -0.5348056073504445
-0.5153687812814751 -0.5680131625467546
-0.6409197230485192 -0.6012207177430647
-0.5990694091261711 -0.6012207177430647
-0.6618448800096932 -0.5846169401449097
-0.6199945660873452 -0.5348056073504445
-0.5781442521649971 -0.5015980521541343
-0.5362939382426491 -0.5015980521541343
-0.5362939382426491 -0.46839049695782414
-0.5153687812814751 -0.4517867193596691
-0.5362939382426491 -0.5015980521541343
-0.4735184673591271 -0.46839049695782414
-0.5990694091261711 -0.5182018297522893
-0.6199945660873452 -0.5514093849485996
-0.6618448800096932 -0.6012207177430647
-0.6827700369708671 -0.5514093849485996
-0.6409197230485192 -0.5846169401449097
-0.6618448800096932 -0.5680131625467546
-0.6618448800096932 -0.5182018297522893
-0.6827700369708671 -0.4849942745559792
-0.6409197230485192 -0.5015980521541343
-0.5362939382426491 -0.5182018297522893
-0.5572190952038232 -0.5348056073504445
-0.5572190952038232 -0.5680131625467546
-0.5572190952038232 -0.5680131625467546
-0.5990694091261711 -0.65103205053753
-0.6618448800096932 -0.6178244953412199
-0.6827700369708671 -0.7008433833319953
-0.7246203508932152 -0.65103205053753
-0.6827700369708671 -0.5680131625467546
-0.5990694091261711 -0.5680131625467546
-0.5990694091261711 -0.5348056073504445
-0.5362939382426491 -0.5015980521541343
-0.5153687812814751 -0.5182018297522893
-0.49444362432030114 -0.5015980521541343
-0.5572190952038232 -0.5514093849485996
-0.5990694091261711 -0.5514093849485996
-0.5990694091261711 -0.6012207177430647
-0.6827700369708671 -0.6012207177430647
-0.6827700369708671 -0.6012207177430647
-0.6827700369708671 -0.6012207177430647
-0.7036951939320412 -0.5680131625467546
-0.6199945660873452 -0.5348056073504445
-0.6199945660873452 -0.5514093849485996
-0.6409197230485192 -0.5348056073504445
-0.5990694091261711 -0.5015980521541343
-0.6409197230485192 -0.5015980521541343
-0.5990694091261711 -0.5348056073504445
-0.6409197230485192 -0.5680131625467546
-0.5990694091261711 -0.5514093849485996
-0.6409197230485192 -0.5680131625467546
-0.7455455078543892 -0.5846169401449097
-0.7246203508932152 -0.5015980521541343
-0.7036951939320412 -0.46839049695782414
-0.6827700369708671 -0.4849942745559792
-0.6409197230485192 -0.43518294176151395
-0.6618448800096932 -0.43518294176151395
-0.5781442521649971 -0.4517867193596691
-0.5572190952038232 -0.43518294176151395
-0.6199945660873452 -0.46839049695782414
-0.6199945660873452 -0.5015980521541343
-0.6409197230485192 -0.4849942745559792
-0.7036951939320412 -0.5514093849485996
-0.7246203508932152 -0.5680131625467546
-0.7455455078543892 -0.5348056073504445
-0.7036951939320412 -0.5514093849485996
-0.7036951939320412 -0.4849942745559792
-0.6827700369708671 -0.4185791641633589
-0.6409197230485192 -0.46839049695782414
-0.6199945660873452 -0.4019753865652038
-0.6409197230485192 -0.4185791641633589
-0.6409197230485192 -0.46839049695782414
-0.6827700369708671 -0.5348056073504445
-0.6827700369708671 -0.5680131625467546
-0.6409197230485192 -0.5680131625467546
-0.7246203508932152 -0.5514093849485996
-0.6827700369708671 -0.5348056073504445
-0.6618448800096932 -0.5182018297522893
-0.6409197230485192 -0.4849942745559792
-0.6409197230485192 -0.4185791641633589
-0.5990694091261711 -0.4019753865652038
-0.5990694091261711 -0.43518294176151395
-0.5572190952038232 -0.4517867193596691
-0.5153687812814751 -0.5015980521541343
-0.5781442521649971 -0.46839049695782414
-0.6199945660873452 -0.5514093849485996
-0.6618448800096932 -0.5514093849485996
-0.6827700369708671 -0.5680131625467546
-0.6827700369708671 -0.5514093849485996
-0.6618448800096932 -0.4849942745559792
-0.6618448800096932 -0.4849942745559792
-0.6618448800096932 -0.4185791641633589
-0.5572190952038232 -0.4019753865652038
-0.5990694091261711 -0.4185791641633589
-0.49444362432030114 -0.4517867193596691
-0.49444362432030114 -0.4517867193596691
-0.5153687812814751 -0.46839049695782414
-0.5990694091261711 -0.4849942745559792
-0.5990694091261711 -0.5348056073504445
-0.6409197230485192 -0.5182018297522893
-0.6827700369708671 -0.5182018297522893
-0.6827700369708671 -0.46839049695782414
-0.6409197230485192 -0.4517867193596691
-0.6199945660873452 -0.4185791641633589
-0.5153687812814751 -0.35216405377073856
-0.4735184673591271 -0.4517867193596691
-0.49444362432030114 -0.43518294176151395
-0.49444362432030114 -0.46839049695782414
-0.5572190952038232 -0.4849942745559792
-0.5572190952038232 -0.5348056073504445
-0.5572190952038232 -0.5348056073504445
-0.6199945660873452 -0.5680131625467546
-0.6199945660873452 -0.4849942745559792
-0.6409197230485192 -0.43518294176151395
-0.5781442521649971 -0.4517867193596691
-0.5153687812814751 -0.4517867193596691
-0.49444362432030114 -0.4019753865652038
-0.4525933103979531 -0.4019753865652038
-0.4316681534367791 -0.38537160896704875
-0.5153687812814751 -0.4019753865652038
-0.5153687812814751 -0.4849942745559792
-0.5153687812814751 -0.5015980521541343
-0.4316681534367791 -0.5514093849485996
-0.3898178395144311 -0.5348056073504445
-0.3898178395144311 -0.5514093849485996
-0.3898178395144311 -0.5015980521541343
-0.34796752559208305 -0.5015980521541343
-0.24334174078621304 -0.3189564985744284
-0.22241658382503904 -0.35216405377073856
-0.117790799019169 -0.3023527209762733
-0.05501532813564698 -0.35216405377073856
0.007760142747875037 -0.26914516577996317
0.04961045667022305 -0.28574894337811824
0.028685299709049043 -0.26914516577996317
0.028685299709049043 -0.23593761058365298
-0.01316501421329897 -0.23593761058365298
-0.07594048509682098 -0.1363149449947225
-0.096865642057995 -0.06989983460210218
-0.18056626990269103 -0.053296057003947093
-0.18056626990269103 0.013119053388673231
-0.138715955980343 0.07953416378129356
-0.117790799019169 0.06293038618313848
-0.18056626990269103 0.04632660858498339
-0.159641112941517 -0.03669227940579201
-0.22241658382503904 -0.10310738979841234
-0.3898178395144311 -0.08650361220025726
-0.4316681534367791 -0.1363149449947225
-0.4735184673591271 -0.20273005538734282
-0.5572190952038232 -0.23593761058365298
-0.5362939382426491 -0.25254138818180805
-0.6199945660873452 -0.25254138818180805
-0.5153687812814751 -0.26914516577996317
-0.5153687812814751 -0.25254138818180805
-0.5572190952038232 -0.3023527209762733
-0.5572190952038232 -0.3355602761725835
-0.5781442521649971 -0.38537160896704875
-0.5990694091261711 -0.38537160896704875
-0.7246203508932152 -0.4517867193596691
-0.6827700369708671 -0.4517867193596691
-0.7664706648155633 -0.46839049695782414
-0.8292461356990852 -0.5015980521541343
-0.8292461356990852 -0.4517867193596691
-0.7664706648155633 -0.43518294176151395
-0.7036951939320412 -0.43518294176151395
-0.6618448800096932 -0.4185791641633589
-0.6409197230485192 -0.38537160896704875
-0.6827700369708671 -0.4517867193596691
-0.6827700369708671 -0.43518294176151395
-0.7455455078543892 -0.4849942745559792
-0.7664706648155633 -0.5182018297522893
-0.7873958217767372 -0.5514093849485996
-0.7873958217767372 -0.5514093849485996
-0.7455455078543892 -0.4849942745559792
-0.7036951939320412 -0.43518294176151395
-0.7036951939320412 -0.43518294176151395
-0.6618448800096932 -0.38537160896704875
-0.6618448800096932 -0.38537160896704875
-0.5781442521649971 -0.35216405377073856
-0.5572190952038232 -0.43518294176151395
-0.49444362432030114 -0.46839049695782414
-0.3688926825532571 -0.4849942745559792
-0.117790799019169 -0.4185791641633589
0.2379368693207891 -0.1529187225928776
0.6982903224666173 0.2953832725573096
1.2423444034571414 0.8765154884927375
1.8282487983700135 1.5572703700170958
2.3513777223993637 2.287836584335919
2.790806018584018 2.968591465860278
2.95820727427341 3.599535014590171
2.85358148946754 4.114252120132979
2.414153193282886 4.296893673712685
1.6817726996417957 4.197271008123754
0.8447664211948352 3.632742569786481
-0.117790799019169 2.835761245075037
-1.1640486470778693 1.8893459219801974
-1.9173542976801337 0.8101003781001171
-2.398632907787136 -0.20273005538734282
-2.607884477398876 -0.850277381715391
-2.482333535631832 -1.1657491560803375
-2.1056807103306996 -0.9665038249024765
-1.6871775711072194 -0.7174471609301504
-1.3523750597284354 -0.36876783136889363
-1.2686744318837393 -0.2193338329854979
-1.1221983331555214 -0.1529187225928776
-0.9129467635437812 -0.2193338329854979
-0.7873958217767372 -0.28574894337811824
-0.7036951939320412 -0.35216405377073856
-0.5990694091261711 -0.36876783136889363
-0.5153687812814751 -0.38537160896704875
-0.4107429964756051 -0.3023527209762733
-0.4316681534367791 -0.26914516577996317
-0.4316681534367791 -0.3023527209762733
-0.3898178395144311 -0.26914516577996317
-0.4316681534367791 -0.3023527209762733
-0.4107429964756051 -0.28574894337811824
-0.4316681534367791 -0.28574894337811824
-0.4316681534367791 -0.26914516577996317
-0.4316681534367791 -0.3355602761725835
-0.3898178395144311 -0.3355602761725835
-0.4316681534367791 -0.35216405377073856
-0.4525933103979531 -0.3355602761725835
-0.4525933103979531 -0.3189564985744284
-0.34796752559208305 -0.26914516577996317
-0.3688926825532571 -0.20273005538734282
-0.3270423686309091 -0.18612627778918775
-0.26426689774738704 -0.20273005538734282
-0.30611721166973505 -0.25254138818180805
-0.28519205470856107 -0.28574894337811824
-0.26426689774738704 -0.3189564985744284
-0.28519205470856107 -0.3023527209762733
-0.28519205470856107 -0.35216405377073856
-0.28519205470856107 -0.38537160896704875
-0.28519205470856107 -0.3023527209762733
-0.30611721166973505 -0.28574894337811824
-0.28519205470856107 -0.23593761058365298
-0.26426689774738704 -0.18612627778918775
-0.24334174078621304 -0.16952250019103265
-0.159641112941517 -0.20273005538734282
-0.159641112941517 -0.2193338329854979
-0.117790799019169 -0.1529187225928776
-0.117790799019169 -0.2193338329854979
-0.22241658382503904 -0.20273005538734282
-0.159641112941517 -0.20273005538734282
-0.18056626990269103 -0.26914516577996317
-0.26426689774738704 -0.1529187225928776
-0.18056626990269103 -0.1363149449947225
-0.07594048509682098 -0.053296057003947093
-0.117790799019169 -0.053296057003947093
-0.05501532813564698 -0.03669227940579201
0.007760142747875037 -0.0034847242094818505
0.007760142747875037 -0.08650361220025726
0.028685299709049043 -0.02008850180763693
0.007760142747875037 -0.053296057003947093
0.028685299709049043 -0.03669227940579201
0.007760142747875037 -0.06989983460210218
-0.01316501421329897 -0.02008850180763693
-0.01316501421329897 0.04632660858498339
0.04961045667022305 0.06293038618313848
0.04961045667022305 0.09613794137944864
0.11238592755374507 0.16255305177206897
0.1960865553984411 0.17915682937022404
0.2797871832431371 0.17915682937022404
0.2379368693207891 0.2123643845665342
0.25886202628196314 0.19576060696837913
0.2797871832431371 0.16255305177206897
0.34256265412665915 0.17915682937022404
0.3634878110878331 0.14594927417391387
0.34256265412665915 0.2289681621646893
0.38441296804900715 0.27877949495915455
0.42626328197135516 0.3119870501554647
0.5099639098160512 0.378402160548085
0.5308890667772252 0.46142104853886046
0.5936645376607472 0.5112323813333257
0.6145896946219213 0.5444399365296358
0.7192154794277913 0.561043714127791
0.7401406363889652 0.577647491725946
0.6982903224666173 0.5942512693241011
0.8447664211948352 0.6606663797167214
0.8656915781560093 0.6606663797167214
0.9284670490395314 0.6938739349130316
0.9284670490395314 0.7602890453056519
0.9703173629618793 0.8101003781001171
1.1377186186512713 0.9097230436890477
1.2214192464959674 0.9263268212872027
1.3051198743406633 1.009345709277978
1.3888205021853595 1.009345709277978
1.4097456591465334 1.0259494868761332
1.4097456591465334 1.1089683748669086
1.4097456591465334 1.0591570420724434
1.4515959730688814 1.0259494868761332
1.5143714439524034 1.0425532644742883
1.5771469148359256 1.0591570420724434
1.5562217578747515 1.158779707661374
1.5980720717970995 1.1753834852595288
1.6189972287582735 1.208591040455839
1.7026978566029696 1.2750061508484594
1.7863984844476657 1.3414212612410799
1.8491739553311877 1.3248174836429247
1.8282487983700135 1.2916099284466145
1.9119494262147096 1.2750061508484594
1.8282487983700135 1.2584023732503042
1.7445481705253176 1.208591040455839
1.7026978566029696 1.1421759300632188
1.6817726996417957 1.1089683748669086
1.6189972287582735 1.0923645972687535
1.6189972287582735 1.0757608196705986
1.5352966009135776 1.0757608196705986
1.5352966009135776 1.0757608196705986
1.4306708161077075 0.9429305988853578
1.3888205021853595 0.8765154884927375
1.3260450313018375 0.7436852677074968
1.1167934616900974 0.6772701573148765
0.9912425199230533 0.5444399365296358
0.8447664211948352 0.44481727094070533
0.7610657933501392 0.36179838294992994
0.5308890667772252 0.3119870501554647
0.4890387528548772 0.24557193976284436
0.3634878110878331 0.1293454965757588
0.38441296804900715 0.09613794137944864
0.3634878110878331 0.06293038618313848
0.25886202628196314 0.04632660858498339
0.2170117123596151 -0.0034847242094818505
0.07053561363139706 -0.08650361220025726
0.028685299709049043 -0.2193338329854979
-0.07594048509682098 -0.3189564985744284
-0.07594048509682098 -0.38537160896704875
-0.159641112941517 -0.4517867193596691
-0.20149142686386504 -0.4849942745559792
-0.24334174078621304 -0.4849942745559792
-0.28519205470856107 -0.46839049695782414
-0.28519205470856107 -0.4517867193596691
-0.26426689774738704 -0.4517867193596691
-0.22241658382503904 -0.43518294176151395
-0.20149142686386504 -0.4517867193596691
-0.20149142686386504 -0.4517867193596691
-0.24334174078621304 -0.43518294176151395
-0.24334174078621304 -0.46839049695782414
-0.3688926825532571 -0.46839049695782414
-0.3688926825532571 -0.5182018297522893
-0.34796752559208305 -0.5348056073504445
-0.4107429964756051 -0.5182018297522893
-0.34796752559208305 -0.4849942745559792
-0.28519205470856107 -0.46839049695782414
-0.28519205470856107 -0.46839049695782414
-0.30611721166973505 -0.46839049695782414
-0.26426689774738704 -0.43518294176151395
-0.30611721166973505 -0.5182018297522893
-0.3270423686309091 -0.5182018297522893
-0.34796752559208305 -0.5182018297522893
-0.34796752559208305 -0.5514093849485996
-0.4316681534367791 -0.5846169401449097
-0.3898178395144311 -0.5182018297522893
-0.3898178395144311 -0.4849942745559792
-0.3270423686309091 -0.5015980521541343
-0.3270423686309091 -0.43518294176151395
-0.26426689774738704 -0.4019753865652038
-0.26426689774738704 -0.4517867193596691
-0.26426689774738704 -0.4019753865652038
-0.3270423686309091 -0.4019753865652038
-0.26426689774738704 -0.43518294176151395
-0.28519205470856107 -0.46839049695782414
-0.26426689774738704 -0.5182018297522893
-0.3688926825532571 -0.4849942745559792
-0.3898178395144311 -0.5182018297522893
-0.4316681534367791 -0.46839049695782414
-0.4107429964756051 -0.4517867193596691
-0.34796752559208305 -0.4185791641633589
-0.3270423686309091 -0.43518294176151395
-0.28519205470856107 -0.35216405377073856
-0.26426689774738704 -0.36876783136889363
-0.22241658382503904 -0.4019753865652038
-0.30611721166973505 -0.43518294176151395
-0.24334174078621304 -0.4517867193596691
-0.4316681534367791 -0.4517867193596691
-0.34796752559208305 -0.4849942745559792
-0.34796752559208305 -0.5182018297522893
-0.4107429964756051 -0.5348056073504445
-0.3898178395144311 -0.4849942745559792
-0.3898178395144311 -0.4517867193596691
-0.3898178395144311 -0.43518294176151395
-0.28519205470856107 -0.4185791641633589
-0.34796752559208305 -0.38537160896704875
-0.4107429964756051 -0.43518294176151395
-0.3688926825532571 -0.4517867193596691
-0.3898178395144311 -0.5182018297522893
-0.4316681534367791 -0.5182018297522893
-0.4316681534367791 -0.5514093849485996
-0.49444362432030114 -0.5514093849485996
-0.49444362432030114 -0.5015980521541343
-0.5362939382426491 -0.4849942745559792
-0.4735184673591271 -0.4849942745559792
-0.4735184673591271 -0.46839049695782414
-0.4735184673591271 -0.4185791641633589
-0.4735184673591271 -0.4185791641633589
-0.4525933103979531 -0.5182018297522893
-0.5153687812814751 -0.4849942745559792
-0.4735184673591271 -0.5514093849485996
-0.5781442521649971 -0.5680131625467546
-0.5572190952038232 -0.5846169401449097
-0.6409197230485192 -0.5680131625467546
-0.6199945660873452 -0.6178244953412199
-0.5990694091261711 -0.6012207177430647
-0.5572190952038232 -0.6676358281356851
-0.5572190952038232 -0.5514093849485996
-0.5362939382426491 -0.5514093849485996
-0.49444362432030114 -0.5514093849485996
-0.4735184673591271 -0.5514093849485996
-0.5153687812814751 -0.5348056073504445
-0.5362939382426491 -0.6178244953412199
-0.5153687812814751 -0.6012207177430647
-0.5362939382426491 -0.6012207177430647
-0.5990694091261711 -0.6178244953412199
-0.5781442521649971 -0.6178244953412199
-0.5990694091261711 -0.5514093849485996
-0.5781442521649971 -0.5348056073504445
-0.5153687812814751 -0.5514093849485996
-0.49444362432030114 -0.4849942745559792
-0.4525933103979531 -0.5680131625467546
-0.4525933103979531 -0.5680131625467546
-0.49444362432030114 -0.5846169401449097
-0.5572190952038232 -0.7008433833319953
-0.5572190952038232 -0.7008433833319953
-0.6827700369708671 -0.6676358281356851
-0.6618448800096932 -0.7506547161264605
-0.6827700369708671 -0.7174471609301504
-0.6409197230485192 -0.65103205053753
-0.6199945660873452 -0.5680131625467546
-0.5572190952038232 -0.5348056073504445
-0.5153687812814751 -0.5680131625467546
-0.49444362432030114 -0.5348056073504445
-0.5362939382426491 -0.5514093849485996
-0.4735184673591271 -0.5680131625467546
-0.5362939382426491 -0.5846169401449097
-0.5990694091261711 -0.6178244953412199
-0.5990694091261711 -0.6676358281356851
-0.5572190952038232 -0.634428272939375
-0.6199945660873452 -0.6676358281356851
-0.5990694091261711 -0.634428272939375
-0.5990694091261711 -0.6012207177430647
-0.49444362432030114 -0.5846169401449097
-0.49444362432030114 -0.5348056073504445
-0.49444362432030114 -0.5514093849485996
-0.49444362432030114 -0.5846169401449097
-0.5362939382426491 -0.5348056073504445
-0.5781442521649971 -0.634428272939375
-0.6409197230485192 -0.634428272939375
-0.5990694091261711 -0.7008433833319953
-0.5990694091261711 -0.65103205053753
-0.6618448800096932 -0.6676358281356851
-0.5572190952038232 -0.6178244953412199
-0.5990694091261711 -0.5514093849485996
-0.5153687812814751 -0.5182018297522893
-0.5362939382426491 -0.46839049695782414
-0.4525933103979531 -0.5182018297522893
-0.5153687812814751 -0.5514093849485996
-0.5153687812814751 -0.5846169401449097
-0.4735184673591271 -0.6012207177430647
-0.5362939382426491 -0.7174471609301504
-0.49444362432030114 -0.634428272939375
-0.5153687812814751 -0.6842396057338402
-0.5781442521649971 -0.6178244953412199
-0.6409197230485192 -0.5846169401449097
-0.5362939382426491 -0.6178244953412199
-0.5153687812814751 -0.5348056073504445
-0.49444362432030114 -0.5015980521541343
-0.4735184673591271 -0.5348056073504445
-0.4316681534367791 -0.5015980521541343
-0.4107429964756051 -0.6012207177430647
-0.4735184673591271 -0.6012207177430647
-0.5362939382426491 -0.6012207177430647
-0.5362939382426491 -0.6676358281356851
-0.5572190952038232 -0.65103205053753
-0.5362939382426491 -0.6012207177430647
-0.5572190952038232 -0.5348056073504445
-0.49444362432030114 -0.5348056073504445
-0.4735184673591271 -0.4517867193596691
-0.4525933103979531 -0.5015980521541343
-0.3898178395144311 -0.46839049695782414
-0.4735184673591271 -0.5182018297522893
-0.4316681534367791 -0.5015980521541343
-0.49444362432030114 -0.5182018297522893
-0.5362939382426491 -0.5680131625467546
-0.6199945660873452 -0.634428272939375
-0.5990694091261711 -0.634428272939375
-0.49444362432030114 -0.5846169401449097
-0.4525933103979531 -0.5514093849485996
-0.49444362432030114 -0.5015980521541343
-0.3688926825532571 -0.5015980521541343
-0.4107429964756051 -0.46839049695782414
-0.4316681534367791 -0.4849942745559792
-0.4107429964756051 -0.4849942745559792
-0.4525933103979531 -0.5182018297522893
-0.4316681534367791 -0.5846169401449097
-0.4316681534367791 -0.5846169401449097
-0.5362939382426491 -0.65103205053753
-0.5153687812814751 -0.5846169401449097
-0.5781442521649971 -0.5514093849485996
-0.5572190952038232 -0.5846169401449097
-0.5153687812814751 -0.5182018297522893
-0.5153687812814751 -0.4517867193596691
-0.4316681534367791 -0.4849942745559792
-0.4525933103979531 -0.4517867193596691
-0.4107429964756051 -0.5015980521541343
-0.3898178395144311 -0.5182018297522893
-0.4525933103979531 -0.5680131625467546
-0.4525933103979531 -0.6012207177430647
-0.5362939382426491 -0.634428272939375
-0.5781442521649971 -0.6178244953412199
-0.5781442521649971 -0.5846169401449097
-0.5153687812814751 -0.5514093849485996
-0.4735184673591271 -0.5514093849485996
-0.4316681534367791 -0.4849942745559792
-0.3898178395144311 -0.4517867193596691
-0.3688926825532571 -0.46839049695782414
-0.3898178395144311 -0.4849942745559792
-0.4316681534367791 -0.5182018297522893
-0.4107429964756051 -0.6012207177430647
-0.4735184673591271 -0.5846169401449097
-0.49444362432030114 -0.6178244953412199
-0.5362939382426491 -0.6178244953412199
-0.5781442521649971 -0.65103205053753
-0.5362939382426491 -0.5514093849485996
-0.5153687812814751 -0.5348056073504445
-0.4316681534367791 -0.5348056073504445
-0.3270423686309091 -0.5015980521541343
-0.24334174078621304 -0.5348056073504445
-0.20149142686386504 -0.4849942745559792
-0.22241658382503904 -0.5846169401449097
-0.18056626990269103 -0.6012207177430647
-0.22241658382503904 -0.6178244953412199
-0.28519205470856107 -0.5846169401449097
-0.24334174078621304 -0.5182018297522893
-0.18056626990269103 -0.5015980521541343
-0.138715955980343 -0.4849942745559792
-0.03409017117447297 -0.4185791641633589
0.09146077059257106 -0.3023527209762733
0.15423624147609308 -0.26914516577996317
0.2797871832431371 -0.23593761058365298
0.2170117123596151 -0.2193338329854979
0.2170117123596151 -0.1529187225928776
0.15423624147609308 -0.16952250019103265
0.13331108451491908 -0.18612627778918775
0.07053561363139706 -0.18612627778918775
-0.01316501421329897 -0.23593761058365298
-0.05501532813564698 -0.16952250019103265
-0.07594048509682098 -0.1529187225928776
-0.05501532813564698 -0.10310738979841234
-0.117790799019169 -0.1529187225928776
-0.096865642057995 -0.08650361220025726
-0.138715955980343 -0.08650361220025726
-0.24334174078621304 -0.1363149449947225
-0.30611721166973505 -0.16952250019103265
-0.4107429964756051 -0.28574894337811824
-0.4107429964756051 -0.28574894337811824
-0.4525933103979531 -0.4019753865652038
-0.4525933103979531 -0.4517867193596691
-0.4735184673591271 -0.4517867193596691
-0.5362939382426491 -0.46839049695782414
-0.49444362432030114 -0.43518294176151395
-0.4107429964756051 -0.43518294176151395
-0.3898178395144311 -0.4185791641633589
-0.4107429964756051 -0.38537160896704875
-0.3688926825532571 -0.43518294176151395
-0.4316681534367791 -0.5182018297522893
-0.4525933103979531 -0.5015980521541343
-0.5153687812814751 -0.5348056073504445
-0.5572190952038232 -0.6676358281356851
-0.5990694091261711 -0.6012207177430647
-0.5781442521649971 -0.65103205053753
-0.5990694091261711 -0.5846169401449097
-0.6199945660873452 -0.5680131625467546
-0.5362939382426491 -0.5680131625467546
-0.4735184673591271 -0.5348056073504445
-0.4316681534367791 -0.5680131625467546
-0.4525933103979531 -0.5680131625467546
-0.4316681534367791 -0.5182018297522893
-0.4735184673591271 -0.634428272939375
-0.5362939382426491 -0.6012207177430647
-0.5572190952038232 -0.634428272939375
-0.5153687812814751 -0.634428272939375
-0.5572190952038232 -0.65103205053753
-0.5572190952038232 -0.6178244953412199
-0.4735184673591271 -0.5182018297522893
-0.4735184673591271 -0.5348056073504445
-0.3898178395144311 -0.4849942745559792
-0.26426689774738704 -0.4849942745559792
-0.18056626990269103 -0.5015980521541343
0.07053561363139706 -0.4019753865652038
0.38441296804900715 -0.23593761058365298
0.6355148515830953 0.07953416378129356
0.9912425199230533 0.5444399365296358
1.4934462869912295 1.1255721524650637
1.8491739553311877 1.806327033989422
2.100275838865276 2.470478137915625
2.1630513097487976 3.035006576252898
1.8700991122923616 3.4002896834123097
1.3469701882630114 3.450101016206775
0.5518142237383992 3.1014216866455184
-0.4316681534367791 2.4538743603174704
-1.4779260014954794 1.4742514820263204
-2.377707750825962 0.27877949495915455
-3.005462459661182 -0.9000887145098563
-3.25656434319527 -1.863107815202851
-3.110088244467052 -2.278202255156728
-2.7752857330882676 -2.2283909223622627
-2.2521568090589175 -1.8132964824083857
-1.8964291407189595 -1.2155604888748028
-1.5197763154178274 -0.8834849369117012
-1.2686744318837393 -0.65103205053753
-1.0384977053108253 -0.5680131625467546
-0.8920216065826072 -0.5680131625467546
-0.7664706648155633 -0.6178244953412199
-0.5572190952038232 -0.6676358281356851
-0.4107429964756051 -0.6012207177430647
-0.4107429964756051 -0.5680131625467546
-0.4107429964756051 -0.5680131625467546
-0.3688926825532571 -0.5182018297522893
-0.4107429964756051 -0.46839049695782414
-0.4735184673591271 -0.4517867193596691
-0.3898178395144311 -0.43518294176151395
-0.34796752559208305 -0.43518294176151395
-0.3270423686309091 -0.4019753865652038
-0.26426689774738704 -0.4185791641633589
-0.24334174078621304 -0.4185791641633589
-0.24334174078621304 -0.4517867193596691
-0.22241658382503904 -0.4517867193596691
-0.26426689774738704 -0.46839049695782414
-0.26426689774738704 -0.4849942745559792
-0.3270423686309091 -0.4517867193596691
-0.26426689774738704 -0.43518294176151395
-0.34796752559208305 -0.36876783136889363
-0.22241658382503904 -0.35216405377073856
-0.20149142686386504 -0.4019753865652038
-0.07594048509682098 -0.36876783136889363
-0.07594048509682098 -0.3189564985744284
-0.096865642057995 -0.38537160896704875
-0.096865642057995 -0.36876783136889363
-0.096865642057995 -0.4019753865652038
-0.096865642057995 -0.4517867193596691
-0.117790799019169 -0.4185791641633589
-0.159641112941517 -0.35216405377073856
-0.096865642057995 -0.28574894337811824
-0.138715955980343 -0.3355602761725835
-0.138715955980343 -0.26914516577996317
-0.07594048509682098 -0.2193338329854979
0.07053561363139706 -0.20273005538734282
0.07053561363139706 -0.2193338329854979
0.04961045667022305 -0.23593761058365298
0.04961045667022305 -0.25254138818180805
0.04961045667022305 -0.28574894337811824
-0.01316501421329897 -0.3023527209762733
0.007760142747875037 -0.3023527209762733
0.007760142747875037 -0.28574894337811824
0.028685299709049043 -0.26914516577996317
0.09146077059257106 -0.2193338329854979
0.04961045667022305 -0.11971116739656743
0.15423624147609308 -0.11971116739656743
0.2379368693207891 -0.10310738979841234
0.2379368693207891 -0.1529187225928776
0.25886202628196314 -0.18612627778918775
0.25886202628196314 -0.2193338329854979
0.1960865553984411 -0.1363149449947225
0.2170117123596151 -0.1529187225928776
0.2170117123596151 -0.1529187225928776
0.2379368693207891 -0.10310738979841234
0.25886202628196314 -0.08650361220025726
0.34256265412665915 0.029722830986828312
0.34256265412665915 0.06293038618313848
0.4471884389325292 0.16255305177206897
0.5099639098160512 0.1293454965757588
0.5308890667772252 0.19576060696837913
0.5727393806995732 0.2289681621646893
0.5518142237383992 0.19576060696837913
0.46811359589370316 0.2123643845665342
0.5308890667772252 0.2289681621646893
0.5936645376607472 0.2289681621646893
0.6145896946219213 0.2953832725573096
0.6355148515830953 0.3285908277536198
0.6564400085442692 0.39500593814624013
0.7610657933501392 0.42821349334255027
0.9493922060007053 0.5444399365296358
1.0121676768842274 0.561043714127791
1.0749431477677494 0.5942512693241011
1.0749431477677494 0.5942512693241011
1.1167934616900974 0.6274588245204112
1.0749431477677494 0.6772701573148765
1.0958683047289233 0.7270814901093418
1.0958683047289233 0.7104777125111866
1.2423444034571414 0.7602890453056519
1.2214192464959674 0.8433079332964273
1.3469701882630114 0.9097230436890477
1.4097456591465334 0.9429305988853578
1.4515959730688814 1.0425532644742883
1.5143714439524034 1.0425532644742883
1.6608475426806215 1.0923645972687535
1.6817726996417957 1.1089683748669086
1.6608475426806215 1.1255721524650637
1.6608475426806215 1.1089683748669086
1.7236230135641435 1.1255721524650637
1.7236230135641435 1.0923645972687535
1.6608475426806215 1.1255721524650637
1.7026978566029696 1.191987262857684
1.8073236414088396 1.2251948180539942
1.8282487983700135 1.2750061508484594
1.8910242692535357 1.2584023732503042
1.9328745831758836 1.2916099284466145
1.9328745831758836 1.2750061508484594
1.8910242692535357 1.2750061508484594
1.8910242692535357 1.1753834852595288
1.8700991122923616 1.1753834852595288
1.7863984844476657 1.1753834852595288
1.7445481705253176 1.1089683748669086
1.6608475426806215 1.0591570420724434
1.6189972287582735 1.0425532644742883
1.6608475426806215 1.009345709277978
1.5980720717970995 0.9429305988853578
1.5562217578747515 0.9263268212872027
1.5771469148359256 0.8765154884927375
1.5143714439524034 0.6938739349130316
1.4306708161077075 0.6772701573148765
1.2632695604183155 0.5278361589314807
1.1377186186512713 0.46142104853886046
1.0121676768842274 0.378402160548085
0.9284670490395314 0.3285908277536198
0.7819909503113133 0.2123643845665342
0.7192154794277913 0.1293454965757588
0.7401406363889652 0.16255305177206897
0.6564400085442692 0.029722830986828312
0.5727393806995732 0.013119053388673231
0.5727393806995732 -0.053296057003947093
0.4471884389325292 -0.10310738979841234
0.34256265412665915 -0.16952250019103265
0.3216374971654851 -0.25254138818180805
0.13331108451491908 -0.28574894337811824
0.09146077059257106 -0.4019753865652038
0.007760142747875037 -0.46839049695782414
0.04961045667022305 -0.46839049695782414
-0.07594048509682098 -0.5015980521541343
0.007760142747875037 -0.4849942745559792
-0.01316501421329897 -0.4849942745559792
-0.01316501421329897 -0.4849942745559792
0.007760142747875037 -0.5514093849485996
-0.07594048509682098 -0.5348056073504445
-0.07594048509682098 -0.5680131625467546
-0.096865642057995 -0.5680131625467546
-0.138715955980343 -0.7008433833319953
-0.18056626990269103 -0.6676358281356851
-0.20149142686386504 -0.6842396057338402
-0.28519205470856107 -0.6842396057338402
-0.26426689774738704 -0.65103205053753
-0.30611721166973505 -0.65103205053753
-0.24334174078621304 -0.5846169401449097
-0.18056626990269103 -0.5680131625467546
