-0.025090564631052643 -0.040072369978337054
-0.09863061657794127 0.011121618291737601
-0.09863061657794127 0.011121618291737601
-0.11701562956466342 0.011121618291737601
-0.15378565553810775 0.08791260069684959
-0.15378565553810775 0.08791260069684959
-0.15378565553810775 0.13910658896692424
-0.1721706685248299 0.16470358310196156
-0.19055568151155206 0.16470358310196156
-0.19055568151155206 0.1903005772369989
-0.1721706685248299 0.11350959483188691
-0.1354006425513856 0.08791260069684959
-0.1721706685248299 0.036718612426774926
-0.11701562956466342 0.036718612426774926
-0.1354006425513856 -0.014475375843299726
-0.15378565553810775 0.036718612426774926
-0.22732570748499636 0.036718612426774926
-0.22732570748499636 0.11350959483188691
-0.2089406944982742 0.16470358310196156
-0.22732570748499636 0.21589757137203622
-0.1721706685248299 0.21589757137203622
-0.15378565553810775 0.1903005772369989
-0.1354006425513856 0.16470358310196156
-0.1354006425513856 0.08791260069684959
-0.1721706685248299 0.08791260069684959
-0.2089406944982742 0.011121618291737601
-0.24571072047171852 -0.014475375843299726
-0.2824807464451628 0.06231560656181225
-0.2824807464451628 0.036718612426774926
-0.2824807464451628 0.11350959483188691
-0.22732570748499636 0.16470358310196156
-0.2089406944982742 0.16470358310196156
-0.2089406944982742 0.1903005772369989
-0.1354006425513856 0.1903005772369989
-0.1354006425513856 0.21589757137203622
-0.09863061657794127 0.21589757137203622
-0.1354006425513856 0.1903005772369989
-0.15378565553810775 0.13910658896692424
-0.1721706685248299 0.08791260069684959
-0.1721706685248299 0.08791260069684959
-0.1354006425513856 0.11350959483188691
-0.11701562956466342 0.13910658896692424
-0.11701562956466342 0.13910658896692424
-0.09863061657794127 0.21589757137203622
-0.09863061657794127 0.21589757137203622
-0.1354006425513856 0.21589757137203622
-0.19055568151155206 0.1903005772369989
-0.1721706685248299 0.1903005772369989
-0.19055568151155206 0.1903005772369989
-0.2089406944982742 0.13910658896692424
-0.22732570748499636 0.11350959483188691
-0.22732570748499636 0.16470358310196156
-0.22732570748499636 0.13910658896692424
-0.15378565553810775 0.21589757137203622
-0.2089406944982742 0.13910658896692424
-0.11701562956466342 0.1903005772369989
-0.11701562956466342 0.21589757137203622
-0.08024560359121911 0.24149456550707354
-0.06186059060449695 0.21589757137203622
-0.08024560359121911 0.16470358310196156
-0.09863061657794127 0.11350959483188691
-0.15378565553810775 0.11350959483188691
-0.19055568151155206 0.08791260069684959
-0.19055568151155206 0.11350959483188691
-0.15378565553810775 0.08791260069684959
-0.19055568151155206 0.13910658896692424
-0.15378565553810775 0.1903005772369989
-0.11701562956466342 0.24149456550707354
-0.09863061657794127 0.21589757137203622
-0.08024560359121911 0.1903005772369989
-0.08024560359121911 0.1903005772369989
-0.11701562956466342 0.13910658896692424
-0.09863061657794127 0.06231560656181225
-0.2089406944982742 -0.014475375843299726
-0.24571072047171852 0.011121618291737601
-0.3192507724186071 -0.014475375843299726
-0.3192507724186071 0.011121618291737601
-0.2640957334584407 0.06231560656181225
-0.24571072047171852 0.06231560656181225
-0.1721706685248299 0.11350959483188691
-0.11701562956466342 0.08791260069684959
-0.08024560359121911 0.08791260069684959
-0.08024560359121911 0.08791260069684959
-0.06186059060449695 0.06231560656181225
-0.09863061657794127 0.036718612426774926
-0.19055568151155206 0.036718612426774926
-0.24571072047171852 0.036718612426774926
-0.24571072047171852 -0.014475375843299726
-0.22732570748499636 0.036718612426774926
-0.2089406944982742 0.011121618291737601
-0.19055568151155206 0.036718612426774926
-0.15378565553810775 0.08791260069684959
-0.09863061657794127 0.036718612426774926
-0.11701562956466342 0.036718612426774926
-0.08024560359121911 0.08791260069684959
-0.08024560359121911 0.06231560656181225
-0.11701562956466342 0.036718612426774926
-0.11701562956466342 0.011121618291737601
-0.15378565553810775 0.011121618291737601
-0.1721706685248299 -0.040072369978337054
-0.15378565553810775 0.011121618291737601
-0.1354006425513856 0.011121618291737601
-0.06186059060449695 0.06231560656181225
-0.006705551644330489 -0.014475375843299726
-0.025090564631052643 0.036718612426774926
0.011679461342391667 0.011121618291737601
-0.06186059060449695 0.011121618291737601
-0.06186059060449695 -0.040072369978337054
-0.09863061657794127 -0.014475375843299726
-0.1354006425513856 -0.0912663582484117
-0.1721706685248299 -0.0912663582484117
-0.15378565553810775 -0.06566936411337437
-0.1721706685248299 -0.040072369978337054
-0.08024560359121911 -0.014475375843299726
-0.025090564631052643 0.011121618291737601
-0.006705551644330489 -0.014475375843299726
-0.006705551644330489 0.036718612426774926
-0.006705551644330489 0.011121618291737601
-0.08024560359121911 0.011121618291737601
-0.0434755776177748 -0.06566936411337437
-0.0434755776177748 -0.0912663582484117
-0.025090564631052643 -0.0912663582484117
-0.025090564631052643 -0.11686335238344903
-0.006705551644330489 -0.06566936411337437
0.011679461342391667 -0.014475375843299726
-0.025090564631052643 0.011121618291737601
-0.0434755776177748 0.06231560656181225
-0.06186059060449695 0.06231560656181225
-0.006705551644330489 0.08791260069684959
-0.06186059060449695 -0.014475375843299726
-0.0434755776177748 -0.014475375843299726
0.011679461342391667 -0.040072369978337054
0.011679461342391667 -0.040072369978337054
-0.006705551644330489 -0.040072369978337054
-0.025090564631052643 -0.06566936411337437
-0.06186059060449695 -0.014475375843299726
-0.0434755776177748 -0.11686335238344903
-0.025090564631052643 -0.0912663582484117
0.011679461342391667 -0.040072369978337054
0.04844948731583598 0.036718612426774926
0.06683450030255814 0.036718612426774926
0.04844948731583598 0.11350959483188691
0.011679461342391667 0.06231560656181225
0.011679461342391667 -0.014475375843299726
0.011679461342391667 -0.014475375843299726
-0.006705551644330489 -0.040072369978337054
0.04844948731583598 -0.0912663582484117
0.06683450030255814 -0.0912663582484117
0.04844948731583598 -0.014475375843299726
0.06683450030255814 -0.06566936411337437
0.06683450030255814 0.036718612426774926
0.04844948731583598 -0.014475375843299726
0.08521951328928029 -0.014475375843299726
0.06683450030255814 0.011121618291737601
0.030064474329113824 -0.040072369978337054
0.04844948731583598 -0.06566936411337437
0.04844948731583598 -0.06566936411337437
0.08521951328928029 -0.0912663582484117
0.1219895392627246 -0.16805734065352368
0.1219895392627246 -0.0912663582484117
0.10360452627600245 -0.0912663582484117
0.14037455224944675 -0.040072369978337054
0.1219895392627246 0.011121618291737601
0.14037455224944675 0.011121618291737601
0.19552959120961322 0.036718612426774926
0.14037455224944675 -0.014475375843299726
0.14037455224944675 0.011121618291737601
0.08521951328928029 -0.06566936411337437
0.030064474329113824 -0.11686335238344903
-0.006705551644330489 -0.0912663582484117
-0.06186059060449695 -0.0912663582484117
-0.06186059060449695 -0.0912663582484117
0.011679461342391667 -0.040072369978337054
0.10360452627600245 -0.06566936411337437
0.14037455224944675 0.011121618291737601
0.17714457822289106 0.011121618291737601
0.19552959120961322 0.06231560656181225
0.17714457822289106 0.06231560656181225
0.1587595652361689 -0.014475375843299726
0.08521951328928029 -0.040072369978337054
0.08521951328928029 -0.0912663582484117
0.030064474329113824 -0.06566936411337437
0.011679461342391667 -0.16805734065352368
0.04844948731583598 -0.0912663582484117
0.06683450030255814 -0.06566936411337437
0.08521951328928029 -0.040072369978337054
0.1587595652361689 -0.014475375843299726
0.1587595652361689 -0.06566936411337437
0.21391460419633537 0.036718612426774926
0.19552959120961322 0.011121618291737601
0.23229961718305753 -0.014475375843299726
0.19552959120961322 -0.040072369978337054
0.19552959120961322 -0.014475375843299726
0.19552959120961322 -0.06566936411337437
0.1587595652361689 -0.0912663582484117
0.1587595652361689 -0.11686335238344903
0.1587595652361689 -0.11686335238344903
0.1587595652361689 -0.06566936411337437
0.19552959120961322 -0.040072369978337054
0.19552959120961322 -0.014475375843299726
0.21391460419633537 -0.014475375843299726
0.19552959120961322 0.011121618291737601
0.19552959120961322 0.011121618291737601
0.14037455224944675 -0.06566936411337437
0.1587595652361689 -0.11686335238344903
0.08521951328928029 -0.14246034651848635
0.10360452627600245 -0.16805734065352368
0.08521951328928029 -0.14246034651848635
0.10360452627600245 -0.11686335238344903
0.08521951328928029 -0.0912663582484117
0.1219895392627246 -0.06566936411337437
0.19552959120961322 0.011121618291737601
0.23229961718305753 -0.040072369978337054
0.2506846301697797 -0.040072369978337054
0.26906964315650184 -0.014475375843299726
0.21391460419633537 -0.06566936411337437
0.17714457822289106 -0.14246034651848635
0.17714457822289106 -0.14246034651848635
0.14037455224944675 -0.193654334788561
0.1219895392627246 -0.193654334788561
0.08521951328928029 -0.16805734065352368
0.1587595652361689 -0.0912663582484117
0.19552959120961322 -0.0912663582484117
0.19552959120961322 -0.06566936411337437
0.26906964315650184 -0.06566936411337437
0.2506846301697797 -0.0912663582484117
0.2506846301697797 -0.11686335238344903
0.23229961718305753 -0.14246034651848635
0.17714457822289106 -0.193654334788561
0.14037455224944675 -0.21925132892359833
0.14037455224944675 -0.270445317193673
0.1587595652361689 -0.193654334788561
0.17714457822289106 -0.21925132892359833
0.21391460419633537 -0.16805734065352368
0.21391460419633537 -0.0912663582484117
0.2506846301697797 -0.11686335238344903
0.2506846301697797 -0.11686335238344903
0.26906964315650184 -0.11686335238344903
0.26906964315650184 -0.16805734065352368
0.2506846301697797 -0.21925132892359833
0.19552959120961322 -0.21925132892359833
0.19552959120961322 -0.21925132892359833
0.1587595652361689 -0.21925132892359833
0.17714457822289106 -0.16805734065352368
0.1587595652361689 -0.14246034651848635
0.17714457822289106 -0.193654334788561
0.21391460419633537 -0.16805734065352368
0.2506846301697797 -0.0912663582484117
0.26906964315650184 -0.14246034651848635
0.2506846301697797 -0.11686335238344903
0.26906964315650184 -0.14246034651848635
0.23229961718305753 -0.21925132892359833
0.23229961718305753 -0.21925132892359833
0.2506846301697797 -0.24484832305863566
0.19552959120961322 -0.193654334788561
0.2506846301697797 -0.21925132892359833
0.2506846301697797 -0.16805734065352368
0.2506846301697797 -0.16805734065352368
0.287454656143224 -0.14246034651848635
0.26906964315650184 -0.0912663582484117
0.287454656143224 -0.040072369978337054
0.36099470809011264 0.036718612426774926
0.32422468211666833 -0.040072369978337054
0.32422468211666833 -0.040072369978337054
0.32422468211666833 -0.014475375843299726
0.32422468211666833 0.011121618291737601
0.32422468211666833 0.036718612426774926
0.32422468211666833 0.16470358310196156
0.36099470809011264 0.26709155964211084
0.37937972107683476 0.2926885537771482
0.43453476003700126 0.2926885537771482
0.47130478601044556 0.2926885537771482
0.5080748119838898 0.24149456550707354
0.5448448379573342 0.16470358310196156
0.5632298509440563 0.13910658896692424
0.5632298509440563 0.11350959483188691
0.5816148639307785 0.06231560656181225
0.6183848899042228 0.036718612426774926
0.5816148639307785 -0.014475375843299726
0.6919249418511114 -0.06566936411337437
0.8022350197714444 -0.11686335238344903
0.875775071718333 -0.11686335238344903
0.9493151236652216 -0.11686335238344903
1.004470162625388 -0.0912663582484117
1.004470162625388 -0.014475375843299726
0.9493151236652216 -0.06566936411337437
0.9125450976917773 -0.193654334788561
0.8941600847050551 -0.21925132892359833
0.8206200327581665 -0.270445317193673
0.765464993798 -0.270445317193673
0.6919249418511114 -0.270445317193673
0.6551549158776672 -0.29604231132871034
0.6551549158776672 -0.21925132892359833
0.6183848899042228 -0.270445317193673
0.5999998769175007 -0.270445317193673
0.5448448379573342 -0.29604231132871034
0.5080748119838898 -0.32163930546374764
0.4529197730237234 -0.29604231132871034
0.39776473406355695 -0.32163930546374764
0.32422468211666833 -0.32163930546374764
0.26906964315650184 -0.39843028786885964
0.21391460419633537 -0.42402728200389694
0.1587595652361689 -0.42402728200389694
0.17714457822289106 -0.5008182644090089
0.1587595652361689 -0.5008182644090089
0.1219895392627246 -0.39843028786885964
0.17714457822289106 -0.4496242761389343
0.19552959120961322 -0.32163930546374764
0.17714457822289106 -0.3728332937338223
0.23229961718305753 -0.4496242761389343
0.1587595652361689 -0.4496242761389343
0.1219895392627246 -0.4752212702739716
0.1219895392627246 -0.5008182644090089
0.08521951328928029 -0.5264152585440462
0.06683450030255814 -0.5008182644090089
0.04844948731583598 -0.5008182644090089
0.06683450030255814 -0.42402728200389694
0.06683450030255814 -0.4496242761389343
0.10360452627600245 -0.39843028786885964
0.08521951328928029 -0.42402728200389694
0.1219895392627246 -0.32163930546374764
0.08521951328928029 -0.29604231132871034
0.1219895392627246 -0.32163930546374764
0.14037455224944675 -0.32163930546374764
0.14037455224944675 -0.270445317193673
0.10360452627600245 -0.193654334788561
0.030064474329113824 -0.0912663582484117
0.011679461342391667 0.011121618291737601
-0.08024560359121911 0.08791260069684959
-0.1721706685248299 0.16470358310196156
-0.3560207983920515 0.1903005772369989
-0.6317959931928838 0.16470358310196156
-0.7421060711132167 -0.11686335238344903
-0.7237210581264946 -0.21925132892359833
-0.3560207983920515 -0.5520122526790836
0.32422468211666833 -0.7823851998944195
1.3721704223598312 -1.0383551412447927
2.659121331430382 -1.2687280884601286
4.074767331407988 -1.3199220767302033
5.3984882664519835 -1.3199220767302033
6.538359071628757 -1.371116065000278
7.16344951317731 -1.4735040415404272
6.979599383310089 -1.601489012215614
5.9868086820270925 -1.6782799946207259
4.295387487248654 -1.83186195943095
2.493656214549883 -1.8062649652959126
1.0780102145722767 -1.6270860063506514
0.21391460419633537 -1.4735040415404272
-0.08024560359121911 -1.371116065000278
-0.08024560359121911 -1.3199220767302033
0.06683450030255814 -1.1919371060550168
0.21391460419633537 -1.140743117784942
0.287454656143224 -1.0127581471097555
0.23229961718305753 -0.9103701705696061
0.1587595652361689 -0.7567882057593822
0.06683450030255814 -0.5520122526790836
-0.025090564631052643 -0.42402728200389694
-0.06186059060449695 -0.347236299598785
-0.0434755776177748 -0.270445317193673
-0.025090564631052643 -0.32163930546374764
-0.006705551644330489 -0.347236299598785
-0.0434755776177748 -0.3728332937338223
-0.11701562956466342 -0.3728332937338223
-0.1354006425513856 -0.32163930546374764
-0.1721706685248299 -0.270445317193673
-0.22732570748499636 -0.29604231132871034
-0.2640957334584407 -0.270445317193673
-0.2089406944982742 -0.24484832305863566
-0.2089406944982742 -0.21925132892359833
-0.22732570748499636 -0.24484832305863566
-0.15378565553810775 -0.270445317193673
-0.1721706685248299 -0.32163930546374764
-0.19055568151155206 -0.32163930546374764
-0.2089406944982742 -0.347236299598785
-0.22732570748499636 -0.3728332937338223
-0.2640957334584407 -0.347236299598785
-0.2640957334584407 -0.29604231132871034
-0.22732570748499636 -0.21925132892359833
-0.22732570748499636 -0.24484832305863566
-0.2089406944982742 -0.270445317193673
-0.15378565553810775 -0.21925132892359833
-0.1354006425513856 -0.24484832305863566
-0.19055568151155206 -0.193654334788561
-0.19055568151155206 -0.32163930546374764
-0.19055568151155206 -0.32163930546374764
-0.24571072047171852 -0.32163930546374764
-0.2640957334584407 -0.347236299598785
-0.300865759431885 -0.3728332937338223
-0.24571072047171852 -0.32163930546374764
-0.19055568151155206 -0.3728332937338223
-0.19055568151155206 -0.270445317193673
-0.2640957334584407 -0.16805734065352368
-0.22732570748499636 -0.16805734065352368
-0.2089406944982742 -0.193654334788561
-0.19055568151155206 -0.24484832305863566
-0.1721706685248299 -0.29604231132871034
-0.19055568151155206 -0.32163930546374764
-0.22732570748499636 -0.29604231132871034
-0.22732570748499636 -0.29604231132871034
-0.22732570748499636 -0.32163930546374764
-0.19055568151155206 -0.270445317193673
-0.2089406944982742 -0.24484832305863566
-0.1721706685248299 -0.24484832305863566
-0.15378565553810775 -0.193654334788561
-0.09863061657794127 -0.14246034651848635
-0.09863061657794127 -0.193654334788561
-0.1354006425513856 -0.193654334788561
-0.11701562956466342 -0.24484832305863566
-0.15378565553810775 -0.32163930546374764
-0.09863061657794127 -0.32163930546374764
-0.19055568151155206 -0.29604231132871034
-0.15378565553810775 -0.24484832305863566
-0.1354006425513856 -0.29604231132871034
-0.09863061657794127 -0.32163930546374764
-0.08024560359121911 -0.24484832305863566
-0.09863061657794127 -0.193654334788561
-0.09863061657794127 -0.11686335238344903
-0.11701562956466342 -0.14246034651848635
-0.025090564631052643 -0.16805734065352368
-0.006705551644330489 -0.193654334788561
-0.006705551644330489 -0.21925132892359833
-0.006705551644330489 -0.24484832305863566
-0.006705551644330489 -0.24484832305863566
-0.025090564631052643 -0.21925132892359833
-0.025090564631052643 -0.16805734065352368
-0.025090564631052643 -0.14246034651848635
0.06683450030255814 -0.193654334788561
0.10360452627600245 -0.11686335238344903
0.14037455224944675 -0.06566936411337437
0.1587595652361689 -0.0912663582484117
0.1587595652361689 -0.24484832305863566
0.14037455224944675 -0.14246034651848635
0.1219895392627246 -0.193654334788561
0.17714457822289106 -0.24484832305863566
0.14037455224944675 -0.16805734065352368
0.14037455224944675 -0.21925132892359833
0.14037455224944675 -0.193654334788561
0.19552959120961322 -0.16805734065352368
0.287454656143224 -0.16805734065352368
0.30583966912994615 -0.0912663582484117
0.32422468211666833 -0.040072369978337054
0.32422468211666833 -0.040072369978337054
0.37937972107683476 -0.06566936411337437
0.36099470809011264 -0.06566936411337437
0.43453476003700126 -0.14246034651848635
0.4161497470502791 -0.14246034651848635
0.37937972107683476 -0.11686335238344903
0.4161497470502791 -0.11686335238344903
0.39776473406355695 -0.0912663582484117
0.43453476003700126 -0.06566936411337437
0.47130478601044556 -0.014475375843299726
0.5080748119838898 0.06231560656181225
0.5448448379573342 0.08791260069684959
0.5816148639307785 0.06231560656181225
0.5999998769175007 0.011121618291737601
0.6367699028909449 -0.014475375843299726
0.6183848899042228 -0.06566936411337437
0.6735399288643893 -0.11686335238344903
0.6183848899042228 -0.14246034651848635
0.6919249418511114 -0.11686335238344903
0.7103099548378335 -0.06566936411337437
0.7470799808112779 -0.040072369978337054
0.8206200327581665 -0.040072369978337054
0.8206200327581665 -0.014475375843299726
0.8941600847050551 -0.0912663582484117
0.9677001366519438 -0.0912663582484117
0.9860851496386659 -0.0912663582484117
1.0596252015855545 -0.14246034651848635
1.0780102145722767 -0.16805734065352368
1.1331652535324432 -0.21925132892359833
1.1515502665191653 -0.270445317193673
1.243475331452776 -0.24484832305863566
1.2618603444394982 -0.29604231132871034
1.3170153833996647 -0.32163930546374764
1.335400396386387 -0.21925132892359833
1.4824805002801642 -0.24484832305863566
1.5376355392403307 -0.21925132892359833
1.6111755911872192 -0.21925132892359833
1.6111755911872192 -0.32163930546374764
1.6663306301473857 -0.347236299598785
1.684715643134108 -0.347236299598785
1.70310065612083 -0.42402728200389694
1.7398706820942742 -0.347236299598785
1.7398706820942742 -0.4752212702739716
1.813410734041163 -0.4752212702739716
1.8317957470278852 -0.39843028786885964
1.8869507859880517 -0.39843028786885964
1.942105824948218 -0.3728332937338223
1.9788758509216624 -0.32163930546374764
1.9972608639083844 -0.3728332937338223
1.9972608639083844 -0.3728332937338223
1.9972608639083844 -0.3728332937338223
2.052415902868551 -0.42402728200389694
2.0156458768951064 -0.5008182644090089
1.9604908379349402 -0.4752212702739716
2.0156458768951064 -0.4496242761389343
1.9972608639083844 -0.39843028786885964
2.0340308898818287 -0.3728332937338223
2.0156458768951064 -0.42402728200389694
2.0340308898818287 -0.3728332937338223
2.0340308898818287 -0.32163930546374764
1.9788758509216624 -0.29604231132871034
1.942105824948218 -0.347236299598785
1.8869507859880517 -0.39843028786885964
1.813410734041163 -0.39843028786885964
1.7950257210544407 -0.4496242761389343
1.684715643134108 -0.4752212702739716
1.6295606041739414 -0.42402728200389694
1.6111755911872192 -0.347236299598785
1.592790578200497 -0.29604231132871034
1.5560205522270527 -0.21925132892359833
1.5192505262536085 -0.24484832305863566
1.4457104743067197 -0.16805734065352368
1.4273254613199977 -0.16805734065352368
1.3905554353465532 -0.11686335238344903
1.335400396386387 -0.193654334788561
1.243475331452776 -0.21925132892359833
1.1515502665191653 -0.21925132892359833
1.114780240545721 -0.21925132892359833
1.0596252015855545 -0.24484832305863566
0.9860851496386659 -0.193654334788561
0.9860851496386659 -0.11686335238344903
0.9860851496386659 -0.11686335238344903
0.9860851496386659 -0.06566936411337437
0.9309301106784994 -0.040072369978337054
0.9309301106784994 -0.0912663582484117
0.9125450976917773 -0.040072369978337054
0.875775071718333 -0.0912663582484117
0.8206200327581665 -0.14246034651848635
0.7838500067847222 -0.11686335238344903
0.765464993798 -0.14246034651848635
0.7286949678245558 -0.14246034651848635
0.7286949678245558 -0.06566936411337437
0.6919249418511114 -0.040072369978337054
0.7286949678245558 -0.040072369978337054
0.7103099548378335 0.011121618291737601
0.765464993798 0.011121618291737601
0.7103099548378335 0.011121618291737601
0.7286949678245558 -0.014475375843299726
0.7103099548378335 -0.014475375843299726
0.7103099548378335 -0.0912663582484117
0.6551549158776672 -0.06566936411337437
0.6367699028909449 -0.06566936411337437
0.6367699028909449 -0.0912663582484117
0.5816148639307785 -0.0912663582484117
0.5999998769175007 -0.040072369978337054
0.5999998769175007 0.06231560656181225
0.6183848899042228 0.08791260069684959
0.6367699028909449 0.036718612426774926
0.6367699028909449 0.08791260069684959
0.5816148639307785 0.06231560656181225
0.6183848899042228 0.036718612426774926
0.5999998769175007 -0.040072369978337054
0.5816148639307785 -0.014475375843299726
0.5264598249706121 -0.0912663582484117
0.4896897989971677 -0.06566936411337437
0.4529197730237234 0.036718612426774926
0.4529197730237234 0.036718612426774926
0.47130478601044556 0.011121618291737601
0.47130478601044556 0.06231560656181225
0.5080748119838898 0.08791260069684959
0.5080748119838898 0.11350959483188691
0.5448448379573342 0.06231560656181225
0.4529197730237234 0.036718612426774926
0.47130478601044556 0.036718612426774926
0.43453476003700126 0.06231560656181225
0.4161497470502791 0.036718612426774926
0.4529197730237234 0.13910658896692424
0.43453476003700126 0.16470358310196156
0.4529197730237234 0.26709155964211084
0.43453476003700126 0.3182855479121855
0.47130478601044556 0.36947953618226015
0.5448448379573342 0.3950765303172975
0.5816148639307785 0.4206735244523348
0.5816148639307785 0.44627051858737216
0.5816148639307785 0.3950765303172975
0.5999998769175007 0.34388254204722285
0.5816148639307785 0.26709155964211084
0.5816148639307785 0.3182855479121855
0.5816148639307785 0.21589757137203622
0.6367699028909449 0.24149456550707354
0.6735399288643893 0.24149456550707354
0.7103099548378335 0.1903005772369989
0.7838500067847222 0.1903005772369989
0.8573900587316108 0.1903005772369989
0.9309301106784994 0.11350959483188691
0.9860851496386659 0.08791260069684959
1.004470162625388 -0.014475375843299726
0.9860851496386659 -0.014475375843299726
0.9860851496386659 -0.11686335238344903
0.9125450976917773 -0.14246034651848635
0.875775071718333 -0.11686335238344903
0.8022350197714444 -0.0912663582484117
0.7838500067847222 -0.11686335238344903
0.765464993798 -0.040072369978337054
0.7103099548378335 0.06231560656181225
0.6919249418511114 0.036718612426774926
0.6735399288643893 0.036718612426774926
0.5999998769175007 -0.040072369978337054
0.5264598249706121 -0.06566936411337437
0.43453476003700126 -0.16805734065352368
0.36099470809011264 -0.24484832305863566
0.287454656143224 -0.24484832305863566
0.1587595652361689 -0.24484832305863566
0.17714457822289106 -0.193654334788561
0.14037455224944675 -0.16805734065352368
0.14037455224944675 -0.11686335238344903
0.17714457822289106 -0.040072369978337054
0.1587595652361689 -0.014475375843299726
0.14037455224944675 -0.14246034651848635
0.14037455224944675 -0.11686335238344903
0.10360452627600245 -0.0912663582484117
0.08521951328928029 -0.16805734065352368
0.04844948731583598 -0.21925132892359833
-0.006705551644330489 -0.16805734065352368
-0.006705551644330489 -0.193654334788561
-0.006705551644330489 -0.14246034651848635
-0.006705551644330489 -0.16805734065352368
-0.006705551644330489 -0.0912663582484117
-0.006705551644330489 -0.11686335238344903
-0.025090564631052643 -0.014475375843299726
-0.0434755776177748 -0.0912663582484117
-0.006705551644330489 -0.0912663582484117
0.011679461342391667 -0.14246034651848635
-0.006705551644330489 -0.16805734065352368
-0.0434755776177748 -0.193654334788561
-0.025090564631052643 -0.16805734065352368
-0.0434755776177748 -0.16805734065352368
-0.08024560359121911 -0.11686335238344903
-0.025090564631052643 -0.11686335238344903
-0.025090564631052643 -0.040072369978337054
0.030064474329113824 0.036718612426774926
-0.006705551644330489 0.011121618291737601
-0.006705551644330489 0.036718612426774926
0.030064474329113824 -0.014475375843299726
0.011679461342391667 -0.014475375843299726
-0.006705551644330489 -0.040072369978337054
-0.0434755776177748 -0.11686335238344903
-0.025090564631052643 -0.11686335238344903
-0.0434755776177748 -0.06566936411337437
-0.0434755776177748 -0.0912663582484117
-0.06186059060449695 0.036718612426774926
-0.025090564631052643 -0.06566936411337437
0.011679461342391667 0.011121618291737601
0.06683450030255814 0.036718612426774926
0.011679461342391667 0.036718612426774926
-0.025090564631052643 0.036718612426774926
-0.006705551644330489 -0.040072369978337054
-0.025090564631052643 -0.040072369978337054
-0.0434755776177748 -0.06566936411337437
-0.08024560359121911 -0.0912663582484117
-0.11701562956466342 -0.06566936411337437
-0.09863061657794127 -0.06566936411337437
-0.0434755776177748 0.011121618291737601
-0.0434755776177748 0.036718612426774926
-0.025090564631052643 0.08791260069684959
0.011679461342391667 0.036718612426774926
0.011679461342391667 0.06231560656181225
0.030064474329113824 0.011121618291737601
-0.006705551644330489 -0.014475375843299726
-0.0434755776177748 0.036718612426774926
-0.08024560359121911 0.011121618291737601
-0.08024560359121911 -0.06566936411337437
-0.08024560359121911 -0.040072369978337054
-0.11701562956466342 0.011121618291737601
-0.11701562956466342 0.036718612426774926
-0.08024560359121911 0.06231560656181225
-0.08024560359121911 0.06231560656181225
-0.0434755776177748 0.11350959483188691
-0.06186059060449695 0.06231560656181225
-0.06186059060449695 0.06231560656181225
-0.0434755776177748 0.06231560656181225
-0.0434755776177748 -0.014475375843299726
-0.06186059060449695 0.036718612426774926
-0.08024560359121911 -0.014475375843299726
-0.06186059060449695 -0.040072369978337054
-0.08024560359121911 0.036718612426774926
-0.08024560359121911 0.06231560656181225
-0.06186059060449695 0.036718612426774926
-0.006705551644330489 0.08791260069684959
-0.006705551644330489 0.08791260069684959
-0.006705551644330489 0.06231560656181225
0.011679461342391667 0.11350959483188691
-0.025090564631052643 0.036718612426774926
-0.06186059060449695 0.011121618291737601
-0.0434755776177748 0.011121618291737601
-0.06186059060449695 -0.040072369978337054
-0.0434755776177748 -0.040072369978337054
-0.025090564631052643 -0.014475375843299726
-0.025090564631052643 0.06231560656181225
-0.006705551644330489 0.011121618291737601
0.06683450030255814 0.13910658896692424
0.08521951328928029 -0.014475375843299726
0.06683450030255814 0.036718612426774926
0.030064474329113824 0.011121618291737601
0.04844948731583598 -0.014475375843299726
0.030064474329113824 0.011121618291737601
0.030064474329113824 -0.014475375843299726
0.011679461342391667 -0.06566936411337437
-0.006705551644330489 -0.014475375843299726
-0.0434755776177748 0.036718612426774926
0.030064474329113824 0.11350959483188691
0.06683450030255814 0.036718612426774926
0.06683450030255814 0.11350959483188691
0.08521951328928029 0.13910658896692424
0.06683450030255814 0.06231560656181225
0.06683450030255814 0.08791260069684959
0.04844948731583598 0.11350959483188691
0.04844948731583598 0.06231560656181225
0.030064474329113824 0.011121618291737601
0.06683450030255814 0.011121618291737601
0.06683450030255814 -0.014475375843299726
0.04844948731583598 0.011121618291737601
0.030064474329113824 0.06231560656181225
0.08521951328928029 0.16470358310196156
0.08521951328928029 0.16470358310196156
0.1219895392627246 0.13910658896692424
0.14037455224944675 0.13910658896692424
0.14037455224944675 0.11350959483188691
0.14037455224944675 0.06231560656181225
0.14037455224944675 0.11350959483188691
0.1219895392627246 0.036718612426774926
0.08521951328928029 0.08791260069684959
0.08521951328928029 -0.014475375843299726
0.06683450030255814 0.011121618291737601
0.08521951328928029 0.11350959483188691
0.10360452627600245 0.08791260069684959
0.14037455224944675 0.08791260069684959
0.19552959120961322 0.11350959483188691
0.17714457822289106 0.11350959483188691
0.1587595652361689 0.13910658896692424
0.19552959120961322 0.06231560656181225
0.1587595652361689 0.06231560656181225
0.1587595652361689 0.036718612426774926
0.1587595652361689 0.08791260069684959
0.14037455224944675 0.08791260069684959
0.10360452627600245 0.08791260069684959
0.1219895392627246 0.13910658896692424
0.08521951328928029 0.1903005772369989
0.19552959120961322 0.13910658896692424
0.23229961718305753 0.1903005772369989
0.19552959120961322 0.11350959483188691
0.23229961718305753 0.11350959483188691
0.17714457822289106 0.08791260069684959
0.21391460419633537 0.08791260069684959
0.19552959120961322 0.036718612426774926
0.17714457822289106 0.011121618291737601
0.17714457822289106 0.06231560656181225
0.1587595652361689 0.13910658896692424
0.1587595652361689 0.11350959483188691
0.19552959120961322 0.13910658896692424
0.21391460419633537 0.16470358310196156
0.26906964315650184 0.24149456550707354
0.21391460419633537 0.16470358310196156
0.19552959120961322 0.16470358310196156
0.23229961718305753 0.11350959483188691
0.23229961718305753 0.08791260069684959
0.23229961718305753 0.036718612426774926
0.19552959120961322 0.08791260069684959
0.19552959120961322 0.06231560656181225
0.1587595652361689 0.08791260069684959
0.19552959120961322 0.08791260069684959
0.19552959120961322 0.13910658896692424
0.2506846301697797 0.1903005772369989
0.287454656143224 0.1903005772369989
0.32422468211666833 0.13910658896692424
0.287454656143224 0.13910658896692424
0.287454656143224 0.13910658896692424
0.287454656143224 0.11350959483188691
0.2506846301697797 0.11350959483188691
0.21391460419633537 0.08791260069684959
0.23229961718305753 0.011121618291737601
0.19552959120961322 0.06231560656181225
0.21391460419633537 0.11350959483188691
0.26906964315650184 0.16470358310196156
0.26906964315650184 0.16470358310196156
0.32422468211666833 0.16470358310196156
0.30583966912994615 0.1903005772369989
0.287454656143224 0.1903005772369989
0.32422468211666833 0.13910658896692424
0.287454656143224 0.13910658896692424
0.2506846301697797 0.08791260069684959
0.21391460419633537 0.08791260069684959
0.23229961718305753 0.036718612426774926
0.21391460419633537 0.08791260069684959
0.19552959120961322 0.11350959483188691
0.287454656143224 0.11350959483188691
0.2506846301697797 0.13910658896692424
0.32422468211666833 0.21589757137203622
0.36099470809011264 0.16470358310196156
0.30583966912994615 0.1903005772369989
0.32422468211666833 0.16470358310196156
0.36099470809011264 0.13910658896692424
0.30583966912994615 0.11350959483188691
0.30583966912994615 0.036718612426774926
0.287454656143224 0.011121618291737601
0.26906964315650184 0.06231560656181225
0.32422468211666833 0.06231560656181225
0.32422468211666833 0.11350959483188691
0.30583966912994615 0.1903005772369989
0.34260969510339045 0.21589757137203622
0.37937972107683476 0.11350959483188691
0.37937972107683476 0.13910658896692424
0.37937972107683476 0.16470358310196156
0.32422468211666833 0.13910658896692424
0.30583966912994615 0.08791260069684959
0.287454656143224 0.08791260069684959
0.2506846301697797 0.06231560656181225
0.26906964315650184 0.13910658896692424
0.32422468211666833 0.16470358310196156
0.32422468211666833 0.1903005772369989
0.36099470809011264 0.21589757137203622
0.37937972107683476 0.26709155964211084
0.34260969510339045 0.13910658896692424
0.34260969510339045 0.1903005772369989
0.37937972107683476 0.13910658896692424
0.36099470809011264 0.16470358310196156
0.32422468211666833 0.08791260069684959
0.32422468211666833 0.08791260069684959
0.287454656143224 0.08791260069684959
0.30583966912994615 0.11350959483188691
0.287454656143224 0.13910658896692424
0.32422468211666833 0.16470358310196156
0.36099470809011264 0.24149456550707354
0.37937972107683476 0.21589757137203622
0.37937972107683476 0.1903005772369989
0.39776473406355695 0.21589757137203622
0.37937972107683476 0.08791260069684959
0.37937972107683476 0.11350959483188691
0.36099470809011264 0.036718612426774926
0.30583966912994615 0.11350959483188691
0.32422468211666833 0.036718612426774926
0.287454656143224 0.08791260069684959
0.32422468211666833 0.1903005772369989
0.34260969510339045 0.1903005772369989
0.34260969510339045 0.2926885537771482
0.34260969510339045 0.2926885537771482
0.37937972107683476 0.24149456550707354
0.37937972107683476 0.21589757137203622
0.37937972107683476 0.11350959483188691
0.34260969510339045 0.1903005772369989
0.36099470809011264 0.11350959483188691
0.36099470809011264 0.08791260069684959
0.34260969510339045 0.11350959483188691
0.36099470809011264 0.16470358310196156
0.37937972107683476 0.11350959483188691
0.4161497470502791 0.1903005772369989
0.4161497470502791 0.24149456550707354
0.4529197730237234 0.3182855479121855
0.43453476003700126 0.24149456550707354
0.43453476003700126 0.16470358310196156
0.43453476003700126 0.13910658896692424
0.37937972107683476 0.11350959483188691
0.32422468211666833 0.08791260069684959
0.30583966912994615 0.08791260069684959
0.287454656143224 0.13910658896692424
0.30583966912994615 0.16470358310196156
0.32422468211666833 0.1903005772369989
0.36099470809011264 0.16470358310196156
0.43453476003700126 0.21589757137203622
0.5264598249706121 0.26709155964211084
0.5080748119838898 0.26709155964211084
0.47130478601044556 0.16470358310196156
0.4896897989971677 0.1903005772369989
0.4529197730237234 0.11350959483188691
0.43453476003700126 0.11350959483188691
0.39776473406355695 0.11350959483188691
0.36099470809011264 0.13910658896692424
0.36099470809011264 0.21589757137203622
0.37937972107683476 0.26709155964211084
0.43453476003700126 0.36947953618226015
0.4529197730237234 0.3950765303172975
0.5080748119838898 0.4974645068574468
0.5448448379573342 0.5230615009924842
0.5264598249706121 0.5998524833975961
0.5816148639307785 0.6766434658027081
0.5816148639307785 0.6254494775326335
0.5632298509440563 0.6766434658027081
0.6183848899042228 0.6254494775326335
0.6183848899042228 0.5998524833975961
0.6183848899042228 0.5486584951275214
0.6735399288643893 0.5230615009924842
0.6919249418511114 0.47186751272240945
0.7470799808112779 0.5230615009924842
0.8206200327581665 0.47186751272240945
0.875775071718333 0.44627051858737216
0.9309301106784994 0.44627051858737216
1.004470162625388 0.3950765303172975
1.0963952275589988 0.3182855479121855
1.0963952275589988 0.21589757137203622
1.1331652535324432 0.24149456550707354
1.0780102145722767 0.16470358310196156
1.0412401885988325 0.11350959483188691
1.004470162625388 0.11350959483188691
0.9493151236652216 0.11350959483188691
0.9493151236652216 0.16470358310196156
0.9677001366519438 0.21589757137203622
0.8573900587316108 0.24149456550707354
0.8206200327581665 0.21589757137203622
0.7470799808112779 0.16470358310196156
0.7286949678245558 0.13910658896692424
0.6367699028909449 0.11350959483188691
0.5448448379573342 0.06231560656181225
0.5080748119838898 0.06231560656181225
0.43453476003700126 0.06231560656181225
0.4161497470502791 0.06231560656181225
0.37937972107683476 0.11350959483188691
0.32422468211666833 0.11350959483188691
0.39776473406355695 0.16470358310196156
0.36099470809011264 0.16470358310196156
0.36099470809011264 0.11350959483188691
0.34260969510339045 0.08791260069684959
0.34260969510339045 0.036718612426774926
0.287454656143224 0.06231560656181225
0.26906964315650184 0.011121618291737601
0.2506846301697797 0.011121618291737601
0.21391460419633537 0.011121618291737601
0.26906964315650184 0.08791260069684959
0.287454656143224 0.13910658896692424
0.2506846301697797 0.16470358310196156
0.287454656143224 0.24149456550707354
0.2506846301697797 0.1903005772369989
0.287454656143224 0.21589757137203622
0.2506846301697797 0.13910658896692424
0.21391460419633537 0.16470358310196156
0.21391460419633537 0.13910658896692424
0.19552959120961322 0.24149456550707354
0.23229961718305753 0.24149456550707354
0.23229961718305753 0.3950765303172975
0.23229961718305753 0.4974645068574468
0.17714457822289106 0.7022404599377454
0.011679461342391667 0.7790314423428574
-0.08024560359121911 0.7790314423428574
-0.3376357854053293 0.7278374540727828
-0.539870928259273 0.5998524833975961
-0.5582559412459952 0.3182855479121855
-0.15378565553810775 0.011121618291737601
0.765464993798 -0.270445317193673
2.1075709418287176 -0.6032062409491582
3.6702970457001007 -0.7311912116243449
5.380103253465261 -0.8847731764345688
6.832519279416312 -1.0127581471097555
7.6230748378453645 -1.1663401119199794
7.475994733951587 -1.2687280884601286
6.3545089417615355 -1.371116065000278
4.534392656076042 -1.371116065000278
2.6958913574038266 -1.294325082595166
1.2802453574262205 -1.1151461236499047
0.43453476003700126 -0.9359671647046435
0.17714457822289106 -0.7311912116243449
0.2506846301697797 -0.5776092468141208
0.4896897989971677 -0.42402728200389694
0.6367699028909449 -0.3728332937338223
0.7286949678245558 -0.16805734065352368
0.6735399288643893 -0.0912663582484117
0.4896897989971677 0.16470358310196156
0.36099470809011264 0.21589757137203622
0.19552959120961322 0.26709155964211084
0.14037455224944675 0.36947953618226015
0.10360452627600245 0.3950765303172975
0.08521951328928029 0.34388254204722285
0.08521951328928029 0.26709155964211084
0.04844948731583598 0.24149456550707354
-0.006705551644330489 0.2926885537771482
-0.025090564631052643 0.2926885537771482
-0.06186059060449695 0.4206735244523348
-0.09863061657794127 0.4206735244523348
-0.0434755776177748 0.3950765303172975
-0.025090564631052643 0.44627051858737216
-0.0434755776177748 0.44627051858737216
-0.006705551644330489 0.44627051858737216
-0.06186059060449695 0.4206735244523348
-0.09863061657794127 0.36947953618226015
-0.09863061657794127 0.3950765303172975
-0.11701562956466342 0.3182855479121855
-0.15378565553810775 0.36947953618226015
-0.1354006425513856 0.3182855479121855
-0.11701562956466342 0.3950765303172975
-0.1354006425513856 0.4206735244523348
-0.11701562956466342 0.44627051858737216
-0.0434755776177748 0.4974645068574468
-0.06186059060449695 0.44627051858737216
-0.09863061657794127 0.44627051858737216
-0.0434755776177748 0.44627051858737216
-0.06186059060449695 0.3950765303172975
-0.08024560359121911 0.26709155964211084
-0.09863061657794127 0.3182855479121855
-0.1354006425513856 0.3182855479121855
-0.1354006425513856 0.3950765303172975
-0.1354006425513856 0.36947953618226015
-0.09863061657794127 0.44627051858737216
-0.08024560359121911 0.44627051858737216
-0.0434755776177748 0.47186751272240945
-0.006705551644330489 0.47186751272240945
-0.06186059060449695 0.4974645068574468
-0.025090564631052643 0.44627051858737216
-0.0434755776177748 0.4206735244523348
-0.08024560359121911 0.4206735244523348
-0.09863061657794127 0.34388254204722285
-0.11701562956466342 0.3950765303172975
-0.09863061657794127 0.36947953618226015
-0.06186059060449695 0.36947953618226015
-0.0434755776177748 0.44627051858737216
-0.0434755776177748 0.4974645068574468
0.011679461342391667 0.5230615009924842
-0.006705551644330489 0.4974645068574468
0.030064474329113824 0.5486584951275214
0.04844948731583598 0.47186751272240945
0.04844948731583598 0.3950765303172975
0.04844948731583598 0.44627051858737216
0.011679461342391667 0.4206735244523348
0.011679461342391667 0.44627051858737216
0.011679461342391667 0.47186751272240945
-0.006705551644330489 0.5230615009924842
0.04844948731583598 0.5486584951275214
0.08521951328928029 0.5486584951275214
0.1219895392627246 0.5486584951275214
0.1587595652361689 0.5486584951275214
0.1587595652361689 0.5998524833975961
0.14037455224944675 0.5486584951275214
0.14037455224944675 0.5230615009924842
0.10360452627600245 0.5230615009924842
0.1219895392627246 0.5230615009924842
0.1219895392627246 0.4974645068574468
0.14037455224944675 0.4974645068574468
0.19552959120961322 0.5998524833975961
0.19552959120961322 0.6254494775326335
0.2506846301697797 0.6510464716676707
0.287454656143224 0.6510464716676707
0.23229961718305753 0.6510464716676707
0.26906964315650184 0.6510464716676707
0.2506846301697797 0.5742554892625588
0.287454656143224 0.5486584951275214
0.23229961718305753 0.5230615009924842
0.21391460419633537 0.5486584951275214
0.23229961718305753 0.5230615009924842
0.26906964315650184 0.5742554892625588
0.30583966912994615 0.5742554892625588
0.287454656143224 0.6510464716676707
0.30583966912994615 0.6766434658027081
0.37937972107683476 0.6510464716676707
0.4161497470502791 0.6510464716676707
0.43453476003700126 0.7022404599377454
0.4896897989971677 0.6766434658027081
0.43453476003700126 0.5742554892625588
0.47130478601044556 0.5998524833975961
0.47130478601044556 0.5742554892625588
0.47130478601044556 0.5486584951275214
0.47130478601044556 0.5742554892625588
0.5264598249706121 0.6254494775326335
0.5999998769175007 0.6766434658027081
0.5632298509440563 0.6766434658027081
0.5999998769175007 0.6766434658027081
0.6183848899042228 0.6510464716676707
0.6735399288643893 0.5998524833975961
0.6919249418511114 0.6254494775326335
0.6735399288643893 0.5998524833975961
0.6183848899042228 0.5742554892625588
0.6551549158776672 0.4974645068574468
0.6551549158776672 0.5486584951275214
0.6919249418511114 0.5486584951275214
0.7286949678245558 0.5742554892625588
0.8206200327581665 0.6254494775326335
0.8390050457448887 0.5742554892625588
0.9125450976917773 0.5486584951275214
1.004470162625388 0.5998524833975961
1.0412401885988325 0.5998524833975961
1.0228551756121103 0.5230615009924842
1.0412401885988325 0.44627051858737216
1.0963952275589988 0.3950765303172975
1.114780240545721 0.3950765303172975
1.1699352795058875 0.3950765303172975
1.1883202924926097 0.3950765303172975
1.2618603444394982 0.44627051858737216
1.353785409373109 0.44627051858737216
1.4273254613199977 0.4206735244523348
1.5008655132668862 0.44627051858737216
1.464095487293442 0.3950765303172975
1.5560205522270527 0.34388254204722285
1.592790578200497 0.34388254204722285
1.6111755911872192 0.2926885537771482
1.6479456171606635 0.26709155964211084
1.6295606041739414 0.24149456550707354
1.684715643134108 0.1903005772369989
1.70310065612083 0.24149456550707354
1.70310065612083 0.21589757137203622
1.7582556950809964 0.24149456550707354
1.8501807600146072 0.24149456550707354
1.8501807600146072 0.3182855479121855
1.8869507859880517 0.24149456550707354
1.9053357989747737 0.24149456550707354
1.923720811961496 0.13910658896692424
1.9053357989747737 0.13910658896692424
1.9053357989747737 0.08791260069684959
1.8869507859880517 0.08791260069684959
1.8685657730013294 0.11350959483188691
1.9053357989747737 0.13910658896692424
1.8501807600146072 0.08791260069684959
1.8685657730013294 0.11350959483188691
1.8501807600146072 0.13910658896692424
1.813410734041163 0.21589757137203622
1.813410734041163 0.21589757137203622
1.7398706820942742 0.16470358310196156
1.7582556950809964 0.21589757137203622
1.684715643134108 0.08791260069684959
1.6479456171606635 0.06231560656181225
1.6295606041739414 0.11350959483188691
1.574405565213775 0.13910658896692424
1.5008655132668862 0.16470358310196156
1.4457104743067197 0.21589757137203622
1.4273254613199977 0.2926885537771482
1.3721704223598312 0.3182855479121855
1.353785409373109 0.3182855479121855
1.3170153833996647 0.34388254204722285
1.2802453574262205 0.2926885537771482
1.2802453574262205 0.2926885537771482
1.2618603444394982 0.21589757137203622
1.225090318466054 0.24149456550707354
1.1515502665191653 0.24149456550707354
1.0596252015855545 0.24149456550707354
0.9860851496386659 0.2926885537771482
0.9493151236652216 0.34388254204722285
0.8941600847050551 0.3182855479121855
0.875775071718333 0.44627051858737216
0.8573900587316108 0.4206735244523348
0.8206200327581665 0.4974645068574468
0.8390050457448887 0.4974645068574468
0.8022350197714444 0.44627051858737216
0.7838500067847222 0.4206735244523348
0.7286949678245558 0.34388254204722285
0.6919249418511114 0.34388254204722285
0.6735399288643893 0.36947953618226015
0.6551549158776672 0.36947953618226015
0.6367699028909449 0.47186751272240945
0.6919249418511114 0.5230615009924842
0.7103099548378335 0.5486584951275214
0.7103099548378335 0.5742554892625588
0.7286949678245558 0.4974645068574468
0.6919249418511114 0.5230615009924842
0.6551549158776672 0.47186751272240945
0.5816148639307785 0.4206735244523348
0.5632298509440563 0.34388254204722285
0.5080748119838898 0.34388254204722285
0.5080748119838898 0.36947953618226015
0.5448448379573342 0.34388254204722285
0.4896897989971677 0.44627051858737216
0.5448448379573342 0.4206735244523348
0.5632298509440563 0.4974645068574468
0.5448448379573342 0.5230615009924842
0.5816148639307785 0.5486584951275214
0.5448448379573342 0.5230615009924842
0.5264598249706121 0.5230615009924842
0.4896897989971677 0.44627051858737216
0.5080748119838898 0.3950765303172975
0.47130478601044556 0.36947953618226015
0.47130478601044556 0.36947953618226015
0.43453476003700126 0.44627051858737216
0.43453476003700126 0.34388254204722285
0.47130478601044556 0.4206735244523348
0.47130478601044556 0.3950765303172975
0.4896897989971677 0.3950765303172975
0.4529197730237234 0.47186751272240945
0.47130478601044556 0.3950765303172975
0.43453476003700126 0.4206735244523348
0.34260969510339045 0.3950765303172975
0.39776473406355695 0.3182855479121855
0.36099470809011264 0.34388254204722285
0.37937972107683476 0.4206735244523348
0.4161497470502791 0.3950765303172975
0.4161497470502791 0.47186751272240945
0.4161497470502791 0.5742554892625588
0.43453476003700126 0.5742554892625588
0.47130478601044556 0.5998524833975961
0.47130478601044556 0.6766434658027081
0.47130478601044556 0.75343444820782
0.47130478601044556 0.7278374540727828
0.5080748119838898 0.7278374540727828
0.47130478601044556 0.7790314423428574
0.4896897989971677 0.7278374540727828
0.47130478601044556 0.7022404599377454
0.5080748119838898 0.6510464716676707
0.5448448379573342 0.6766434658027081
0.5448448379573342 0.7022404599377454
0.5632298509440563 0.6510464716676707
0.6183848899042228 0.6254494775326335
0.6551549158776672 0.6510464716676707
0.6551549158776672 0.5486584951275214
0.7103099548378335 0.44627051858737216
0.765464993798 0.3950765303172975
0.8390050457448887 0.36947953618226015
0.8573900587316108 0.34388254204722285
0.875775071718333 0.34388254204722285
0.8941600847050551 0.26709155964211084
0.9309301106784994 0.24149456550707354
0.8941600847050551 0.34388254204722285
0.8573900587316108 0.3182855479121855
0.8206200327581665 0.2926885537771482
0.7838500067847222 0.26709155964211084
0.6919249418511114 0.3182855479121855
0.6551549158776672 0.34388254204722285
0.5816148639307785 0.26709155964211084
0.5448448379573342 0.26709155964211084
0.4896897989971677 0.1903005772369989
0.37937972107683476 0.16470358310196156
0.32422468211666833 0.24149456550707354
0.23229961718305753 0.13910658896692424
0.19552959120961322 0.21589757137203622
0.10360452627600245 0.26709155964211084
0.14037455224944675 0.1903005772369989
0.14037455224944675 0.21589757137203622
0.10360452627600245 0.24149456550707354
0.1219895392627246 0.16470358310196156
0.08521951328928029 0.13910658896692424
0.04844948731583598 0.11350959483188691
0.04844948731583598 0.11350959483188691
-0.006705551644330489 0.11350959483188691
0.011679461342391667 0.13910658896692424
-0.08024560359121911 0.16470358310196156
-0.025090564631052643 0.16470358310196156
0.011679461342391667 0.26709155964211084
0.04844948731583598 0.26709155964211084
0.04844948731583598 0.26709155964211084
-0.006705551644330489 0.3182855479121855
-0.006705551644330489 0.1903005772369989
-0.025090564631052643 0.16470358310196156
-0.08024560359121911 0.21589757137203622
-0.11701562956466342 0.11350959483188691
-0.08024560359121911 0.1903005772369989
-0.08024560359121911 0.24149456550707354
-0.06186059060449695 0.26709155964211084
-0.025090564631052643 0.24149456550707354
-0.006705551644330489 0.24149456550707354
0.011679461342391667 0.24149456550707354
0.030064474329113824 0.24149456550707354
0.030064474329113824 0.2926885537771482
-0.006705551644330489 0.2926885537771482
-0.08024560359121911 0.26709155964211084
-0.06186059060449695 0.21589757137203622
-0.08024560359121911 0.1903005772369989
-0.08024560359121911 0.2926885537771482
-0.06186059060449695 0.26709155964211084
-0.08024560359121911 0.24149456550707354
-0.006705551644330489 0.3182855479121855
-0.0434755776177748 0.34388254204722285
-0.025090564631052643 0.36947953618226015
0.011679461342391667 0.34388254204722285
-0.025090564631052643 0.2926885537771482
-0.08024560359121911 0.34388254204722285
-0.11701562956466342 0.24149456550707354
-0.08024560359121911 0.21589757137203622
-0.06186059060449695 0.24149456550707354
-0.09863061657794127 0.1903005772369989
-0.08024560359121911 0.26709155964211084
-0.06186059060449695 0.26709155964211084
-0.06186059060449695 0.1903005772369989
-0.09863061657794127 0.3182855479121855
-0.09863061657794127 0.2926885537771482
-0.09863061657794127 0.3182855479121855
-0.025090564631052643 0.3182855479121855
-0.025090564631052643 0.3182855479121855
-0.025090564631052643 0.26709155964211084
-0.025090564631052643 0.24149456550707354
-0.025090564631052643 0.1903005772369989
-0.0434755776177748 0.13910658896692424
-0.025090564631052643 0.1903005772369989
-0.0434755776177748 0.24149456550707354
-0.025090564631052643 0.26709155964211084
-0.025090564631052643 0.3182855479121855
-0.006705551644330489 0.2926885537771482
0.011679461342391667 0.26709155964211084
-0.006705551644330489 0.3182855479121855
-0.0434755776177748 0.34388254204722285
-0.06186059060449695 0.2926885537771482
-0.09863061657794127 0.21589757137203622
-0.09863061657794127 0.21589757137203622
-0.09863061657794127 0.21589757137203622
-0.08024560359121911 0.21589757137203622
-0.08024560359121911 0.2926885537771482
-0.0434755776177748 0.3182855479121855
-0.006705551644330489 0.34388254204722285
-0.006705551644330489 0.34388254204722285
0.011679461342391667 0.2926885537771482
-0.006705551644330489 0.3182855479121855
-0.006705551644330489 0.34388254204722285
-0.08024560359121911 0.26709155964211084
-0.11701562956466342 0.24149456550707354
-0.11701562956466342 0.21589757137203622
-0.1721706685248299 0.21589757137203622
-0.15378565553810775 0.16470358310196156
-0.11701562956466342 0.21589757137203622
-0.08024560359121911 0.26709155964211084
-0.0434755776177748 0.26709155964211084
-0.025090564631052643 0.2926885537771482
-0.006705551644330489 0.2926885537771482
-0.025090564631052643 0.26709155964211084
-0.06186059060449695 0.21589757137203622
-0.08024560359121911 0.16470358310196156
-0.08024560359121911 0.13910658896692424
-0.06186059060449695 0.11350959483188691
-0.08024560359121911 0.11350959483188691
-0.11701562956466342 0.16470358310196156
-0.08024560359121911 0.1903005772369989
-0.06186059060449695 0.26709155964211084
-0.06186059060449695 0.2926885537771482
-0.006705551644330489 0.3182855479121855
-0.08024560359121911 0.3182855479121855
-0.06186059060449695 0.24149456550707354
-0.006705551644330489 0.24149456550707354
-0.09863061657794127 0.1903005772369989
-0.09863061657794127 0.16470358310196156
-0.11701562956466342 0.16470358310196156
-0.11701562956466342 0.13910658896692424
-0.11701562956466342 0.13910658896692424
-0.09863061657794127 0.21589757137203622
-0.0434755776177748 0.26709155964211084
-0.025090564631052643 0.2926885537771482
-0.006705551644330489 0.2926885537771482
0.030064474329113824 0.36947953618226015
0.04844948731583598 0.3182855479121855
0.030064474329113824 0.3182855479121855
0.030064474329113824 0.24149456550707354
-0.006705551644330489 0.16470358310196156
-0.0434755776177748 0.06231560656181225
-0.0434755776177748 0.08791260069684959
-0.006705551644330489 0.13910658896692424
0.011679461342391667 0.16470358310196156
0.04844948731583598 0.13910658896692424
0.011679461342391667 0.26709155964211084
0.030064474329113824 0.26709155964211084
0.011679461342391667 0.21589757137203622
0.011679461342391667 0.21589757137203622
0.04844948731583598 0.21589757137203622
0.04844948731583598 0.1903005772369989
0.04844948731583598 0.13910658896692424
0.04844948731583598 0.08791260069684959
0.06683450030255814 0.11350959483188691
0.08521951328928029 0.13910658896692424
0.08521951328928029 0.16470358310196156
0.08521951328928029 0.1903005772369989
0.06683450030255814 0.1903005772369989
0.10360452627600245 0.24149456550707354
0.1219895392627246 0.24149456550707354
0.08521951328928029 0.21589757137203622
0.10360452627600245 0.21589757137203622
0.06683450030255814 0.21589757137203622
0.011679461342391667 0.13910658896692424
-0.006705551644330489 0.16470358310196156
0.011679461342391667 0.13910658896692424
0.030064474329113824 0.13910658896692424
0.04844948731583598 0.13910658896692424
0.06683450030255814 0.16470358310196156
0.08521951328928029 0.16470358310196156
0.10360452627600245 0.26709155964211084
0.06683450030255814 0.24149456550707354
0.08521951328928029 0.24149456550707354
0.08521951328928029 0.1903005772369989
0.04844948731583598 0.16470358310196156
0.08521951328928029 0.08791260069684959
0.04844948731583598 0.036718612426774926
0.06683450030255814 0.08791260069684959
0.08521951328928029 0.13910658896692424
0.08521951328928029 0.16470358310196156
0.1219895392627246 0.1903005772369989
0.06683450030255814 0.24149456550707354
0.14037455224944675 0.26709155964211084
0.19552959120961322 0.21589757137203622
0.17714457822289106 0.24149456550707354
0.1587595652361689 0.24149456550707354
0.1219895392627246 0.13910658896692424
0.1219895392627246 0.11350959483188691
0.08521951328928029 0.16470358310196156
0.04844948731583598 0.13910658896692424
0.08521951328928029 0.13910658896692424
0.1219895392627246 0.16470358310196156
0.1219895392627246 0.24149456550707354
0.17714457822289106 0.21589757137203622
0.2506846301697797 0.21589757137203622
0.287454656143224 0.1903005772369989
0.23229961718305753 0.21589757137203622
0.17714457822289106 0.16470358310196156
0.1587595652361689 0.13910658896692424
0.1587595652361689 0.08791260069684959
0.08521951328928029 0.08791260069684959
0.08521951328928029 0.08791260069684959
0.1219895392627246 0.06231560656181225
0.17714457822289106 0.08791260069684959
0.21391460419633537 0.13910658896692424
0.26906964315650184 0.11350959483188691
0.26906964315650184 0.13910658896692424
0.32422468211666833 0.13910658896692424
0.287454656143224 0.16470358310196156
0.287454656143224 0.16470358310196156
0.2506846301697797 0.13910658896692424
0.19552959120961322 0.06231560656181225
0.1587595652361689 0.036718612426774926
0.1219895392627246 0.036718612426774926
0.1587595652361689 0.06231560656181225
0.1587595652361689 0.08791260069684959
0.21391460419633537 0.11350959483188691
0.23229961718305753 0.13910658896692424
0.26906964315650184 0.24149456550707354
0.2506846301697797 0.16470358310196156
0.26906964315650184 0.13910658896692424
0.23229961718305753 0.06231560656181225
0.23229961718305753 0.011121618291737601
0.23229961718305753 -0.014475375843299726
0.23229961718305753 0.011121618291737601
0.2506846301697797 -0.040072369978337054
0.21391460419633537 0.011121618291737601
0.287454656143224 0.11350959483188691
0.26906964315650184 0.13910658896692424
0.287454656143224 0.16470358310196156
0.26906964315650184 0.11350959483188691
0.2506846301697797 0.11350959483188691
0.21391460419633537 0.16470358310196156
0.23229961718305753 0.08791260069684959
0.17714457822289106 0.11350959483188691
0.21391460419633537 0.08791260069684959
0.17714457822289106 0.036718612426774926
0.19552959120961322 0.06231560656181225
0.23229961718305753 0.11350959483188691
0.21391460419633537 0.11350959483188691
0.2506846301697797 0.13910658896692424
0.26906964315650184 0.11350959483188691
0.32422468211666833 0.24149456550707354
0.37937972107683476 0.1903005772369989
0.39776473406355695 0.13910658896692424
0.36099470809011264 0.13910658896692424
0.30583966912994615 0.036718612426774926
0.2506846301697797 0.06231560656181225
0.19552959120961322 -0.040072369978337054
0.1587595652361689 -0.014475375843299726
0.1587595652361689 0.036718612426774926
0.21391460419633537 0.036718612426774926
0.2506846301697797 0.11350959483188691
0.34260969510339045 0.1903005772369989
0.37937972107683476 0.1903005772369989
0.37937972107683476 0.1903005772369989
0.39776473406355695 0.1903005772369989
0.37937972107683476 0.1903005772369989
0.30583966912994615 0.11350959483188691
0.2506846301697797 0.08791260069684959
0.2506846301697797 0.06231560656181225
0.17714457822289106 0.11350959483188691
0.19552959120961322 0.08791260069684959
0.23229961718305753 0.13910658896692424
0.2506846301697797 0.16470358310196156
0.32422468211666833 0.1903005772369989
0.39776473406355695 0.1903005772369989
0.4161497470502791 0.16470358310196156
0.37937972107683476 0.21589757137203622
0.39776473406355695 0.13910658896692424
0.32422468211666833 0.11350959483188691
0.26906964315650184 0.08791260069684959
0.19552959120961322 0.011121618291737601
0.19552959120961322 0.036718612426774926
0.19552959120961322 0.06231560656181225
0.19552959120961322 0.06231560656181225
0.17714457822289106 0.11350959483188691
0.23229961718305753 0.13910658896692424
0.287454656143224 0.16470358310196156
0.4161497470502791 0.08791260069684959
0.39776473406355695 0.11350959483188691
0.43453476003700126 0.13910658896692424
0.4161497470502791 0.08791260069684959
0.37937972107683476 0.036718612426774926
0.36099470809011264 0.08791260069684959
0.26906964315650184 0.08791260069684959
0.2506846301697797 0.06231560656181225
0.23229961718305753 0.08791260069684959
0.287454656143224 0.13910658896692424
0.30583966912994615 0.16470358310196156
0.32422468211666833 0.11350959483188691
0.287454656143224 0.11350959483188691
0.30583966912994615 0.16470358310196156
0.32422468211666833 0.11350959483188691
0.32422468211666833 0.011121618291737601
0.37937972107683476 0.036718612426774926
0.37937972107683476 0.036718612426774926
0.4161497470502791 0.06231560656181225
0.43453476003700126 0.08791260069684959
0.4161497470502791 0.16470358310196156
0.4161497470502791 0.16470358310196156
0.37937972107683476 0.24149456550707354
0.36099470809011264 0.3182855479121855
0.36099470809011264 0.4206735244523348
0.4529197730237234 0.44627051858737216
0.47130478601044556 0.44627051858737216
0.47130478601044556 0.44627051858737216
0.4529197730237234 0.4206735244523348
0.43453476003700126 0.36947953618226015
0.4896897989971677 0.34388254204722285
0.47130478601044556 0.26709155964211084
0.5816148639307785 0.2926885537771482
0.6183848899042228 0.36947953618226015
0.7103099548378335 0.36947953618226015
0.7470799808112779 0.2926885537771482
0.8390050457448887 0.36947953618226015
0.9309301106784994 0.2926885537771482
1.0228551756121103 0.21589757137203622
1.0596252015855545 0.16470358310196156
1.0596252015855545 0.13910658896692424
1.0596252015855545 0.08791260069684959
0.9860851496386659 0.08791260069684959
0.9309301106784994 0.08791260069684959
0.9677001366519438 0.036718612426774926
0.9125450976917773 0.06231560656181225
0.875775071718333 0.11350959483188691
0.8573900587316108 0.06231560656181225
0.875775071718333 0.11350959483188691
0.8390050457448887 0.16470358310196156
0.7838500067847222 0.08791260069684959
0.7286949678245558 -0.014475375843299726
0.6551549158776672 -0.06566936411337437
0.5448448379573342 -0.11686335238344903
0.4161497470502791 -0.11686335238344903
0.30583966912994615 -0.11686335238344903
0.2506846301697797 -0.0912663582484117
0.26906964315650184 -0.06566936411337437
0.26906964315650184 -0.040072369978337054
0.287454656143224 0.036718612426774926
0.2506846301697797 -0.014475375843299726
0.26906964315650184 -0.014475375843299726
0.2506846301697797 -0.040072369978337054
0.2506846301697797 -0.11686335238344903
0.23229961718305753 -0.11686335238344903
0.21391460419633537 -0.14246034651848635
0.19552959120961322 -0.11686335238344903
0.19552959120961322 -0.11686335238344903
0.17714457822289106 -0.14246034651848635
0.23229961718305753 -0.0912663582484117
0.21391460419633537 -0.014475375843299726
0.26906964315650184 -0.040072369978337054
0.287454656143224 -0.0912663582484117
0.26906964315650184 -0.014475375843299726
0.30583966912994615 -0.0912663582484117
0.23229961718305753 -0.06566936411337437
0.2506846301697797 -0.11686335238344903
0.21391460419633537 -0.14246034651848635
0.19552959120961322 0.011121618291737601
0.17714457822289106 0.06231560656181225
0.17714457822289106 0.2926885537771482
0.08521951328928029 0.3182855479121855
0.011679461342391667 0.4206735244523348
-0.1354006425513856 0.4206735244523348
-0.300865759431885 0.36947953618226015
-0.4663308763123844 0.21589757137203622
-0.539870928259273 -0.014475375843299726
-0.300865759431885 -0.32163930546374764
0.32422468211666833 -0.6032062409491582
1.3905554353465532 -0.8079821940294568
2.7326613833772706 -0.9871611529747181
4.240232448288488 -0.9871611529747181
5.747803513199704 -0.9103701705696061
6.961214370323367 -0.7311912116243449
7.402454682004699 -0.7823851998944195
7.126679487203866 -0.8079821940294568
5.8397285781333155 -0.9359671647046435
3.9276872275142107 -0.9871611529747181
2.070800915855273 -1.0383551412447927
0.5448448379573342 -0.9871611529747181
-0.2640957334584407 -0.9359671647046435
-0.539870928259273 -0.8591761822995315
-0.4663308763123844 -0.8335791881644942
-0.2640957334584407 -0.7823851998944195
-0.09863061657794127 -0.8079821940294568
0.04844948731583598 -0.6799972233542702
0.06683450030255814 -0.5520122526790836
0.030064474329113824 -0.347236299598785
-0.006705551644330489 -0.24484832305863566
-0.06186059060449695 -0.11686335238344903
-0.006705551644330489 -0.14246034651848635
-0.006705551644330489 -0.06566936411337437
0.011679461342391667 -0.040072369978337054
0.04844948731583598 -0.11686335238344903
0.011679461342391667 -0.14246034651848635
-0.06186059060449695 -0.0912663582484117
-0.11701562956466342 -0.11686335238344903
-0.06186059060449695 -0.0912663582484117
-0.08024560359121911 -0.014475375843299726
-0.06186059060449695 0.011121618291737601
-0.06186059060449695 0.036718612426774926
-0.0434755776177748 -0.014475375843299726
-0.0434755776177748 -0.014475375843299726
-0.08024560359121911 -0.06566936411337437
-0.11701562956466342 -0.0912663582484117
-0.09863061657794127 -0.14246034651848635
-0.15378565553810775 -0.16805734065352368
-0.15378565553810775 -0.11686335238344903
-0.15378565553810775 -0.0912663582484117
-0.1354006425513856 0.011121618291737601
-0.09863061657794127 -0.040072369978337054
-0.09863061657794127 0.036718612426774926
-0.08024560359121911 -0.014475375843299726
-0.09863061657794127 -0.014475375843299726
-0.08024560359121911 -0.0912663582484117
-0.09863061657794127 -0.06566936411337437
-0.1354006425513856 -0.11686335238344903
-0.11701562956466342 -0.14246034651848635
-0.15378565553810775 -0.0912663582484117
-0.1354006425513856 -0.11686335238344903
-0.09863061657794127 -0.11686335238344903
-0.09863061657794127 -0.06566936411337437
-0.06186059060449695 -0.06566936411337437
-0.09863061657794127 -0.040072369978337054
-0.06186059060449695 -0.040072369978337054
-0.0434755776177748 0.011121618291737601
-0.0434755776177748 -0.040072369978337054
-0.0434755776177748 -0.040072369978337054
-0.06186059060449695 -0.0912663582484117
-0.09863061657794127 -0.0912663582484117
-0.08024560359121911 -0.0912663582484117
-0.11701562956466342 -0.14246034651848635
-0.09863061657794127 -0.0912663582484117
-0.06186059060449695 -0.040072369978337054
-0.0434755776177748 -0.040072369978337054
-0.006705551644330489 0.036718612426774926
0.011679461342391667 -0.040072369978337054
0.011679461342391667 -0.014475375843299726
0.030064474329113824 0.011121618291737601
0.011679461342391667 -0.0912663582484117
0.011679461342391667 -0.06566936411337437
0.011679461342391667 -0.0912663582484117
-0.006705551644330489 -0.14246034651848635
-0.0434755776177748 -0.11686335238344903
-0.0434755776177748 -0.040072369978337054
0.030064474329113824 -0.014475375843299726
0.011679461342391667 -0.040072369978337054
0.06683450030255814 0.011121618291737601
0.10360452627600245 0.036718612426774926
0.10360452627600245 0.011121618291737601
0.04844948731583598 0.011121618291737601
0.030064474329113824 -0.040072369978337054
0.030064474329113824 -0.040072369978337054
-0.006705551644330489 -0.0912663582484117
0.030064474329113824 -0.11686335238344903
0.06683450030255814 -0.06566936411337437
0.10360452627600245 -0.040072369978337054
0.10360452627600245 0.036718612426774926
0.14037455224944675 0.011121618291737601
0.17714457822289106 0.036718612426774926
0.19552959120961322 0.036718612426774926
0.19552959120961322 -0.014475375843299726
0.23229961718305753 -0.014475375843299726
0.19552959120961322 -0.040072369978337054
0.21391460419633537 -0.11686335238344903
0.23229961718305753 -0.0912663582484117
0.23229961718305753 -0.06566936411337437
0.2506846301697797 -0.06566936411337437
0.2506846301697797 -0.040072369978337054
0.26906964315650184 -0.014475375843299726
0.32422468211666833 0.036718612426774926
0.34260969510339045 0.036718612426774926
0.37937972107683476 -0.014475375843299726
0.37937972107683476 -0.040072369978337054
0.34260969510339045 -0.014475375843299726
0.39776473406355695 -0.11686335238344903
0.36099470809011264 -0.14246034651848635
0.36099470809011264 -0.21925132892359833
0.37937972107683476 -0.193654334788561
0.39776473406355695 -0.193654334788561
0.4161497470502791 -0.11686335238344903
0.47130478601044556 -0.14246034651848635
0.4529197730237234 -0.06566936411337437
0.5448448379573342 -0.06566936411337437
0.5448448379573342 -0.014475375843299726
0.5816148639307785 -0.0912663582484117
0.6183848899042228 -0.0912663582484117
0.5632298509440563 -0.14246034651848635
0.5816148639307785 -0.193654334788561
0.5999998769175007 -0.193654334788561
0.6183848899042228 -0.16805734065352368
0.6367699028909449 -0.193654334788561
0.6919249418511114 -0.11686335238344903
0.8022350197714444 -0.193654334788561
0.8941600847050551 -0.193654334788561
0.9309301106784994 -0.16805734065352368
1.0228551756121103 -0.14246034651848635
1.0596252015855545 -0.193654334788561
1.114780240545721 -0.21925132892359833
1.1515502665191653 -0.270445317193673
1.2067053054793317 -0.347236299598785
1.243475331452776 -0.3728332937338223
1.3170153833996647 -0.42402728200389694
1.3905554353465532 -0.4496242761389343
1.4273254613199977 -0.39843028786885964
1.5376355392403307 -0.347236299598785
1.6111755911872192 -0.347236299598785
1.684715643134108 -0.42402728200389694
1.7766407080677187 -0.39843028786885964
1.8317957470278852 -0.4496242761389343
1.8685657730013294 -0.4752212702739716
1.9053357989747737 -0.5264152585440462
1.9604908379349402 -0.5520122526790836
1.942105824948218 -0.6032062409491582
1.9972608639083844 -0.5520122526790836
1.9972608639083844 -0.6032062409491582
2.0891859288419954 -0.5776092468141208
2.1443409678021617 -0.5520122526790836
2.181110993775606 -0.5520122526790836
2.2546510457224946 -0.5264152585440462
2.291421071695939 -0.5008182644090089
2.3098060846826614 -0.5776092468141208
2.328191097669383 -0.6032062409491582
2.328191097669383 -0.5776092468141208
2.291421071695939 -0.5776092468141208
2.291421071695939 -0.6032062409491582
2.273036058709217 -0.6544002292192329
2.2362660327357724 -0.6288032350841956
2.21788101974905 -0.6032062409491582
2.21788101974905 -0.5520122526790836
2.1994960067623284 -0.5776092468141208
2.181110993775606 -0.4752212702739716
2.1443409678021617 -0.5264152585440462
2.1443409678021617 -0.4752212702739716
2.070800915855273 -0.5264152585440462
1.9788758509216624 -0.5776092468141208
1.9053357989747737 -0.6032062409491582
1.8501807600146072 -0.5520122526790836
1.7766407080677187 -0.5008182644090089
1.70310065612083 -0.5776092468141208
1.6663306301473857 -0.4496242761389343
1.6295606041739414 -0.4752212702739716
1.574405565213775 -0.347236299598785
1.5376355392403307 -0.3728332937338223
1.4824805002801642 -0.4496242761389343
1.4089404483332755 -0.3728332937338223
1.3721704223598312 -0.4496242761389343
1.2986303704129425 -0.39843028786885964
1.2067053054793317 -0.42402728200389694
1.1331652535324432 -0.42402728200389694
1.0596252015855545 -0.4496242761389343
1.0228551756121103 -0.39843028786885964
0.9860851496386659 -0.39843028786885964
0.9493151236652216 -0.3728332937338223
0.9493151236652216 -0.32163930546374764
0.9493151236652216 -0.24484832305863566
0.8573900587316108 -0.24484832305863566
0.8390050457448887 -0.270445317193673
0.8573900587316108 -0.270445317193673
0.8022350197714444 -0.270445317193673
0.765464993798 -0.29604231132871034
0.7286949678245558 -0.3728332937338223
0.7103099548378335 -0.347236299598785
0.7103099548378335 -0.270445317193673
0.6551549158776672 -0.24484832305863566
0.6919249418511114 -0.21925132892359833
0.6735399288643893 -0.270445317193673
0.6735399288643893 -0.24484832305863566
0.6735399288643893 -0.24484832305863566
0.6551549158776672 -0.21925132892359833
0.6551549158776672 -0.24484832305863566
0.6367699028909449 -0.29604231132871034
0.5999998769175007 -0.270445317193673
0.5999998769175007 -0.29604231132871034
0.5632298509440563 -0.29604231132871034
0.5448448379573342 -0.21925132892359833
0.5632298509440563 -0.21925132892359833
0.5999998769175007 -0.193654334788561
0.5999998769175007 -0.21925132892359833
0.5999998769175007 -0.16805734065352368
0.5816148639307785 -0.16805734065352368
0.5632298509440563 -0.16805734065352368
0.5999998769175007 -0.16805734065352368
0.5448448379573342 -0.24484832305863566
0.5080748119838898 -0.270445317193673
0.4896897989971677 -0.32163930546374764
0.4529197730237234 -0.29604231132871034
0.4529197730237234 -0.29604231132871034
0.43453476003700126 -0.193654334788561
0.4529197730237234 -0.14246034651848635
0.4529197730237234 -0.16805734065352368
0.47130478601044556 -0.0912663582484117
0.43453476003700126 -0.11686335238344903
0.4161497470502791 -0.0912663582484117
0.4161497470502791 -0.16805734065352368
0.4161497470502791 -0.16805734065352368
0.43453476003700126 -0.193654334788561
0.39776473406355695 -0.16805734065352368
0.37937972107683476 -0.14246034651848635
0.37937972107683476 -0.06566936411337437
0.34260969510339045 0.011121618291737601
0.39776473406355695 0.011121618291737601
0.36099470809011264 0.16470358310196156
0.39776473406355695 0.21589757137203622
0.4161497470502791 0.21589757137203622
0.43453476003700126 0.24149456550707354
0.4896897989971677 0.34388254204722285
0.5080748119838898 0.21589757137203622
0.5264598249706121 0.16470358310196156
0.47130478601044556 0.13910658896692424
0.5080748119838898 0.08791260069684959
0.5632298509440563 0.011121618291737601
0.5816148639307785 0.06231560656181225
0.6183848899042228 0.011121618291737601
0.6367699028909449 0.011121618291737601
0.7103099548378335 0.011121618291737601
0.8206200327581665 -0.014475375843299726
0.9125450976917773 -0.0912663582484117
0.9125450976917773 -0.14246034651848635
0.8941600847050551 -0.193654334788561
0.8573900587316108 -0.21925132892359833
0.8390050457448887 -0.32163930546374764
0.8206200327581665 -0.347236299598785
0.7286949678245558 -0.347236299598785
0.6551549158776672 -0.29604231132871034
0.6551549158776672 -0.21925132892359833
0.6367699028909449 -0.16805734065352368
0.6183848899042228 -0.11686335238344903
0.5632298509440563 -0.14246034651848635
0.5080748119838898 -0.193654334788561
0.4529197730237234 -0.24484832305863566
0.34260969510339045 -0.32163930546374764
0.2506846301697797 -0.3728332937338223
0.14037455224944675 -0.39843028786885964
0.06683450030255814 -0.3728332937338223
-0.006705551644330489 -0.42402728200389694
-0.006705551644330489 -0.42402728200389694
-0.0434755776177748 -0.347236299598785
-0.0434755776177748 -0.32163930546374764
-0.006705551644330489 -0.32163930546374764
0.011679461342391667 -0.347236299598785
-0.006705551644330489 -0.347236299598785
-0.025090564631052643 -0.347236299598785
-0.0434755776177748 -0.3728332937338223
-0.025090564631052643 -0.39843028786885964
-0.11701562956466342 -0.42402728200389694
-0.15378565553810775 -0.4496242761389343
-0.1354006425513856 -0.4496242761389343
-0.1354006425513856 -0.39843028786885964
-0.1354006425513856 -0.347236299598785
-0.1354006425513856 -0.347236299598785
-0.11701562956466342 -0.24484832305863566
-0.11701562956466342 -0.270445317193673
-0.1354006425513856 -0.32163930546374764
-0.11701562956466342 -0.347236299598785
-0.1354006425513856 -0.3728332937338223
-0.15378565553810775 -0.347236299598785
-0.15378565553810775 -0.32163930546374764
-0.24571072047171852 -0.347236299598785
-0.2089406944982742 -0.347236299598785
-0.22732570748499636 -0.270445317193673
-0.19055568151155206 -0.29604231132871034
-0.19055568151155206 -0.270445317193673
-0.19055568151155206 -0.270445317193673
-0.1354006425513856 -0.24484832305863566
-0.15378565553810775 -0.270445317193673
-0.1354006425513856 -0.270445317193673
-0.1721706685248299 -0.29604231132871034
-0.15378565553810775 -0.347236299598785
-0.22732570748499636 -0.3728332937338223
-0.24571072047171852 -0.39843028786885964
-0.2089406944982742 -0.3728332937338223
-0.22732570748499636 -0.32163930546374764
-0.19055568151155206 -0.270445317193673
-0.19055568151155206 -0.24484832305863566
-0.15378565553810775 -0.16805734065352368
-0.09863061657794127 -0.16805734065352368
-0.1354006425513856 -0.270445317193673
-0.11701562956466342 -0.270445317193673
-0.1721706685248299 -0.29604231132871034
-0.19055568151155206 -0.32163930546374764
-0.19055568151155206 -0.32163930546374764
-0.19055568151155206 -0.270445317193673
-0.2089406944982742 -0.29604231132871034
-0.22732570748499636 -0.21925132892359833
-0.15378565553810775 -0.24484832305863566
-0.1354006425513856 -0.21925132892359833
-0.08024560359121911 -0.193654334788561
-0.09863061657794127 -0.14246034651848635
-0.11701562956466342 -0.16805734065352368
-0.09863061657794127 -0.21925132892359833
-0.1354006425513856 -0.270445317193673
-0.1354006425513856 -0.193654334788561
-0.1721706685248299 -0.270445317193673
-0.1721706685248299 -0.347236299598785
-0.19055568151155206 -0.270445317193673
-0.19055568151155206 -0.21925132892359833
-0.15378565553810775 -0.270445317193673
-0.1354006425513856 -0.21925132892359833
-0.09863061657794127 -0.16805734065352368
-0.11701562956466342 -0.193654334788561
-0.1354006425513856 -0.16805734065352368
-0.1354006425513856 -0.193654334788561
-0.1354006425513856 -0.21925132892359833
-0.11701562956466342 -0.21925132892359833
-0.15378565553810775 -0.270445317193673
-0.15378565553810775 -0.270445317193673
-0.1721706685248299 -0.21925132892359833
-0.1721706685248299 -0.193654334788561
-0.15378565553810775 -0.16805734065352368
-0.1354006425513856 -0.16805734065352368
-0.11701562956466342 -0.16805734065352368
-0.06186059060449695 -0.16805734065352368
-0.11701562956466342 -0.16805734065352368
-0.08024560359121911 -0.16805734065352368
-0.1354006425513856 -0.21925132892359833
-0.15378565553810775 -0.270445317193673
-0.15378565553810775 -0.24484832305863566
-0.15378565553810775 -0.270445317193673
-0.19055568151155206 -0.21925132892359833
-0.1354006425513856 -0.21925132892359833
-0.1354006425513856 -0.24484832305863566
-0.1354006425513856 -0.14246034651848635
-0.08024560359121911 -0.16805734065352368
-0.025090564631052643 -0.21925132892359833
-0.08024560359121911 -0.193654334788561
-0.06186059060449695 -0.24484832305863566
-0.1354006425513856 -0.193654334788561
-0.1354006425513856 -0.270445317193673
-0.11701562956466342 -0.21925132892359833
-0.11701562956466342 -0.32163930546374764
-0.15378565553810775 -0.270445317193673
-0.15378565553810775 -0.270445317193673
-0.11701562956466342 -0.24484832305863566
-0.09863061657794127 -0.21925132892359833
-0.06186059060449695 -0.16805734065352368
-0.0434755776177748 -0.16805734065352368
-0.025090564631052643 -0.16805734065352368
-0.006705551644330489 -0.21925132892359833
-0.06186059060449695 -0.16805734065352368
-0.0434755776177748 -0.24484832305863566
-0.08024560359121911 -0.32163930546374764
-0.11701562956466342 -0.347236299598785
-0.08024560359121911 -0.29604231132871034
-0.08024560359121911 -0.21925132892359833
-0.08024560359121911 -0.24484832305863566
-0.0434755776177748 -0.21925132892359833
-0.06186059060449695 -0.24484832305863566
0.011679461342391667 -0.21925132892359833
-0.006705551644330489 -0.16805734065352368
-0.025090564631052643 -0.16805734065352368
-0.006705551644330489 -0.24484832305863566
-0.025090564631052643 -0.29604231132871034
-0.006705551644330489 -0.24484832305863566
-0.025090564631052643 -0.29604231132871034
-0.0434755776177748 -0.24484832305863566
-0.0434755776177748 -0.24484832305863566
-0.025090564631052643 -0.21925132892359833
-0.006705551644330489 -0.193654334788561
0.04844948731583598 -0.11686335238344903
0.08521951328928029 -0.193654334788561
0.030064474329113824 -0.14246034651848635
0.04844948731583598 -0.193654334788561
-0.025090564631052643 -0.270445317193673
0.011679461342391667 -0.24484832305863566
0.030064474329113824 -0.21925132892359833
-0.006705551644330489 -0.270445317193673
0.011679461342391667 -0.32163930546374764
0.011679461342391667 -0.24484832305863566
0.030064474329113824 -0.270445317193673
0.030064474329113824 -0.21925132892359833
0.06683450030255814 -0.16805734065352368
0.08521951328928029 -0.14246034651848635
0.08521951328928029 -0.14246034651848635
0.06683450030255814 -0.193654334788561
0.04844948731583598 -0.21925132892359833
0.030064474329113824 -0.24484832305863566
0.011679461342391667 -0.270445317193673
0.030064474329113824 -0.270445317193673
0.04844948731583598 -0.193654334788561
0.011679461342391667 -0.270445317193673
0.04844948731583598 -0.14246034651848635
0.08521951328928029 -0.193654334788561
0.08521951328928029 -0.11686335238344903
0.1219895392627246 -0.193654334788561
0.08521951328928029 -0.16805734065352368
0.08521951328928029 -0.16805734065352368
0.08521951328928029 -0.24484832305863566
0.030064474329113824 -0.29604231132871034
-0.0434755776177748 -0.270445317193673
-0.025090564631052643 -0.24484832305863566
-0.006705551644330489 -0.24484832305863566
0.011679461342391667 -0.24484832305863566
0.04844948731583598 -0.193654334788561
0.08521951328928029 -0.16805734065352368
0.10360452627600245 -0.16805734065352368
0.04844948731583598 -0.0912663582484117
0.06683450030255814 -0.16805734065352368
0.04844948731583598 -0.21925132892359833
0.011679461342391667 -0.270445317193673
-0.006705551644330489 -0.29604231132871034
0.04844948731583598 -0.29604231132871034
0.04844948731583598 -0.270445317193673
0.04844948731583598 -0.24484832305863566
0.030064474329113824 -0.29604231132871034
0.030064474329113824 -0.21925132892359833
0.04844948731583598 -0.21925132892359833
0.08521951328928029 -0.16805734065352368
0.1219895392627246 -0.11686335238344903
0.08521951328928029 -0.16805734065352368
0.1219895392627246 -0.193654334788561
0.08521951328928029 -0.270445317193673
0.06683450030255814 -0.24484832305863566
0.06683450030255814 -0.270445317193673
0.06683450030255814 -0.270445317193673
0.04844948731583598 -0.32163930546374764
0.10360452627600245 -0.29604231132871034
0.10360452627600245 -0.270445317193673
0.10360452627600245 -0.21925132892359833
0.14037455224944675 -0.193654334788561
0.14037455224944675 -0.270445317193673
0.14037455224944675 -0.21925132892359833
0.1219895392627246 -0.270445317193673
0.14037455224944675 -0.270445317193673
0.10360452627600245 -0.29604231132871034
0.10360452627600245 -0.32163930546374764
0.1219895392627246 -0.347236299598785
0.1219895392627246 -0.32163930546374764
0.14037455224944675 -0.29604231132871034
0.1587595652361689 -0.24484832305863566
0.1587595652361689 -0.21925132892359833
0.19552959120961322 -0.16805734065352368
0.21391460419633537 -0.193654334788561
0.21391460419633537 -0.16805734065352368
0.17714457822289106 -0.193654334788561
0.19552959120961322 -0.270445317193673
0.1587595652361689 -0.270445317193673
0.1587595652361689 -0.29604231132871034
0.1219895392627246 -0.29604231132871034
0.14037455224944675 -0.32163930546374764
0.1587595652361689 -0.21925132892359833
0.1587595652361689 -0.21925132892359833
0.17714457822289106 -0.193654334788561
0.19552959120961322 -0.14246034651848635
0.19552959120961322 -0.16805734065352368
0.19552959120961322 -0.16805734065352368
0.21391460419633537 -0.24484832305863566
0.23229961718305753 -0.270445317193673
0.19552959120961322 -0.270445317193673
0.17714457822289106 -0.3728332937338223
0.1587595652361689 -0.32163930546374764
0.1587595652361689 -0.347236299598785
0.1587595652361689 -0.29604231132871034
0.17714457822289106 -0.270445317193673
0.23229961718305753 -0.21925132892359833
0.2506846301697797 -0.21925132892359833
0.23229961718305753 -0.193654334788561
0.2506846301697797 -0.21925132892359833
0.23229961718305753 -0.21925132892359833
0.2506846301697797 -0.32163930546374764
0.23229961718305753 -0.32163930546374764
0.19552959120961322 -0.347236299598785
0.21391460419633537 -0.3728332937338223
0.19552959120961322 -0.347236299598785
0.19552959120961322 -0.29604231132871034
0.19552959120961322 -0.24484832305863566
0.23229961718305753 -0.21925132892359833
0.26906964315650184 -0.193654334788561
0.30583966912994615 -0.16805734065352368
0.30583966912994615 -0.16805734065352368
0.26906964315650184 -0.24484832305863566
0.2506846301697797 -0.24484832305863566
0.23229961718305753 -0.270445317193673
0.2506846301697797 -0.270445317193673
0.19552959120961322 -0.24484832305863566
0.1587595652361689 -0.270445317193673
0.21391460419633537 -0.21925132892359833
0.21391460419633537 -0.193654334788561
0.2506846301697797 -0.193654334788561
0.26906964315650184 -0.11686335238344903
0.26906964315650184 -0.16805734065352368
0.30583966912994615 -0.16805734065352368
0.287454656143224 -0.11686335238344903
0.23229961718305753 -0.14246034651848635
0.23229961718305753 -0.21925132892359833
0.21391460419633537 -0.21925132892359833
0.19552959120961322 -0.193654334788561
0.21391460419633537 -0.21925132892359833
0.19552959120961322 -0.16805734065352368
0.21391460419633537 -0.16805734065352368
0.23229961718305753 -0.16805734065352368
0.23229961718305753 -0.11686335238344903
0.287454656143224 -0.06566936411337437
0.26906964315650184 -0.06566936411337437
0.30583966912994615 -0.0912663582484117
0.287454656143224 -0.16805734065352368
0.23229961718305753 -0.21925132892359833
0.21391460419633537 -0.193654334788561
0.2506846301697797 -0.14246034651848635
0.23229961718305753 -0.14246034651848635
0.26906964315650184 -0.014475375843299726
0.26906964315650184 0.011121618291737601
0.287454656143224 0.08791260069684959
0.287454656143224 0.1903005772369989
0.39776473406355695 0.26709155964211084
0.37937972107683476 0.24149456550707354
0.39776473406355695 0.34388254204722285
0.39776473406355695 0.34388254204722285
0.36099470809011264 0.3182855479121855
0.39776473406355695 0.2926885537771482
0.43453476003700126 0.24149456550707354
0.4529197730237234 0.16470358310196156
0.4529197730237234 0.11350959483188691
0.5264598249706121 0.06231560656181225
0.5816148639307785 0.11350959483188691
0.6551549158776672 0.11350959483188691
0.7470799808112779 0.08791260069684959
0.7838500067847222 0.08791260069684959
0.8941600847050551 0.036718612426774926
0.9309301106784994 -0.014475375843299726
0.9493151236652216 -0.0912663582484117
0.9493151236652216 -0.11686335238344903
0.9309301106784994 -0.14246034651848635
0.9125450976917773 -0.16805734065352368
0.8573900587316108 -0.16805734065352368
0.8206200327581665 -0.16805734065352368
0.765464993798 -0.14246034651848635
0.8022350197714444 -0.06566936411337437
0.7470799808112779 -0.040072369978337054
0.7103099548378335 -0.0912663582484117
0.6367699028909449 -0.06566936411337437
0.5080748119838898 -0.16805734065352368
0.4896897989971677 -0.193654334788561
0.36099470809011264 -0.270445317193673
0.30583966912994615 -0.32163930546374764
0.2506846301697797 -0.32163930546374764
0.17714457822289106 -0.29604231132871034
0.19552959120961322 -0.24484832305863566
0.21391460419633537 -0.193654334788561
0.21391460419633537 -0.21925132892359833
0.21391460419633537 -0.16805734065352368
0.19552959120961322 -0.21925132892359833
0.21391460419633537 -0.21925132892359833
0.17714457822289106 -0.24484832305863566
0.10360452627600245 -0.270445317193673
0.10360452627600245 -0.347236299598785
0.10360452627600245 -0.21925132892359833
0.06683450030255814 -0.193654334788561
0.08521951328928029 -0.270445317193673
0.10360452627600245 -0.193654334788561
0.1587595652361689 -0.14246034651848635
0.17714457822289106 -0.14246034651848635
0.17714457822289106 -0.16805734065352368
0.17714457822289106 -0.11686335238344903
0.19552959120961322 -0.14246034651848635
0.14037455224944675 -0.11686335238344903
0.14037455224944675 -0.14246034651848635
0.14037455224944675 -0.06566936411337437
0.1219895392627246 0.036718612426774926
0.06683450030255814 0.13910658896692424
0.08521951328928029 0.34388254204722285
-0.025090564631052643 0.4206735244523348
-0.1721706685248299 0.47186751272240945
-0.4111758373522179 0.4206735244523348
-0.6134109802061616 0.34388254204722285
-0.6685660191663281 0.08791260069684959
-0.3560207983920515 -0.14246034651848635
0.37937972107683476 -0.42402728200389694
1.574405565213775 -0.7311912116243449
3.137131669085158 -0.9615641588396808
4.828552863863597 -1.0895491295148674
6.372893954748258 -1.3199220767302033
7.457609720964864 -1.4735040415404272
7.641459850832086 -1.6782799946207259
6.832519279416312 -1.7038769887557632
5.214638136584762 -1.7038769887557632
3.3025967859656578 -1.6782799946207259
1.684715643134108 -1.5758920180805767
0.7103099548378335 -1.3199220767302033
0.30583966912994615 -1.06395213537983
0.23229961718305753 -0.9103701705696061
0.37937972107683476 -0.7311912116243449
0.5816148639307785 -0.6288032350841956
0.6735399288643893 -0.5008182644090089
0.6183848899042228 -0.32163930546374764
0.4896897989971677 -0.11686335238344903
0.32422468211666833 -0.06566936411337437
0.1587595652361689 0.11350959483188691
0.04844948731583598 0.08791260069684959
0.030064474329113824 0.13910658896692424
-0.006705551644330489 0.16470358310196156
-0.0434755776177748 0.08791260069684959
-0.06186059060449695 0.06231560656181225
-0.11701562956466342 0.036718612426774926
-0.11701562956466342 0.06231560656181225
-0.1721706685248299 0.06231560656181225
-0.19055568151155206 0.11350959483188691
-0.1721706685248299 0.13910658896692424
-0.19055568151155206 0.16470358310196156
-0.1721706685248299 0.1903005772369989
-0.1354006425513856 0.24149456550707354
-0.1354006425513856 0.13910658896692424
-0.1354006425513856 0.11350959483188691
-0.19055568151155206 0.036718612426774926
-0.19055568151155206 0.11350959483188691
-0.24571072047171852 0.08791260069684959
-0.24571072047171852 0.036718612426774926
-0.24571072047171852 0.11350959483188691
-0.24571072047171852 0.13910658896692424
-0.2824807464451628 0.16470358310196156
-0.2640957334584407 0.16470358310196156
-0.19055568151155206 0.21589757137203622
-0.1354006425513856 0.16470358310196156
-0.1721706685248299 0.11350959483188691
-0.15378565553810775 0.1903005772369989
-0.1721706685248299 0.11350959483188691
-0.2089406944982742 0.16470358310196156
-0.24571072047171852 0.11350959483188691
-0.2640957334584407 0.08791260069684959
-0.2824807464451628 0.11350959483188691
-0.2089406944982742 0.08791260069684959
-0.19055568151155206 0.11350959483188691
-0.1354006425513856 0.11350959483188691
-0.15378565553810775 0.24149456550707354
-0.09863061657794127 0.1903005772369989
-0.06186059060449695 0.1903005772369989
-0.0434755776177748 0.11350959483188691
-0.08024560359121911 0.13910658896692424
-0.06186059060449695 0.11350959483188691
-0.11701562956466342 0.08791260069684959
-0.15378565553810775 0.011121618291737601
-0.1354006425513856 0.11350959483188691
-0.2089406944982742 0.11350959483188691
-0.19055568151155206 0.11350959483188691
-0.11701562956466342 0.08791260069684959
-0.08024560359121911 0.24149456550707354
-0.06186059060449695 0.11350959483188691
-0.06186059060449695 0.16470358310196156
-0.0434755776177748 0.13910658896692424
-0.06186059060449695 0.13910658896692424
-0.06186059060449695 0.11350959483188691
-0.1354006425513856 0.08791260069684959
-0.11701562956466342 0.06231560656181225
-0.15378565553810775 0.06231560656181225
-0.11701562956466342 0.011121618291737601
-0.08024560359121911 0.13910658896692424
-0.09863061657794127 0.16470358310196156
-0.006705551644330489 0.13910658896692424
0.06683450030255814 0.16470358310196156
0.1219895392627246 0.13910658896692424
0.14037455224944675 0.16470358310196156
0.1219895392627246 0.16470358310196156
0.1219895392627246 0.11350959483188691
0.08521951328928029 0.11350959483188691
0.011679461342391667 0.08791260069684959
0.10360452627600245 0.06231560656181225
0.06683450030255814 0.11350959483188691
0.10360452627600245 0.11350959483188691
0.14037455224944675 0.21589757137203622
0.19552959120961322 0.21589757137203622
0.2506846301697797 0.1903005772369989
0.23229961718305753 0.24149456550707354
0.287454656143224 0.1903005772369989
0.30583966912994615 0.11350959483188691
0.30583966912994615 0.11350959483188691
0.30583966912994615 0.13910658896692424
0.2506846301697797 0.13910658896692424
0.23229961718305753 0.11350959483188691
0.26906964315650184 0.11350959483188691
0.30583966912994615 0.1903005772369989
0.36099470809011264 0.26709155964211084
0.43453476003700126 0.26709155964211084
0.4529197730237234 0.2926885537771482
0.4529197730237234 0.24149456550707354
0.47130478601044556 0.21589757137203622
0.43453476003700126 0.1903005772369989
0.4161497470502791 0.1903005772369989
0.5080748119838898 0.13910658896692424
0.47130478601044556 0.16470358310196156
0.5264598249706121 0.13910658896692424
0.5264598249706121 0.1903005772369989
0.5632298509440563 0.26709155964211084
0.5816148639307785 0.21589757137203622
0.5999998769175007 0.1903005772369989
0.6367699028909449 0.1903005772369989
0.6735399288643893 0.24149456550707354
0.7103099548378335 0.24149456550707354
0.7103099548378335 0.1903005772369989
0.765464993798 0.1903005772369989
0.7470799808112779 0.13910658896692424
0.6919249418511114 0.13910658896692424
0.7103099548378335 0.13910658896692424
0.7286949678245558 0.16470358310196156
0.8206200327581665 0.16470358310196156
0.875775071718333 0.1903005772369989
0.9677001366519438 0.1903005772369989
1.0412401885988325 0.1903005772369989
1.0963952275589988 0.08791260069684959
1.0963952275589988 0.13910658896692424
1.1515502665191653 0.11350959483188691
1.1515502665191653 0.036718612426774926
1.1331652535324432 0.06231560656181225
1.1699352795058875 -0.040072369978337054
1.1883202924926097 -0.040072369978337054
1.2618603444394982 -0.040072369978337054
1.2986303704129425 -0.014475375843299726
1.3721704223598312 -0.014475375843299726
1.464095487293442 0.011121618291737601
1.5192505262536085 0.036718612426774926
1.5192505262536085 0.011121618291737601
1.5376355392403307 -0.0912663582484117
1.5560205522270527 -0.14246034651848635
1.574405565213775 -0.193654334788561
1.592790578200497 -0.21925132892359833
1.6111755911872192 -0.193654334788561
1.6479456171606635 -0.21925132892359833
1.6663306301473857 -0.21925132892359833
1.7214856691075522 -0.16805734065352368
1.7950257210544407 -0.193654334788561
1.8501807600146072 -0.14246034651848635
1.923720811961496 -0.16805734065352368
1.923720811961496 -0.14246034651848635
1.9604908379349402 -0.16805734065352368
1.942105824948218 -0.24484832305863566
1.9053357989747737 -0.24484832305863566
1.9053357989747737 -0.270445317193673
1.8501807600146072 -0.29604231132871034
1.8685657730013294 -0.29604231132871034
1.8685657730013294 -0.21925132892359833
1.8869507859880517 -0.16805734065352368
1.9053357989747737 -0.14246034651848635
1.923720811961496 -0.14246034651848635
1.942105824948218 -0.11686335238344903
1.8685657730013294 -0.0912663582484117
1.8685657730013294 -0.14246034651848635
1.7950257210544407 -0.193654334788561
1.7398706820942742 -0.193654334788561
1.7214856691075522 -0.24484832305863566
1.6663306301473857 -0.270445317193673
1.6663306301473857 -0.21925132892359833
1.592790578200497 -0.24484832305863566
1.5560205522270527 -0.193654334788561
1.5008655132668862 -0.16805734065352368
1.464095487293442 -0.06566936411337437
1.4089404483332755 -0.040072369978337054
1.3905554353465532 -0.06566936411337437
1.335400396386387 -0.040072369978337054
1.2618603444394982 -0.0912663582484117
1.2802453574262205 -0.11686335238344903
1.2067053054793317 -0.14246034651848635
1.114780240545721 -0.06566936411337437
1.0780102145722767 -0.0912663582484117
0.9493151236652216 -0.014475375843299726
0.8941600847050551 0.036718612426774926
0.875775071718333 0.13910658896692424
0.8941600847050551 0.06231560656181225
0.9309301106784994 0.11350959483188691
0.9493151236652216 0.08791260069684959
0.9677001366519438 0.11350959483188691
0.875775071718333 0.036718612426774926
0.8573900587316108 0.06231560656181225
0.8022350197714444 0.13910658896692424
0.7103099548378335 0.08791260069684959
0.6735399288643893 0.11350959483188691
0.5999998769175007 0.13910658896692424
0.6367699028909449 0.21589757137203622
0.6183848899042228 0.21589757137203622
0.6367699028909449 0.24149456550707354
0.6735399288643893 0.21589757137203622
0.6735399288643893 0.21589757137203622
0.6551549158776672 0.16470358310196156
0.6367699028909449 0.21589757137203622
0.6367699028909449 0.21589757137203622
0.6183848899042228 0.11350959483188691
0.5999998769175007 0.13910658896692424
0.5632298509440563 0.13910658896692424
0.5448448379573342 0.11350959483188691
0.5080748119838898 0.24149456550707354
0.5632298509440563 0.21589757137203622
0.5816148639307785 0.26709155964211084
0.5999998769175007 0.26709155964211084
0.6367699028909449 0.21589757137203622
0.6551549158776672 0.21589757137203622
0.5816148639307785 0.1903005772369989
0.5816148639307785 0.16470358310196156
0.5080748119838898 0.16470358310196156
0.47130478601044556 0.08791260069684959
0.39776473406355695 0.21589757137203622
0.37937972107683476 0.13910658896692424
0.4529197730237234 0.21589757137203622
0.47130478601044556 0.24149456550707354
0.5448448379573342 0.2926885537771482
0.5448448379573342 0.2926885537771482
0.5632298509440563 0.3182855479121855
0.5816148639307785 0.34388254204722285
0.5448448379573342 0.3950765303172975
0.5448448379573342 0.4206735244523348
0.4529197730237234 0.44627051858737216
0.4529197730237234 0.44627051858737216
0.47130478601044556 0.44627051858737216
0.5448448379573342 0.44627051858737216
0.6183848899042228 0.4206735244523348
0.6735399288643893 0.4974645068574468
0.7286949678245558 0.4974645068574468
0.7838500067847222 0.5230615009924842
0.7286949678245558 0.4206735244523348
0.765464993798 0.36947953618226015
0.7470799808112779 0.26709155964211084
0.765464993798 0.24149456550707354
0.8390050457448887 0.16470358310196156
0.8941600847050551 0.11350959483188691
0.9860851496386659 0.11350959483188691
1.0228551756121103 0.11350959483188691
0.9860851496386659 0.13910658896692424
1.004470162625388 0.08791260069684959
0.875775071718333 0.08791260069684959
0.875775071718333 0.08791260069684959
0.8206200327581665 0.13910658896692424
0.8022350197714444 0.11350959483188691
0.765464993798 0.11350959483188691
0.7286949678245558 0.13910658896692424
0.5816148639307785 0.06231560656181225
0.4896897989971677 0.036718612426774926
0.39776473406355695 0.011121618291737601
0.30583966912994615 0.011121618291737601
0.287454656143224 0.011121618291737601
0.23229961718305753 0.08791260069684959
0.2506846301697797 0.11350959483188691
0.21391460419633537 0.08791260069684959
0.1587595652361689 0.13910658896692424
0.1587595652361689 0.036718612426774926
0.10360452627600245 -0.040072369978337054
0.08521951328928029 -0.06566936411337437
0.04844948731583598 -0.06566936411337437
-0.006705551644330489 -0.040072369978337054
0.030064474329113824 -0.06566936411337437
0.06683450030255814 -0.06566936411337437
0.06683450030255814 -0.040072369978337054
0.10360452627600245 -0.06566936411337437
0.1219895392627246 0.036718612426774926
0.1219895392627246 -0.014475375843299726
0.06683450030255814 0.036718612426774926
0.06683450030255814 0.13910658896692424
0.04844948731583598 0.036718612426774926
0.04844948731583598 -0.014475375843299726
0.08521951328928029 0.011121618291737601
0.08521951328928029 -0.06566936411337437
0.08521951328928029 -0.040072369978337054
0.06683450030255814 0.011121618291737601
0.04844948731583598 0.036718612426774926
0.06683450030255814 0.08791260069684959
0.04844948731583598 0.11350959483188691
0.06683450030255814 0.13910658896692424
0.06683450030255814 0.13910658896692424
0.011679461342391667 0.08791260069684959
0.011679461342391667 0.08791260069684959
-0.025090564631052643 0.06231560656181225
-0.006705551644330489 -0.014475375843299726
-0.0434755776177748 0.011121618291737601
-0.08024560359121911 -0.014475375843299726
-0.0434755776177748 0.06231560656181225
-0.006705551644330489 0.08791260069684959
0.011679461342391667 0.06231560656181225
0.011679461342391667 0.11350959483188691
0.030064474329113824 0.13910658896692424
0.06683450030255814 0.1903005772369989
0.030064474329113824 0.16470358310196156
0.04844948731583598 0.06231560656181225
0.011679461342391667 0.08791260069684959
-0.0434755776177748 0.011121618291737601
-0.09863061657794127 0.011121618291737601
-0.11701562956466342 0.011121618291737601
-0.025090564631052643 0.08791260069684959
-0.025090564631052643 0.1903005772369989
0.08521951328928029 0.1903005772369989
0.14037455224944675 0.1903005772369989
0.14037455224944675 0.13910658896692424
0.10360452627600245 0.1903005772369989
0.10360452627600245 0.16470358310196156
0.08521951328928029 0.11350959483188691
0.04844948731583598 0.13910658896692424
0.011679461342391667 0.06231560656181225
-0.006705551644330489 0.036718612426774926
0.030064474329113824 0.06231560656181225
0.030064474329113824 0.11350959483188691
0.04844948731583598 0.08791260069684959
0.06683450030255814 0.21589757137203622
0.10360452627600245 0.24149456550707354
0.08521951328928029 0.24149456550707354
0.10360452627600245 0.2926885537771482
0.08521951328928029 0.21589757137203622
0.04844948731583598 0.1903005772369989
0.030064474329113824 0.08791260069684959
0.030064474329113824 0.036718612426774926
0.011679461342391667 0.036718612426774926
-0.06186059060449695 0.036718612426774926
-0.006705551644330489 0.011121618291737601
-0.006705551644330489 0.06231560656181225
-0.025090564631052643 0.11350959483188691
0.030064474329113824 0.11350959483188691
0.06683450030255814 0.13910658896692424
0.030064474329113824 0.13910658896692424
0.04844948731583598 0.11350959483188691
0.06683450030255814 0.11350959483188691
0.04844948731583598 0.11350959483188691
0.030064474329113824 0.06231560656181225
0.030064474329113824 0.036718612426774926
-0.006705551644330489 0.011121618291737601
0.011679461342391667 0.08791260069684959
0.030064474329113824 0.06231560656181225
0.04844948731583598 0.13910658896692424
0.030064474329113824 0.16470358310196156
0.08521951328928029 0.16470358310196156
0.10360452627600245 0.1903005772369989
0.1219895392627246 0.13910658896692424
0.08521951328928029 0.16470358310196156
0.08521951328928029 0.08791260069684959
0.04844948731583598 0.011121618291737601
-0.025090564631052643 -0.014475375843299726
-0.0434755776177748 0.036718612426774926
-0.025090564631052643 0.011121618291737601
-0.06186059060449695 0.06231560656181225
-0.006705551644330489 0.06231560656181225
0.06683450030255814 0.13910658896692424
0.1219895392627246 0.16470358310196156
0.10360452627600245 0.06231560656181225
0.1219895392627246 0.06231560656181225
0.06683450030255814 0.06231560656181225
0.06683450030255814 0.011121618291737601
0.06683450030255814 -0.06566936411337437
-0.006705551644330489 -0.040072369978337054
-0.0434755776177748 -0.0912663582484117
-0.006705551644330489 -0.040072369978337054
0.011679461342391667 -0.040072369978337054
0.011679461342391667 0.13910658896692424
0.011679461342391667 0.11350959483188691
0.04844948731583598 0.11350959483188691
0.04844948731583598 0.13910658896692424
0.10360452627600245 0.036718612426774926
0.10360452627600245 0.06231560656181225
0.06683450030255814 0.06231560656181225
0.04844948731583598 0.08791260069684959
0.08521951328928029 0.036718612426774926
0.06683450030255814 0.08791260069684959
0.04844948731583598 -0.014475375843299726
0.06683450030255814 0.08791260069684959
0.04844948731583598 0.06231560656181225
0.04844948731583598 0.1903005772369989
0.06683450030255814 0.11350959483188691
0.1219895392627246 0.16470358310196156
0.10360452627600245 0.13910658896692424
0.08521951328928029 0.08791260069684959
0.10360452627600245 0.011121618291737601
0.030064474329113824 -0.06566936411337437
-0.006705551644330489 -0.040072369978337054
0.04844948731583598 -0.014475375843299726
0.030064474329113824 0.011121618291737601
0.1219895392627246 0.011121618291737601
0.08521951328928029 0.06231560656181225
0.1219895392627246 0.08791260069684959
0.14037455224944675 0.08791260069684959
0.10360452627600245 0.06231560656181225
0.06683450030255814 0.036718612426774926
0.08521951328928029 -0.014475375843299726
0.06683450030255814 -0.040072369978337054
0.10360452627600245 -0.06566936411337437
0.06683450030255814 -0.040072369978337054
0.06683450030255814 0.011121618291737601
0.10360452627600245 -0.014475375843299726
0.1219895392627246 0.011121618291737601
0.14037455224944675 0.08791260069684959
0.1587595652361689 0.011121618291737601
0.14037455224944675 0.08791260069684959
0.1587595652361689 -0.014475375843299726
0.14037455224944675 0.036718612426774926
0.10360452627600245 0.011121618291737601
0.08521951328928029 -0.040072369978337054
0.04844948731583598 -0.06566936411337437
0.011679461342391667 -0.06566936411337437
-0.006705551644330489 -0.06566936411337437
0.030064474329113824 -0.11686335238344903
0.06683450030255814 -0.040072369978337054
0.10360452627600245 -0.014475375843299726
0.1587595652361689 -0.040072369978337054
0.21391460419633537 0.036718612426774926
0.23229961718305753 0.011121618291737601
0.21391460419633537 0.06231560656181225
0.19552959120961322 0.036718612426774926
0.17714457822289106 -0.014475375843299726
0.19552959120961322 -0.06566936411337437
0.10360452627600245 -0.014475375843299726
0.1219895392627246 -0.040072369978337054
0.08521951328928029 -0.040072369978337054
0.08521951328928029 -0.014475375843299726
0.08521951328928029 0.011121618291737601
0.1219895392627246 0.036718612426774926
0.1219895392627246 0.06231560656181225
0.21391460419633537 0.06231560656181225
0.21391460419633537 0.036718612426774926
0.21391460419633537 0.036718612426774926
0.19552959120961322 -0.06566936411337437
0.19552959120961322 0.011121618291737601
0.14037455224944675 -0.014475375843299726
0.17714457822289106 0.036718612426774926
0.21391460419633537 -0.014475375843299726
0.2506846301697797 0.011121618291737601
0.23229961718305753 0.13910658896692424
0.23229961718305753 0.036718612426774926
0.2506846301697797 0.06231560656181225
0.19552959120961322 0.08791260069684959
0.17714457822289106 -0.014475375843299726
0.23229961718305753 0.011121618291737601
0.23229961718305753 -0.040072369978337054
0.21391460419633537 -0.040072369978337054
0.17714457822289106 -0.06566936411337437
0.19552959120961322 -0.014475375843299726
0.17714457822289106 -0.014475375843299726
0.19552959120961322 0.06231560656181225
0.17714457822289106 0.08791260069684959
0.21391460419633537 0.08791260069684959
0.2506846301697797 0.036718612426774926
0.21391460419633537 0.06231560656181225
0.21391460419633537 0.06231560656181225
0.23229961718305753 0.011121618291737601
0.17714457822289106 -0.06566936411337437
0.17714457822289106 -0.06566936411337437
0.1587595652361689 -0.0912663582484117
0.14037455224944675 -0.040072369978337054
0.14037455224944675 -0.014475375843299726
0.23229961718305753 0.011121618291737601
0.21391460419633537 0.036718612426774926
0.23229961718305753 0.06231560656181225
0.23229961718305753 0.06231560656181225
0.23229961718305753 0.011121618291737601
0.26906964315650184 0.036718612426774926
0.21391460419633537 0.06231560656181225
0.19552959120961322 -0.014475375843299726
0.19552959120961322 -0.06566936411337437
0.19552959120961322 -0.0912663582484117
0.17714457822289106 -0.040072369978337054
0.17714457822289106 -0.06566936411337437
0.1587595652361689 -0.014475375843299726
0.1587595652361689 -0.014475375843299726
0.23229961718305753 -0.014475375843299726
0.23229961718305753 -0.014475375843299726
0.23229961718305753 0.011121618291737601
0.23229961718305753 0.036718612426774926
0.2506846301697797 0.011121618291737601
0.21391460419633537 -0.014475375843299726
0.21391460419633537 -0.0912663582484117
0.21391460419633537 -0.0912663582484117
0.19552959120961322 -0.06566936411337437
0.21391460419633537 -0.0912663582484117
0.2506846301697797 -0.014475375843299726
0.23229961718305753 0.036718612426774926
0.26906964315650184 0.08791260069684959
0.2506846301697797 0.08791260069684959
0.32422468211666833 0.06231560656181225
0.2506846301697797 0.06231560656181225
0.2506846301697797 0.06231560656181225
0.26906964315650184 0.011121618291737601
0.23229961718305753 -0.06566936411337437
0.17714457822289106 -0.0912663582484117
0.19552959120961322 -0.014475375843299726
0.21391460419633537 -0.014475375843299726
0.2506846301697797 0.011121618291737601
0.287454656143224 0.036718612426774926
0.287454656143224 0.011121618291737601
0.32422468211666833 0.06231560656181225
0.26906964315650184 0.036718612426774926
0.287454656143224 0.011121618291737601
0.2506846301697797 -0.014475375843299726
0.2506846301697797 -0.014475375843299726
0.19552959120961322 -0.0912663582484117
0.21391460419633537 -0.11686335238344903
0.21391460419633537 0.011121618291737601
0.21391460419633537 -0.014475375843299726
0.23229961718305753 -0.06566936411337437
0.2506846301697797 -0.040072369978337054
0.287454656143224 -0.014475375843299726
0.287454656143224 0.036718612426774926
0.287454656143224 0.011121618291737601
0.34260969510339045 0.036718612426774926
0.30583966912994615 -0.040072369978337054
0.287454656143224 -0.06566936411337437
0.287454656143224 -0.0912663582484117
0.2506846301697797 -0.0912663582484117
0.2506846301697797 -0.14246034651848635
0.26906964315650184 -0.06566936411337437
0.26906964315650184 -0.11686335238344903
0.287454656143224 -0.06566936411337437
0.30583966912994615 -0.014475375843299726
0.287454656143224 -0.014475375843299726
0.30583966912994615 -0.040072369978337054
0.32422468211666833 -0.014475375843299726
0.30583966912994615 0.036718612426774926
0.2506846301697797 0.011121618291737601
0.26906964315650184 0.011121618291737601
0.287454656143224 0.08791260069684959
0.26906964315650184 0.13910658896692424
0.32422468211666833 0.2926885537771482
0.34260969510339045 0.34388254204722285
0.39776473406355695 0.3950765303172975
0.43453476003700126 0.4206735244523348
0.5080748119838898 0.36947953618226015
0.5264598249706121 0.3182855479121855
0.5632298509440563 0.26709155964211084
0.5448448379573342 0.21589757137203622
0.5632298509440563 0.13910658896692424
0.5632298509440563 0.11350959483188691
0.5999998769175007 0.08791260069684959
0.6919249418511114 0.08791260069684959
0.7838500067847222 0.06231560656181225
0.875775071718333 0.11350959483188691
0.9493151236652216 0.06231560656181225
0.9860851496386659 0.08791260069684959
1.004470162625388 0.08791260069684959
0.9493151236652216 -0.014475375843299726
0.9125450976917773 -0.040072369978337054
0.8573900587316108 -0.11686335238344903
0.7838500067847222 -0.14246034651848635
0.7286949678245558 -0.14246034651848635
0.6367699028909449 -0.16805734065352368
0.5816148639307785 -0.16805734065352368
0.5080748119838898 -0.16805734065352368
0.5264598249706121 -0.16805734065352368
0.4161497470502791 -0.16805734065352368
0.43453476003700126 -0.16805734065352368
0.37937972107683476 -0.11686335238344903
0.36099470809011264 -0.14246034651848635
0.287454656143224 -0.14246034651848635
0.23229961718305753 -0.24484832305863566
0.21391460419633537 -0.24484832305863566
0.17714457822289106 -0.270445317193673
0.1587595652361689 -0.29604231132871034
0.1219895392627246 -0.270445317193673
0.1219895392627246 -0.270445317193673
0.1219895392627246 -0.24484832305863566
0.1219895392627246 -0.193654334788561
0.1219895392627246 -0.16805734065352368
0.1219895392627246 -0.16805734065352368
0.17714457822289106 -0.21925132892359833
0.1587595652361689 -0.14246034651848635
0.14037455224944675 -0.21925132892359833
0.1219895392627246 -0.29604231132871034
0.10360452627600245 -0.29604231132871034
0.04844948731583598 -0.24484832305863566
0.08521951328928029 -0.29604231132871034
0.06683450030255814 -0.270445317193673
0.08521951328928029 -0.24484832305863566
0.1219895392627246 -0.11686335238344903
0.1219895392627246 -0.11686335238344903
0.17714457822289106 -0.014475375843299726
0.17714457822289106 0.06231560656181225
0.14037455224944675 0.13910658896692424
0.08521951328928029 0.24149456550707354
-0.006705551644330489 0.34388254204722285
-0.2089406944982742 0.3182855479121855
-0.48471588929910653 0.21589757137203622
-0.6869510321530502 0.08791260069684959
-0.7604910840999388 -0.14246034651848635
-0.5582559412459952 -0.270445317193673
0.1219895392627246 -0.5520122526790836
1.1331652535324432 -0.8079821940294568
2.4752712015631606 -0.9615641588396808
3.9093022145274885 -1.0895491295148674
5.28817818853165 -1.1663401119199794
6.372893954748258 -1.294325082595166
6.924444344349922 -1.4223100532703528
6.685439175522534 -1.6270860063506514
5.563953383332483 -1.755070977025838
3.8909172015407667 -1.8062649652959126
2.1259559548154394 -1.7038769887557632
0.8390050457448887 -1.601489012215614
0.10360452627600245 -1.3455190708652407
-0.15378565553810775 -1.140743117784942
-0.0434755776177748 -1.0383551412447927
0.14037455224944675 -0.9359671647046435
0.30583966912994615 -0.8847731764345688
0.34260969510339045 -0.8591761822995315
0.2506846301697797 -0.8079821940294568
0.1587595652361689 -0.7055942174893075
0.011679461342391667 -0.5008182644090089
-0.06186059060449695 -0.347236299598785
-0.1354006425513856 -0.24484832305863566
-0.1354006425513856 -0.21925132892359833
-0.09863061657794127 -0.193654334788561
-0.06186059060449695 -0.11686335238344903
-0.09863061657794127 -0.16805734065352368
-0.08024560359121911 -0.11686335238344903
-0.09863061657794127 -0.16805734065352368
-0.15378565553810775 -0.193654334788561
-0.2089406944982742 -0.24484832305863566
-0.300865759431885 -0.24484832305863566
-0.3192507724186071 -0.21925132892359833
-0.2640957334584407 -0.21925132892359833
-0.2824807464451628 -0.193654334788561
-0.2640957334584407 -0.0912663582484117
-0.24571072047171852 -0.0912663582484117
-0.2640957334584407 -0.0912663582484117
-0.22732570748499636 -0.06566936411337437
-0.2640957334584407 -0.11686335238344903
-0.2824807464451628 -0.06566936411337437
-0.2640957334584407 -0.14246034651848635
-0.2824807464451628 -0.193654334788561
-0.300865759431885 -0.21925132892359833
-0.3376357854053293 -0.24484832305863566
-0.3192507724186071 -0.193654334788561
-0.3192507724186071 -0.16805734065352368
-0.300865759431885 -0.0912663582484117
-0.2824807464451628 -0.0912663582484117
-0.2640957334584407 -0.11686335238344903
-0.19055568151155206 -0.040072369978337054
-0.2089406944982742 -0.11686335238344903
-0.22732570748499636 -0.0912663582484117
-0.22732570748499636 -0.0912663582484117
-0.24571072047171852 -0.16805734065352368
-0.2640957334584407 -0.193654334788561
-0.3192507724186071 -0.24484832305863566
-0.300865759431885 -0.193654334788561
-0.300865759431885 -0.14246034651848635
-0.2640957334584407 -0.0912663582484117
-0.2089406944982742 -0.06566936411337437
-0.24571072047171852 -0.06566936411337437
-0.2089406944982742 -0.014475375843299726
-0.19055568151155206 -0.014475375843299726
-0.19055568151155206 -0.06566936411337437
-0.22732570748499636 -0.14246034651848635
-0.24571072047171852 -0.16805734065352368
-0.22732570748499636 -0.16805734065352368
-0.2640957334584407 -0.16805734065352368
-0.2640957334584407 -0.193654334788561
-0.2640957334584407 -0.14246034651848635
-0.22732570748499636 -0.11686335238344903
-0.2089406944982742 -0.040072369978337054
-0.1721706685248299 -0.11686335238344903
-0.15378565553810775 0.011121618291737601
-0.1354006425513856 0.011121618291737601
-0.1721706685248299 -0.014475375843299726
-0.1721706685248299 -0.040072369978337054
-0.2089406944982742 -0.11686335238344903
-0.24571072047171852 -0.14246034651848635
-0.19055568151155206 -0.14246034651848635
-0.1721706685248299 -0.11686335238344903
-0.1721706685248299 -0.0912663582484117
-0.15378565553810775 -0.040072369978337054
-0.11701562956466342 -0.040072369978337054
-0.08024560359121911 0.011121618291737601
-0.06186059060449695 0.036718612426774926
-0.08024560359121911 -0.040072369978337054
-0.006705551644330489 0.011121618291737601
-0.0434755776177748 -0.11686335238344903
-0.025090564631052643 -0.040072369978337054
-0.06186059060449695 -0.06566936411337437
-0.0434755776177748 -0.11686335238344903
-0.06186059060449695 -0.0912663582484117
-0.06186059060449695 0.011121618291737601
-0.025090564631052643 0.011121618291737601
-0.006705551644330489 0.036718612426774926
0.030064474329113824 0.036718612426774926
0.06683450030255814 0.06231560656181225
0.08521951328928029 -0.014475375843299726
0.14037455224944675 0.011121618291737601
0.08521951328928029 -0.040072369978337054
0.10360452627600245 -0.014475375843299726
0.04844948731583598 -0.06566936411337437
0.10360452627600245 -0.06566936411337437
0.08521951328928029 -0.040072369978337054
0.1219895392627246 -0.040072369978337054
0.1587595652361689 -0.014475375843299726
0.17714457822289106 0.011121618291737601
0.21391460419633537 0.036718612426774926
0.2506846301697797 0.06231560656181225
0.23229961718305753 0.011121618291737601
0.287454656143224 0.08791260069684959
0.30583966912994615 0.06231560656181225
0.287454656143224 0.06231560656181225
0.287454656143224 0.011121618291737601
0.287454656143224 -0.040072369978337054
0.287454656143224 -0.040072369978337054
0.287454656143224 0.011121618291737601
0.32422468211666833 0.06231560656181225
0.39776473406355695 0.08791260069684959
0.4529197730237234 0.11350959483188691
0.47130478601044556 0.08791260069684959
0.5080748119838898 0.06231560656181225
0.5080748119838898 0.036718612426774926
0.5448448379573342 0.011121618291737601
0.4529197730237234 -0.040072369978337054
0.5448448379573342 -0.06566936411337437
0.5448448379573342 -0.0912663582484117
0.5999998769175007 -0.0912663582484117
0.6367699028909449 -0.14246034651848635
0.7286949678245558 -0.040072369978337054
0.7838500067847222 -0.040072369978337054
0.8206200327581665 -0.014475375843299726
0.9125450976917773 -0.040072369978337054
0.9309301106784994 -0.014475375843299726
1.0228551756121103 -0.040072369978337054
1.0228551756121103 -0.0912663582484117
1.0596252015855545 -0.21925132892359833
1.114780240545721 -0.16805734065352368
1.1331652535324432 -0.193654334788561
1.1699352795058875 -0.21925132892359833
1.2067053054793317 -0.16805734065352368
1.2802453574262205 -0.193654334788561
1.335400396386387 -0.14246034651848635
1.3905554353465532 -0.270445317193673
1.5008655132668862 -0.21925132892359833
1.5192505262536085 -0.16805734065352368
1.5376355392403307 -0.21925132892359833
1.574405565213775 -0.24484832305863566
1.592790578200497 -0.21925132892359833
1.574405565213775 -0.347236299598785
1.6111755911872192 -0.3728332937338223
1.6111755911872192 -0.347236299598785
1.6111755911872192 -0.32163930546374764
1.684715643134108 -0.270445317193673
1.70310065612083 -0.29604231132871034
1.7766407080677187 -0.29604231132871034
1.8501807600146072 -0.32163930546374764
1.8501807600146072 -0.270445317193673
1.813410734041163 -0.24484832305863566
1.813410734041163 -0.347236299598785
1.7950257210544407 -0.3728332937338223
1.813410734041163 -0.3728332937338223
1.7766407080677187 -0.3728332937338223
1.7398706820942742 -0.42402728200389694
1.7398706820942742 -0.39843028786885964
1.70310065612083 -0.347236299598785
1.70310065612083 -0.270445317193673
1.6479456171606635 -0.29604231132871034
1.6479456171606635 -0.24484832305863566
1.592790578200497 -0.24484832305863566
1.5560205522270527 -0.24484832305863566
1.4824805002801642 -0.24484832305863566
1.4089404483332755 -0.29604231132871034
1.335400396386387 -0.270445317193673
1.2802453574262205 -0.39843028786885964
1.243475331452776 -0.270445317193673
1.1699352795058875 -0.24484832305863566
1.114780240545721 -0.16805734065352368
1.1515502665191653 -0.14246034651848635
1.0963952275589988 -0.0912663582484117
1.0780102145722767 -0.0912663582484117
1.004470162625388 -0.040072369978337054
0.9309301106784994 -0.0912663582484117
0.8941600847050551 -0.0912663582484117
0.8022350197714444 -0.16805734065352368
0.7470799808112779 -0.14246034651848635
0.7103099548378335 -0.193654334788561
0.6735399288643893 -0.11686335238344903
0.6367699028909449 -0.11686335238344903
0.6367699028909449 -0.06566936411337437
0.5999998769175007 -0.0912663582484117
0.5999998769175007 0.011121618291737601
0.6367699028909449 0.036718612426774926
0.6367699028909449 -0.040072369978337054
0.5816148639307785 0.036718612426774926
0.5632298509440563 -0.0912663582484117
0.5080748119838898 -0.014475375843299726
0.5080748119838898 -0.06566936411337437
0.47130478601044556 -0.06566936411337437
0.4529197730237234 -0.11686335238344903
0.43453476003700126 -0.06566936411337437
0.36099470809011264 -0.040072369978337054
0.4529197730237234 0.011121618291737601
0.4896897989971677 -0.06566936411337437
0.5080748119838898 -0.014475375843299726
0.47130478601044556 0.036718612426774926
0.4896897989971677 -0.040072369978337054
0.4896897989971677 -0.06566936411337437
0.4161497470502791 -0.040072369978337054
0.4161497470502791 -0.14246034651848635
0.36099470809011264 -0.14246034651848635
0.36099470809011264 -0.16805734065352368
0.30583966912994615 -0.14246034651848635
0.32422468211666833 -0.0912663582484117
0.37937972107683476 -0.040072369978337054
0.36099470809011264 -0.040072369978337054
0.36099470809011264 0.011121618291737601
0.4161497470502791 0.036718612426774926
0.39776473406355695 -0.014475375843299726
0.36099470809011264 -0.040072369978337054
0.34260969510339045 -0.0912663582484117
0.30583966912994615 -0.06566936411337437
0.26906964315650184 -0.16805734065352368
0.2506846301697797 -0.14246034651848635
0.2506846301697797 -0.06566936411337437
0.2506846301697797 -0.040072369978337054
0.287454656143224 -0.040072369978337054
0.287454656143224 -0.014475375843299726
0.32422468211666833 0.036718612426774926
0.30583966912994615 0.08791260069684959
0.30583966912994615 0.11350959483188691
0.287454656143224 0.13910658896692424
0.26906964315650184 0.16470358310196156
0.23229961718305753 0.16470358310196156
0.2506846301697797 0.1903005772369989
0.26906964315650184 0.2926885537771482
0.30583966912994615 0.26709155964211084
0.32422468211666833 0.24149456550707354
0.39776473406355695 0.21589757137203622
0.4161497470502791 0.24149456550707354
0.4529197730237234 0.21589757137203622
0.4529197730237234 0.16470358310196156
0.5632298509440563 0.13910658896692424
0.5632298509440563 0.036718612426774926
0.6367699028909449 0.011121618291737601
