2.3125327860991307 -3.2212335580850873
2.4472938005589935 -3.3814164173753625
2.5924210469003843 -3.557617562594665
2.7893794526494147 -3.669745564097858
2.965605394635389 -3.6377089922398027
3.069267713450668 -3.5736358485236925
3.162563800384419 -3.429471275162445
3.2558598873181706 -3.3493798455173076
3.3698884380149776 -3.365398131446335
3.525381916237896 -3.4134529892334173
3.670509162579287 -3.3814164173753625
3.784537713276094 -3.2212335580850873
3.8674675683283173 -3.061050698794812
3.9503974233805406 -2.8207764098593993
4.022961046551235 -2.6605935505691245
3.9503974233805406 -2.4843924053498214
3.546114380000952 -2.180044972698299
2.8826755395831656 -1.811624396330666
2.250335394809963 -1.3951489621759505
1.700925105088984 -1.0267283858083176
1.1929797428941162 -0.6583078094406848
0.7264993082253604 -0.4020152345762446
0.3533149604903556 -0.11368608785374931
0.05269423592604624 0.06251505736555336
-0.16499663358603986 0.206679630726801
-0.3723212712165981 0.3988990618751312
-0.5278147494395167 0.4309356337331862
-0.6003783726102121 0.4789904915202688
-0.6418433001363237 0.5911184930234614
-0.6522095320178516 0.6872282085976265
-0.714406923307019 0.7352830663847091
-0.7766043145961865 0.7673196382427641
-0.8595341696484098 0.7352830663847091
-0.8595341696484098 0.7993562101008191
-0.8491679377668819 0.8474110678879017
-0.8699004015299378 0.9114842116040117
-0.9009990971745214 0.8954659256749842
-0.9217315609375772 0.9435207834620667
-0.9631964884636889 0.8954659256749842
-0.9631964884636889 0.9114842116040117
-0.9735627203452168 0.9595390693910942
-0.952830256582161 1.0075939271781769
-0.9839289522267447 1.0396304990362317
-0.9839289522267447 1.0236122131072043
-1.0150276478713285 1.0396304990362317
-1.0253938797528563 1.0396304990362317
-1.0150276478713285 1.135740214610397
-0.9631964884636889 1.1517585005394244
-0.9942951841082727 1.1517585005394244
-1.0253938797528563 1.135740214610397
-1.0564925753974401 1.103703642752342
-1.0979575029235518 1.135740214610397
-1.0357601116343842 1.199813358326507
-1.066858807278968 1.2478682161135894
-1.066858807278968 1.2959230739006722
-1.1083237348050796 1.2959230739006722
-1.1186899666866075 1.2959230739006722
-1.1290561985681355 1.3439779316877547
-1.1186899666866075 1.3599962176167821
-1.1290561985681355 1.4400876472619197
-1.1394224304496634 1.4881425050490023
-1.1705211260942472 1.5041607909780297
-1.201619821738831 1.5041607909780297
-1.2119860536203588 1.5361973628360848
-1.1705211260942472 1.600270506552195
-1.1705211260942472 1.6483253643392775
-1.2119860536203588 1.69638022212636
-1.2741834449095262 1.7123985080553874
-1.2845496767910543 1.6643436502683049
-1.2741834449095262 1.69638022212636
-1.2638172130279983 1.7444350799134425
-1.2327185173834145 1.8565630814166352
-1.2534509811464705 1.8725813673456626
-1.3156483724356378 1.8405447954876075
-1.3571132999617495 1.8085082236295527
-1.3156483724356378 1.792489937700525
-1.294915908672582 1.82452650955858
-1.2741834449095262 1.8885996532746903
-1.294915908672582 1.9046179392037177
-1.2845496767910543 1.9206362251327451
-1.30528214055411 1.82452650955858
-1.2845496767910543 1.82452650955858
-1.2430847492649426 1.7764716517714976
-1.2327185173834145 1.8085082236295527
-1.2430847492649426 1.8085082236295527
-1.2327185173834145 1.7764716517714976
-1.2534509811464705 1.6643436502683049
-1.201619821738831 1.6162887924812224
-1.1394224304496634 1.6162887924812224
-1.1083237348050796 1.5842522206231673
-1.1186899666866075 1.5842522206231673
-1.1083237348050796 1.4721242191199748
-1.087591271042024 1.3599962176167821
-1.0357601116343842 1.2959230739006722
-0.9839289522267447 1.2158316442555346
-0.9320977928191052 1.2158316442555346
-0.8906328652929936 1.1837950723974795
-0.8802666334114656 1.0716670708942868
-0.8802666334114656 0.9595390693910942
-0.7662380827146587 0.8954659256749842
-0.724773155188547 0.8794476397459566
-0.6418433001363237 0.7993562101008191
-0.6211108363732679 0.703246494526654
-0.6003783726102121 0.6712099226685989
-0.5692796769656283 0.5911184930234614
-0.5278147494395167 0.4950087774492963
-0.44488489438729345 0.5270453493073514
-0.42415243062423763 0.5270453493073514
-0.44488489438729345 0.4950087774492963
-0.45525112626882136 0.44695391966221376
-0.496716053794933 0.41491734780415873
-0.46561735815034927 0.31880763222999364
-0.44488489438729345 0.3508442040880487
-0.4137861987427097 0.33482591815902113
-0.4034199668611818 0.3988990618751312
-0.43451866250576554 0.3828807759461037
-0.43451866250576554 0.3508442040880487
-0.45525112626882136 0.3027893463009661
-0.4137861987427097 0.3027893463009661
-0.4034199668611818 0.33482591815902113
-0.42415243062423763 0.3508442040880487
-0.46561735815034927 0.33482591815902113
-0.4863498219134051 0.27075277444291107
-0.44488489438729345 0.3027893463009661
-0.4137861987427097 0.31880763222999364
-0.4137861987427097 0.3508442040880487
-0.3930537349796539 0.3828807759461037
-0.44488489438729345 0.33482591815902113
-0.43451866250576554 0.27075277444291107
-0.4137861987427097 0.23871620258485604
-0.4034199668611818 0.25473448851388353
-0.3930537349796539 0.3027893463009661
-0.3930537349796539 0.3027893463009661
-0.4137861987427097 0.31880763222999364
-0.46561735815034927 0.25473448851388353
-0.43451866250576554 0.27075277444291107
-0.382687503098126 0.2867710603719386
-0.3930537349796539 0.3027893463009661
-0.3930537349796539 0.31880763222999364
-0.3930537349796539 0.31880763222999364
-0.43451866250576554 0.25473448851388353
-0.3930537349796539 0.25473448851388353
-0.35158880745354226 0.25473448851388353
-0.33085634369048644 0.33482591815902113
-0.33085634369048644 0.36686249001707616
-0.3723212712165981 0.33482591815902113
-0.4034199668611818 0.27075277444291107
-0.35158880745354226 0.3027893463009661
-0.34122257557201435 0.31880763222999364
-0.3101238799274306 0.36686249001707616
-0.2997576480459027 0.36686249001707616
-0.32049011180895853 0.3027893463009661
-0.3101238799274306 0.25473448851388353
-0.2893914161643748 0.206679630726801
-0.2168277929936794 0.1906613447977735
-0.15463040170451195 0.15862477293971847
-0.13389793794145613 0.04649677143652585
-0.06133431477076077 -0.12970437378277683
0.02159554028146251 -0.2738689471440245
0.15635655474132534 -0.46608837829235467
0.29111756920118814 -0.5621980938665198
0.42587858366105097 -0.7383992390858224
0.5813720618839696 -0.8985820983760976
0.6850343806992487 -1.1388563873115103
0.8508940908036953 -1.3951489621759505
1.0167538009081418 -1.5873683933242808
1.1929797428941162 -1.6994963948274733
1.4003043805246744 -1.811624396330666
1.5972627862737048 -1.8917158259758036
1.7423900326150956 -2.0999535430531613
1.91861597460107 -2.3242095460595467
2.136306844113156 -2.5164289772078767
2.3125327860991307 -2.6926301224271794
2.488758728085105 -2.7887398380013444
2.602787278781912 -2.836794695788427
2.747914525123303 -2.900867839504537
2.872309307701638 -2.9809592691496745
3.0381690178060845 -3.0129958410077298
3.05890148156914 -2.900867839504537
3.069267713450668 -2.804758123930372
2.9552391627538612 -2.6605935505691245
2.820478148293998 -2.5484655490659316
2.727182061360247 -2.4203192616337117
2.6546184381895515 -2.276154688272464
2.61315351066344 -2.035880399337051
2.5302236556112168 -1.7635695385435834
2.4472938005589935 -1.6033866792533082
2.3436314817437145 -1.443203819963033
2.2192366991653794 -1.379130676246923
2.1881380035207956 -1.347094104388868
2.177771771639268 -1.283020960672758
2.177771771639268 -1.250984388814703
2.177771771639268 -1.2029295310276205
2.2088704672838517 -1.1869112450985928
2.239969162928435 -1.1869112450985928
2.157039307876212 -1.154874673240538
2.0430107571794047 -1.0427466717373453
1.7838549601412073 -0.9466369561631801
1.4521355399323141 -0.7544175250148499
1.0167538009081418 -0.5942346657245747
0.6021045256470254 -0.35396037678916203
0.2185539460304928 -0.0976678019247218
-0.0924330104153445 0.14260648701069095
-0.3101238799274306 0.36686249001707616
-0.496716053794933 0.5270453493073514
-0.6418433001363237 0.6391733508105439
-0.7040406914254912 0.6872282085976265
-0.7351393870700749 0.6872282085976265
-0.7558718508331307 0.7513013523137365
-0.8077030102407703 0.8634293538169292
-0.8699004015299378 0.8954659256749842
-0.9217315609375772 0.9114842116040117
-0.9735627203452168 0.8954659256749842
-0.9942951841082727 0.9114842116040117
-0.9942951841082727 0.9595390693910942
-0.9839289522267447 1.0556487849652594
-1.0253938797528563 1.0396304990362317
-1.087591271042024 1.0556487849652594
-1.1394224304496634 1.0716670708942868
-1.1186899666866075 1.0396304990362317
-1.1394224304496634 1.0556487849652594
-1.1497886623311913 1.135740214610397
-1.1497886623311913 1.1677767864684518
-1.180887357975775 1.1837950723974795
-1.2119860536203588 1.1837950723974795
-1.2119860536203588 1.1517585005394244
-1.191253589857303 1.231849930184562
-1.191253589857303 1.231849930184562
-1.2430847492649426 1.2959230739006722
-1.2741834449095262 1.3119413598296996
-1.30528214055411 1.2799047879716445
-1.3156483724356378 1.263886502042617
-1.2845496767910543 1.3119413598296996
-1.2845496767910543 1.3760145035458096
-1.294915908672582 1.4400876472619197
-1.326014604317166 1.4080510754038646
-1.3778457637248054 1.4240693613328923
-1.3674795318432775 1.4400876472619197
-1.3674795318432775 1.4561059331909472
-1.3674795318432775 1.5201790769070573
-1.3674795318432775 1.5682339346941399
-1.4089444593693892 1.5361973628360848
-1.4296769231324449 1.5041607909780297
-1.4296769231324449 1.5201790769070573
-1.4296769231324449 1.5682339346941399
-1.419310691250917 1.6162887924812224
-1.4400431550139727 1.6643436502683049
-1.4711418506585565 1.6483253643392775
-1.4607756187770287 1.5842522206231673
-1.4607756187770287 1.5522156487651124
-1.4089444593693892 1.6162887924812224
-1.3882119956063332 1.69638022212636
-1.398578227487861 1.7123985080553874
-1.419310691250917 1.6803619361973325
-1.4400431550139727 1.6162887924812224
-1.419310691250917 1.600270506552195
-1.3674795318432775 1.6162887924812224
-1.3156483724356378 1.600270506552195
-1.30528214055411 1.6162887924812224
-1.326014604317166 1.5361973628360848
-1.3156483724356378 1.4400876472619197
-1.294915908672582 1.4080510754038646
-1.2534509811464705 1.4080510754038646
-1.1497886623311913 1.4240693613328923
-1.1290561985681355 1.3760145035458096
-1.1290561985681355 1.2959230739006722
-1.0979575029235518 1.1837950723974795
-1.0461263435159123 1.1517585005394244
-0.9735627203452168 1.103703642752342
-0.9113653290560494 1.103703642752342
-0.8906328652929936 1.0396304990362317
-0.8595341696484098 0.9595390693910942
-0.8284354740038261 0.8634293538169292
-0.7869705464777145 0.7673196382427641
-0.6936744595439632 0.7993562101008191
-0.6314770682547958 0.7673196382427641
-0.5692796769656283 0.7192647804556815
-0.6003783726102121 0.703246494526654
-0.5692796769656283 0.6231550648815164
-0.5070822856764609 0.5270453493073514
-0.46561735815034927 0.5110270633783238
-0.3930537349796539 0.5430636352363788
-0.382687503098126 0.5110270633783238
-0.3723212712165981 0.4789904915202688
-0.3723212712165981 0.41491734780415873
-0.35158880745354226 0.36686249001707616
-0.34122257557201435 0.41491734780415873
-0.3101238799274306 0.44695391966221376
-0.3101238799274306 0.46297220559124125
-0.32049011180895853 0.3988990618751312
-0.34122257557201435 0.3828807759461037
-0.34122257557201435 0.36686249001707616
-0.32049011180895853 0.36686249001707616
-0.32049011180895853 0.3828807759461037
-0.2997576480459027 0.4309356337331862
-0.35158880745354226 0.41491734780415873
-0.33085634369048644 0.3508442040880487
-0.33085634369048644 0.33482591815902113
-0.33085634369048644 0.3508442040880487
-0.35158880745354226 0.3988990618751312
-0.33085634369048644 0.41491734780415873
-0.33085634369048644 0.4309356337331862
-0.3619550393350702 0.3508442040880487
-0.35158880745354226 0.33482591815902113
-0.32049011180895853 0.36686249001707616
-0.2997576480459027 0.4309356337331862
-0.2997576480459027 0.41491734780415873
-0.2997576480459027 0.41491734780415873
-0.34122257557201435 0.36686249001707616
-0.33085634369048644 0.33482591815902113
-0.3101238799274306 0.3828807759461037
-0.268658952401319 0.3988990618751312
-0.268658952401319 0.3988990618751312
-0.3101238799274306 0.3828807759461037
-0.2997576480459027 0.3508442040880487
-0.3101238799274306 0.3508442040880487
-0.268658952401319 0.36686249001707616
-0.24792648863826314 0.3988990618751312
-0.24792648863826314 0.3828807759461037
-0.2582927205197911 0.36686249001707616
-0.2893914161643748 0.31880763222999364
-0.2790251842828469 0.3027893463009661
-0.2582927205197911 0.31880763222999364
-0.22719402487520732 0.36686249001707616
-0.22719402487520732 0.36686249001707616
-0.268658952401319 0.3508442040880487
-0.2893914161643748 0.2867710603719386
-0.2582927205197911 0.3027893463009661
-0.1960953292306236 0.31880763222999364
-0.18572909734909568 0.3508442040880487
-0.18572909734909568 0.36686249001707616
-0.22719402487520732 0.33482591815902113
-0.22719402487520732 0.3027893463009661
-0.2064615611121515 0.27075277444291107
-0.18572909734909568 0.2867710603719386
-0.16499663358603986 0.3508442040880487
-0.17536286546756777 0.3508442040880487
-0.1960953292306236 0.31880763222999364
-0.2064615611121515 0.27075277444291107
-0.22719402487520732 0.25473448851388353
-0.16499663358603986 0.2867710603719386
-0.13389793794145613 0.31880763222999364
-0.14426416982298404 0.31880763222999364
-0.16499663358603986 0.2867710603719386
-0.2064615611121515 0.25473448851388353
-0.17536286546756777 0.23871620258485604
-0.14426416982298404 0.25473448851388353
-0.11316547417840032 0.2867710603719386
-0.13389793794145613 0.31880763222999364
-0.17536286546756777 0.33482591815902113
-0.17536286546756777 0.27075277444291107
-0.15463040170451195 0.23871620258485604
-0.12353170605992823 0.25473448851388353
-0.12353170605992823 0.27075277444291107
-0.12353170605992823 0.2867710603719386
-0.12353170605992823 0.2867710603719386
-0.14426416982298404 0.206679630726801
-0.14426416982298404 0.1906613447977735
-0.10279924229687241 0.2867710603719386
-0.0924330104153445 0.27075277444291107
-0.0924330104153445 0.3027893463009661
-0.0924330104153445 0.25473448851388353
-0.11316547417840032 0.206679630726801
-0.12353170605992823 0.23871620258485604
-0.11316547417840032 0.23871620258485604
-0.06133431477076077 0.27075277444291107
-0.07170054665228869 0.27075277444291107
-0.0924330104153445 0.25473448851388353
-0.11316547417840032 0.25473448851388353
-0.10279924229687241 0.23871620258485604
-0.0820667785338166 0.1906613447977735
-0.0820667785338166 0.22269791665582853
-0.0820667785338166 0.25473448851388353
-0.0924330104153445 0.27075277444291107
-0.10279924229687241 0.22269791665582853
-0.0924330104153445 0.1906613447977735
-0.06133431477076077 0.23871620258485604
-0.05096808288923286 0.23871620258485604
-0.04060185100770495 0.23871620258485604
-0.0820667785338166 0.25473448851388353
-0.11316547417840032 0.15862477293971847
-0.0820667785338166 0.17464305886874598
-0.06133431477076077 0.1906613447977735
-0.05096808288923286 0.25473448851388353
-0.04060185100770495 0.25473448851388353
-0.07170054665228869 0.25473448851388353
-0.07170054665228869 0.22269791665582853
-0.0820667785338166 0.1906613447977735
-0.0924330104153445 0.206679630726801
-0.05096808288923286 0.206679630726801
-0.07170054665228869 0.23871620258485604
-0.06133431477076077 0.22269791665582853
-0.0820667785338166 0.17464305886874598
-0.06133431477076077 0.17464305886874598
-0.03023561912617704 0.17464305886874598
-0.01986938724464913 0.23871620258485604
-0.03023561912617704 0.25473448851388353
-0.06133431477076077 0.25473448851388353
-0.0820667785338166 0.15862477293971847
-0.06133431477076077 0.14260648701069095
-0.06133431477076077 0.14260648701069095
-0.04060185100770495 0.1906613447977735
-0.03023561912617704 0.27075277444291107
-0.05096808288923286 0.22269791665582853
-0.03023561912617704 0.1906613447977735
-0.06133431477076077 0.14260648701069095
-0.04060185100770495 0.22269791665582853
0.02159554028146251 0.2867710603719386
0.04232800404451833 0.31880763222999364
0.06306046780757414 0.2867710603719386
0.06306046780757414 0.3027893463009661
0.09415916345215788 0.25473448851388353
0.09415916345215788 0.33482591815902113
0.14599032285979743 0.36686249001707616
0.14599032285979743 0.3508442040880487
0.13562409097826952 0.31880763222999364
0.17708901850438116 0.25473448851388353
0.23928640979354862 0.1906613447977735
0.28075133731966023 0.206679630726801
0.30148380108271605 0.1906613447977735
0.30148380108271605 0.15862477293971847
0.24965264167507653 0.07853334329458088
0.2289201779120207 0.04649677143652585
0.2185539460304928 0.030478485507498335
0.2289201779120207 0.06251505736555336
0.18745525038590907 0.0945516292236084
0.19782148226743698 0.11056991515263591
0.14599032285979743 0.0945516292236084
0.09415916345215788 0.06251505736555336
0.08379293157062997 0.030478485507498335
0.05269423592604624 0.04649677143652585
0.06306046780757414 0.0945516292236084
0.03196177216299042 0.11056991515263591
0.0008630765184066887 0.0945516292236084
-0.03023561912617704 0.14260648701069095
-0.03023561912617704 0.11056991515263591
-0.06133431477076077 0.12658820108166344
-0.01986938724464913 0.206679630726801
-0.05096808288923286 0.17464305886874598
-0.0924330104153445 0.17464305886874598
-0.11316547417840032 0.12658820108166344
-0.11316547417840032 0.07853334329458088
-0.07170054665228869 0.11056991515263591
-0.05096808288923286 0.17464305886874598
-0.05096808288923286 0.1906613447977735
-0.10279924229687241 0.206679630726801
-0.0820667785338166 0.12658820108166344
-0.07170054665228869 0.11056991515263591
-0.06133431477076077 0.15862477293971847
-0.06133431477076077 0.17464305886874598
-0.05096808288923286 0.1906613447977735
-0.06133431477076077 0.12658820108166344
-0.07170054665228869 0.11056991515263591
-0.06133431477076077 0.0945516292236084
-0.04060185100770495 0.0945516292236084
0.0008630765184066887 0.14260648701069095
-0.03023561912617704 0.12658820108166344
-0.05096808288923286 0.12658820108166344
-0.0924330104153445 0.04649677143652585
-0.10279924229687241 0.07853334329458088
-0.05096808288923286 0.0945516292236084
0.1148916272152137 0.11056991515263591
0.31185003296424396 0.04649677143652585
0.539907134357858 -0.1937775174988869
0.881992786448279 -0.4500700923633271
1.3795719167616187 -0.6743260953697123
1.9704471340087095 -0.7544175250148499
2.61315351066344 -0.8024723828019324
3.2247611916735868 -0.81849066873096
3.639410466934703 -0.8985820983760976
3.670509162579287 -0.8505272405890151
3.266226119199698 -0.6422895235116574
2.571688583137328 -0.33794209086013455
1.8356861195488468 -0.06563123006666675
1.1411485834864767 0.11056991515263591
0.5917382937654976 0.06251505736555336
0.2289201779120207 -0.033594658208611725
0.12525785909674161 -0.12970437378277683
0.07342669968910205 -0.16174094564083186
0.02159554028146251 -0.0976678019247218
-0.05096808288923286 0.030478485507498335
-0.0924330104153445 0.12658820108166344
-0.04060185100770495 0.11056991515263591
0.0008630765184066887 0.07853334329458088
0.0008630765184066887 0.14260648701069095
0.0008630765184066887 0.22269791665582853
-0.03023561912617704 0.22269791665582853
-0.06133431477076077 0.22269791665582853
-0.07170054665228869 0.17464305886874598
-0.0820667785338166 0.1906613447977735
-0.0820667785338166 0.1906613447977735
-0.06133431477076077 0.22269791665582853
-0.07170054665228869 0.23871620258485604
-0.11316547417840032 0.206679630726801
-0.11316547417840032 0.15862477293971847
-0.10279924229687241 0.15862477293971847
-0.12353170605992823 0.15862477293971847
-0.0924330104153445 0.206679630726801
-0.0820667785338166 0.22269791665582853
-0.13389793794145613 0.25473448851388353
-0.12353170605992823 0.15862477293971847
-0.0820667785338166 0.11056991515263591
-0.0924330104153445 0.17464305886874598
-0.04060185100770495 0.15862477293971847
-0.03023561912617704 0.206679630726801
-0.04060185100770495 0.17464305886874598
-0.06133431477076077 0.14260648701069095
-0.05096808288923286 0.0945516292236084
-0.04060185100770495 0.15862477293971847
-0.009503155363121222 0.17464305886874598
-0.009503155363121222 0.17464305886874598
-0.03023561912617704 0.17464305886874598
-0.01986938724464913 0.12658820108166344
-0.009503155363121222 0.07853334329458088
0.03196177216299042 0.11056991515263591
0.03196177216299042 0.0945516292236084
0.04232800404451833 0.11056991515263591
-0.009503155363121222 0.0945516292236084
0.0008630765184066887 0.030478485507498335
0.03196177216299042 0.01446019957847082
0.07342669968910205 0.04649677143652585
0.09415916345215788 0.01446019957847082
0.1045253953336858 0.04649677143652585
0.09415916345215788 0.01446019957847082
0.08379293157062997 -0.017576372279584213
0.1045253953336858 -0.06563123006666675
0.12525785909674161 -0.06563123006666675
0.16672278662285325 -0.08164951599569427
0.18745525038590907 -0.049612944137639246
0.17708901850438116 -0.06563123006666675
0.17708901850438116 -0.16174094564083186
0.2081877141489649 -0.12970437378277683
0.24965264167507653 -0.17775923156985937
0.29111756920118814 -0.17775923156985937
0.32221626484577187 -0.17775923156985937
0.30148380108271605 -0.25785066121499695
0.32221626484577187 -0.289887233073052
0.3636811923718835 -0.33794209086013455
0.39477988801646724 -0.33794209086013455
0.4362448155425789 -0.321923804931107
0.4466110474241068 -0.3059055190020795
0.4673435111871626 -0.38599694864721706
0.4777097430686905 -0.4500700923633271
0.5191746705948022 -0.48210666422138215
0.5710058300024418 -0.5782163797955473
0.6228369894100813 -0.5461798079374922
0.6435694531731371 -0.5621980938665198
0.6124707575285534 -0.6102529516536023
0.6228369894100813 -0.6903443812987399
0.6746681488177209 -0.722380953156795
0.7264993082253604 -0.6903443812987399
0.767964235751472 -0.6903443812987399
0.767964235751472 -0.6903443812987399
0.7472317719884162 -0.6903443812987399
0.7472317719884162 -0.7544175250148499
0.767964235751472 -0.7704358109438775
0.8301616270406394 -0.722380953156795
0.8405278589221674 -0.6903443812987399
0.8716265545667511 -0.722380953156795
0.8405278589221674 -0.7383992390858224
0.8405278589221674 -0.7544175250148499
0.8405278589221674 -0.7544175250148499
0.881992786448279 -0.7383992390858224
0.8716265545667511 -0.6262712375826298
0.8301616270406394 -0.6102529516536023
0.7990629313960558 -0.6102529516536023
0.7472317719884162 -0.5782163797955473
0.6954006125807767 -0.5461798079374922
0.7161330763438325 -0.46608837829235467
0.6850343806992487 -0.3699786627181896
0.653935685054665 -0.289887233073052
0.5502733662393859 -0.25785066121499695
0.4777097430686905 -0.2097958034279144
0.4362448155425789 -0.14572265971180434
0.42587858366105097 -0.11368608785374931
0.40514611989799515 -0.0015580863505566965
0.3429487286088277 0.030478485507498335
0.24965264167507653 0.06251505736555336
0.15635655474132534 0.04649677143652585
0.12525785909674161 0.06251505736555336
0.1148916272152137 0.14260648701069095
0.08379293157062997 0.1906613447977735
0.07342669968910205 0.27075277444291107
0.02159554028146251 0.25473448851388353
-0.01986938724464913 0.25473448851388353
-0.01986938724464913 0.206679630726801
-0.03023561912617704 0.22269791665582853
-0.03023561912617704 0.23871620258485604
-0.05096808288923286 0.27075277444291107
-0.0820667785338166 0.33482591815902113
-0.12353170605992823 0.3027893463009661
-0.12353170605992823 0.2867710603719386
-0.0924330104153445 0.3027893463009661
-0.06133431477076077 0.36686249001707616
-0.0820667785338166 0.3828807759461037
-0.13389793794145613 0.36686249001707616
-0.16499663358603986 0.3027893463009661
-0.16499663358603986 0.2867710603719386
-0.11316547417840032 0.3027893463009661
-0.12353170605992823 0.33482591815902113
-0.11316547417840032 0.36686249001707616
-0.12353170605992823 0.3828807759461037
-0.14426416982298404 0.31880763222999364
-0.12353170605992823 0.25473448851388353
-0.11316547417840032 0.31880763222999364
-0.07170054665228869 0.3508442040880487
-0.07170054665228869 0.33482591815902113
-0.10279924229687241 0.31880763222999364
-0.13389793794145613 0.3027893463009661
-0.13389793794145613 0.25473448851388353
-0.10279924229687241 0.27075277444291107
-0.06133431477076077 0.33482591815902113
-0.06133431477076077 0.31880763222999364
-0.0820667785338166 0.27075277444291107
-0.13389793794145613 0.23871620258485604
-0.12353170605992823 0.23871620258485604
-0.11316547417840032 0.25473448851388353
-0.05096808288923286 0.27075277444291107
-0.01986938724464913 0.3027893463009661
-0.0820667785338166 0.3027893463009661
-0.12353170605992823 0.23871620258485604
-0.0924330104153445 0.23871620258485604
-0.05096808288923286 0.23871620258485604
-0.03023561912617704 0.2867710603719386
-0.01986938724464913 0.2867710603719386
-0.04060185100770495 0.3027893463009661
-0.05096808288923286 0.2867710603719386
-0.009503155363121222 0.22269791665582853
0.04232800404451833 0.23871620258485604
0.08379293157062997 0.2867710603719386
0.06306046780757414 0.2867710603719386
0.05269423592604624 0.31880763222999364
0.06306046780757414 0.22269791665582853
0.08379293157062997 0.206679630726801
0.14599032285979743 0.1906613447977735
0.2185539460304928 0.1906613447977735
0.2600188735566044 0.1906613447977735
0.23928640979354862 0.1906613447977735
0.2081877141489649 0.0945516292236084
0.2081877141489649 0.030478485507498335
0.23928640979354862 0.06251505736555336
0.2600188735566044 0.06251505736555336
0.2289201779120207 0.06251505736555336
0.2081877141489649 0.06251505736555336
0.13562409097826952 0.030478485507498335
0.08379293157062997 -0.0015580863505566965
0.09415916345215788 0.04649677143652585
0.1045253953336858 0.06251505736555336
0.08379293157062997 0.0945516292236084
0.02159554028146251 0.0945516292236084
-0.06133431477076077 0.04649677143652585
-0.11316547417840032 0.06251505736555336
-0.10279924229687241 0.14260648701069095
-0.10279924229687241 0.206679630726801
-0.10279924229687241 0.3027893463009661
-0.17536286546756777 0.2867710603719386
-0.18572909734909568 0.25473448851388353
-0.1960953292306236 0.25473448851388353
-0.18572909734909568 0.3027893463009661
-0.14426416982298404 0.3828807759461037
-0.17536286546756777 0.4309356337331862
-0.1960953292306236 0.44695391966221376
-0.18572909734909568 0.4309356337331862
-0.14426416982298404 0.3508442040880487
-0.10279924229687241 0.206679630726801
0.03196177216299042 0.07853334329458088
0.15635655474132534 -0.11368608785374931
0.2600188735566044 -0.38599694864721706
0.3533149604903556 -0.722380953156795
0.5295409024763301 -0.9946918139502626
0.6850343806992487 -1.250984388814703
0.8612603226852232 -1.4752403918210881
0.996021337145086 -1.7635695385435834
1.110049887841893 -1.9557889696919135
1.244810902301756 -2.1640266867692715
1.3692056848800909 -2.3562461179176015
1.5246991631030093 -2.4843924053498214
1.6387277137998164 -2.564483834994959
1.7112913369705118 -2.676611836498152
1.7838549601412073 -2.8207764098593993
1.8875172789564862 -2.9969775550787023
2.1052081484685723 -3.07706898472384
2.36436394550677 -3.157160414368977
2.6546184381895515 -3.3173432736592523
2.975971626516917 -3.5255809907366102
3.3906209017780333 -3.8139101374591053
3.8260026408022054 -4.022147854536463
4.230285684181794 -4.102239284181601
4.551638872509159 -4.03816614046549
4.800428437665829 -3.8299284233881328
4.904090756481108 -3.5255809907366102
4.676033655087494 -3.0930872706528674
4.012594814669708 -2.5004106912788493
3.152197568502891 -1.8276426822596934
2.2296029310469074 -1.1068198154534552
1.441769308050786 -0.4981249501504097
0.8716265545667511 -0.14572265971180434
0.5191746705948022 -0.08164951599569427
0.2600188735566044 0.01446019957847082
0.011229308399934598 0.07853334329458088
-0.15463040170451195 0.206679630726801
-0.23756025675673523 0.33482591815902113
-0.268658952401319 0.46297220559124125
-0.2893914161643748 0.4789904915202688
-0.33085634369048644 0.46297220559124125
-0.3723212712165981 0.4950087774492963
-0.382687503098126 0.5110270633783238
-0.44488489438729345 0.5911184930234614
-0.45525112626882136 0.6391733508105439
-0.5174485175579888 0.6872282085976265
-0.5589134450841005 0.6391733508105439
-0.5485472132025725 0.6872282085976265
-0.5381809813210446 0.7192647804556815
-0.5485472132025725 0.7513013523137365
-0.5485472132025725 0.7993562101008191
-0.5796459088471563 0.7993562101008191
-0.6003783726102121 0.7993562101008191
-0.6003783726102121 0.7673196382427641
-0.5900121407286841 0.8153744960298466
-0.61074460449174 0.8634293538169292
-0.6003783726102121 0.8954659256749842
-0.6211108363732679 0.8634293538169292
-0.6418433001363237 0.8474110678879017
-0.6625757638993796 0.8153744960298466
-0.6211108363732679 0.8954659256749842
-0.5900121407286841 0.9435207834620667
-0.6003783726102121 0.9275024975330393
-0.6522095320178516 0.9435207834620667
-0.6522095320178516 0.9114842116040117
-0.6729419957809074 0.8954659256749842
-0.6729419957809074 0.9275024975330393
-0.6625757638993796 0.9915756412491493
-0.6729419957809074 1.0236122131072043
-0.6625757638993796 1.0716670708942868
-0.714406923307019 0.9915756412491493
-0.7040406914254912 1.0075939271781769
-0.6833082276624354 1.1197219286813693
-0.6936744595439632 1.1517585005394244
-0.6936744595439632 1.1677767864684518
-0.714406923307019 1.231849930184562
-0.7351393870700749 1.1837950723974795
-0.7455056189516028 1.1517585005394244
-0.724773155188547 1.2158316442555346
-0.7040406914254912 1.2158316442555346
-0.7040406914254912 1.3119413598296996
-0.7455056189516028 1.3119413598296996
-0.7558718508331307 1.263886502042617
-0.7558718508331307 1.2799047879716445
-0.724773155188547 1.327959645758727
-0.7455056189516028 1.3760145035458096
-0.7351393870700749 1.3760145035458096
-0.7455056189516028 1.4080510754038646
-0.7558718508331307 1.3920327894748372
-0.7455056189516028 1.3439779316877547
-0.714406923307019 1.3439779316877547
-0.6729419957809074 1.3599962176167821
-0.6522095320178516 1.4080510754038646
-0.6729419957809074 1.3920327894748372
-0.6729419957809074 1.3599962176167821
-0.6418433001363237 1.2799047879716445
-0.61074460449174 1.263886502042617
-0.5278147494395167 1.2478682161135894
-0.496716053794933 1.2478682161135894
-0.5381809813210446 1.2158316442555346
-0.5278147494395167 1.199813358326507
-0.5070822856764609 1.0876853568233145
-0.43451866250576554 1.0396304990362317
-0.3723212712165981 1.0396304990362317
-0.34122257557201435 1.0075939271781769
-0.3723212712165981 0.9755573553201218
-0.382687503098126 0.8474110678879017
-0.2997576480459027 0.7352830663847091
-0.24792648863826314 0.7192647804556815
-0.1960953292306236 0.703246494526654
-0.17536286546756777 0.6551916367395715
-0.2168277929936794 0.6551916367395715
-0.2168277929936794 0.5430636352363788
-0.18572909734909568 0.5270453493073514
-0.14426416982298404 0.4789904915202688
-0.13389793794145613 0.5110270633783238
-0.12353170605992823 0.5270453493073514
-0.15463040170451195 0.4950087774492963
-0.17536286546756777 0.41491734780415873
-0.1960953292306236 0.36686249001707616
-0.18572909734909568 0.3828807759461037
-0.18572909734909568 0.41491734780415873
-0.18572909734909568 0.41491734780415873
-0.23756025675673523 0.3988990618751312
-0.268658952401319 0.3828807759461037
-0.2790251842828469 0.3508442040880487
-0.268658952401319 0.36686249001707616
-0.24792648863826314 0.36686249001707616
-0.24792648863826314 0.4309356337331862
-0.2790251842828469 0.44695391966221376
-0.3101238799274306 0.3828807759461037
-0.32049011180895853 0.36686249001707616
-0.2893914161643748 0.36686249001707616
-0.268658952401319 0.36686249001707616
-0.268658952401319 0.4309356337331862
-0.32049011180895853 0.3988990618751312
-0.33085634369048644 0.3508442040880487
-0.35158880745354226 0.31880763222999364
-0.2893914161643748 0.3508442040880487
-0.24792648863826314 0.3828807759461037
-0.268658952401319 0.3988990618751312
-0.32049011180895853 0.3508442040880487
-0.32049011180895853 0.33482591815902113
-0.33085634369048644 0.31880763222999364
-0.2997576480459027 0.3027893463009661
-0.2790251842828469 0.31880763222999364
-0.2893914161643748 0.3828807759461037
-0.3101238799274306 0.36686249001707616
-0.35158880745354226 0.31880763222999364
-0.2997576480459027 0.31880763222999364
-0.2893914161643748 0.3027893463009661
-0.2582927205197911 0.31880763222999364
-0.2790251842828469 0.3508442040880487
-0.2790251842828469 0.33482591815902113
-0.2893914161643748 0.23871620258485604
-0.2582927205197911 0.25473448851388353
-0.2064615611121515 0.23871620258485604
-0.16499663358603986 0.23871620258485604
-0.12353170605992823 0.22269791665582853
-0.12353170605992823 0.11056991515263591
-0.0924330104153445 -0.033594658208611725
0.0008630765184066887 -0.1937775174988869
0.1045253953336858 -0.35396037678916203
0.2703851054381323 -0.4500700923633271
0.39477988801646724 -0.5782163797955473
0.4673435111871626 -0.7063626672277674
0.5917382937654976 -0.9626552420922077
0.7472317719884162 -1.2349661028856753
0.9338239458559185 -1.3951489621759505
1.1411485834864767 -1.5232952496081706
1.338106989235507 -1.6834781088984458
1.5557978587475931 -1.907734111904831
1.700925105088984 -2.0999535430531613
1.9497146702456538 -2.3242095460595467
2.1985042354023236 -2.468374119420794
2.4265613367959378 -2.580502120923987
2.61315351066344 -2.772721552072317
2.758280757004831 -2.9168861254335647
2.8930417714646937 -2.9489226972916196
3.090000177213724 -2.9809592691496745
3.2351274235551144 -2.8848495535755094
3.3802546698965052 -2.7567032661432895
3.3595222061334495 -2.564483834994959
3.193662496029003 -2.4043009757046843
2.9863378583984446 -2.276154688272464
2.872309307701638 -2.148008400840244
2.820478148293998 -1.907734111904831
2.7686469888863585 -1.6674598229694184
2.7375482932417747 -1.443203819963033
2.6649846700710795 -1.283020960672758
2.5509561193742725 -1.250984388814703
2.5198574237296887 -1.2670026747437304
2.5302236556112168 -1.2349661028856753
2.5198574237296887 -1.250984388814703
2.4783924962035773 -1.218947816956648
2.4369275686774654 -1.2029295310276205
2.4472938005589935 -1.1869112450985928
2.3747301773882983 -1.218947816956648
2.2192366991653794 -1.1228381013824829
1.9808133658902374 -1.0427466717373453
1.6179952500367607 -0.8505272405890151
1.099683655960365 -0.6903443812987399
0.5917382937654976 -0.4981249501504097
0.19782148226743698 -0.17775923156985937
-0.13389793794145613 0.0945516292236084
-0.3101238799274306 0.36686249001707616
-0.43451866250576554 0.5110270633783238
-0.5485472132025725 0.6071367789524889
-0.6522095320178516 0.6231550648815164
-0.6936744595439632 0.6391733508105439
-0.714406923307019 0.703246494526654
-0.7869705464777145 0.7192647804556815
-0.8284354740038261 0.8634293538169292
-0.8699004015299378 0.8313927819588741
-0.9320977928191052 0.8313927819588741
-0.9735627203452168 0.8313927819588741
-0.9735627203452168 0.8634293538169292
-0.952830256582161 0.9114842116040117
-0.9839289522267447 0.9595390693910942
-1.0253938797528563 0.9915756412491493
-1.0772250391604958 0.9755573553201218
-1.0772250391604958 0.9595390693910942
-1.087591271042024 0.9915756412491493
-1.0564925753974401 1.0396304990362317
-1.066858807278968 1.0556487849652594
-1.1394224304496634 1.0716670708942868
-1.1497886623311913 1.0556487849652594
-1.1705211260942472 1.0396304990362317
-1.1497886623311913 1.0716670708942868
-1.1290561985681355 1.103703642752342
-1.1394224304496634 1.1677767864684518
-1.191253589857303 1.1837950723974795
-1.2430847492649426 1.1677767864684518
-1.2534509811464705 1.1677767864684518
-1.2327185173834145 1.1837950723974795
-1.2430847492649426 1.199813358326507
-1.2223522855018867 1.263886502042617
-1.2741834449095262 1.2959230739006722
-1.294915908672582 1.2799047879716445
-1.2741834449095262 1.2959230739006722
-1.2638172130279983 1.263886502042617
-1.2534509811464705 1.327959645758727
-1.2845496767910543 1.3760145035458096
-1.3467470680802216 1.3920327894748372
-1.3674795318432775 1.4080510754038646
-1.3571132999617495 1.3920327894748372
-1.30528214055411 1.3920327894748372
-1.2741834449095262 1.4721242191199748
-1.2845496767910543 1.4721242191199748
-1.3156483724356378 1.4721242191199748
-1.3156483724356378 1.4240693613328923
-1.3363808361986937 1.3760145035458096
-1.294915908672582 1.4080510754038646
-1.2638172130279983 1.4080510754038646
-1.2327185173834145 1.4080510754038646
-1.2430847492649426 1.3920327894748372
-1.2638172130279983 1.3439779316877547
-1.2223522855018867 1.2799047879716445
-1.1705211260942472 1.231849930184562
-1.1394224304496634 1.231849930184562
-1.1083237348050796 1.231849930184562
-1.0979575029235518 1.1837950723974795
-1.087591271042024 1.0556487849652594
-1.0461263435159123 1.0236122131072043
-0.9942951841082727 0.9275024975330393
-0.9631964884636889 0.9915756412491493
-0.9113653290560494 0.9275024975330393
-0.8906328652929936 0.8474110678879017
-0.8699004015299378 0.8153744960298466
-0.7973367783592423 0.703246494526654
-0.7351393870700749 0.6551916367395715
-0.6625757638993796 0.6551916367395715
-0.6314770682547958 0.5911184930234614
-0.6211108363732679 0.5590819211654063
-0.6314770682547958 0.5110270633783238
-0.5589134450841005 0.46297220559124125
-0.5278147494395167 0.44695391966221376
-0.496716053794933 0.4309356337331862
-0.4759835900318772 0.4309356337331862
-0.45525112626882136 0.3988990618751312
-0.45525112626882136 0.3828807759461037
-0.44488489438729345 0.3027893463009661
-0.4137861987427097 0.3508442040880487
-0.3723212712165981 0.33482591815902113
-0.42415243062423763 0.36686249001707616
-0.46561735815034927 0.36686249001707616
-0.45525112626882136 0.31880763222999364
-0.45525112626882136 0.31880763222999364
-0.43451866250576554 0.3027893463009661
-0.4137861987427097 0.33482591815902113
-0.382687503098126 0.41491734780415873
-0.42415243062423763 0.3508442040880487
-0.4863498219134051 0.2867710603719386
-0.44488489438729345 0.2867710603719386
-0.44488489438729345 0.3027893463009661
-0.382687503098126 0.3508442040880487
-0.382687503098126 0.3988990618751312
-0.43451866250576554 0.3828807759461037
-0.44488489438729345 0.36686249001707616
-0.43451866250576554 0.31880763222999364
-0.3930537349796539 0.31880763222999364
-0.3619550393350702 0.36686249001707616
-0.3619550393350702 0.36686249001707616
-0.382687503098126 0.36686249001707616
-0.42415243062423763 0.3508442040880487
-0.382687503098126 0.31880763222999364
-0.35158880745354226 0.3027893463009661
-0.33085634369048644 0.3508442040880487
-0.34122257557201435 0.36686249001707616
-0.3619550393350702 0.3508442040880487
-0.3930537349796539 0.31880763222999364
-0.3930537349796539 0.31880763222999364
-0.35158880745354226 0.2867710603719386
-0.3101238799274306 0.3027893463009661
-0.2997576480459027 0.33482591815902113
-0.33085634369048644 0.3027893463009661
-0.34122257557201435 0.3027893463009661
-0.34122257557201435 0.25473448851388353
-0.32049011180895853 0.23871620258485604
-0.2997576480459027 0.3027893463009661
-0.32049011180895853 0.3508442040880487
-0.35158880745354226 0.3027893463009661
-0.33085634369048644 0.27075277444291107
-0.33085634369048644 0.22269791665582853
-0.32049011180895853 0.23871620258485604
-0.268658952401319 0.27075277444291107
-0.24792648863826314 0.2867710603719386
-0.2997576480459027 0.2867710603719386
-0.32049011180895853 0.22269791665582853
-0.32049011180895853 0.22269791665582853
-0.268658952401319 0.25473448851388353
-0.2582927205197911 0.27075277444291107
-0.2582927205197911 0.2867710603719386
-0.2997576480459027 0.27075277444291107
-0.32049011180895853 0.22269791665582853
-0.2997576480459027 0.206679630726801
-0.2582927205197911 0.206679630726801
-0.22719402487520732 0.23871620258485604
-0.24792648863826314 0.25473448851388353
-0.268658952401319 0.25473448851388353
-0.2893914161643748 0.25473448851388353
-0.2790251842828469 0.206679630726801
-0.268658952401319 0.206679630726801
-0.24792648863826314 0.23871620258485604
-0.24792648863826314 0.27075277444291107
-0.23756025675673523 0.25473448851388353
-0.268658952401319 0.23871620258485604
-0.268658952401319 0.206679630726801
-0.24792648863826314 0.17464305886874598
-0.1960953292306236 0.206679630726801
-0.2168277929936794 0.206679630726801
-0.2582927205197911 0.22269791665582853
-0.2790251842828469 0.17464305886874598
-0.2893914161643748 0.15862477293971847
-0.24792648863826314 0.15862477293971847
-0.23756025675673523 0.15862477293971847
-0.2168277929936794 0.23871620258485604
-0.22719402487520732 0.22269791665582853
-0.2790251842828469 0.15862477293971847
-0.2582927205197911 0.15862477293971847
-0.22719402487520732 0.15862477293971847
-0.22719402487520732 0.17464305886874598
-0.2064615611121515 0.22269791665582853
-0.24792648863826314 0.17464305886874598
-0.268658952401319 0.14260648701069095
-0.2582927205197911 0.12658820108166344
-0.23756025675673523 0.12658820108166344
-0.2064615611121515 0.17464305886874598
-0.2168277929936794 0.15862477293971847
-0.2582927205197911 0.1906613447977735
-0.24792648863826314 0.14260648701069095
-0.24792648863826314 0.14260648701069095
-0.2168277929936794 0.11056991515263591
-0.2064615611121515 0.15862477293971847
-0.2064615611121515 0.17464305886874598
-0.23756025675673523 0.1906613447977735
-0.268658952401319 0.15862477293971847
-0.2582927205197911 0.15862477293971847
-0.2168277929936794 0.12658820108166344
-0.18572909734909568 0.17464305886874598
-0.17536286546756777 0.22269791665582853
-0.2064615611121515 0.22269791665582853
-0.22719402487520732 0.15862477293971847
-0.22719402487520732 0.12658820108166344
-0.2168277929936794 0.14260648701069095
-0.1960953292306236 0.1906613447977735
-0.17536286546756777 0.22269791665582853
-0.2168277929936794 0.206679630726801
-0.22719402487520732 0.15862477293971847
-0.2168277929936794 0.0945516292236084
-0.18572909734909568 0.14260648701069095
-0.16499663358603986 0.17464305886874598
-0.16499663358603986 0.23871620258485604
-0.18572909734909568 0.1906613447977735
-0.2064615611121515 0.12658820108166344
-0.23756025675673523 0.12658820108166344
-0.22719402487520732 0.14260648701069095
-0.16499663358603986 0.12658820108166344
-0.15463040170451195 0.1906613447977735
-0.18572909734909568 0.206679630726801
-0.2064615611121515 0.15862477293971847
-0.2064615611121515 0.11056991515263591
-0.18572909734909568 0.14260648701069095
-0.15463040170451195 0.15862477293971847
-0.15463040170451195 0.206679630726801
-0.16499663358603986 0.1906613447977735
-0.17536286546756777 0.12658820108166344
-0.18572909734909568 0.15862477293971847
-0.15463040170451195 0.15862477293971847
-0.0820667785338166 0.1906613447977735
-0.05096808288923286 0.25473448851388353
-0.05096808288923286 0.23871620258485604
-0.04060185100770495 0.206679630726801
-0.04060185100770495 0.206679630726801
-0.03023561912617704 0.206679630726801
0.02159554028146251 0.22269791665582853
0.04232800404451833 0.23871620258485604
0.07342669968910205 0.22269791665582853
0.07342669968910205 0.15862477293971847
0.09415916345215788 0.11056991515263591
0.1148916272152137 0.04649677143652585
0.15635655474132534 0.04649677143652585
0.14599032285979743 0.04649677143652585
0.1148916272152137 0.030478485507498335
0.07342669968910205 -0.017576372279584213
0.02159554028146251 -0.017576372279584213
0.07342669968910205 -0.033594658208611725
0.05269423592604624 -0.0015580863505566965
0.03196177216299042 0.030478485507498335
-0.04060185100770495 0.01446019957847082
-0.0924330104153445 -0.049612944137639246
-0.11316547417840032 -0.06563123006666675
-0.11316547417840032 -0.017576372279584213
-0.10279924229687241 0.01446019957847082
-0.11316547417840032 0.12658820108166344
-0.18572909734909568 0.12658820108166344
-0.23756025675673523 0.07853334329458088
-0.18572909734909568 0.030478485507498335
-0.1960953292306236 0.06251505736555336
-0.17536286546756777 0.0945516292236084
-0.18572909734909568 0.11056991515263591
-0.17536286546756777 0.0945516292236084
-0.2064615611121515 0.06251505736555336
-0.22719402487520732 0.06251505736555336
-0.1960953292306236 0.030478485507498335
-0.14426416982298404 0.07853334329458088
-0.15463040170451195 0.12658820108166344
-0.17536286546756777 0.11056991515263591
-0.1960953292306236 0.0945516292236084
-0.1960953292306236 0.030478485507498335
-0.16499663358603986 -0.0015580863505566965
-0.14426416982298404 0.06251505736555336
-0.14426416982298404 0.07853334329458088
-0.15463040170451195 0.06251505736555336
-0.1960953292306236 0.07853334329458088
-0.2064615611121515 -0.0015580863505566965
-0.16499663358603986 -0.017576372279584213
-0.15463040170451195 -0.0015580863505566965
-0.18572909734909568 0.030478485507498335
-0.12353170605992823 0.01446019957847082
0.05269423592604624 -0.06563123006666675
0.3429487286088277 -0.24183237528596943
0.7264993082253604 -0.5141432360794372
1.2240784385387 -0.6743260953697123
1.7631224963781513 -0.7704358109438775
2.3332652498621864 -0.81849066873096
2.8930417714646937 -0.9306186702341526
3.3802546698965052 -1.0747832435954003
3.5772130756455356 -0.9946918139502626
3.2869585829627543 -0.81849066873096
2.602787278781912 -0.4981249501504097
1.7838549601412073 -0.2738689471440245
1.006387569026614 -0.12970437378277683
0.4466110474241068 -0.06563123006666675
0.12525785909674161 -0.08164951599569427
0.03196177216299042 -0.16174094564083186
-0.03023561912617704 -0.12970437378277683
-0.11316547417840032 -0.0976678019247218
-0.1960953292306236 -0.049612944137639246
-0.16499663358603986 -0.033594658208611725
-0.0820667785338166 0.01446019957847082
-0.03023561912617704 0.11056991515263591
-0.04060185100770495 0.12658820108166344
-0.12353170605992823 0.12658820108166344
-0.17536286546756777 0.0945516292236084
-0.17536286546756777 0.07853334329458088
-0.14426416982298404 0.12658820108166344
-0.14426416982298404 0.14260648701069095
-0.13389793794145613 0.206679630726801
-0.14426416982298404 0.17464305886874598
-0.18572909734909568 0.15862477293971847
-0.1960953292306236 0.11056991515263591
-0.17536286546756777 0.07853334329458088
-0.14426416982298404 0.0945516292236084
-0.14426416982298404 0.14260648701069095
-0.15463040170451195 0.14260648701069095
-0.1960953292306236 0.0945516292236084
-0.1960953292306236 0.06251505736555336
-0.14426416982298404 0.07853334329458088
-0.11316547417840032 0.0945516292236084
-0.10279924229687241 0.14260648701069095
-0.13389793794145613 0.14260648701069095
-0.14426416982298404 0.07853334329458088
-0.12353170605992823 0.04649677143652585
-0.11316547417840032 0.07853334329458088
-0.07170054665228869 0.11056991515263591
-0.05096808288923286 0.12658820108166344
-0.0820667785338166 0.11056991515263591
-0.10279924229687241 0.030478485507498335
-0.10279924229687241 0.04649677143652585
-0.05096808288923286 0.030478485507498335
0.0008630765184066887 0.06251505736555336
-0.009503155363121222 0.0945516292236084
-0.01986938724464913 0.06251505736555336
-0.03023561912617704 0.01446019957847082
-0.01986938724464913 -0.06563123006666675
0.02159554028146251 -0.033594658208611725
0.05269423592604624 -0.033594658208611725
0.06306046780757414 0.01446019957847082
0.06306046780757414 0.030478485507498335
0.05269423592604624 -0.06563123006666675
0.07342669968910205 -0.11368608785374931
0.12525785909674161 -0.11368608785374931
0.15635655474132534 -0.0976678019247218
0.15635655474132534 -0.06563123006666675
0.13562409097826952 -0.12970437378277683
0.17708901850438116 -0.2097958034279144
0.19782148226743698 -0.25785066121499695
0.23928640979354862 -0.25785066121499695
0.28075133731966023 -0.25785066121499695
0.32221626484577187 -0.24183237528596943
0.3325824967272998 -0.25785066121499695
0.30148380108271605 -0.33794209086013455
0.3636811923718835 -0.4180335205052721
0.4362448155425789 -0.4500700923633271
0.4777097430686905 -0.43405180643429964
0.5191746705948022 -0.4020152345762446
0.5191746705948022 -0.46608837829235467
0.5088084387132743 -0.5141432360794372
0.539907134357858 -0.5461798079374922
0.6228369894100813 -0.5782163797955473
0.653935685054665 -0.6102529516536023
0.7057668444623045 -0.5942346657245747
0.7057668444623045 -0.6102529516536023
0.6850343806992487 -0.6743260953697123
0.7264993082253604 -0.722380953156795
0.7472317719884162 -0.722380953156795
0.8094291632775836 -0.7063626672277674
0.8094291632775836 -0.6903443812987399
0.8197953951591116 -0.6743260953697123
0.8094291632775836 -0.7383992390858224
0.8405278589221674 -0.7544175250148499
0.8716265545667511 -0.7063626672277674
0.8716265545667511 -0.6743260953697123
0.881992786448279 -0.6262712375826298
0.8094291632775836 -0.5942346657245747
0.767964235751472 -0.6262712375826298
0.7575980038699441 -0.5461798079374922
0.7472317719884162 -0.4981249501504097
0.7264993082253604 -0.43405180643429964
0.6850343806992487 -0.33794209086013455
0.6124707575285534 -0.289887233073052
0.5295409024763301 -0.2738689471440245
0.4777097430686905 -0.24183237528596943
0.4569772793056347 -0.1937775174988869
0.41551235177952306 -0.06563123006666675
0.3533149604903556 -0.0015580863505566965
0.2600188735566044 0.06251505736555336
0.17708901850438116 0.04649677143652585
0.15635655474132534 0.04649677143652585
0.14599032285979743 0.11056991515263591
0.1148916272152137 0.17464305886874598
0.08379293157062997 0.22269791665582853
0.011229308399934598 0.23871620258485604
-0.01986938724464913 0.1906613447977735
-0.04060185100770495 0.206679630726801
-0.04060185100770495 0.22269791665582853
-0.01986938724464913 0.27075277444291107
-0.03023561912617704 0.33482591815902113
-0.0820667785338166 0.3508442040880487
-0.13389793794145613 0.2867710603719386
-0.13389793794145613 0.27075277444291107
-0.11316547417840032 0.31880763222999364
-0.11316547417840032 0.31880763222999364
-0.10279924229687241 0.36686249001707616
-0.11316547417840032 0.36686249001707616
-0.16499663358603986 0.31880763222999364
-0.14426416982298404 0.2867710603719386
-0.11316547417840032 0.27075277444291107
-0.0924330104153445 0.31880763222999364
-0.0924330104153445 0.33482591815902113
-0.11316547417840032 0.33482591815902113
-0.12353170605992823 0.33482591815902113
-0.11316547417840032 0.27075277444291107
-0.11316547417840032 0.3027893463009661
-0.06133431477076077 0.2867710603719386
-0.07170054665228869 0.3508442040880487
-0.0820667785338166 0.2867710603719386
-0.12353170605992823 0.2867710603719386
-0.12353170605992823 0.25473448851388353
-0.0924330104153445 0.23871620258485604
-0.07170054665228869 0.2867710603719386
-0.07170054665228869 0.2867710603719386
-0.10279924229687241 0.33482591815902113
-0.14426416982298404 0.27075277444291107
-0.10279924229687241 0.22269791665582853
-0.0820667785338166 0.23871620258485604
-0.06133431477076077 0.23871620258485604
-0.03023561912617704 0.3027893463009661
-0.05096808288923286 0.27075277444291107
-0.06133431477076077 0.23871620258485604
-0.04060185100770495 0.1906613447977735
0.011229308399934598 0.25473448851388353
0.07342669968910205 0.3027893463009661
0.09415916345215788 0.3027893463009661
0.07342669968910205 0.2867710603719386
0.05269423592604624 0.25473448851388353
0.07342669968910205 0.23871620258485604
0.13562409097826952 0.206679630726801
0.18745525038590907 0.1906613447977735
0.23928640979354862 0.206679630726801
0.2185539460304928 0.206679630726801
0.2081877141489649 0.14260648701069095
0.2081877141489649 0.030478485507498335
0.2289201779120207 0.04649677143652585
0.23928640979354862 0.07853334329458088
0.24965264167507653 0.04649677143652585
0.2185539460304928 0.11056991515263591
0.15635655474132534 0.06251505736555336
0.14599032285979743 0.06251505736555336
0.14599032285979743 0.0945516292236084
0.13562409097826952 0.12658820108166344
0.1148916272152137 0.15862477293971847
0.06306046780757414 0.15862477293971847
-0.009503155363121222 0.12658820108166344
-0.05096808288923286 0.11056991515263591
-0.0820667785338166 0.15862477293971847
-0.07170054665228869 0.27075277444291107
-0.0820667785338166 0.31880763222999364
-0.13389793794145613 0.3828807759461037
-0.13389793794145613 0.36686249001707616
-0.15463040170451195 0.3508442040880487
-0.13389793794145613 0.31880763222999364
-0.0820667785338166 0.3508442040880487
-0.009503155363121222 0.25473448851388353
0.04232800404451833 0.06251505736555336
0.13562409097826952 -0.14572265971180434
0.2600188735566044 -0.3699786627181896
0.41551235177952306 -0.6262712375826298
0.5502733662393859 -0.786454096872905
0.6746681488177209 -1.0908015295244278
0.8094291632775836 -1.347094104388868
0.9545564096189744 -1.6674598229694184
1.120416119723421 -1.9557889696919135
1.2966420617093954 -2.148008400840244
1.4832342355768977 -2.2921729742014914
1.6179952500367607 -2.4523558334917666
1.690558873207456 -2.6125386927820418
1.804587423904263 -2.836794695788427
2.0119120615348214 -3.0129958410077298
2.1985042354023236 -3.1891969862270324
2.385096409269826 -3.3173432736592523
2.488758728085105 -3.3814164173753625
2.6649846700710795 -3.493544418878555
2.965605394635389 -3.6377089922398027
3.30769104672581 -3.797891851530078
3.5772130756455356 -3.9100198530332704
3.8052701770391497 -3.958074710820353
3.960763655262068 -3.9260381389622983
4.105890901603459 -3.8459467093171606
4.261384379826378 -3.6857638500268854
4.468709017456936 -3.5255809907366102
4.562005104390687 -3.1891969862270324
4.344314234878601 -2.804758123930372
3.732706553868454 -2.2921729742014914
2.9137742352277494 -1.6354232511113633
2.1985042354023236 -1.0587649576663727
1.5246991631030093 -0.5782163797955473
0.9441901777374465 -0.2097958034279144
0.4777097430686905 0.01446019957847082
0.16672278662285325 0.22269791665582853
-0.0924330104153445 0.36686249001707616
-0.2893914161643748 0.44695391966221376
-0.3619550393350702 0.4950087774492963
-0.3930537349796539 0.5911184930234614
-0.3930537349796539 0.6712099226685989
-0.44488489438729345 0.7673196382427641
-0.5174485175579888 0.7993562101008191
-0.5692796769656283 0.7993562101008191
-0.6211108363732679 0.8474110678879017
-0.5796459088471563 0.8153744960298466
-0.5900121407286841 0.8954659256749842
-0.6003783726102121 0.9275024975330393
-0.6314770682547958 0.9275024975330393
-0.6833082276624354 0.9275024975330393
-0.6625757638993796 0.9435207834620667
-0.6625757638993796 0.9915756412491493
-0.6625757638993796 1.0396304990362317
-0.6625757638993796 1.0716670708942868
-0.6936744595439632 1.0716670708942868
-0.7040406914254912 1.0556487849652594
-0.714406923307019 1.0396304990362317
-0.6936744595439632 1.0716670708942868
-0.6729419957809074 1.1197219286813693
-0.724773155188547 1.1677767864684518
-0.7558718508331307 1.1677767864684518
-0.7662380827146587 1.1517585005394244
-0.7455056189516028 1.1837950723974795
-0.7351393870700749 1.2158316442555346
-0.7455056189516028 1.2478682161135894
-0.7455056189516028 1.3119413598296996
-0.7869705464777145 1.327959645758727
-0.8077030102407703 1.3119413598296996
-0.838801705885354 1.3119413598296996
-0.8077030102407703 1.3439779316877547
-0.7869705464777145 1.3920327894748372
-0.7973367783592423 1.4721242191199748
-0.838801705885354 1.5041607909780297
-0.8699004015299378 1.4721242191199748
-0.8699004015299378 1.5201790769070573
-0.8699004015299378 1.4881425050490023
-0.838801705885354 1.5842522206231673
-0.8491679377668819 1.6483253643392775
-0.8802666334114656 1.6483253643392775
-0.9217315609375772 1.6483253643392775
-0.9113653290560494 1.69638022212636
-0.8802666334114656 1.6803619361973325
-0.8699004015299378 1.7444350799134425
-0.8595341696484098 1.8085082236295527
-0.8699004015299378 1.792489937700525
-0.8802666334114656 1.7444350799134425
-0.8699004015299378 1.7444350799134425
-0.8491679377668819 1.7444350799134425
-0.8180692421222981 1.792489937700525
-0.7869705464777145 1.7604533658424701
-0.8077030102407703 1.7604533658424701
-0.8180692421222981 1.69638022212636
-0.8077030102407703 1.69638022212636
-0.7766043145961865 1.6803619361973325
-0.724773155188547 1.6803619361973325
-0.6936744595439632 1.6483253643392775
-0.6729419957809074 1.600270506552195
-0.6729419957809074 1.5041607909780297
-0.6418433001363237 1.4400876472619197
-0.5692796769656283 1.3920327894748372
-0.5381809813210446 1.3439779316877547
-0.496716053794933 1.327959645758727
-0.5174485175579888 1.263886502042617
-0.5174485175579888 1.1517585005394244
-0.46561735815034927 1.0556487849652594
-0.382687503098126 0.9915756412491493
-0.34122257557201435 0.8954659256749842
-0.2893914161643748 0.8794476397459566
-0.2790251842828469 0.8153744960298466
-0.2997576480459027 0.703246494526654
-0.2582927205197911 0.5911184930234614
-0.2168277929936794 0.5590819211654063
-0.16499663358603986 0.5430636352363788
-0.16499663358603986 0.5590819211654063
-0.1960953292306236 0.5270453493073514
-0.22719402487520732 0.46297220559124125
-0.2168277929936794 0.3988990618751312
-0.18572909734909568 0.36686249001707616
-0.15463040170451195 0.4309356337331862
-0.1960953292306236 0.4309356337331862
-0.2582927205197911 0.4309356337331862
-0.268658952401319 0.3508442040880487
-0.2790251842828469 0.3508442040880487
-0.23756025675673523 0.3508442040880487
-0.22719402487520732 0.36686249001707616
-0.23756025675673523 0.3828807759461037
-0.2790251842828469 0.3988990618751312
-0.2997576480459027 0.3828807759461037
-0.2893914161643748 0.3027893463009661
-0.2790251842828469 0.3508442040880487
-0.2582927205197911 0.36686249001707616
-0.2893914161643748 0.3828807759461037
-0.3101238799274306 0.3988990618751312
-0.32049011180895853 0.36686249001707616
-0.34122257557201435 0.3027893463009661
-0.3101238799274306 0.3508442040880487
-0.2582927205197911 0.31880763222999364
-0.2582927205197911 0.36686249001707616
-0.2790251842828469 0.3508442040880487
-0.2997576480459027 0.31880763222999364
-0.3101238799274306 0.25473448851388353
-0.2790251842828469 0.27075277444291107
-0.2582927205197911 0.3027893463009661
-0.268658952401319 0.33482591815902113
-0.268658952401319 0.33482591815902113
-0.3101238799274306 0.27075277444291107
-0.2997576480459027 0.25473448851388353
-0.268658952401319 0.31880763222999364
-0.2582927205197911 0.2867710603719386
-0.23756025675673523 0.36686249001707616
-0.2790251842828469 0.31880763222999364
-0.2893914161643748 0.3508442040880487
-0.2790251842828469 0.3027893463009661
-0.24792648863826314 0.31880763222999364
-0.2064615611121515 0.33482591815902113
-0.1960953292306236 0.3508442040880487
-0.18572909734909568 0.33482591815902113
-0.18572909734909568 0.25473448851388353
-0.15463040170451195 0.17464305886874598
-0.11316547417840032 0.15862477293971847
-0.06133431477076077 0.11056991515263591
0.011229308399934598 0.06251505736555336
0.04232800404451833 -0.11368608785374931
0.1045253953336858 -0.289887233073052
0.19782148226743698 -0.4180335205052721
0.30148380108271605 -0.5942346657245747
0.4673435111871626 -0.7544175250148499
0.5917382937654976 -0.8505272405890151
0.7057668444623045 -1.1228381013824829
0.8405278589221674 -1.379130676246923
1.006387569026614 -1.6033866792533082
1.2033459747756443 -1.7956061104016385
1.4106706124062025 -1.907734111904831
1.566164090629121 -2.035880399337051
1.680192641325928 -2.228099830485381
1.804587423904263 -2.468374119420794
1.9600809021271817 -2.6926301224271794
2.1155743803501004 -2.9168861254335647
2.281434090454547 -3.029014126936757
2.3747301773882983 -3.029014126936757
2.5302236556112168 -3.0450324128657846
2.61315351066344 -3.0930872706528674
2.758280757004831 -3.109105556581895
2.7790132207678866 -2.9969775550787023
2.7686469888863585 -2.8848495535755094
2.6857171338341352 -2.7567032661432895
2.623519742544968 -2.564483834994959
2.5302236556112168 -2.4043009757046843
2.4576600324405216 -2.276154688272464
2.4472938005589935 -2.083935257124134
2.4058288730328816 -1.8276426822596934
2.36436394550677 -1.619404965182336
2.291800322336075 -1.5553318214662257
2.2088704672838517 -1.5393135355371983
2.177771771639268 -1.5393135355371983
2.1881380035207956 -1.443203819963033
2.260701626691491 -1.3631123903178954
2.3436314817437145 -1.2990392466017855
2.385096409269826 -1.250984388814703
2.3436314817437145 -1.283020960672758
2.2088704672838517 -1.2349661028856753
2.032644525297877 -1.2029295310276205
1.7734887282596792 -1.0747832435954003
1.4106706124062025 -0.81849066873096
0.9441901777374465 -0.5141432360794372
0.4777097430686905 -0.1937775174988869
0.1148916272152137 0.030478485507498335
-0.12353170605992823 0.25473448851388353
-0.2997576480459027 0.44695391966221376
-0.42415243062423763 0.5751002070944339
-0.5796459088471563 0.6391733508105439
-0.6418433001363237 0.6551916367395715
-0.6833082276624354 0.7352830663847091
-0.724773155188547 0.7673196382427641
-0.714406923307019 0.8313927819588741
-0.7558718508331307 0.9435207834620667
-0.8180692421222981 0.9595390693910942
-0.8906328652929936 0.9595390693910942
-0.9113653290560494 0.9275024975330393
-0.9320977928191052 0.9435207834620667
-0.9009990971745214 0.9915756412491493
-0.9009990971745214 1.0556487849652594
-0.9839289522267447 1.0876853568233145
-1.0253938797528563 1.0556487849652594
-1.0357601116343842 1.0075939271781769
-1.0357601116343842 1.0396304990362317
-1.0253938797528563 1.0876853568233145
-1.0046614159898006 1.1517585005394244
-1.0772250391604958 1.135740214610397
-1.1083237348050796 1.103703642752342
-1.1083237348050796 1.103703642752342
-1.1083237348050796 1.135740214610397
-1.1083237348050796 1.1677767864684518
-1.0979575029235518 1.2478682161135894
-1.1186899666866075 1.263886502042617
-1.1601548942127191 1.231849930184562
-1.1705211260942472 1.2799047879716445
-1.180887357975775 1.263886502042617
-1.1497886623311913 1.2959230739006722
-1.1497886623311913 1.2959230739006722
-1.180887357975775 1.3599962176167821
-1.2223522855018867 1.3599962176167821
-1.2223522855018867 1.3439779316877547
-1.201619821738831 1.327959645758727
-1.201619821738831 1.3599962176167821
-1.180887357975775 1.4240693613328923
-1.2327185173834145 1.4400876472619197
-1.2534509811464705 1.4561059331909472
-1.2741834449095262 1.3920327894748372
-1.2534509811464705 1.4240693613328923
-1.2223522855018867 1.4240693613328923
-1.2119860536203588 1.4721242191199748
-1.2534509811464705 1.4721242191199748
-1.2327185173834145 1.4080510754038646
-1.2223522855018867 1.4400876472619197
-1.201619821738831 1.4080510754038646
-1.1601548942127191 1.4240693613328923
-1.1290561985681355 1.4080510754038646
-1.1601548942127191 1.3920327894748372
-1.191253589857303 1.3439779316877547
-1.1394224304496634 1.2799047879716445
-1.1186899666866075 1.2478682161135894
-1.087591271042024 1.263886502042617
-1.0357601116343842 1.231849930184562
-1.0150276478713285 1.1837950723974795
-1.0253938797528563 1.103703642752342
-0.9839289522267447 1.0556487849652594
-0.9009990971745214 1.0075939271781769
-0.8595341696484098 0.9915756412491493
-0.8284354740038261 0.9595390693910942
-0.8180692421222981 0.8634293538169292
-0.838801705885354 0.8313927819588741
-0.7662380827146587 0.7352830663847091
-0.714406923307019 0.7192647804556815
-0.6314770682547958 0.6872282085976265
-0.61074460449174 0.6231550648815164
-0.61074460449174 0.6231550648815164
-0.61074460449174 0.5430636352363788
-0.5796459088471563 0.46297220559124125
-0.5485472132025725 0.41491734780415873
-0.496716053794933 0.46297220559124125
-0.46561735815034927 0.4309356337331862
-0.44488489438729345 0.44695391966221376
-0.45525112626882136 0.3828807759461037
-0.45525112626882136 0.3508442040880487
-0.43451866250576554 0.3828807759461037
-0.4034199668611818 0.31880763222999364
-0.4034199668611818 0.3508442040880487
-0.44488489438729345 0.31880763222999364
-0.46561735815034927 0.3508442040880487
-0.45525112626882136 0.3027893463009661
-0.4137861987427097 0.3027893463009661
-0.4034199668611818 0.33482591815902113
-0.42415243062423763 0.3508442040880487
-0.46561735815034927 0.3828807759461037
-0.4759835900318772 0.3027893463009661
-0.5070822856764609 0.27075277444291107
-0.5070822856764609 0.3027893463009661
-0.43451866250576554 0.33482591815902113
-0.44488489438729345 0.33482591815902113
-0.46561735815034927 0.3508442040880487
-0.4863498219134051 0.31880763222999364
-0.496716053794933 0.27075277444291107
-0.4759835900318772 0.27075277444291107
-0.4137861987427097 0.36686249001707616
-0.42415243062423763 0.36686249001707616
-0.44488489438729345 0.36686249001707616
-0.496716053794933 0.3828807759461037
-0.496716053794933 0.3027893463009661
-0.44488489438729345 0.2867710603719386
-0.4137861987427097 0.33482591815902113
-0.42415243062423763 0.3828807759461037
-0.44488489438729345 0.3828807759461037
-0.45525112626882136 0.33482591815902113
-0.4759835900318772 0.27075277444291107
-0.42415243062423763 0.2867710603719386
-0.42415243062423763 0.2867710603719386
-0.43451866250576554 0.36686249001707616
-0.42415243062423763 0.31880763222999364
-0.4863498219134051 0.25473448851388353
-0.46561735815034927 0.23871620258485604
-0.43451866250576554 0.25473448851388353
-0.3930537349796539 0.2867710603719386
-0.382687503098126 0.2867710603719386
-0.4034199668611818 0.25473448851388353
-0.43451866250576554 0.22269791665582853
-0.45525112626882136 0.1906613447977735
-0.4137861987427097 0.1906613447977735
-0.3619550393350702 0.23871620258485604
-0.3723212712165981 0.2867710603719386
-0.4034199668611818 0.23871620258485604
-0.43451866250576554 0.206679630726801
-0.3930537349796539 0.206679630726801
-0.3619550393350702 0.206679630726801
-0.35158880745354226 0.27075277444291107
-0.35158880745354226 0.27075277444291107
-0.382687503098126 0.25473448851388353
-0.382687503098126 0.1906613447977735
-0.3930537349796539 0.15862477293971847
-0.3723212712165981 0.17464305886874598
-0.3723212712165981 0.1906613447977735
-0.35158880745354226 0.23871620258485604
-0.382687503098126 0.206679630726801
-0.4034199668611818 0.206679630726801
-0.4034199668611818 0.14260648701069095
-0.3619550393350702 0.12658820108166344
-0.34122257557201435 0.17464305886874598
-0.33085634369048644 0.206679630726801
-0.3619550393350702 0.206679630726801
-0.382687503098126 0.12658820108166344
-0.382687503098126 0.12658820108166344
-0.382687503098126 0.14260648701069095
-0.3619550393350702 0.17464305886874598
-0.3619550393350702 0.22269791665582853
-0.3723212712165981 0.206679630726801
-0.382687503098126 0.15862477293971847
-0.4034199668611818 0.0945516292236084
-0.3619550393350702 0.0945516292236084
-0.33085634369048644 0.12658820108166344
-0.3101238799274306 0.15862477293971847
-0.35158880745354226 0.17464305886874598
-0.3723212712165981 0.15862477293971847
-0.4034199668611818 0.14260648701069095
-0.32049011180895853 0.11056991515263591
-0.2893914161643748 0.15862477293971847
-0.32049011180895853 0.17464305886874598
-0.35158880745354226 0.17464305886874598
-0.3619550393350702 0.12658820108166344
-0.382687503098126 0.11056991515263591
-0.34122257557201435 0.12658820108166344
-0.3101238799274306 0.15862477293971847
-0.3101238799274306 0.17464305886874598
-0.32049011180895853 0.17464305886874598
-0.32049011180895853 0.17464305886874598
-0.34122257557201435 0.07853334329458088
-0.33085634369048644 0.07853334329458088
-0.2582927205197911 0.14260648701069095
-0.2997576480459027 0.206679630726801
-0.32049011180895853 0.1906613447977735
-0.34122257557201435 0.12658820108166344
-0.3619550393350702 0.11056991515263591
-0.3101238799274306 0.14260648701069095
-0.32049011180895853 0.12658820108166344
-0.32049011180895853 0.15862477293971847
-0.2997576480459027 0.17464305886874598
-0.32049011180895853 0.11056991515263591
-0.32049011180895853 0.11056991515263591
-0.3101238799274306 0.0945516292236084
-0.2893914161643748 0.17464305886874598
-0.268658952401319 0.15862477293971847
-0.2790251842828469 0.1906613447977735
-0.33085634369048644 0.12658820108166344
-0.34122257557201435 0.0945516292236084
-0.33085634369048644 0.11056991515263591
-0.268658952401319 0.12658820108166344
-0.2790251842828469 0.15862477293971847
-0.3101238799274306 0.14260648701069095
-0.35158880745354226 0.11056991515263591
-0.35158880745354226 0.06251505736555336
-0.3619550393350702 0.06251505736555336
-0.3101238799274306 0.0945516292236084
-0.3101238799274306 0.11056991515263591
-0.2997576480459027 0.14260648701069095
-0.3101238799274306 0.07853334329458088
-0.3101238799274306 0.04649677143652585
-0.2790251842828469 0.06251505736555336
-0.24792648863826314 0.0945516292236084
-0.2582927205197911 0.14260648701069095
-0.3101238799274306 0.12658820108166344
-0.32049011180895853 0.14260648701069095
-0.32049011180895853 0.11056991515263591
-0.3101238799274306 0.07853334329458088
-0.268658952401319 0.11056991515263591
-0.24792648863826314 0.15862477293971847
-0.2582927205197911 0.12658820108166344
-0.2997576480459027 0.0945516292236084
-0.2997576480459027 0.07853334329458088
-0.2997576480459027 0.07853334329458088
-0.23756025675673523 0.0945516292236084
-0.1960953292306236 0.206679630726801
-0.2064615611121515 0.1906613447977735
-0.1960953292306236 0.15862477293971847
-0.18572909734909568 0.12658820108166344
-0.12353170605992823 0.15862477293971847
-0.0924330104153445 0.206679630726801
-0.06133431477076077 0.25473448851388353
-0.0820667785338166 0.1906613447977735
-0.07170054665228869 0.15862477293971847
-0.06133431477076077 0.11056991515263591
0.011229308399934598 0.06251505736555336
0.08379293157062997 0.04649677143652585
0.06306046780757414 0.030478485507498335
0.05269423592604624 -0.017576372279584213
-0.01986938724464913 -0.06563123006666675
-0.04060185100770495 -0.08164951599569427
-0.01986938724464913 -0.049612944137639246
-0.009503155363121222 -0.049612944137639246
-0.04060185100770495 -0.033594658208611725
-0.10279924229687241 -0.033594658208611725
-0.13389793794145613 -0.033594658208611725
-0.14426416982298404 -0.12970437378277683
-0.18572909734909568 -0.11368608785374931
-0.1960953292306236 -0.08164951599569427
-0.1960953292306236 0.01446019957847082
-0.2168277929936794 0.07853334329458088
-0.268658952401319 0.06251505736555336
-0.268658952401319 -0.017576372279584213
-0.2893914161643748 0.030478485507498335
-0.22719402487520732 0.01446019957847082
-0.23756025675673523 0.030478485507498335
-0.2893914161643748 0.06251505736555336
-0.3101238799274306 -0.0015580863505566965
-0.2893914161643748 -0.017576372279584213
-0.268658952401319 -0.017576372279584213
-0.23756025675673523 -0.0015580863505566965
-0.2582927205197911 0.030478485507498335
-0.2790251842828469 0.06251505736555336
-0.2893914161643748 0.01446019957847082
-0.2893914161643748 -0.0015580863505566965
-0.268658952401319 0.030478485507498335
-0.22719402487520732 -0.033594658208611725
-0.268658952401319 -0.017576372279584213
-0.3101238799274306 -0.033594658208611725
-0.3619550393350702 -0.08164951599569427
-0.2790251842828469 -0.06563123006666675
-0.0924330104153445 -0.2097958034279144
0.2703851054381323 -0.3699786627181896
0.6435694531731371 -0.5461798079374922
1.0685849603157813 -0.7704358109438775
1.6490939456813443 -0.8345089546599875
2.281434090454547 -0.8985820983760976
2.8930417714646937 -0.9466369561631801
3.3595222061334495 -0.9146003843051251
3.3698884380149776 -0.7383992390858224
2.841210612057054 -0.48210666422138215
1.9704471340087095 -0.2097958034279144
1.099683655960365 0.04649677143652585
0.39477988801646724 0.12658820108166344
0.0008630765184066887 0.06251505736555336
-0.1960953292306236 -0.017576372279584213
-0.24792648863826314 -0.11368608785374931
-0.2893914161643748 -0.16174094564083186
-0.2997576480459027 -0.11368608785374931
-0.268658952401319 -0.0015580863505566965
-0.18572909734909568 0.030478485507498335
-0.14426416982298404 0.0945516292236084
-0.2168277929936794 0.11056991515263591
-0.2790251842828469 0.0945516292236084
-0.33085634369048644 0.07853334329458088
-0.32049011180895853 0.06251505736555336
-0.268658952401319 0.07853334329458088
-0.268658952401319 0.12658820108166344
-0.3101238799274306 0.14260648701069095
-0.2997576480459027 0.0945516292236084
-0.33085634369048644 0.07853334329458088
-0.2893914161643748 0.0945516292236084
-0.24792648863826314 0.11056991515263591
-0.23756025675673523 0.15862477293971847
-0.2893914161643748 0.17464305886874598
-0.3101238799274306 0.12658820108166344
-0.32049011180895853 0.06251505736555336
-0.2790251842828469 0.04649677143652585
-0.2064615611121515 0.11056991515263591
-0.22719402487520732 0.14260648701069095
-0.2582927205197911 0.14260648701069095
-0.2893914161643748 0.11056991515263591
-0.2893914161643748 0.06251505736555336
-0.268658952401319 0.06251505736555336
-0.2168277929936794 0.07853334329458088
-0.2064615611121515 0.12658820108166344
-0.2064615611121515 0.15862477293971847
-0.2168277929936794 0.0945516292236084
-0.2168277929936794 0.06251505736555336
-0.1960953292306236 -0.0015580863505566965
-0.16499663358603986 0.04649677143652585
-0.12353170605992823 0.07853334329458088
-0.16499663358603986 0.07853334329458088
-0.1960953292306236 0.06251505736555336
-0.18572909734909568 -0.0015580863505566965
-0.14426416982298404 -0.017576372279584213
-0.11316547417840032 -0.0015580863505566965
-0.11316547417840032 -0.0015580863505566965
-0.10279924229687241 -0.017576372279584213
-0.11316547417840032 -0.08164951599569427
-0.12353170605992823 -0.08164951599569427
-0.06133431477076077 -0.11368608785374931
0.0008630765184066887 -0.0976678019247218
0.0008630765184066887 -0.06563123006666675
0.011229308399934598 -0.0976678019247218
-0.01986938724464913 -0.14572265971180434
0.0008630765184066887 -0.2097958034279144
0.05269423592604624 -0.2097958034279144
0.08379293157062997 -0.17775923156985937
0.1148916272152137 -0.1937775174988869
0.09415916345215788 -0.22581408935694192
0.1045253953336858 -0.25785066121499695
0.1148916272152137 -0.33794209086013455
0.17708901850438116 -0.4180335205052721
0.2289201779120207 -0.35396037678916203
0.2703851054381323 -0.35396037678916203
0.28075133731966023 -0.3699786627181896
0.28075133731966023 -0.43405180643429964
0.32221626484577187 -0.5141432360794372
0.3429487286088277 -0.5141432360794372
0.39477988801646724 -0.5301615220084647
0.42587858366105097 -0.48210666422138215
0.4466110474241068 -0.5461798079374922
0.40514611989799515 -0.5782163797955473
0.4466110474241068 -0.6262712375826298
0.4777097430686905 -0.6262712375826298
0.5295409024763301 -0.6102529516536023
0.5710058300024418 -0.5782163797955473
0.5813720618839696 -0.5942346657245747
0.5917382937654976 -0.6583078094406848
0.6228369894100813 -0.6903443812987399
0.6643019169361929 -0.6903443812987399
0.6746681488177209 -0.6583078094406848
0.6850343806992487 -0.5942346657245747
0.653935685054665 -0.5782163797955473
0.6124707575285534 -0.6102529516536023
0.5813720618839696 -0.6262712375826298
0.6332032212916092 -0.5621980938665198
0.6228369894100813 -0.48210666422138215
0.6021045256470254 -0.38599694864721706
0.5295409024763301 -0.321923804931107
0.4673435111871626 -0.33794209086013455
0.40514611989799515 -0.321923804931107
0.3740474242534114 -0.2738689471440245
0.3325824967272998 -0.16174094564083186
0.30148380108271605 -0.08164951599569427
0.24965264167507653 -0.0015580863505566965
0.17708901850438116 0.030478485507498335
0.12525785909674161 0.030478485507498335
0.1148916272152137 0.07853334329458088
0.1045253953336858 0.15862477293971847
0.05269423592604624 0.1906613447977735
0.0008630765184066887 0.206679630726801
-0.05096808288923286 0.22269791665582853
-0.0924330104153445 0.22269791665582853
-0.10279924229687241 0.23871620258485604
-0.14426416982298404 0.2867710603719386
-0.15463040170451195 0.3508442040880487
-0.14426416982298404 0.36686249001707616
-0.2168277929936794 0.33482591815902113
-0.22719402487520732 0.3027893463009661
-0.2168277929936794 0.3027893463009661
-0.2168277929936794 0.3508442040880487
-0.2168277929936794 0.36686249001707616
-0.24792648863826314 0.3988990618751312
-0.2582927205197911 0.36686249001707616
-0.24792648863826314 0.33482591815902113
-0.22719402487520732 0.3508442040880487
-0.2064615611121515 0.33482591815902113
-0.2168277929936794 0.36686249001707616
-0.22719402487520732 0.3828807759461037
-0.2893914161643748 0.3508442040880487
-0.24792648863826314 0.31880763222999364
-0.22719402487520732 0.3027893463009661
-0.1960953292306236 0.33482591815902113
-0.1960953292306236 0.3828807759461037
-0.22719402487520732 0.36686249001707616
-0.268658952401319 0.3508442040880487
-0.2790251842828469 0.2867710603719386
-0.23756025675673523 0.27075277444291107
-0.18572909734909568 0.3027893463009661
-0.17536286546756777 0.33482591815902113
-0.22719402487520732 0.31880763222999364
-0.22719402487520732 0.31880763222999364
-0.22719402487520732 0.23871620258485604
-0.1960953292306236 0.23871620258485604
-0.18572909734909568 0.2867710603719386
-0.18572909734909568 0.33482591815902113
-0.2064615611121515 0.2867710603719386
-0.22719402487520732 0.3027893463009661
-0.2168277929936794 0.25473448851388353
-0.22719402487520732 0.25473448851388353
-0.18572909734909568 0.2867710603719386
-0.17536286546756777 0.33482591815902113
-0.18572909734909568 0.31880763222999364
-0.2168277929936794 0.25473448851388353
-0.1960953292306236 0.22269791665582853
-0.18572909734909568 0.27075277444291107
-0.12353170605992823 0.3027893463009661
-0.07170054665228869 0.3508442040880487
-0.11316547417840032 0.3027893463009661
-0.10279924229687241 0.2867710603719386
-0.0820667785338166 0.23871620258485604
-0.06133431477076077 0.27075277444291107
-0.03023561912617704 0.27075277444291107
0.011229308399934598 0.2867710603719386
0.03196177216299042 0.23871620258485604
0.0008630765184066887 0.1906613447977735
0.04232800404451833 0.12658820108166344
0.08379293157062997 0.0945516292236084
0.1148916272152137 0.0945516292236084
0.08379293157062997 0.12658820108166344
0.06306046780757414 0.12658820108166344
0.011229308399934598 0.11056991515263591
-0.01986938724464913 0.06251505736555336
-0.03023561912617704 0.07853334329458088
-0.04060185100770495 0.07853334329458088
-0.04060185100770495 0.206679630726801
-0.12353170605992823 0.206679630726801
-0.14426416982298404 0.206679630726801
-0.18572909734909568 0.15862477293971847
-0.2064615611121515 0.17464305886874598
-0.2064615611121515 0.2867710603719386
-0.1960953292306236 0.3828807759461037
-0.24792648863826314 0.4789904915202688
-0.268658952401319 0.41491734780415873
-0.22719402487520732 0.3027893463009661
-0.13389793794145613 0.12658820108166344
-0.01986938724464913 -0.033594658208611725
0.08379293157062997 -0.1937775174988869
0.17708901850438116 -0.46608837829235467
0.28075133731966023 -0.722380953156795
0.4362448155425789 -0.9786735280212352
0.6021045256470254 -1.315057532530813
0.8094291632775836 -1.5393135355371983
0.9856551052635582 -1.6834781088984458
1.0893174240788372 -1.8917158259758036
1.2240784385387 -2.0518986852660785
1.3899381486431466 -2.2601364023434365
1.5039666993399536 -2.436337547562739
1.680192641325928 -2.5004106912788493
1.825319887667319 -2.628556978711069
2.0119120615348214 -2.7887398380013444
2.125940612231628 -2.9168861254335647
2.2296029310469074 -3.07706898472384
2.4369275686774654 -3.2532701299431426
2.6649846700710795 -3.4134529892334173
2.8930417714646937 -3.493544418878555
3.05890148156914 -3.5255809907366102
3.1314651047398354 -3.557617562594665
3.121098872858308 -3.4615078470205
3.1003664090952516 -3.2532701299431426
3.1729300322659473 -3.061050698794812
3.2765923510812263 -2.9168861254335647
3.3906209017780333 -2.9168861254335647
3.4735507568302566 -2.964940983220647
3.4735507568302566 -2.9489226972916196
3.5979455394085913 -2.7567032661432895
3.774171481394566 -2.564483834994959
3.846735104565261 -2.3562461179176015
3.877833800209845 -2.2120815445563538
3.763805249513038 -2.083935257124134
3.3906209017780333 -1.8917158259758036
2.7375482932417747 -1.5873683933242808
2.0948419165870447 -1.1388563873115103
1.5246991631030093 -0.7063626672277674
0.996021337145086 -0.38599694864721706
0.5088084387132743 -0.17775923156985937
0.1148916272152137 -0.0015580863505566965
-0.10279924229687241 0.15862477293971847
-0.2790251842828469 0.33482591815902113
-0.44488489438729345 0.5430636352363788
-0.5900121407286841 0.6231550648815164
-0.6625757638993796 0.5911184930234614
-0.7040406914254912 0.6551916367395715
-0.7662380827146587 0.6712099226685989
-0.7662380827146587 0.7673196382427641
-0.7869705464777145 0.8313927819588741
-0.8595341696484098 0.8474110678879017
-0.9009990971745214 0.8474110678879017
-0.9113653290560494 0.8313927819588741
-0.9217315609375772 0.8634293538169292
-0.9009990971745214 0.9275024975330393
-0.9320977928191052 0.9755573553201218
-0.9424640247006331 1.0236122131072043
-0.9735627203452168 0.9755573553201218
-0.9839289522267447 0.9595390693910942
-0.9839289522267447 0.9755573553201218
-0.9631964884636889 1.0236122131072043
-0.9735627203452168 1.1197219286813693
-1.0046614159898006 1.103703642752342
-1.0253938797528563 1.0876853568233145
-1.0253938797528563 1.0876853568233145
-1.0461263435159123 1.0876853568233145
-1.0046614159898006 1.1837950723974795
-1.0046614159898006 1.199813358326507
-1.0357601116343842 1.2478682161135894
-1.0772250391604958 1.231849930184562
-1.0979575029235518 1.231849930184562
-1.087591271042024 1.2478682161135894
-1.0772250391604958 1.327959645758727
-1.0979575029235518 1.3920327894748372
-1.1083237348050796 1.4080510754038646
-1.1497886623311913 1.4080510754038646
-1.2119860536203588 1.3760145035458096
-1.2119860536203588 1.4080510754038646
-1.180887357975775 1.4721242191199748
-1.201619821738831 1.5361973628360848
-1.2327185173834145 1.6162887924812224
-1.2741834449095262 1.6162887924812224
-1.294915908672582 1.6323070784102498
-1.2845496767910543 1.6323070784102498
-1.2741834449095262 1.6803619361973325
-1.294915908672582 1.7604533658424701
-1.3363808361986937 1.7764716517714976
-1.3778457637248054 1.7764716517714976
-1.398578227487861 1.792489937700525
-1.3674795318432775 1.792489937700525
-1.326014604317166 1.82452650955858
-1.326014604317166 1.8405447954876075
-1.3363808361986937 1.8725813673456626
-1.3571132999617495 1.8565630814166352
-1.3882119956063332 1.792489937700525
-1.3571132999617495 1.8405447954876075
-1.3778457637248054 1.8405447954876075
-1.326014604317166 1.8565630814166352
-1.3363808361986937 1.8565630814166352
-1.3467470680802216 1.82452650955858
-1.3467470680802216 1.792489937700525
-1.3156483724356378 1.7123985080553874
-1.2638172130279983 1.69638022212636
-1.2534509811464705 1.7123985080553874
-1.2430847492649426 1.6483253643392775
-1.2430847492649426 1.5842522206231673
-1.2327185173834145 1.4881425050490023
-1.1705211260942472 1.4240693613328923
-1.1083237348050796 1.4400876472619197
-1.066858807278968 1.4080510754038646
-1.066858807278968 1.3439779316877547
-1.0461263435159123 1.231849930184562
-0.9942951841082727 1.135740214610397
-0.9631964884636889 1.0556487849652594
-0.8699004015299378 0.9915756412491493
-0.8180692421222981 0.9595390693910942
-0.7766043145961865 0.8954659256749842
-0.7351393870700749 0.8153744960298466
-0.6833082276624354 0.6551916367395715
-0.6418433001363237 0.6071367789524889
-0.5692796769656283 0.6071367789524889
-0.5381809813210446 0.5430636352363788
-0.5070822856764609 0.5590819211654063
-0.5278147494395167 0.4789904915202688
-0.496716053794933 0.41491734780415873
-0.44488489438729345 0.36686249001707616
-0.42415243062423763 0.3828807759461037
-0.3930537349796539 0.4309356337331862
-0.4034199668611818 0.41491734780415873
-0.4137861987427097 0.33482591815902113
-0.42415243062423763 0.3027893463009661
-0.4137861987427097 0.25473448851388353
-0.3723212712165981 0.3027893463009661
-0.3930537349796539 0.33482591815902113
-0.4034199668611818 0.3508442040880487
-0.43451866250576554 0.3027893463009661
-0.45525112626882136 0.27075277444291107
-0.42415243062423763 0.25473448851388353
-0.4034199668611818 0.27075277444291107
-0.4137861987427097 0.36686249001707616
-0.43451866250576554 0.3508442040880487
-0.45525112626882136 0.27075277444291107
-0.45525112626882136 0.27075277444291107
-0.44488489438729345 0.27075277444291107
-0.42415243062423763 0.2867710603719386
-0.4034199668611818 0.3027893463009661
-0.44488489438729345 0.33482591815902113
-0.45525112626882136 0.3027893463009661
-0.45525112626882136 0.23871620258485604
-0.42415243062423763 0.23871620258485604
-0.3723212712165981 0.2867710603719386
-0.35158880745354226 0.27075277444291107
-0.4137861987427097 0.33482591815902113
-0.43451866250576554 0.27075277444291107
-0.43451866250576554 0.27075277444291107
-0.3930537349796539 0.23871620258485604
-0.3930537349796539 0.27075277444291107
-0.3723212712165981 0.2867710603719386
-0.4034199668611818 0.31880763222999364
-0.42415243062423763 0.25473448851388353
-0.42415243062423763 0.25473448851388353
-0.382687503098126 0.23871620258485604
-0.35158880745354226 0.2867710603719386
-0.35158880745354226 0.2867710603719386
-0.3723212712165981 0.3027893463009661
-0.382687503098126 0.27075277444291107
-0.3930537349796539 0.25473448851388353
-0.3723212712165981 0.25473448851388353
-0.3619550393350702 0.31880763222999364
-0.3101238799274306 0.3508442040880487
-0.32049011180895853 0.3508442040880487
-0.35158880745354226 0.31880763222999364
-0.33085634369048644 0.27075277444291107
-0.2997576480459027 0.23871620258485604
-0.23756025675673523 0.22269791665582853
-0.2168277929936794 0.23871620258485604
-0.17536286546756777 0.17464305886874598
-0.17536286546756777 0.01446019957847082
-0.07170054665228869 -0.16174094564083186
0.02159554028146251 -0.25785066121499695
0.12525785909674161 -0.33794209086013455
0.23928640979354862 -0.46608837829235467
0.3533149604903556 -0.6422895235116574
0.4362448155425789 -0.8665455265180425
0.5917382937654976 -1.1228381013824829
0.7886966995145278 -1.3310758184598406
0.9649226415005023 -1.5072769636791432
1.1618810472495327 -1.619404965182336
1.2655433660648117 -1.7315329666855284
1.441769308050786 -1.907734111904831
1.5972627862737048 -2.148008400840244
1.804587423904263 -2.340227831988574
2.022278293416349 -2.5164289772078767
2.239969162928435 -2.6605935505691245
2.3747301773882983 -2.772721552072317
2.488758728085105 -2.8848495535755094
2.5924210469003843 -2.9969775550787023
2.7686469888863585 -3.0129958410077298
2.934506698990805 -2.9809592691496745
3.0278027859245564 -2.900867839504537
3.0278027859245564 -2.804758123930372
2.965605394635389 -2.708648408356207
2.851576843938582 -2.676611836498152
2.7686469888863585 -2.5164289772078767
2.747914525123303 -2.3562461179176015
2.6546184381895515 -2.180044972698299
2.5509561193742725 -1.9557889696919135
2.4576600324405216 -1.811624396330666
2.3747301773882983 -1.6354232511113633
2.3436314817437145 -1.4912586777501156
2.250335394809963 -1.3631123903178954
2.260701626691491 -1.2990392466017855
2.2088704672838517 -1.2670026747437304
2.16740553975774 -1.283020960672758
2.2088704672838517 -1.2670026747437304
2.291800322336075 -1.2349661028856753
2.3436314817437145 -1.1869112450985928
2.3228990179806583 -1.1068198154534552
2.157039307876212 -1.0908015295244278
1.8460523514303746 -1.0267283858083176
1.4728680036953699 -0.8985820983760976
1.120416119723421 -0.7063626672277674
0.7057668444623045 -0.38599694864721706
0.31185003296424396 -0.0976678019247218
-0.04060185100770495 0.14260648701069095
-0.2997576480459027 0.3027893463009661
-0.4759835900318772 0.4309356337331862
-0.5796459088471563 0.4950087774492963
-0.61074460449174 0.5911184930234614
-0.6522095320178516 0.703246494526654
-0.724773155188547 0.7513013523137365
-0.7558718508331307 0.7673196382427641
-0.8699004015299378 0.7352830663847091
-0.8595341696484098 0.7833379241717916
-0.838801705885354 0.8474110678879017
-0.8802666334114656 0.8954659256749842
-0.9424640247006331 0.9275024975330393
-1.0046614159898006 0.9275024975330393
-0.9839289522267447 0.9435207834620667
-1.0046614159898006 0.9435207834620667
-0.9735627203452168 0.9915756412491493
-0.9839289522267447 1.0556487849652594
-1.0461263435159123 1.0716670708942868
-1.087591271042024 1.0396304990362317
-1.087591271042024 1.0075939271781769
-1.0772250391604958 1.0556487849652594
-1.066858807278968 1.0876853568233145
-1.0772250391604958 1.135740214610397
-1.1290561985681355 1.1677767864684518
-1.1497886623311913 1.1677767864684518
-1.1705211260942472 1.135740214610397
-1.1705211260942472 1.1677767864684518
-1.1705211260942472 1.199813358326507
-1.1497886623311913 1.2478682161135894
-1.180887357975775 1.3119413598296996
-1.2119860536203588 1.3119413598296996
-1.2430847492649426 1.2799047879716445
-1.2430847492649426 1.3119413598296996
-1.2119860536203588 1.3439779316877547
-1.2327185173834145 1.4240693613328923
-1.2741834449095262 1.4721242191199748
-1.294915908672582 1.4721242191199748
-1.326014604317166 1.4561059331909472
-1.3156483724356378 1.4561059331909472
-1.2845496767910543 1.4721242191199748
-1.2741834449095262 1.5361973628360848
-1.30528214055411 1.5682339346941399
-1.3571132999617495 1.5682339346941399
-1.3571132999617495 1.5201790769070573
-1.3156483724356378 1.5522156487651124
-1.3156483724356378 1.600270506552195
-1.2845496767910543 1.6323070784102498
-1.294915908672582 1.600270506552195
-1.3156483724356378 1.6162887924812224
-1.3156483724356378 1.5842522206231673
-1.2638172130279983 1.5522156487651124
-1.2223522855018867 1.5201790769070573
-1.2119860536203588 1.5682339346941399
-1.2119860536203588 1.5522156487651124
-1.2223522855018867 1.5201790769070573
-1.2119860536203588 1.4080510754038646
-1.1601548942127191 1.3760145035458096
-1.1186899666866075 1.4080510754038646
-1.087591271042024 1.3760145035458096
-1.066858807278968 1.2959230739006722
-1.066858807278968 1.2478682161135894
-1.0357601116343842 1.1677767864684518
-0.9631964884636889 1.0396304990362317
-0.9009990971745214 1.0396304990362317
-0.8284354740038261 1.0396304990362317
-0.8077030102407703 0.9915756412491493
-0.7973367783592423 0.8954659256749842
-0.7558718508331307 0.7833379241717916
-0.6833082276624354 0.703246494526654
-0.6003783726102121 0.703246494526654
-0.5589134450841005 0.703246494526654
-0.5485472132025725 0.6551916367395715
-0.5278147494395167 0.5911184930234614
-0.4759835900318772 0.4789904915202688
-0.42415243062423763 0.44695391966221376
-0.3619550393350702 0.41491734780415873
-0.32049011180895853 0.4309356337331862
-0.3101238799274306 0.44695391966221376
-0.35158880745354226 0.3988990618751312
-0.34122257557201435 0.36686249001707616
-0.3101238799274306 0.3508442040880487
-0.2790251842828469 0.33482591815902113
-0.268658952401319 0.36686249001707616
-0.2893914161643748 0.3508442040880487
-0.33085634369048644 0.31880763222999364
-0.32049011180895853 0.27075277444291107
-0.3101238799274306 0.25473448851388353
-0.2893914161643748 0.33482591815902113
-0.2893914161643748 0.36686249001707616
-0.3101238799274306 0.36686249001707616
-0.34122257557201435 0.2867710603719386
-0.34122257557201435 0.27075277444291107
-0.33085634369048644 0.22269791665582853
-0.2893914161643748 0.2867710603719386
-0.2790251842828469 0.31880763222999364
-0.3101238799274306 0.3508442040880487
-0.3101238799274306 0.3027893463009661
-0.3101238799274306 0.3027893463009661
-0.32049011180895853 0.27075277444291107
-0.2582927205197911 0.3027893463009661
-0.24792648863826314 0.33482591815902113
-0.268658952401319 0.36686249001707616
-0.3101238799274306 0.3027893463009661
-0.2893914161643748 0.27075277444291107
-0.2893914161643748 0.25473448851388353
-0.2582927205197911 0.2867710603719386
-0.23756025675673523 0.31880763222999364
-0.24792648863826314 0.31880763222999364
-0.2790251842828469 0.27075277444291107
-0.2790251842828469 0.23871620258485604
-0.23756025675673523 0.22269791665582853
-0.22719402487520732 0.25473448851388353
-0.2168277929936794 0.3027893463009661
-0.23756025675673523 0.3027893463009661
-0.23756025675673523 0.25473448851388353
-0.22719402487520732 0.1906613447977735
-0.24792648863826314 0.206679630726801
-0.23756025675673523 0.23871620258485604
-0.2064615611121515 0.27075277444291107
-0.23756025675673523 0.3027893463009661
-0.2582927205197911 0.206679630726801
-0.22719402487520732 0.1906613447977735
-0.2168277929936794 0.1906613447977735
-0.17536286546756777 0.22269791665582853
-0.1960953292306236 0.22269791665582853
-0.2064615611121515 0.23871620258485604
-0.22719402487520732 0.22269791665582853
-0.24792648863826314 0.11056991515263591
-0.2168277929936794 0.17464305886874598
-0.2064615611121515 0.206679630726801
-0.1960953292306236 0.22269791665582853
-0.16499663358603986 0.206679630726801
-0.1960953292306236 0.15862477293971847
-0.1960953292306236 0.0945516292236084
-0.17536286546756777 0.11056991515263591
-0.16499663358603986 0.14260648701069095
-0.14426416982298404 0.206679630726801
-0.17536286546756777 0.17464305886874598
-0.16499663358603986 0.15862477293971847
-0.1960953292306236 0.07853334329458088
-0.16499663358603986 0.11056991515263591
-0.12353170605992823 0.14260648701069095
-0.13389793794145613 0.17464305886874598
-0.16499663358603986 0.206679630726801
-0.16499663358603986 0.14260648701069095
-0.18572909734909568 0.07853334329458088
-0.17536286546756777 0.07853334329458088
-0.14426416982298404 0.15862477293971847
-0.16499663358603986 0.14260648701069095
-0.13389793794145613 0.17464305886874598
-0.17536286546756777 0.12658820108166344
-0.2064615611121515 0.07853334329458088
-0.18572909734909568 0.06251505736555336
-0.13389793794145613 0.11056991515263591
-0.14426416982298404 0.17464305886874598
-0.14426416982298404 0.14260648701069095
-0.16499663358603986 0.0945516292236084
-0.17536286546756777 0.04649677143652585
-0.15463040170451195 0.0945516292236084
-0.13389793794145613 0.06251505736555336
-0.10279924229687241 0.0945516292236084
-0.15463040170451195 0.0945516292236084
-0.1960953292306236 0.0945516292236084
-0.18572909734909568 0.06251505736555336
-0.15463040170451195 0.07853334329458088
-0.10279924229687241 0.0945516292236084
-0.11316547417840032 0.0945516292236084
-0.13389793794145613 0.11056991515263591
-0.18572909734909568 0.07853334329458088
-0.16499663358603986 0.06251505736555336
-0.1960953292306236 0.01446019957847082
-0.12353170605992823 0.0945516292236084
-0.0924330104153445 0.0945516292236084
-0.11316547417840032 0.07853334329458088
-0.16499663358603986 0.06251505736555336
-0.17536286546756777 0.030478485507498335
-0.14426416982298404 0.04649677143652585
-0.11316547417840032 0.04649677143652585
-0.11316547417840032 0.0945516292236084
-0.13389793794145613 0.07853334329458088
-0.15463040170451195 0.04649677143652585
-0.13389793794145613 -0.0015580863505566965
-0.12353170605992823 -0.0015580863505566965
-0.0820667785338166 0.030478485507498335
-0.06133431477076077 0.0945516292236084
-0.10279924229687241 0.07853334329458088
-0.12353170605992823 0.04649677143652585
-0.13389793794145613 0.01446019957847082
-0.11316547417840032 -0.0015580863505566965
-0.0820667785338166 0.06251505736555336
-0.07170054665228869 0.11056991515263591
-0.0820667785338166 0.11056991515263591
-0.10279924229687241 0.07853334329458088
-0.13389793794145613 0.01446019957847082
-0.10279924229687241 0.01446019957847082
-0.0820667785338166 0.07853334329458088
-0.0924330104153445 0.0945516292236084
-0.10279924229687241 0.07853334329458088
-0.0924330104153445 0.06251505736555336
-0.0820667785338166 0.01446019957847082
-0.06133431477076077 0.01446019957847082
0.0008630765184066887 0.07853334329458088
0.03196177216299042 0.12658820108166344
0.04232800404451833 0.206679630726801
0.04232800404451833 0.14260648701069095
0.04232800404451833 0.0945516292236084
0.08379293157062997 0.07853334329458088
0.1045253953336858 0.0945516292236084
0.12525785909674161 0.1906613447977735
0.14599032285979743 0.1906613447977735
0.15635655474132534 0.11056991515263591
0.16672278662285325 0.01446019957847082
0.17708901850438116 -0.033594658208611725
0.2289201779120207 -0.049612944137639246
0.24965264167507653 -0.049612944137639246
0.2185539460304928 -0.049612944137639246
0.17708901850438116 -0.0976678019247218
0.17708901850438116 -0.16174094564083186
0.15635655474132534 -0.17775923156985937
0.14599032285979743 -0.12970437378277683
0.13562409097826952 -0.11368608785374931
0.1045253953336858 -0.0976678019247218
0.05269423592604624 -0.16174094564083186
0.0008630765184066887 -0.17775923156985937
0.0008630765184066887 -0.17775923156985937
0.03196177216299042 -0.17775923156985937
0.0008630765184066887 -0.14572265971180434
-0.01986938724464913 -0.06563123006666675
-0.05096808288923286 -0.08164951599569427
-0.0820667785338166 -0.06563123006666675
-0.0924330104153445 -0.06563123006666675
-0.07170054665228869 -0.06563123006666675
-0.0820667785338166 -0.0015580863505566965
-0.11316547417840032 0.030478485507498335
-0.13389793794145613 -0.0015580863505566965
-0.14426416982298404 -0.049612944137639246
-0.13389793794145613 -0.06563123006666675
-0.0924330104153445 -0.033594658208611725
-0.11316547417840032 0.01446019957847082
-0.0924330104153445 0.01446019957847082
-0.13389793794145613 -0.049612944137639246
-0.13389793794145613 -0.049612944137639246
-0.13389793794145613 -0.049612944137639246
-0.07170054665228869 -0.033594658208611725
-0.0924330104153445 -0.0015580863505566965
-0.0820667785338166 0.030478485507498335
-0.0924330104153445 -0.033594658208611725
-0.10279924229687241 -0.017576372279584213
-0.07170054665228869 -0.06563123006666675
-0.05096808288923286 -0.033594658208611725
-0.03023561912617704 -0.0015580863505566965
-0.04060185100770495 -0.017576372279584213
-0.06133431477076077 -0.0976678019247218
-0.11316547417840032 -0.11368608785374931
-0.0924330104153445 -0.16174094564083186
-0.009503155363121222 -0.11368608785374931
0.1148916272152137 -0.08164951599569427
0.29111756920118814 -0.1937775174988869
0.5606395981209138 -0.4020152345762446
0.9027252502113349 -0.6583078094406848
1.3588394529985628 -0.8345089546599875
1.897883510838014 -0.88256381244707
2.4369275686774654 -0.88256381244707
2.9241404671092774 -0.9466369561631801
3.3284235104888658 -1.0267283858083176
3.546114380000952 -1.0427466717373453
3.3595222061334495 -0.8985820983760976
2.7997456845309423 -0.5461798079374922
2.0844756847055166 -0.289887233073052
1.3692056848800909 -0.08164951599569427
0.7472317719884162 -0.033594658208611725
0.39477988801646724 -0.12970437378277683
0.24965264167507653 -0.22581408935694192
0.17708901850438116 -0.2738689471440245
0.1045253953336858 -0.24183237528596943
-0.01986938724464913 -0.17775923156985937
-0.11316547417840032 -0.17775923156985937
-0.0924330104153445 -0.11368608785374931
0.011229308399934598 -0.08164951599569427
0.03196177216299042 -0.033594658208611725
0.04232800404451833 -0.0015580863505566965
-0.05096808288923286 0.04649677143652585
-0.10279924229687241 0.030478485507498335
-0.0924330104153445 -0.033594658208611725
-0.0924330104153445 -0.033594658208611725
-0.0820667785338166 -0.033594658208611725
-0.07170054665228869 -0.017576372279584213
-0.0820667785338166 0.030478485507498335
-0.12353170605992823 -0.017576372279584213
-0.13389793794145613 -0.033594658208611725
-0.0924330104153445 -0.08164951599569427
-0.07170054665228869 -0.049612944137639246
-0.0924330104153445 -0.017576372279584213
-0.11316547417840032 -0.017576372279584213
-0.11316547417840032 -0.049612944137639246
-0.10279924229687241 -0.06563123006666675
-0.10279924229687241 -0.033594658208611725
-0.07170054665228869 -0.049612944137639246
-0.04060185100770495 -0.017576372279584213
-0.06133431477076077 -0.0015580863505566965
-0.07170054665228869 -0.017576372279584213
-0.0924330104153445 -0.06563123006666675
-0.06133431477076077 -0.08164951599569427
-0.009503155363121222 -0.08164951599569427
0.0008630765184066887 -0.0015580863505566965
-0.05096808288923286 -0.0015580863505566965
-0.05096808288923286 -0.06563123006666675
-0.06133431477076077 -0.12970437378277683
-0.01986938724464913 -0.14572265971180434
-0.009503155363121222 -0.11368608785374931
0.04232800404451833 -0.08164951599569427
0.02159554028146251 -0.11368608785374931
0.011229308399934598 -0.14572265971180434
0.011229308399934598 -0.1937775174988869
0.04232800404451833 -0.1937775174988869
0.06306046780757414 -0.17775923156985937
0.09415916345215788 -0.17775923156985937
0.09415916345215788 -0.17775923156985937
0.06306046780757414 -0.1937775174988869
0.07342669968910205 -0.2738689471440245
0.09415916345215788 -0.289887233073052
0.15635655474132534 -0.2738689471440245
0.16672278662285325 -0.25785066121499695
0.18745525038590907 -0.2738689471440245
0.17708901850438116 -0.321923804931107
0.14599032285979743 -0.38599694864721706
0.2081877141489649 -0.4020152345762446
0.2600188735566044 -0.4180335205052721
0.28075133731966023 -0.4020152345762446
0.30148380108271605 -0.43405180643429964
0.30148380108271605 -0.4180335205052721
0.30148380108271605 -0.5301615220084647
0.3740474242534114 -0.5621980938665198
0.42587858366105097 -0.5942346657245747
0.4673435111871626 -0.5942346657245747
0.4777097430686905 -0.6262712375826298
0.4777097430686905 -0.6903443812987399
0.4777097430686905 -0.7704358109438775
0.5191746705948022 -0.7544175250148499
0.5917382937654976 -0.786454096872905
0.653935685054665 -0.7544175250148499
0.6746681488177209 -0.786454096872905
0.653935685054665 -0.8665455265180425
0.653935685054665 -0.8665455265180425
0.6850343806992487 -0.9466369561631801
0.7368655401068883 -0.9146003843051251
0.7886966995145278 -0.88256381244707
0.7990629313960558 -0.8665455265180425
0.7990629313960558 -0.9626552420922077
0.767964235751472 -0.9946918139502626
0.8405278589221674 -1.0267283858083176
0.8923590183298069 -0.9946918139502626
0.8923590183298069 -0.9466369561631801
0.881992786448279 -0.9306186702341526
0.8405278589221674 -0.9306186702341526
0.8197953951591116 -0.9786735280212352
0.8197953951591116 -0.8985820983760976
0.8301616270406394 -0.8665455265180425
0.778330467633 -0.7544175250148499
0.7057668444623045 -0.6743260953697123
0.6643019169361929 -0.6743260953697123
0.6021045256470254 -0.6422895235116574
0.539907134357858 -0.5782163797955473
0.5088084387132743 -0.4981249501504097
0.4984422068317464 -0.3699786627181896
0.40514611989799515 -0.33794209086013455
0.32221626484577187 -0.321923804931107
0.24965264167507653 -0.289887233073052
0.23928640979354862 -0.2097958034279144
0.2185539460304928 -0.17775923156985937
0.19782148226743698 -0.08164951599569427
0.12525785909674161 -0.0976678019247218
0.09415916345215788 -0.033594658208611725
0.05269423592604624 -0.06563123006666675
0.011229308399934598 -0.017576372279584213
0.03196177216299042 0.01446019957847082
-0.04060185100770495 0.07853334329458088
-0.07170054665228869 0.11056991515263591
-0.10279924229687241 0.07853334329458088
-0.12353170605992823 0.04649677143652585
-0.15463040170451195 0.030478485507498335
-0.13389793794145613 0.07853334329458088
-0.15463040170451195 0.14260648701069095
-0.16499663358603986 0.17464305886874598
-0.17536286546756777 0.12658820108166344
-0.2168277929936794 0.11056991515263591
-0.17536286546756777 0.11056991515263591
-0.16499663358603986 0.15862477293971847
-0.16499663358603986 0.206679630726801
-0.17536286546756777 0.206679630726801
-0.2064615611121515 0.17464305886874598
-0.17536286546756777 0.12658820108166344
-0.13389793794145613 0.12658820108166344
-0.12353170605992823 0.12658820108166344
-0.12353170605992823 0.1906613447977735
-0.13389793794145613 0.17464305886874598
-0.13389793794145613 0.12658820108166344
-0.16499663358603986 0.0945516292236084
-0.15463040170451195 0.12658820108166344
-0.11316547417840032 0.07853334329458088
-0.13389793794145613 0.17464305886874598
-0.14426416982298404 0.14260648701069095
-0.16499663358603986 0.12658820108166344
-0.17536286546756777 0.07853334329458088
-0.13389793794145613 0.14260648701069095
-0.11316547417840032 0.11056991515263591
-0.14426416982298404 0.14260648701069095
-0.15463040170451195 0.14260648701069095
-0.15463040170451195 0.14260648701069095
-0.15463040170451195 0.04649677143652585
-0.14426416982298404 0.07853334329458088
-0.11316547417840032 0.0945516292236084
-0.10279924229687241 0.0945516292236084
-0.14426416982298404 0.11056991515263591
-0.13389793794145613 0.11056991515263591
-0.15463040170451195 0.030478485507498335
-0.0924330104153445 0.04649677143652585
-0.06133431477076077 0.07853334329458088
-0.009503155363121222 0.12658820108166344
0.011229308399934598 0.14260648701069095
0.0008630765184066887 0.11056991515263591
0.02159554028146251 0.11056991515263591
0.03196177216299042 0.07853334329458088
0.06306046780757414 0.11056991515263591
0.06306046780757414 0.0945516292236084
0.09415916345215788 0.0945516292236084
0.07342669968910205 0.06251505736555336
0.09415916345215788 0.030478485507498335
0.13562409097826952 -0.049612944137639246
0.12525785909674161 -0.06563123006666675
0.15635655474132534 -0.06563123006666675
0.14599032285979743 -0.0976678019247218
0.1045253953336858 -0.17775923156985937
0.08379293157062997 -0.17775923156985937
0.07342669968910205 -0.1937775174988869
0.07342669968910205 -0.17775923156985937
0.08379293157062997 -0.08164951599569427
0.05269423592604624 -0.06563123006666675
-0.009503155363121222 -0.0976678019247218
-0.03023561912617704 -0.14572265971180434
-0.07170054665228869 -0.11368608785374931
-0.06133431477076077 -0.08164951599569427
-0.06133431477076077 -0.033594658208611725
-0.11316547417840032 0.04649677143652585
-0.1960953292306236 0.0945516292236084
-0.22719402487520732 0.11056991515263591
-0.22719402487520732 0.12658820108166344
-0.17536286546756777 0.15862477293971847
-0.18572909734909568 0.206679630726801
-0.24792648863826314 0.23871620258485604
-0.24792648863826314 0.206679630726801
-0.24792648863826314 0.1906613447977735
-0.1960953292306236 0.12658820108166344
-0.10279924229687241 0.030478485507498335
-0.009503155363121222 -0.033594658208611725
0.03196177216299042 -0.1937775174988869
0.1148916272152137 -0.4180335205052721
0.2081877141489649 -0.7544175250148499
0.3740474242534114 -0.9946918139502626
0.5606395981209138 -1.2670026747437304
0.6954006125807767 -1.5232952496081706
0.8094291632775836 -1.811624396330666
0.9234577139743907 -2.0518986852660785
1.0685849603157813 -2.308191260130519
1.1826135110125884 -2.4523558334917666
1.3173745254724512 -2.564483834994959
1.441769308050786 -2.6445752646400966
1.5454316268660653 -2.836794695788427
1.6283614819182886 -2.9969775550787023
1.7423900326150956 -3.157160414368977
1.9393484383641257 -3.33336155958828
2.0741094528239885 -3.429471275162445
2.177771771639268 -3.4134529892334173
2.291800322336075 -3.509562704807583
2.4265613367959378 -3.65372727816883
2.716815829478719 -3.7818735656010505
3.090000177213724 -3.9260381389622983
3.442452061185673 -4.086220998252573
3.732706553868454 -4.166312427897711
3.9089324958544287 -4.150294141968684
4.074792205958875 -4.070202712323546
4.240651916063322 -3.9260381389622983
4.437610321812352 -3.7338187078139677
4.541272640627631 -3.4775261329495275
4.3235817711155455 -3.07706898472384
3.7016078582238707 -2.6125386927820418
2.872309307701638 -2.0038438274789963
2.0741094528239885 -1.4271855340340056
1.441769308050786 -0.88256381244707
0.9130914820928627 -0.48210666422138215
0.4984422068317464 -0.1937775174988869
0.23928640979354862 -0.017576372279584213
-0.03023561912617704 0.06251505736555336
-0.2064615611121515 0.0945516292236084
-0.32049011180895853 0.22269791665582853
-0.3723212712165981 0.31880763222999364
-0.3930537349796539 0.4309356337331862
-0.43451866250576554 0.4789904915202688
-0.5278147494395167 0.4789904915202688
-0.5692796769656283 0.46297220559124125
-0.5796459088471563 0.5590819211654063
-0.5900121407286841 0.5751002070944339
-0.61074460449174 0.6712099226685989
-0.6418433001363237 0.6872282085976265
-0.6833082276624354 0.6712099226685989
-0.714406923307019 0.6712099226685989
-0.7040406914254912 0.6551916367395715
-0.7040406914254912 0.6872282085976265
-0.714406923307019 0.7833379241717916
-0.724773155188547 0.7993562101008191
-0.7558718508331307 0.7833379241717916
-0.7662380827146587 0.7673196382427641
-0.7662380827146587 0.7673196382427641
-0.7558718508331307 0.7993562101008191
-0.7662380827146587 0.8634293538169292
-0.7869705464777145 0.8794476397459566
-0.8077030102407703 0.9114842116040117
-0.8491679377668819 0.8634293538169292
-0.7973367783592423 0.8634293538169292
-0.7558718508331307 0.9114842116040117
-0.7662380827146587 0.9755573553201218
-0.8077030102407703 0.9114842116040117
-0.838801705885354 0.9275024975330393
-0.8595341696484098 0.9595390693910942
-0.8491679377668819 0.9435207834620667
-0.7973367783592423 0.9755573553201218
-0.8077030102407703 1.0556487849652594
-0.8284354740038261 1.0556487849652594
-0.8802666334114656 1.103703642752342
-0.9113653290560494 1.0556487849652594
-0.9217315609375772 1.0876853568233145
-0.8906328652929936 1.135740214610397
-0.8906328652929936 1.199813358326507
-0.9320977928191052 1.2478682161135894
-0.952830256582161 1.263886502042617
-0.9631964884636889 1.2158316442555346
-0.9320977928191052 1.2478682161135894
-0.9320977928191052 1.2799047879716445
-0.9424640247006331 1.3760145035458096
-0.9424640247006331 1.3599962176167821
-0.9735627203452168 1.3760145035458096
-0.9942951841082727 1.327959645758727
-1.0046614159898006 1.327959645758727
-0.952830256582161 1.3439779316877547
-0.9631964884636889 1.4400876472619197
-0.9735627203452168 1.4721242191199748
-0.9942951841082727 1.4721242191199748
-1.0046614159898006 1.4400876472619197
-0.9735627203452168 1.4240693613328923
-0.952830256582161 1.4240693613328923
-0.9113653290560494 1.5201790769070573
-0.9320977928191052 1.4881425050490023
-0.9424640247006331 1.4240693613328923
-0.9424640247006331 1.3599962176167821
-0.952830256582161 1.3599962176167821
-0.8802666334114656 1.3599962176167821
-0.838801705885354 1.3760145035458096
-0.8284354740038261 1.3119413598296996
-0.838801705885354 1.2799047879716445
-0.8180692421222981 1.199813358326507
-0.7662380827146587 1.135740214610397
-0.6936744595439632 1.1197219286813693
-0.6729419957809074 1.1517585005394244
-0.6625757638993796 1.0556487849652594
-0.6729419957809074 0.9915756412491493
-0.6833082276624354 0.9275024975330393
-0.6314770682547958 0.8474110678879017
-0.5796459088471563 0.8153744960298466
-0.5278147494395167 0.7993562101008191
-0.5174485175579888 0.6872282085976265
-0.5174485175579888 0.6391733508105439
-0.4759835900318772 0.5430636352363788
-0.44488489438729345 0.4789904915202688
-0.3723212712165981 0.44695391966221376
-0.34122257557201435 0.4309356337331862
-0.34122257557201435 0.3828807759461037
-0.3619550393350702 0.3027893463009661
-0.35158880745354226 0.22269791665582853
-0.35158880745354226 0.25473448851388353
-0.3101238799274306 0.23871620258485604
-0.33085634369048644 0.2867710603719386
-0.35158880745354226 0.25473448851388353
-0.382687503098126 0.22269791665582853
-0.43451866250576554 0.15862477293971847
-0.43451866250576554 0.17464305886874598
-0.3930537349796539 0.206679630726801
-0.3619550393350702 0.206679630726801
-0.3619550393350702 0.1906613447977735
-0.4137861987427097 0.22269791665582853
-0.43451866250576554 0.14260648701069095
-0.4034199668611818 0.15862477293971847
-0.3930537349796539 0.17464305886874598
-0.3723212712165981 0.22269791665582853
-0.4137861987427097 0.1906613447977735
-0.42415243062423763 0.206679630726801
-0.45525112626882136 0.11056991515263591
-0.4137861987427097 0.12658820108166344
-0.4034199668611818 0.15862477293971847
-0.3930537349796539 0.15862477293971847
-0.4137861987427097 0.17464305886874598
-0.43451866250576554 0.14260648701069095
-0.45525112626882136 0.07853334329458088
-0.43451866250576554 0.04649677143652585
-0.3930537349796539 0.11056991515263591
-0.382687503098126 0.14260648701069095
-0.382687503098126 0.17464305886874598
-0.42415243062423763 0.11056991515263591
-0.43451866250576554 0.030478485507498335
-0.4034199668611818 0.06251505736555336
-0.4034199668611818 0.11056991515263591
-0.3930537349796539 0.17464305886874598
-0.3930537349796539 0.1906613447977735
-0.4137861987427097 0.15862477293971847
-0.4034199668611818 0.12658820108166344
-0.4034199668611818 0.11056991515263591
-0.35158880745354226 0.11056991515263591
-0.2997576480459027 0.14260648701069095
-0.33085634369048644 0.11056991515263591
-0.33085634369048644 0.06251505736555336
-0.34122257557201435 -0.017576372279584213
-0.2582927205197911 -0.11368608785374931
-0.16499663358603986 -0.22581408935694192
-0.10279924229687241 -0.3059055190020795
-0.01986938724464913 -0.4180335205052721
0.06306046780757414 -0.5942346657245747
0.18745525038590907 -0.8024723828019324
0.3429487286088277 -0.9786735280212352
0.5191746705948022 -1.2029295310276205
0.7368655401068883 -1.347094104388868
0.881992786448279 -1.5393135355371983
1.0478524965527256 -1.7315329666855284
1.2137122066571722 -1.9557889696919135
1.441769308050786 -2.1159718289821887
1.680192641325928 -2.228099830485381
1.9082497427195422 -2.372264403846629
2.0948419165870447 -2.532447263136904
2.2296029310469074 -2.6926301224271794
2.353997713625242 -2.868831267646482
2.509491191848161 -2.9489226972916196
2.6960833657156633 -2.9809592691496745
2.872309307701638 -2.9168861254335647
3.0070703221615007 -2.836794695788427
3.0381690178060845 -2.7887398380013444
2.9863378583984446 -2.708648408356207
2.8826755395831656 -2.5164289772078767
2.7893794526494147 -2.308191260130519
2.6857171338341352 -2.0999535430531613
2.61315351066344 -1.9237523978338587
2.5302236556112168 -1.7315329666855284
2.468026264322049 -1.619404965182336
2.4161951049144097 -1.5072769636791432
2.4161951049144097 -1.4592221058920607
2.36436394550677 -1.379130676246923
2.3436314817437145 -1.3951489621759505
2.3021665542176026 -1.4111672481049782
2.3332652498621864 -1.4271855340340056
2.353997713625242 -1.443203819963033
2.250335394809963 -1.347094104388868
1.9911795977717655 -1.2349661028856753
1.6387277137998164 -1.1388563873115103
1.1929797428941162 -1.0267283858083176
0.6643019169361929 -0.8024723828019324
0.2600188735566044 -0.5942346657245747
-0.05096808288923286 -0.2738689471440245
-0.3101238799274306 -0.0015580863505566965
-0.46561735815034927 0.1906613447977735
-0.5900121407286841 0.33482591815902113
-0.6936744595439632 0.33482591815902113
-0.7662380827146587 0.36686249001707616
-0.7869705464777145 0.46297220559124125
-0.838801705885354 0.5751002070944339
-0.9009990971745214 0.5911184930234614
-0.9735627203452168 0.5911184930234614
-1.0046614159898006 0.5751002070944339
-1.0046614159898006 0.6231550648815164
-1.0046614159898006 0.6712099226685989
-1.0150276478713285 0.7352830663847091
-1.0253938797528563 0.7192647804556815
-1.087591271042024 0.703246494526654
-1.1290561985681355 0.6551916367395715
-1.1601548942127191 0.703246494526654
-1.1394224304496634 0.7352830663847091
-1.1290561985681355 0.8313927819588741
-1.1290561985681355 0.8474110678879017
-1.180887357975775 0.8153744960298466
-1.2430847492649426 0.8313927819588741
-1.2223522855018867 0.8474110678879017
-1.201619821738831 0.8634293538169292
-1.2430847492649426 0.9275024975330393
-1.2845496767910543 0.9435207834620667
-1.294915908672582 0.9275024975330393
-1.294915908672582 0.9275024975330393
-1.2741834449095262 0.9915756412491493
-1.2845496767910543 1.0236122131072043
-1.2741834449095262 1.0716670708942868
-1.3467470680802216 1.0876853568233145
-1.3778457637248054 1.0556487849652594
-1.4089444593693892 1.0396304990362317
-1.3882119956063332 1.0556487849652594
-1.3674795318432775 1.0716670708942868
-1.326014604317166 1.1677767864684518
-1.3571132999617495 1.199813358326507
-1.4089444593693892 1.1677767864684518
-1.4296769231324449 1.1677767864684518
-1.4296769231324449 1.1517585005394244
-1.3882119956063332 1.231849930184562
-1.3882119956063332 1.2158316442555346
-1.4089444593693892 1.2478682161135894
-1.4296769231324449 1.231849930184562
-1.3778457637248054 1.2158316442555346
-1.3674795318432775 1.1837950723974795
-1.3363808361986937 1.2158316442555346
-1.3363808361986937 1.2478682161135894
-1.3156483724356378 1.199813358326507
-1.3674795318432775 1.199813358326507
-1.3467470680802216 1.103703642752342
-1.326014604317166 1.0716670708942868
-1.2741834449095262 1.0236122131072043
-1.2223522855018867 1.0716670708942868
-1.201619821738831 1.0396304990362317
-1.2223522855018867 0.9915756412491493
-1.201619821738831 0.8954659256749842
-1.1394224304496634 0.8634293538169292
-1.087591271042024 0.8313927819588741
-1.0357601116343842 0.7513013523137365
-0.9942951841082727 0.7192647804556815
-0.9839289522267447 0.6551916367395715
-0.9424640247006331 0.5430636352363788
-0.8699004015299378 0.4950087774492963
-0.7973367783592423 0.46297220559124125
-0.7558718508331307 0.46297220559124125
-0.6833082276624354 0.4309356337331862
-0.6729419957809074 0.36686249001707616
-0.6625757638993796 0.27075277444291107
-0.6211108363732679 0.22269791665582853
-0.5900121407286841 0.1906613447977735
-0.5381809813210446 0.1906613447977735
-0.496716053794933 0.206679630726801
-0.4863498219134051 0.206679630726801
-0.496716053794933 0.12658820108166344
-0.4863498219134051 0.0945516292236084
-0.45525112626882136 0.11056991515263591
-0.44488489438729345 0.12658820108166344
-0.44488489438729345 0.206679630726801
-0.5070822856764609 0.12658820108166344
-0.4759835900318772 0.04649677143652585
-0.4759835900318772 -0.0015580863505566965
-0.4759835900318772 0.06251505736555336
-0.4863498219134051 0.0945516292236084
-0.4759835900318772 0.11056991515263591
-0.4863498219134051 0.0945516292236084
-0.4863498219134051 0.07853334329458088
-0.4863498219134051 0.01446019957847082
-0.45525112626882136 0.06251505736555336
-0.42415243062423763 0.11056991515263591
-0.45525112626882136 0.12658820108166344
-0.4863498219134051 0.11056991515263591
-0.496716053794933 0.06251505736555336
-0.4863498219134051 0.07853334329458088
-0.42415243062423763 0.07853334329458088
-0.4034199668611818 0.14260648701069095
-0.43451866250576554 0.07853334329458088
-0.46561735815034927 0.0945516292236084
-0.5070822856764609 0.06251505736555336
-0.4863498219134051 0.04649677143652585
-0.4034199668611818 0.04649677143652585
-0.382687503098126 0.0945516292236084
-0.4137861987427097 0.11056991515263591
-0.44488489438729345 0.04649677143652585
-0.45525112626882136 0.01446019957847082
-0.46561735815034927 -0.017576372279584213
-0.4034199668611818 -0.017576372279584213
-0.3723212712165981 0.030478485507498335
-0.3723212712165981 0.04649677143652585
-0.4034199668611818 0.01446019957847082
-0.42415243062423763 -0.017576372279584213
-0.3723212712165981 -0.033594658208611725
-0.34122257557201435 0.01446019957847082
-0.32049011180895853 -0.0015580863505566965
-0.35158880745354226 0.01446019957847082
-0.3930537349796539 0.01446019957847082
-0.4034199668611818 -0.049612944137639246
-0.3930537349796539 -0.0976678019247218
-0.35158880745354226 -0.049612944137639246
-0.3101238799274306 -0.0015580863505566965
-0.33085634369048644 -0.0015580863505566965
-0.35158880745354226 -0.033594658208611725
-0.3619550393350702 -0.06563123006666675
-0.3723212712165981 -0.06563123006666675
-0.35158880745354226 -0.049612944137639246
-0.33085634369048644 -0.017576372279584213
-0.32049011180895853 -0.017576372279584213
-0.3619550393350702 -0.033594658208611725
-0.35158880745354226 -0.12970437378277683
-0.3619550393350702 -0.11368608785374931
-0.35158880745354226 -0.06563123006666675
-0.34122257557201435 -0.049612944137639246
-0.3101238799274306 -0.0015580863505566965
-0.34122257557201435 -0.049612944137639246
-0.33085634369048644 -0.08164951599569427
-0.34122257557201435 -0.0976678019247218
-0.2893914161643748 -0.08164951599569427
-0.2790251842828469 -0.08164951599569427
-0.2997576480459027 -0.033594658208611725
-0.32049011180895853 -0.049612944137639246
-0.3619550393350702 -0.0976678019247218
-0.32049011180895853 -0.16174094564083186
-0.2997576480459027 -0.16174094564083186
-0.2582927205197911 -0.08164951599569427
-0.2582927205197911 -0.08164951599569427
-0.268658952401319 -0.0976678019247218
-0.3101238799274306 -0.12970437378277683
-0.3101238799274306 -0.0976678019247218
-0.2582927205197911 -0.12970437378277683
-0.2582927205197911 -0.06563123006666675
-0.2893914161643748 -0.0976678019247218
-0.3101238799274306 -0.08164951599569427
-0.2997576480459027 -0.12970437378277683
-0.268658952401319 -0.17775923156985937
-0.2582927205197911 -0.14572265971180434
-0.2582927205197911 -0.08164951599569427
-0.2582927205197911 -0.06563123006666675
-0.2790251842828469 -0.14572265971180434
-0.2997576480459027 -0.12970437378277683
-0.2790251842828469 -0.16174094564083186
-0.2168277929936794 -0.0976678019247218
-0.2168277929936794 -0.06563123006666675
-0.2168277929936794 -0.033594658208611725
-0.22719402487520732 -0.06563123006666675
-0.2582927205197911 -0.16174094564083186
-0.23756025675673523 -0.14572265971180434
-0.22719402487520732 -0.16174094564083186
-0.2168277929936794 -0.12970437378277683
-0.23756025675673523 -0.0976678019247218
-0.268658952401319 -0.12970437378277683
-0.2893914161643748 -0.14572265971180434
-0.24792648863826314 -0.16174094564083186
-0.2064615611121515 -0.12970437378277683
-0.17536286546756777 -0.0976678019247218
-0.2064615611121515 -0.11368608785374931
