2.6409575977034447 -3.4189727024890986
2.4658808634289175 -3.3373038638265036
2.4269749224790225 -3.2393012574313893
2.36861601105418 -3.124964883303756
2.44642789295397 -2.961627205978566
2.67986353865334 -2.781955760920857
3.1272818595771317 -2.6022843158631477
3.6525120624007137 -2.4716141740029958
4.138836324274401 -2.4552804062704765
4.430630881398613 -2.504281709468034
4.60570761567314 -2.5206154772005527
4.664066527097982 -2.4879479417355146
4.547348704248297 -2.2919427289452865
4.216648206174191 -2.046936212957501
3.8081358262002936 -1.769262161504678
3.535794239551029 -1.4915881100518547
3.185640771001974 -1.2139140585990313
2.8743932434028143 -0.9852413103437652
2.6409575977034447 -0.805569865286056
2.2518981882044953 -0.7402347943559799
1.7072150149059657 -0.707567258890942
1.1041729301825938 -0.6258984202283469
0.6178486683089068 -0.4952282783681948
0.24824222928490478 -0.25022176238040955
-0.06300529831425489 0.01111852133989472
-0.27698797353867716 0.28879257279271797
-0.5298765897129943 0.4194627146528701
-0.6271414420877318 0.5011315533154652
-0.5882355011378368 0.5011315533154652
-0.432611737338257 0.5828003919780602
-0.3158939144885721 0.6644692306406553
-0.29644094401362464 0.7298043015707314
-0.3158939144885721 0.7624718370357694
-0.3547998554384671 0.7788056047682884
-0.4131587668633095 0.7624718370357694
-0.3353468849635196 0.8441406756983645
-0.3158939144885721 0.8604744434308835
-0.27698797353867716 0.9421432820934786
-0.2575350030637297 0.9094757466284406
-0.27698797353867716 0.9584770498259976
-0.3353468849635196 0.9258095143609596
-0.3158939144885721 0.9421432820934786
-0.29644094401362464 1.0238121207560738
-0.2380820325887822 1.1218147271511878
-0.2380820325887822 1.1218147271511878
-0.2186290621138347 1.0238121207560738
-0.2380820325887822 1.0074783530235547
-0.2575350030637297 0.9911445852910357
-0.2575350030637297 0.9911445852910357
-0.16027015068899228 1.0401458884885928
-0.16027015068899228 1.0564796562211116
-0.19917609163888725 1.0401458884885928
-0.3547998554384671 0.9911445852910357
-0.3158939144885721 1.0564796562211116
-0.27698797353867716 1.1054809594186688
-0.19917609163888725 1.1871497980812638
-0.19917609163888725 1.2034835658137828
-0.19917609163888725 1.2198173335463018
-0.19917609163888725 1.268818636743859
-0.19917609163888725 1.334153707673935
-0.19917609163888725 1.399488778604011
-0.12136420973909733 1.464823849534087
-0.0435523278393074 1.41582254633653
-0.0435523278393074 1.41582254633653
-0.08245826878920236 1.334153707673935
-0.10191123926414984 1.3178199399414159
-0.08245826878920236 1.3178199399414159
0.01480658358553503 1.285152404476378
0.07316549501037747 1.25248486901134
0.09261846548532494 1.1708160303487447
0.05371252453542999 1.1708160303487447
0.05371252453542999 1.2361511012788209
0.1315244064352199 1.285152404476378
0.2093362883350098 1.399488778604011
0.24824222928490478 1.448490081801568
0.2871481702347997 1.41582254633653
0.2871481702347997 1.366821243138973
0.18988331786006235 1.464823849534087
0.2093362883350098 1.4974913849991252
0.38441302260953714 1.5138251527316442
0.462224904509327 1.546492688196682
0.4816778749842745 1.4974913849991252
0.462224904509327 1.464823849534087
0.501130845459222 1.4974913849991252
0.6373016387838544 1.546492688196682
0.7345664911585917 1.562826455929201
0.7929254025834341 1.562826455929201
0.8318313435333291 1.5138251527316442
0.8901902549581716 1.432156314069049
0.8901902549581716 1.399488778604011
0.9680021368579615 1.432156314069049
1.065266989232699 1.399488778604011
1.1041729301825938 1.350487475406454
1.1625318416074364 1.25248486901134
1.1430788711324888 1.1871497980812638
1.2014377825573312 1.1054809594186688
1.2597966939821736 1.1218147271511878
1.318155605407016 1.0891471916861497
1.434873428256701 1.0238121207560738
1.473779369206596 0.8604744434308835
1.4543263987316484 0.7788056047682884
1.5321382806314383 0.6644692306406553
1.6099501625312282 0.6318016951756174
1.6877620444310182 0.6481354629081363
1.8239328377556505 0.5337990887805032
1.7850268968057557 0.46846401785042713
1.7850268968057557 0.3704614114553131
1.7461209558558606 0.3704614114553131
1.7461209558558606 0.40312894692035106
1.7655739263308081 0.4194627146528701
1.7266679853809133 0.38679517918783207
1.7266679853809133 0.33779387599027505
1.6099501625312282 0.272458805060199
1.4154204577817535 0.25612503732767994
1.2987026349320687 0.272458805060199
1.1819848120823837 0.33779387599027505
1.1236259006575413 0.305126340525237
1.0263610482828038 0.272458805060199
0.8901902549581716 0.20712373413012292
0.7734724321084867 0.17445619866508488
0.7540194616335393 0.23979126959516092
0.6956605502086968 0.272458805060199
0.6762075797337493 0.25612503732767994
0.6178486683089068 0.2234575018626419
0.501130845459222 0.20712373413012292
0.462224904509327 0.1907899663976039
0.4427719340343796 0.25612503732767994
0.462224904509327 0.25612503732767994
0.4816778749842745 0.272458805060199
0.4427719340343796 0.23979126959516092
0.3260541111846947 0.23979126959516092
0.3066011407097472 0.2234575018626419
0.3260541111846947 0.28879257279271797
0.34550708165964217 0.28879257279271797
0.4233189635594321 0.272458805060199
0.4233189635594321 0.272458805060199
0.3260541111846947 0.28879257279271797
0.26769519975985223 0.4194627146528701
0.2287892588099573 0.5011315533154652
0.24824222928490478 0.5664666242455413
0.2287892588099573 0.4847977855829462
0.24824222928490478 0.33779387599027505
0.2093362883350098 0.15812243093256587
0.09261846548532494 0.0927873600024898
0.11207143596027243 0.15812243093256587
0.1315244064352199 0.28879257279271797
0.24824222928490478 0.4357964823853891
0.24824222928490478 0.46846401785042713
0.2093362883350098 0.4357964823853891
0.15097737691016738 0.33779387599027505
0.2287892588099573 0.25612503732767994
0.26769519975985223 0.305126340525237
0.3066011407097472 0.305126340525237
0.2287892588099573 0.272458805060199
0.09261846548532494 0.23979126959516092
0.01480658358553503 0.25612503732767994
0.01480658358553503 0.23979126959516092
0.03425955406048251 0.33779387599027505
0.03425955406048251 0.305126340525237
0.09261846548532494 0.272458805060199
0.09261846548532494 0.23979126959516092
0.05371252453542999 0.272458805060199
0.05371252453542999 0.305126340525237
0.1315244064352199 0.35412764372279404
0.1315244064352199 0.33779387599027505
0.15097737691016738 0.321460108257756
0.1315244064352199 0.305126340525237
0.07316549501037747 0.305126340525237
0.11207143596027243 0.35412764372279404
0.11207143596027243 0.3704614114553131
0.18988331786006235 0.38679517918783207
0.15097737691016738 0.35412764372279404
0.11207143596027243 0.305126340525237
0.09261846548532494 0.305126340525237
0.07316549501037747 0.33779387599027505
0.17043034738511487 0.4194627146528701
0.15097737691016738 0.3704614114553131
0.17043034738511487 0.35412764372279404
0.1315244064352199 0.305126340525237
0.03425955406048251 0.321460108257756
0.09261846548532494 0.35412764372279404
0.11207143596027243 0.38679517918783207
0.2287892588099573 0.38679517918783207
0.15097737691016738 0.321460108257756
0.1315244064352199 0.272458805060199
0.07316549501037747 0.321460108257756
0.1315244064352199 0.321460108257756
0.17043034738511487 0.4194627146528701
0.15097737691016738 0.4357964823853891
0.15097737691016738 0.4194627146528701
0.15097737691016738 0.3704614114553131
0.11207143596027243 0.3704614114553131
0.17043034738511487 0.40312894692035106
0.2093362883350098 0.38679517918783207
0.18988331786006235 0.3704614114553131
0.2287892588099573 0.305126340525237
0.11207143596027243 0.23979126959516092
0.11207143596027243 0.2234575018626419
0.17043034738511487 0.25612503732767994
0.24824222928490478 0.272458805060199
0.2871481702347997 0.23979126959516092
0.2093362883350098 0.17445619866508488
0.17043034738511487 0.17445619866508488
0.07316549501037747 0.17445619866508488
0.18988331786006235 0.2234575018626419
0.18988331786006235 0.272458805060199
0.3066011407097472 0.28879257279271797
0.2871481702347997 0.1907899663976039
0.24824222928490478 0.14178866320004685
0.15097737691016738 0.15812243093256587
0.11207143596027243 0.20712373413012292
0.1315244064352199 0.272458805060199
0.09261846548532494 0.28879257279271797
0.1315244064352199 0.272458805060199
0.07316549501037747 0.17445619866508488
0.07316549501037747 0.1907899663976039
0.09261846548532494 0.2234575018626419
0.11207143596027243 0.321460108257756
0.11207143596027243 0.35412764372279404
0.09261846548532494 0.38679517918783207
-0.024099357364359926 0.35412764372279404
0.05371252453542999 0.40312894692035106
0.09261846548532494 0.33779387599027505
0.09261846548532494 0.40312894692035106
0.2093362883350098 0.35412764372279404
0.2093362883350098 0.40312894692035106
0.17043034738511487 0.35412764372279404
0.2093362883350098 0.38679517918783207
0.3066011407097472 0.35412764372279404
0.34550708165964217 0.3704614114553131
0.38441302260953714 0.38679517918783207
0.38441302260953714 0.305126340525237
0.2871481702347997 0.321460108257756
0.2871481702347997 0.28879257279271797
0.34550708165964217 0.25612503732767994
0.4233189635594321 0.305126340525237
0.501130845459222 0.305126340525237
0.4816778749842745 0.25612503732767994
0.4233189635594321 0.15812243093256587
0.36496005213458965 0.15812243093256587
0.34550708165964217 0.1907899663976039
0.2871481702347997 0.15812243093256587
0.34550708165964217 0.12545489546752783
0.36496005213458965 0.027452289072413736
0.3066011407097472 -0.08688408505521937
0.2871481702347997 -0.08688408505521937
0.3066011407097472 -0.07055031732270035
0.2871481702347997 -0.07055031732270035
0.2871481702347997 -0.054216549590181344
0.26769519975985223 -0.054216549590181344
0.2287892588099573 -0.07055031732270035
0.15097737691016738 -0.054216549590181344
0.17043034738511487 -0.03788278185766233
0.2287892588099573 -0.054216549590181344
0.2287892588099573 -0.054216549590181344
0.18988331786006235 -0.07055031732270035
0.1315244064352199 -0.10321785278773839
0.07316549501037747 -0.07055031732270035
0.05371252453542999 -0.03788278185766233
0.09261846548532494 0.060119824537451766
0.15097737691016738 0.060119824537451766
0.15097737691016738 0.060119824537451766
0.09261846548532494 0.060119824537451766
-0.0435523278393074 0.060119824537451766
-0.024099357364359926 0.10912112773500882
-0.0435523278393074 0.17445619866508488
0.05371252453542999 0.14178866320004685
0.03425955406048251 0.0927873600024898
0.01480658358553503 0.0927873600024898
0.03425955406048251 0.07645359226997078
0.03425955406048251 0.10912112773500882
0.05371252453542999 0.14178866320004685
-0.004646386889412448 0.15812243093256587
0.01480658358553503 0.14178866320004685
-0.0435523278393074 0.0927873600024898
-0.06300529831425489 0.12545489546752783
0.01480658358553503 0.14178866320004685
-0.004646386889412448 0.25612503732767994
0.03425955406048251 0.321460108257756
-0.0435523278393074 0.272458805060199
-0.06300529831425489 0.2234575018626419
-0.10191123926414984 0.14178866320004685
-0.08245826878920236 0.01111852133989472
-0.06300529831425489 0.027452289072413736
-0.004646386889412448 0.01111852133989472
-0.0435523278393074 0.01111852133989472
-0.08245826878920236 -0.0052152463926242966
-0.1408171802140448 0.04378605680493275
-0.06300529831425489 0.10912112773500882
-0.06300529831425489 0.17445619866508488
-0.024099357364359926 0.17445619866508488
-0.0435523278393074 0.12545489546752783
-0.0435523278393074 0.01111852133989472
-0.0435523278393074 0.027452289072413736
-0.004646386889412448 0.12545489546752783
-0.004646386889412448 0.17445619866508488
0.03425955406048251 0.10912112773500882
0.07316549501037747 0.0927873600024898
0.01480658358553503 0.060119824537451766
0.01480658358553503 0.01111852133989472
0.01480658358553503 0.01111852133989472
0.01480658358553503 0.060119824537451766
0.11207143596027243 -0.0052152463926242966
0.09261846548532494 -0.1358853882527764
0.09261846548532494 -0.38089190424056163
0.18988331786006235 -0.6912334911584229
0.34550708165964217 -1.0505763812738413
0.5789427273590119 -1.4425868068542977
0.8512843140082766 -1.9325998388298682
1.240343723507226 -2.4062791030729196
1.5710442215813334 -2.863624599583452
1.9601036310802828 -3.206633721966351
2.3102570996293377 -3.4353064702216174
2.6020516567535497 -3.4516402379541367
2.738222450078182 -3.3536376315590224
2.5631457158036546 -3.3373038638265036
2.3880689815291274 -3.3863051670240605
2.0768214539299676 -3.3863051670240605
1.882291749180493 -3.2393012574313893
1.9601036310802828 -3.043296044641161
2.13518036535481 -2.961627205978566
2.4269749224790225 -2.847290831850933
2.9327521548276567 -2.781955760920857
3.4190764167013437 -2.749288225455819
3.9248536490499784 -2.6349518513281858
4.313913058548928 -2.585950548130629
4.5278957337733505 -2.4716141740029958
4.411177910923665 -2.4552804062704765
4.041571471899664 -2.3082764966778053
3.710870973825556 -2.161272587085134
3.2829056233767115 -1.89993230336483
2.893846213877762 -1.6222582519120068
2.52423977485376 -1.3609179681917025
2.0573684834550203 -1.1322452199364363
1.512685310156491 -0.9362400071462081
0.8707372844832241 -0.756568562088499
0.3260541111846947 -0.6095646524958279
-0.0435523278393074 -0.38089190424056163
-0.3742528259134145 -0.16855292371781444
-0.6076884716127843 0.060119824537451766
-0.8411241173121541 0.1907899663976039
-0.9578419401618389 0.35412764372279404
-0.9189359992119439 0.5011315533154652
-0.8022181763622591 0.5664666242455413
-0.6660473830376268 0.6154679274430983
-0.6076884716127843 0.6154679274430983
-0.5687825306628893 0.6154679274430983
-0.4909706487630994 0.6971367661056934
-0.4909706487630994 0.7461380693032504
-0.393705796388362 0.8441406756983645
-0.3742528259134145 0.8441406756983645
-0.4909706487630994 0.8441406756983645
-0.47151767828815194 0.8278069079658454
-0.47151767828815194 0.8114731402333265
-0.47151767828815194 0.8278069079658454
-0.4131587668633095 0.9094757466284406
-0.4131587668633095 0.8931419788959215
-0.4131587668633095 0.8768082111634026
-0.45206470781320446 0.8604744434308835
-0.5104236192380469 0.9094757466284406
-0.45206470781320446 0.9094757466284406
-0.3742528259134145 0.9584770498259976
-0.3547998554384671 0.9584770498259976
-0.3547998554384671 0.9258095143609596
-0.432611737338257 0.8931419788959215
-0.3742528259134145 0.9258095143609596
-0.393705796388362 0.9748108175585166
-0.3742528259134145 1.0564796562211116
-0.3158939144885721 1.0564796562211116
-0.3742528259134145 1.0564796562211116
-0.432611737338257 0.9748108175585166
-0.45206470781320446 1.0074783530235547
-0.3547998554384671 1.0564796562211116
-0.3158939144885721 1.0891471916861497
-0.2380820325887822 1.0891471916861497
-0.27698797353867716 1.1054809594186688
-0.27698797353867716 1.0564796562211116
-0.27698797353867716 1.0891471916861497
-0.2380820325887822 1.1054809594186688
-0.12136420973909733 1.1708160303487447
-0.10191123926414984 1.2198173335463018
-0.12136420973909733 1.1544822626162259
-0.1408171802140448 1.1544822626162259
-0.17972312116393976 1.2034835658137828
-0.12136420973909733 1.25248486901134
-0.0435523278393074 1.285152404476378
0.07316549501037747 1.334153707673935
0.09261846548532494 1.366821243138973
0.09261846548532494 1.3178199399414159
0.05371252453542999 1.268818636743859
0.11207143596027243 1.350487475406454
0.2093362883350098 1.41582254633653
0.2871481702347997 1.41582254633653
0.3260541111846947 1.41582254633653
0.26769519975985223 1.350487475406454
0.3066011407097472 1.366821243138973
0.34550708165964217 1.448490081801568
0.4233189635594321 1.448490081801568
0.5789427273590119 1.432156314069049
0.5983956978339594 1.464823849534087
0.5594897568840644 1.432156314069049
0.5205838159341695 1.366821243138973
0.6956605502086968 1.383155010871492
0.7734724321084867 1.383155010871492
0.909643225433119 1.3178199399414159
0.948549166383014 1.268818636743859
0.948549166383014 1.1381484948837068
0.9680021368579615 1.1054809594186688
0.9680021368579615 1.0728134239536307
1.0847199597076465 1.0564796562211116
1.1236259006575413 1.0074783530235547
1.2597966939821736 0.8604744434308835
1.2792496644571212 0.7461380693032504
1.318155605407016 0.6318016951756174
1.3765145168318587 0.5828003919780602
1.4154204577817535 0.5828003919780602
1.4932323396815435 0.5174653210479842
1.5321382806314383 0.46846401785042713
1.4932323396815435 0.45213025011790814
1.512685310156491 0.3704614114553131
1.4932323396815435 0.3704614114553131
1.5321382806314383 0.321460108257756
1.5321382806314383 0.321460108257756
1.4154204577817535 0.25612503732767994
1.2014377825573312 0.1907899663976039
1.1625318416074364 0.1907899663976039
1.0847199597076465 0.20712373413012292
0.987455107332909 0.25612503732767994
0.9290961959080666 0.23979126959516092
0.8123783730583817 0.20712373413012292
0.6762075797337493 0.1907899663976039
0.5205838159341695 0.17445619866508488
0.462224904509327 0.1907899663976039
0.4816778749842745 0.25612503732767994
0.462224904509327 0.23979126959516092
0.4038659930844846 0.20712373413012292
0.2871481702347997 0.14178866320004685
0.17043034738511487 0.12545489546752783
0.15097737691016738 0.17445619866508488
0.15097737691016738 0.2234575018626419
0.11207143596027243 0.23979126959516092
0.1315244064352199 0.20712373413012292
0.09261846548532494 0.14178866320004685
0.05371252453542999 0.1907899663976039
0.05371252453542999 0.2234575018626419
0.11207143596027243 0.272458805060199
0.11207143596027243 0.23979126959516092
-0.004646386889412448 0.17445619866508488
-0.024099357364359926 0.15812243093256587
-0.06300529831425489 0.14178866320004685
-0.10191123926414984 0.20712373413012292
-0.0435523278393074 0.20712373413012292
-0.004646386889412448 0.25612503732767994
-0.004646386889412448 0.15812243093256587
-0.08245826878920236 0.15812243093256587
-0.12136420973909733 0.17445619866508488
-0.1408171802140448 0.25612503732767994
-0.06300529831425489 0.272458805060199
-0.08245826878920236 0.272458805060199
-0.10191123926414984 0.20712373413012292
-0.1408171802140448 0.20712373413012292
-0.2186290621138347 0.17445619866508488
-0.2575350030637297 0.20712373413012292
-0.17972312116393976 0.28879257279271797
-0.0435523278393074 0.25612503732767994
-0.10191123926414984 0.28879257279271797
-0.1408171802140448 0.28879257279271797
-0.2380820325887822 0.321460108257756
-0.2380820325887822 0.272458805060199
-0.17972312116393976 0.272458805060199
-0.1408171802140448 0.272458805060199
-0.10191123926414984 0.2234575018626419
-0.1408171802140448 0.14178866320004685
-0.2380820325887822 0.1907899663976039
-0.27698797353867716 0.25612503732767994
-0.17972312116393976 0.272458805060199
-0.10191123926414984 0.25612503732767994
-0.17972312116393976 0.272458805060199
-0.17972312116393976 0.20712373413012292
-0.2380820325887822 0.23979126959516092
-0.2380820325887822 0.272458805060199
-0.2575350030637297 0.28879257279271797
-0.17972312116393976 0.28879257279271797
-0.17972312116393976 0.272458805060199
-0.2186290621138347 0.20712373413012292
-0.29644094401362464 0.2234575018626419
-0.27698797353867716 0.305126340525237
-0.27698797353867716 0.305126340525237
-0.27698797353867716 0.28879257279271797
-0.27698797353867716 0.28879257279271797
-0.3158939144885721 0.272458805060199
-0.4131587668633095 0.23979126959516092
-0.393705796388362 0.23979126959516092
-0.393705796388362 0.305126340525237
-0.2380820325887822 0.25612503732767994
-0.3158939144885721 0.23979126959516092
-0.3353468849635196 0.17445619866508488
-0.432611737338257 0.20712373413012292
-0.4909706487630994 0.20712373413012292
-0.393705796388362 0.25612503732767994
-0.2575350030637297 0.272458805060199
-0.29644094401362464 0.25612503732767994
-0.4131587668633095 0.17445619866508488
-0.45206470781320446 0.20712373413012292
-0.47151767828815194 0.17445619866508488
-0.45206470781320446 0.25612503732767994
-0.393705796388362 0.23979126959516092
-0.393705796388362 0.25612503732767994
-0.432611737338257 0.2234575018626419
-0.47151767828815194 0.20712373413012292
-0.47151767828815194 0.23979126959516092
-0.432611737338257 0.28879257279271797
-0.5298765897129943 0.20712373413012292
-0.4909706487630994 0.2234575018626419
-0.5687825306628893 0.1907899663976039
-0.5298765897129943 0.1907899663976039
-0.5104236192380469 0.272458805060199
-0.45206470781320446 0.272458805060199
-0.432611737338257 0.25612503732767994
-0.45206470781320446 0.20712373413012292
-0.4909706487630994 0.17445619866508488
-0.6660473830376268 0.15812243093256587
-0.5882355011378368 0.23979126959516092
-0.5882355011378368 0.272458805060199
-0.47151767828815194 0.321460108257756
-0.45206470781320446 0.305126340525237
-0.47151767828815194 0.272458805060199
-0.5298765897129943 0.321460108257756
-0.5493295601879419 0.40312894692035106
-0.5104236192380469 0.38679517918783207
-0.432611737338257 0.40312894692035106
-0.4131587668633095 0.38679517918783207
-0.393705796388362 0.35412764372279404
-0.432611737338257 0.35412764372279404
-0.4131587668633095 0.38679517918783207
-0.3742528259134145 0.45213025011790814
-0.3158939144885721 0.4194627146528701
-0.3547998554384671 0.33779387599027505
-0.393705796388362 0.25612503732767994
-0.45206470781320446 0.272458805060199
-0.4131587668633095 0.23979126959516092
-0.3547998554384671 0.23979126959516092
-0.2575350030637297 0.23979126959516092
-0.2575350030637297 0.23979126959516092
-0.27698797353867716 0.15812243093256587
-0.3158939144885721 0.14178866320004685
-0.3742528259134145 0.10912112773500882
-0.3547998554384671 0.12545489546752783
-0.3158939144885721 0.10912112773500882
-0.3353468849635196 0.0927873600024898
-0.3547998554384671 0.027452289072413736
-0.45206470781320446 0.027452289072413736
-0.432611737338257 0.07645359226997078
-0.393705796388362 0.10912112773500882
-0.4131587668633095 0.07645359226997078
-0.3742528259134145 0.060119824537451766
-0.4909706487630994 0.027452289072413736
-0.5298765897129943 0.01111852133989472
-0.6271414420877318 0.07645359226997078
-0.5882355011378368 0.10912112773500882
-0.4909706487630994 0.07645359226997078
-0.5298765897129943 0.0927873600024898
-0.5687825306628893 0.04378605680493275
-0.7049533239875216 0.0927873600024898
-0.7049533239875216 0.15812243093256587
-0.6271414420877318 0.25612503732767994
-0.5687825306628893 0.25612503732767994
-0.6660473830376268 0.2234575018626419
-0.7827652058873116 0.17445619866508488
-0.8216711468372065 0.20712373413012292
-0.7827652058873116 0.23979126959516092
-0.6660473830376268 0.28879257279271797
-0.6271414420877318 0.272458805060199
-0.6076884716127843 0.23979126959516092
-0.6660473830376268 0.2234575018626419
-0.7438592649374166 0.2234575018626419
-0.7633122354123641 0.25612503732767994
-0.7827652058873116 0.28879257279271797
-0.6660473830376268 0.272458805060199
-0.6660473830376268 0.25612503732767994
-0.7049533239875216 0.2234575018626419
-0.7049533239875216 0.20712373413012292
-0.7827652058873116 0.272458805060199
-0.7244062944624692 0.25612503732767994
-0.6660473830376268 0.305126340525237
-0.7049533239875216 0.23979126959516092
-0.7633122354123641 0.20712373413012292
-0.7827652058873116 0.23979126959516092
-0.7633122354123641 0.25612503732767994
-0.6660473830376268 0.33779387599027505
-0.6271414420877318 0.33779387599027505
-0.6271414420877318 0.305126340525237
-0.6660473830376268 0.2234575018626419
-0.7244062944624692 0.2234575018626419
-0.6660473830376268 0.272458805060199
-0.5687825306628893 0.272458805060199
-0.5104236192380469 0.23979126959516092
-0.5104236192380469 0.2234575018626419
-0.5493295601879419 0.1907899663976039
-0.6465944125626792 0.1907899663976039
-0.5882355011378368 0.17445619866508488
-0.5687825306628893 0.17445619866508488
-0.47151767828815194 0.1907899663976039
-0.47151767828815194 0.20712373413012292
-0.393705796388362 0.17445619866508488
-0.3742528259134145 0.14178866320004685
-0.2186290621138347 0.060119824537451766
-0.0435523278393074 -0.10321785278773839
0.07316549501037747 -0.3482243687755236
0.3066011407097472 -0.723901026623461
0.5205838159341695 -1.1159114522039173
0.7929254025834341 -1.4752543423193356
1.2208907530322788 -1.752928393772159
1.512685310156491 -2.0306024452249822
1.7266679853809133 -2.2756089612127672
1.7461209558558606 -2.3899453353404003
1.6099501625312282 -2.4879479417355146
1.2208907530322788 -2.504281709468034
0.7734724321084867 -2.5532830126655908
0.4427719340343796 -2.5206154772005527
0.26769519975985223 -2.504281709468034
0.24824222928490478 -2.4062791030729196
0.501130845459222 -2.3082764966778053
0.8318313435333291 -2.2592751934802484
1.1819848120823837 -2.1286050516200965
1.5904971920562807 -2.014268677492463
1.9406506606053355 -1.9162660710973491
2.0962744244049154 -1.850931000167273
2.0573684834550203 -1.834597232434754
1.804479867280703 -1.7202608583071208
1.4543263987316484 -1.4752543423193356
1.0458140187577514 -1.3445842004591835
0.7734724321084867 -1.1322452199364363
0.4233189635594321 -1.0015750780762842
0.03425955406048251 -0.821903633018575
-0.19917609163888725 -0.6422321879608659
-0.4131587668633095 -0.46256074290315674
-0.5493295601879419 -0.2338879946478905
-0.6271414420877318 -0.10321785278773839
-0.7633122354123641 0.07645359226997078
-0.8022181763622591 0.17445619866508488
-0.8800300582620489 0.305126340525237
-0.8605770877871015 0.4357964823853891
-0.7438592649374166 0.5664666242455413
-0.6465944125626792 0.5664666242455413
-0.5687825306628893 0.5991341597105793
-0.432611737338257 0.5501328565130222
-0.3742528259134145 0.5664666242455413
-0.29644094401362464 0.6154679274430983
-0.2186290621138347 0.6808029983731744
-0.12136420973909733 0.6644692306406553
-0.1408171802140448 0.6318016951756174
-0.17972312116393976 0.6481354629081363
-0.17972312116393976 0.6644692306406553
-0.17972312116393976 0.7298043015707314
-0.10191123926414984 0.7624718370357694
-0.06300529831425489 0.7788056047682884
-0.08245826878920236 0.7298043015707314
-0.10191123926414984 0.7134705338382124
-0.10191123926414984 0.6971367661056934
-0.10191123926414984 0.7298043015707314
-0.004646386889412448 0.7951393725008075
0.03425955406048251 0.7788056047682884
0.03425955406048251 0.7624718370357694
-0.004646386889412448 0.7951393725008075
-0.06300529831425489 0.8114731402333265
-0.0435523278393074 0.8441406756983645
0.01480658358553503 0.8931419788959215
-0.004646386889412448 0.8441406756983645
0.03425955406048251 0.8441406756983645
0.01480658358553503 0.8441406756983645
-0.004646386889412448 0.8604744434308835
0.07316549501037747 0.9258095143609596
0.1315244064352199 0.9911445852910357
0.1315244064352199 0.9584770498259976
0.18988331786006235 0.9421432820934786
0.1315244064352199 0.8768082111634026
0.07316549501037747 0.8278069079658454
0.17043034738511487 0.8768082111634026
0.24824222928490478 0.9584770498259976
0.3260541111846947 1.0074783530235547
0.36496005213458965 0.9911445852910357
0.4038659930844846 0.9911445852910357
0.36496005213458965 1.0564796562211116
0.38441302260953714 1.0728134239536307
0.462224904509327 1.1871497980812638
0.501130845459222 1.1871497980812638
0.5594897568840644 1.1218147271511878
0.5594897568840644 1.0401458884885928
0.5789427273590119 1.0728134239536307
0.5983956978339594 1.1708160303487447
0.6956605502086968 1.1708160303487447
0.8123783730583817 1.2034835658137828
0.8318313435333291 1.2198173335463018
0.8512843140082766 1.1871497980812638
0.8707372844832241 1.1871497980812638
0.9680021368579615 1.1871497980812638
1.0263610482828038 1.2361511012788209
1.1430788711324888 1.2361511012788209
1.1625318416074364 1.2198173335463018
1.2014377825573312 1.1708160303487447
1.1819848120823837 1.1708160303487447
1.2597966939821736 1.25248486901134
1.3376085758819636 1.25248486901134
1.4154204577817535 1.268818636743859
1.473779369206596 1.1871497980812638
1.473779369206596 1.0401458884885928
1.4543263987316484 1.0074783530235547
1.512685310156491 0.9584770498259976
1.5904971920562807 0.9584770498259976
1.6488561034811233 0.8278069079658454
1.6683090739560706 0.6154679274430983
1.6294031330061758 0.5174653210479842
1.6683090739560706 0.4847977855829462
1.7655739263308081 0.4847977855829462
1.843385808230598 0.5174653210479842
1.921197690130388 0.45213025011790814
1.921197690130388 0.33779387599027505
1.9406506606053355 0.28879257279271797
1.9406506606053355 0.272458805060199
1.9601036310802828 0.28879257279271797
1.999009572030178 0.28879257279271797
1.9601036310802828 0.25612503732767994
1.882291749180493 0.17445619866508488
1.7850268968057557 0.15812243093256587
1.6683090739560706 0.12545489546752783
1.6099501625312282 0.20712373413012292
1.512685310156491 0.20712373413012292
1.4543263987316484 0.25612503732767994
1.3376085758819636 0.23979126959516092
1.1430788711324888 0.2234575018626419
1.0263610482828038 0.35412764372279404
0.9290961959080666 0.40312894692035106
0.909643225433119 0.35412764372279404
0.8901902549581716 0.15812243093256587
0.8123783730583817 -0.03788278185766233
0.6956605502086968 -0.08688408505521937
0.540036786409117 0.027452289072413736
0.540036786409117 0.17445619866508488
0.5594897568840644 0.2234575018626419
0.5789427273590119 0.12545489546752783
0.501130845459222 0.027452289072413736
0.5205838159341695 -0.0052152463926242966
0.462224904509327 0.027452289072413736
0.4427719340343796 0.12545489546752783
0.4038659930844846 0.17445619866508488
0.4816778749842745 0.14178866320004685
0.4427719340343796 0.10912112773500882
0.34550708165964217 0.12545489546752783
0.3066011407097472 0.10912112773500882
0.38441302260953714 0.1907899663976039
0.4038659930844846 0.305126340525237
0.4816778749842745 0.321460108257756
0.501130845459222 0.28879257279271797
0.462224904509327 0.17445619866508488
0.3260541111846947 0.12545489546752783
0.3260541111846947 0.07645359226997078
0.3066011407097472 0.10912112773500882
0.34550708165964217 0.15812243093256587
0.24824222928490478 0.07645359226997078
0.2871481702347997 0.027452289072413736
0.2287892588099573 -0.054216549590181344
0.2871481702347997 0.027452289072413736
0.36496005213458965 0.12545489546752783
0.462224904509327 0.14178866320004685
0.4233189635594321 0.14178866320004685
0.34550708165964217 0.04378605680493275
0.36496005213458965 0.07645359226997078
0.3260541111846947 0.12545489546752783
0.4427719340343796 0.17445619866508488
0.38441302260953714 0.17445619866508488
0.4427719340343796 0.1907899663976039
0.34550708165964217 0.12545489546752783
0.4038659930844846 0.07645359226997078
0.36496005213458965 0.1907899663976039
0.4233189635594321 0.23979126959516092
0.501130845459222 0.2234575018626419
0.4038659930844846 0.17445619866508488
0.38441302260953714 0.10912112773500882
0.36496005213458965 0.0927873600024898
0.34550708165964217 0.15812243093256587
0.38441302260953714 0.23979126959516092
0.4427719340343796 0.23979126959516092
0.4427719340343796 0.20712373413012292
0.34550708165964217 0.14178866320004685
0.34550708165964217 0.15812243093256587
0.3260541111846947 0.20712373413012292
0.4038659930844846 0.23979126959516092
0.4427719340343796 0.17445619866508488
0.4427719340343796 0.1907899663976039
0.4038659930844846 0.15812243093256587
0.3260541111846947 0.14178866320004685
0.2871481702347997 0.17445619866508488
0.4038659930844846 0.2234575018626419
0.462224904509327 0.1907899663976039
0.462224904509327 0.14178866320004685
0.38441302260953714 0.1907899663976039
0.3066011407097472 0.14178866320004685
0.36496005213458965 0.14178866320004685
0.36496005213458965 0.15812243093256587
0.36496005213458965 0.1907899663976039
0.34550708165964217 0.1907899663976039
0.3066011407097472 0.14178866320004685
0.26769519975985223 0.14178866320004685
0.24824222928490478 0.15812243093256587
0.3066011407097472 0.1907899663976039
0.38441302260953714 0.2234575018626419
0.36496005213458965 0.15812243093256587
0.26769519975985223 0.12545489546752783
0.18988331786006235 0.12545489546752783
0.24824222928490478 0.15812243093256587
0.2871481702347997 0.2234575018626419
0.34550708165964217 0.23979126959516092
0.34550708165964217 0.15812243093256587
0.3066011407097472 0.14178866320004685
0.2287892588099573 0.12545489546752783
0.18988331786006235 0.12545489546752783
0.3066011407097472 0.20712373413012292
0.34550708165964217 0.17445619866508488
0.3066011407097472 0.14178866320004685
0.24824222928490478 0.10912112773500882
0.2287892588099573 0.12545489546752783
0.2287892588099573 0.15812243093256587
0.2871481702347997 0.17445619866508488
0.26769519975985223 0.20712373413012292
0.26769519975985223 0.14178866320004685
0.15097737691016738 0.14178866320004685
0.1315244064352199 0.1907899663976039
0.18988331786006235 0.23979126959516092
0.26769519975985223 0.33779387599027505
0.36496005213458965 0.33779387599027505
0.36496005213458965 0.321460108257756
0.3260541111846947 0.25612503732767994
0.34550708165964217 0.28879257279271797
0.4233189635594321 0.321460108257756
0.4427719340343796 0.321460108257756
0.4038659930844846 0.35412764372279404
0.462224904509327 0.272458805060199
0.4038659930844846 0.2234575018626419
0.4038659930844846 0.20712373413012292
0.4233189635594321 0.20712373413012292
0.5205838159341695 0.20712373413012292
0.5983956978339594 0.17445619866508488
0.6178486683089068 0.12545489546752783
0.5983956978339594 0.060119824537451766
0.5594897568840644 0.060119824537451766
0.501130845459222 0.04378605680493275
0.540036786409117 0.04378605680493275
0.501130845459222 0.04378605680493275
0.4816778749842745 -0.03788278185766233
0.4427719340343796 -0.08688408505521937
0.38441302260953714 -0.1358853882527764
0.38441302260953714 -0.07055031732270035
0.4233189635594321 -0.08688408505521937
0.4233189635594321 -0.08688408505521937
0.4233189635594321 -0.1195516205202574
0.3066011407097472 -0.1358853882527764
0.2287892588099573 -0.1358853882527764
0.2093362883350098 -0.10321785278773839
0.26769519975985223 -0.08688408505521937
0.34550708165964217 -0.054216549590181344
0.3260541111846947 -0.1358853882527764
0.24824222928490478 -0.15221915598529542
0.17043034738511487 -0.2175542269153715
0.15097737691016738 -0.10321785278773839
0.2093362883350098 -0.054216549590181344
0.24824222928490478 -0.02154901412514331
0.2287892588099573 -0.0052152463926242966
0.11207143596027243 -0.03788278185766233
0.01480658358553503 -0.02154901412514331
0.03425955406048251 0.01111852133989472
0.07316549501037747 0.01111852133989472
0.15097737691016738 0.01111852133989472
0.15097737691016738 0.01111852133989472
0.09261846548532494 -0.054216549590181344
0.05371252453542999 -0.054216549590181344
0.01480658358553503 0.01111852133989472
0.01480658358553503 -0.0052152463926242966
0.07316549501037747 0.027452289072413736
0.05371252453542999 0.01111852133989472
0.05371252453542999 -0.02154901412514331
0.03425955406048251 -0.03788278185766233
0.03425955406048251 -0.054216549590181344
0.05371252453542999 0.01111852133989472
0.1315244064352199 0.027452289072413736
0.11207143596027243 -0.0052152463926242966
0.05371252453542999 -0.054216549590181344
-0.024099357364359926 -0.054216549590181344
-0.004646386889412448 -0.02154901412514331
0.03425955406048251 0.04378605680493275
0.1315244064352199 0.01111852133989472
0.11207143596027243 -0.0052152463926242966
0.11207143596027243 -0.054216549590181344
0.05371252453542999 -0.02154901412514331
0.07316549501037747 -0.02154901412514331
0.07316549501037747 0.04378605680493275
0.1315244064352199 -0.0052152463926242966
0.15097737691016738 -0.02154901412514331
0.07316549501037747 -0.10321785278773839
0.03425955406048251 -0.1358853882527764
0.09261846548532494 -0.1195516205202574
0.15097737691016738 -0.08688408505521937
0.17043034738511487 -0.1195516205202574
0.2287892588099573 -0.18488669145033346
0.2093362883350098 -0.4462269751706377
0.2093362883350098 -0.756568562088499
0.34550708165964217 -1.1975802908665125
0.6178486683089068 -1.6385920196445258
0.8707372844832241 -2.1449388193526153
1.1625318416074364 -2.6839531545257427
1.6488561034811233 -3.2229674896988705
2.174086306304705 -3.6149779152793267
2.67986353865334 -3.843650663534593
3.030017007202394 -3.827316895802074
3.146734830052079 -3.6966467539419217
3.146734830052079 -3.6149779152793267
2.9327521548276567 -3.631311683011846
2.67986353865334 -3.598644147546808
2.5436927453287073 -3.4189727024890986
2.621504627228497 -3.206633721966351
2.9132991843527094 -3.05962981237368
3.341264534801554 -2.879958367315971
3.847041767150188 -2.847290831850933
4.3528189994988224 -2.7656219931883377
4.741878408997772 -2.667619386793224
4.9169551432722995 -2.5532830126655908
4.99476702517209 -2.4226128708054384
4.625160586148088 -2.3246102644103246
4.216648206174191 -2.1939401225501722
3.847041767150188 -1.9325998388298682
3.4385293871762914 -1.671259555109564
3.224546711951869 -1.3935855036567406
2.971658095777552 -1.1975802908665125
2.5631457158036546 -1.0179088458088033
1.999009572030178 -0.8872387039486511
1.4154204577817535 -0.6585659556933849
0.8707372844832241 -0.3972256719730807
0.462224904509327 -0.08688408505521937
0.11207143596027243 0.0927873600024898
-0.19917609163888725 0.2234575018626419
-0.47151767828815194 0.305126340525237
-0.6271414420877318 0.3704614114553131
-0.6076884716127843 0.4357964823853891
-0.5298765897129943 0.5337990887805032
-0.4909706487630994 0.5664666242455413
-0.432611737338257 0.5664666242455413
-0.45206470781320446 0.5664666242455413
-0.432611737338257 0.5828003919780602
-0.47151767828815194 0.6318016951756174
-0.4131587668633095 0.6808029983731744
-0.4909706487630994 0.7624718370357694
-0.47151767828815194 0.7788056047682884
-0.4909706487630994 0.7298043015707314
-0.5493295601879419 0.7461380693032504
-0.5493295601879419 0.7461380693032504
-0.4909706487630994 0.8114731402333265
-0.45206470781320446 0.8114731402333265
-0.4131587668633095 0.8114731402333265
-0.432611737338257 0.8278069079658454
-0.5493295601879419 0.8278069079658454
-0.5493295601879419 0.8604744434308835
-0.5104236192380469 0.9421432820934786
-0.432611737338257 1.0401458884885928
-0.3742528259134145 1.0891471916861497
-0.4909706487630994 1.1218147271511878
-0.4909706487630994 1.1381484948837068
-0.5298765897129943 1.2361511012788209
-0.47151767828815194 1.350487475406454
-0.4131587668633095 1.334153707673935
-0.4909706487630994 1.1708160303487447
-0.45206470781320446 0.9748108175585166
-0.4909706487630994 0.9421432820934786
-0.4909706487630994 0.8278069079658454
-0.45206470781320446 0.7951393725008075
-0.3742528259134145 0.7461380693032504
-0.3158939144885721 0.7788056047682884
-0.3353468849635196 0.9094757466284406
-0.3353468849635196 1.0238121207560738
-0.3158939144885721 1.1054809594186688
-0.17972312116393976 1.1381484948837068
-0.16027015068899228 1.2034835658137828
-0.16027015068899228 1.2361511012788209
-0.12136420973909733 1.25248486901134
-0.16027015068899228 1.25248486901134
-0.1408171802140448 1.3178199399414159
-0.08245826878920236 1.350487475406454
-0.004646386889412448 1.41582254633653
0.05371252453542999 1.366821243138973
0.01480658358553503 1.350487475406454
0.03425955406048251 1.3178199399414159
0.11207143596027243 1.350487475406454
0.18988331786006235 1.41582254633653
0.3066011407097472 1.41582254633653
0.34550708165964217 1.399488778604011
0.34550708165964217 1.268818636743859
0.38441302260953714 1.25248486901134
0.4427719340343796 1.25248486901134
0.5205838159341695 1.25248486901134
0.5983956978339594 1.1871497980812638
0.6762075797337493 1.0891471916861497
0.6762075797337493 1.0238121207560738
0.6956605502086968 0.9421432820934786
0.7345664911585917 0.8768082111634026
0.8512843140082766 0.8931419788959215
0.948549166383014 0.7788056047682884
1.0458140187577514 0.6808029983731744
1.065266989232699 0.5501328565130222
1.0847199597076465 0.4847977855829462
1.1819848120823837 0.45213025011790814
1.2208907530322788 0.4357964823853891
1.3570615463569111 0.3704614114553131
1.3765145168318587 0.305126340525237
1.3765145168318587 0.2234575018626419
1.3765145168318587 0.1907899663976039
1.395967487306806 0.20712373413012292
1.395967487306806 0.20712373413012292
1.434873428256701 0.15812243093256587
1.3765145168318587 0.14178866320004685
1.240343723507226 0.0927873600024898
1.0847199597076465 0.060119824537451766
1.0069080778078565 0.07645359226997078
1.0263610482828038 0.10912112773500882
1.0263610482828038 0.0927873600024898
0.9290961959080666 0.07645359226997078
0.7540194616335393 0.04378605680493275
0.6567546092588018 0.07645359226997078
0.5594897568840644 0.07645359226997078
0.501130845459222 0.1907899663976039
0.540036786409117 0.1907899663976039
0.4816778749842745 0.14178866320004685
0.34550708165964217 0.10912112773500882
0.24824222928490478 0.0927873600024898
0.2287892588099573 0.10912112773500882
0.24824222928490478 0.060119824537451766
0.3066011407097472 -0.03788278185766233
0.26769519975985223 -0.07055031732270035
0.18988331786006235 -0.10321785278773839
0.11207143596027243 -0.07055031732270035
0.15097737691016738 -0.0052152463926242966
0.18988331786006235 0.07645359226997078
0.2287892588099573 0.04378605680493275
0.15097737691016738 0.027452289072413736
0.1315244064352199 0.027452289072413736
0.01480658358553503 -0.03788278185766233
-0.024099357364359926 0.01111852133989472
0.15097737691016738 0.07645359226997078
0.1315244064352199 0.07645359226997078
0.09261846548532494 0.0927873600024898
0.05371252453542999 0.027452289072413736
0.03425955406048251 0.027452289072413736
0.09261846548532494 0.060119824537451766
0.07316549501037747 0.07645359226997078
0.11207143596027243 0.0927873600024898
0.09261846548532494 0.07645359226997078
0.17043034738511487 0.04378605680493275
0.15097737691016738 0.04378605680493275
0.01480658358553503 0.0927873600024898
0.05371252453542999 0.10912112773500882
0.07316549501037747 0.12545489546752783
0.05371252453542999 0.0927873600024898
0.03425955406048251 0.04378605680493275
-0.004646386889412448 0.10912112773500882
0.05371252453542999 0.0927873600024898
0.07316549501037747 0.15812243093256587
0.05371252453542999 0.14178866320004685
0.01480658358553503 0.14178866320004685
-0.08245826878920236 0.07645359226997078
-0.06300529831425489 0.060119824537451766
-0.004646386889412448 0.14178866320004685
0.03425955406048251 0.15812243093256587
0.07316549501037747 0.14178866320004685
0.07316549501037747 0.10912112773500882
0.03425955406048251 0.060119824537451766
0.03425955406048251 0.060119824537451766
-0.024099357364359926 0.060119824537451766
0.03425955406048251 0.10912112773500882
0.05371252453542999 0.12545489546752783
-0.0435523278393074 0.0927873600024898
-0.0435523278393074 0.060119824537451766
-0.06300529831425489 0.07645359226997078
-0.0435523278393074 0.10912112773500882
-0.004646386889412448 0.12545489546752783
0.03425955406048251 0.15812243093256587
0.07316549501037747 0.12545489546752783
0.01480658358553503 0.07645359226997078
-0.06300529831425489 0.01111852133989472
-0.0435523278393074 0.07645359226997078
-0.004646386889412448 0.0927873600024898
0.05371252453542999 0.15812243093256587
0.01480658358553503 0.10912112773500882
-0.004646386889412448 0.01111852133989472
-0.0435523278393074 -0.0052152463926242966
-0.08245826878920236 0.060119824537451766
-0.08245826878920236 0.10912112773500882
0.05371252453542999 0.14178866320004685
0.05371252453542999 0.060119824537451766
-0.06300529831425489 0.027452289072413736
-0.10191123926414984 0.01111852133989472
-0.10191123926414984 0.04378605680493275
-0.0435523278393074 0.0927873600024898
-0.004646386889412448 0.060119824537451766
-0.004646386889412448 0.0927873600024898
-0.08245826878920236 -0.0052152463926242966
-0.10191123926414984 0.01111852133989472
-0.10191123926414984 -0.0052152463926242966
-0.08245826878920236 0.0927873600024898
-0.024099357364359926 0.12545489546752783
0.01480658358553503 0.04378605680493275
-0.06300529831425489 -0.0052152463926242966
-0.0435523278393074 0.027452289072413736
-0.08245826878920236 -0.0052152463926242966
-0.10191123926414984 0.060119824537451766
-0.004646386889412448 0.07645359226997078
-0.004646386889412448 0.060119824537451766
-0.06300529831425489 0.027452289072413736
-0.10191123926414984 -0.02154901412514331
-0.06300529831425489 0.04378605680493275
-0.08245826878920236 0.060119824537451766
-0.004646386889412448 0.10912112773500882
-0.0435523278393074 0.0927873600024898
-0.0435523278393074 0.07645359226997078
-0.08245826878920236 0.0927873600024898
-0.06300529831425489 0.1907899663976039
-0.0435523278393074 0.1907899663976039
0.01480658358553503 0.2234575018626419
0.07316549501037747 0.17445619866508488
0.07316549501037747 0.12545489546752783
0.03425955406048251 0.14178866320004685
0.05371252453542999 0.20712373413012292
0.17043034738511487 0.23979126959516092
0.17043034738511487 0.23979126959516092
0.18988331786006235 0.1907899663976039
0.17043034738511487 0.12545489546752783
0.15097737691016738 0.07645359226997078
0.15097737691016738 0.10912112773500882
0.2093362883350098 0.10912112773500882
0.3260541111846947 0.060119824537451766
0.3066011407097472 0.04378605680493275
0.26769519975985223 -0.02154901412514331
0.2093362883350098 -0.07055031732270035
0.26769519975985223 -0.054216549590181344
0.24824222928490478 -0.03788278185766233
0.2871481702347997 -0.08688408505521937
0.24824222928490478 -0.1195516205202574
0.18988331786006235 -0.18488669145033346
0.09261846548532494 -0.2175542269153715
0.03425955406048251 -0.2338879946478905
0.05371252453542999 -0.18488669145033346
0.1315244064352199 -0.1358853882527764
0.11207143596027243 -0.18488669145033346
0.01480658358553503 -0.2175542269153715
-0.004646386889412448 -0.20122045918285247
-0.0435523278393074 -0.16855292371781444
-0.0435523278393074 -0.20122045918285247
0.03425955406048251 -0.18488669145033346
0.01480658358553503 -0.2338879946478905
-0.08245826878920236 -0.25022176238040955
-0.12136420973909733 -0.26655553011292854
-0.12136420973909733 -0.2338879946478905
-0.06300529831425489 -0.16855292371781444
-0.004646386889412448 -0.1358853882527764
-0.06300529831425489 -0.1195516205202574
-0.12136420973909733 -0.07055031732270035
-0.17972312116393976 -0.1358853882527764
-0.2186290621138347 -0.07055031732270035
-0.2186290621138347 -0.03788278185766233
-0.1408171802140448 -0.0052152463926242966
-0.12136420973909733 -0.03788278185766233
-0.1408171802140448 -0.07055031732270035
-0.1408171802140448 -0.08688408505521937
-0.19917609163888725 -0.07055031732270035
-0.1408171802140448 -0.02154901412514331
-0.12136420973909733 -0.02154901412514331
-0.17972312116393976 -0.0052152463926242966
-0.2380820325887822 -0.10321785278773839
-0.2186290621138347 -0.10321785278773839
-0.19917609163888725 -0.054216549590181344
-0.19917609163888725 -0.054216549590181344
-0.12136420973909733 -0.03788278185766233
-0.10191123926414984 -0.03788278185766233
-0.19917609163888725 -0.054216549590181344
-0.27698797353867716 -0.10321785278773839
-0.3158939144885721 -0.08688408505521937
-0.2575350030637297 -0.07055031732270035
-0.1408171802140448 -0.02154901412514331
-0.10191123926414984 -0.054216549590181344
-0.17972312116393976 -0.10321785278773839
-0.2575350030637297 -0.15221915598529542
-0.2186290621138347 -0.08688408505521937
-0.2186290621138347 -0.02154901412514331
-0.10191123926414984 0.027452289072413736
-0.12136420973909733 -0.054216549590181344
-0.17972312116393976 -0.08688408505521937
-0.16027015068899228 -0.07055031732270035
-0.1408171802140448 -0.02154901412514331
-0.10191123926414984 0.04378605680493275
-0.10191123926414984 -0.0052152463926242966
-0.12136420973909733 -0.10321785278773839
-0.1408171802140448 -0.20122045918285247
-0.12136420973909733 -0.2828892978454476
-0.08245826878920236 -0.2992230655779666
-0.06300529831425489 -0.25022176238040955
0.01480658358553503 -0.31555683331048556
0.07316549501037747 -0.4952282783681948
0.1315244064352199 -0.772902329821018
0.15097737691016738 -1.1159114522039173
0.2093362883350098 -1.4752543423193356
0.4038659930844846 -1.89993230336483
0.6956605502086968 -2.3409440321428434
1.065266989232699 -2.830957064118414
1.434873428256701 -3.2556350251639086
1.843385808230598 -3.6476454507443647
2.2324452177295475 -3.908985734464669
2.5631457158036546 -3.957987037662226
2.738222450078182 -3.859984431267112
2.738222450078182 -3.794649360337036
2.5631457158036546 -3.794649360337036
2.3491630405792323 -3.7783155926045167
2.154633335829758 -3.6476454507443647
2.174086306304705 -3.4679740056866555
2.3102570996293377 -3.288302560628946
2.504786804378812 -3.1902999542338324
2.854940272927867 -3.05962981237368
3.263452652901764 -2.945293438246047
3.710870973825556 -2.863624599583452
4.197195235699243 -2.781955760920857
4.508442763298403 -2.6839531545257427
4.566801674723245 -2.618618083595667
4.37227196997377 -2.5206154772005527
4.022118501424716 -2.3572777998753627
3.5747001805009235 -2.0959375161550584
3.185640771001974 -1.867264767899792
2.9327521548276567 -1.5569231809819308
2.6020516567535497 -1.3935855036567406
2.2129922472546 -1.1975802908665125
1.7266679853809133 -1.0342426135413223
1.2014377825573312 -0.756568562088499
0.7929254025834341 -0.5442295815657519
0.38441302260953714 -0.3318906010430046
0.01480658358553503 -0.1358853882527764
-0.393705796388362 0.04378605680493275
-0.6465944125626792 0.1907899663976039
-0.8411241173121541 0.33779387599027505
-0.8411241173121541 0.5174653210479842
-0.7244062944624692 0.6154679274430983
-0.7049533239875216 0.6318016951756174
-0.7438592649374166 0.5991341597105793
-0.6855003535125742 0.5828003919780602
-0.6660473830376268 0.6481354629081363
-0.6076884716127843 0.6971367661056934
-0.5493295601879419 0.7298043015707314
-0.5493295601879419 0.6971367661056934
-0.6076884716127843 0.6644692306406553
-0.6465944125626792 0.7134705338382124
-0.6271414420877318 0.6971367661056934
-0.6465944125626792 0.7298043015707314
-0.5298765897129943 0.7788056047682884
-0.5493295601879419 0.7951393725008075
-0.5493295601879419 0.7461380693032504
-0.6076884716127843 0.7624718370357694
-0.6660473830376268 0.8114731402333265
-0.5882355011378368 0.8278069079658454
-0.4909706487630994 0.8768082111634026
-0.4909706487630994 0.8441406756983645
-0.5687825306628893 0.8114731402333265
-0.6076884716127843 0.8441406756983645
-0.6076884716127843 0.8931419788959215
-0.5493295601879419 0.9258095143609596
-0.47151767828815194 0.9911445852910357
-0.45206470781320446 0.9748108175585166
-0.45206470781320446 0.9748108175585166
-0.5104236192380469 0.9748108175585166
-0.5298765897129943 1.0238121207560738
-0.47151767828815194 1.0891471916861497
-0.4131587668633095 1.1054809594186688
-0.4131587668633095 1.0728134239536307
-0.45206470781320446 1.0401458884885928
-0.5104236192380469 0.9911445852910357
-0.47151767828815194 1.0891471916861497
-0.432611737338257 1.1381484948837068
-0.3547998554384671 1.1544822626162259
-0.3158939144885721 1.1544822626162259
-0.3742528259134145 1.1054809594186688
-0.393705796388362 1.1218147271511878
-0.3547998554384671 1.1708160303487447
-0.2575350030637297 1.2198173335463018
-0.17972312116393976 1.2361511012788209
-0.16027015068899228 1.2034835658137828
-0.12136420973909733 1.1708160303487447
-0.17972312116393976 1.2034835658137828
-0.1408171802140448 1.25248486901134
-0.0435523278393074 1.366821243138973
-0.004646386889412448 1.383155010871492
0.05371252453542999 1.350487475406454
-0.004646386889412448 1.3178199399414159
-0.0435523278393074 1.3014861722088968
-0.024099357364359926 1.383155010871492
0.07316549501037747 1.464823849534087
0.18988331786006235 1.481157617266606
0.2287892588099573 1.399488778604011
0.24824222928490478 1.334153707673935
0.18988331786006235 1.350487475406454
0.26769519975985223 1.399488778604011
0.3260541111846947 1.448490081801568
0.462224904509327 1.481157617266606
0.4816778749842745 1.432156314069049
0.4816778749842745 1.350487475406454
0.540036786409117 1.334153707673935
0.6178486683089068 1.350487475406454
0.6373016387838544 1.3178199399414159
0.6373016387838544 1.285152404476378
0.7345664911585917 1.2361511012788209
0.7734724321084867 1.1708160303487447
0.7929254025834341 1.1381484948837068
0.7929254025834341 1.1218147271511878
0.8318313435333291 1.0891471916861497
1.0069080778078565 1.0238121207560738
1.0263610482828038 0.9258095143609596
1.0069080778078565 0.7298043015707314
1.0263610482828038 0.6318016951756174
1.0847199597076465 0.5991341597105793
1.2208907530322788 0.5828003919780602
1.318155605407016 0.6318016951756174
1.3765145168318587 0.5501328565130222
1.3765145168318587 0.45213025011790814
1.3570615463569111 0.35412764372279404
1.3570615463569111 0.272458805060199
1.4154204577817535 0.25612503732767994
1.434873428256701 0.23979126959516092
1.4154204577817535 0.15812243093256587
1.2987026349320687 0.04378605680493275
1.1819848120823837 -0.054216549590181344
1.065266989232699 0.01111852133989472
1.0263610482828038 0.027452289072413736
1.0458140187577514 0.07645359226997078
0.987455107332909 0.060119824537451766
0.8707372844832241 0.04378605680493275
0.7151135206836443 0.060119824537451766
0.6567546092588018 0.04378605680493275
0.5789427273590119 0.0927873600024898
0.5983956978339594 0.10912112773500882
0.5205838159341695 0.07645359226997078
0.4038659930844846 0.04378605680493275
0.26769519975985223 0.01111852133989472
0.2093362883350098 0.07645359226997078
0.2287892588099573 0.14178866320004685
0.26769519975985223 0.12545489546752783
0.18988331786006235 0.14178866320004685
0.15097737691016738 0.07645359226997078
0.09261846548532494 0.027452289072413736
0.03425955406048251 0.060119824537451766
0.11207143596027243 0.10912112773500882
0.11207143596027243 0.1907899663976039
0.09261846548532494 0.17445619866508488
0.03425955406048251 0.1907899663976039
-0.024099357364359926 0.15812243093256587
-0.024099357364359926 0.14178866320004685
-0.06300529831425489 0.12545489546752783
-0.10191123926414984 0.07645359226997078
-0.06300529831425489 0.060119824537451766
-0.10191123926414984 0.04378605680493275
-0.10191123926414984 0.04378605680493275
-0.17972312116393976 0.060119824537451766
-0.12136420973909733 0.10912112773500882
-0.06300529831425489 0.1907899663976039
-0.06300529831425489 0.14178866320004685
-0.1408171802140448 0.15812243093256587
-0.19917609163888725 0.14178866320004685
-0.2380820325887822 0.1907899663976039
-0.10191123926414984 0.23979126959516092
0.01480658358553503 0.28879257279271797
0.03425955406048251 0.28879257279271797
0.01480658358553503 0.23979126959516092
-0.06300529831425489 0.14178866320004685
-0.08245826878920236 0.12545489546752783
-0.08245826878920236 0.14178866320004685
-0.024099357364359926 0.20712373413012292
-0.16027015068899228 0.25612503732767994
-0.3158939144885721 0.20712373413012292
-0.432611737338257 0.17445619866508488
-0.3742528259134145 0.20712373413012292
-0.29644094401362464 0.28879257279271797
-0.17972312116393976 0.35412764372279404
-0.2186290621138347 0.35412764372279404
-0.3158939144885721 0.321460108257756
-0.393705796388362 0.25612503732767994
-0.393705796388362 0.2234575018626419
-0.3547998554384671 0.23979126959516092
-0.2575350030637297 0.28879257279271797
-0.17972312116393976 0.305126340525237
-0.2380820325887822 0.28879257279271797
-0.3158939144885721 0.23979126959516092
-0.393705796388362 0.272458805060199
-0.393705796388362 0.28879257279271797
-0.3547998554384671 0.305126340525237
-0.3547998554384671 0.28879257279271797
-0.4131587668633095 0.305126340525237
-0.4909706487630994 0.28879257279271797
-0.5882355011378368 0.3704614114553131
-0.5687825306628893 0.40312894692035106
-0.47151767828815194 0.4194627146528701
-0.3742528259134145 0.321460108257756
-0.3742528259134145 0.1907899663976039
-0.432611737338257 0.20712373413012292
-0.47151767828815194 0.272458805060199
-0.5493295601879419 0.33779387599027505
-0.5298765897129943 0.38679517918783207
-0.5298765897129943 0.35412764372279404
-0.5493295601879419 0.28879257279271797
-0.6076884716127843 0.25612503732767994
-0.5882355011378368 0.272458805060199
-0.5493295601879419 0.35412764372279404
-0.4909706487630994 0.38679517918783207
-0.4909706487630994 0.33779387599027505
-0.5687825306628893 0.28879257279271797
-0.6465944125626792 0.321460108257756
-0.6465944125626792 0.28879257279271797
-0.5104236192380469 0.35412764372279404
-0.45206470781320446 0.321460108257756
-0.5104236192380469 0.33779387599027505
-0.5687825306628893 0.33779387599027505
-0.6076884716127843 0.305126340525237
-0.6076884716127843 0.38679517918783207
-0.5687825306628893 0.4194627146528701
-0.5882355011378368 0.4194627146528701
-0.6076884716127843 0.40312894692035106
-0.6660473830376268 0.3704614114553131
-0.6660473830376268 0.40312894692035106
-0.6855003535125742 0.4357964823853891
-0.6271414420877318 0.38679517918783207
-0.6465944125626792 0.33779387599027505
-0.6855003535125742 0.1907899663976039
-0.6660473830376268 0.2234575018626419
-0.7438592649374166 0.28879257279271797
-0.7244062944624692 0.3704614114553131
-0.6076884716127843 0.45213025011790814
-0.6076884716127843 0.4194627146528701
-0.7244062944624692 0.35412764372279404
-0.8022181763622591 0.305126340525237
-0.8800300582620489 0.305126340525237
-0.8800300582620489 0.40312894692035106
-0.7633122354123641 0.4847977855829462
-0.6076884716127843 0.5337990887805032
-0.5493295601879419 0.4847977855829462
-0.5493295601879419 0.33779387599027505
-0.6076884716127843 0.321460108257756
-0.6660473830376268 0.35412764372279404
-0.6660473830376268 0.40312894692035106
-0.5687825306628893 0.45213025011790814
-0.4131587668633095 0.4357964823853891
-0.393705796388362 0.38679517918783207
-0.45206470781320446 0.305126340525237
-0.432611737338257 0.28879257279271797
-0.4131587668633095 0.28879257279271797
-0.4131587668633095 0.28879257279271797
-0.393705796388362 0.2234575018626419
-0.45206470781320446 0.15812243093256587
-0.5298765897129943 0.14178866320004685
-0.5298765897129943 0.15812243093256587
-0.5104236192380469 0.20712373413012292
-0.45206470781320446 0.2234575018626419
-0.393705796388362 0.10912112773500882
-0.47151767828815194 0.027452289072413736
-0.5493295601879419 -0.0052152463926242966
-0.5882355011378368 0.060119824537451766
-0.6465944125626792 0.10912112773500882
-0.5882355011378368 0.0927873600024898
-0.6076884716127843 0.07645359226997078
-0.6271414420877318 -0.0052152463926242966
-0.6465944125626792 0.01111852133989472
-0.7049533239875216 0.04378605680493275
-0.7438592649374166 0.0927873600024898
-0.6660473830376268 0.14178866320004685
-0.6660473830376268 0.10912112773500882
-0.6271414420877318 0.0927873600024898
-0.7438592649374166 0.0927873600024898
-0.7633122354123641 0.15812243093256587
-0.7438592649374166 0.1907899663976039
-0.7438592649374166 0.23979126959516092
-0.8216711468372065 0.17445619866508488
-0.8800300582620489 0.1907899663976039
-0.9189359992119439 0.20712373413012292
-0.9189359992119439 0.2234575018626419
-0.8605770877871015 0.28879257279271797
-0.8022181763622591 0.305126340525237
-0.7827652058873116 0.272458805060199
-0.8605770877871015 0.23979126959516092
-0.8800300582620489 0.1907899663976039
-0.9578419401618389 0.17445619866508488
-0.9967478811117338 0.25612503732767994
-0.9383889696868914 0.25612503732767994
-0.8605770877871015 0.272458805060199
-0.8800300582620489 0.15812243093256587
-0.9383889696868914 0.1907899663976039
-0.9383889696868914 0.20712373413012292
-0.8994830287369965 0.2234575018626419
-0.8605770877871015 0.272458805060199
-0.9189359992119439 0.25612503732767994
-0.9578419401618389 0.23979126959516092
-1.0162008515866814 0.2234575018626419
-0.9967478811117338 0.272458805060199
-0.9383889696868914 0.33779387599027505
-0.8800300582620489 0.3704614114553131
-0.8800300582620489 0.3704614114553131
-0.9772949106367864 0.33779387599027505
-0.9383889696868914 0.25612503732767994
-0.9189359992119439 0.272458805060199
-0.8605770877871015 0.25612503732767994
-0.8411241173121541 0.272458805060199
-0.8605770877871015 0.1907899663976039
-0.9383889696868914 0.1907899663976039
-0.9189359992119439 0.23979126959516092
-0.8411241173121541 0.272458805060199
-0.8800300582620489 0.25612503732767994
-0.8216711468372065 0.23979126959516092
-0.8605770877871015 0.1907899663976039
-0.8411241173121541 0.15812243093256587
-0.7827652058873116 0.12545489546752783
-0.6855003535125742 0.07645359226997078
-0.5687825306628893 -0.02154901412514331
-0.47151767828815194 -0.26655553011292854
-0.2575350030637297 -0.6258984202283469
0.01480658358553503 -1.0015750780762842
0.3260541111846947 -1.3445842004591835
0.6373016387838544 -1.6549257873770449
0.9680021368579615 -1.981601142027425
1.2014377825573312 -2.2756089612127672
1.3376085758819636 -2.4879479417355146
1.2014377825573312 -2.5696167803981096
0.9680021368579615 -2.5532830126655908
0.6762075797337493 -2.5532830126655908
0.36496005213458965 -2.5696167803981096
0.01480658358553503 -2.6022843158631477
-0.16027015068899228 -2.5369492449330715
-0.19917609163888725 -2.4552804062704765
-0.004646386889412448 -2.3572777998753627
0.3066011407097472 -2.1776063548176534
0.7151135206836443 -2.0632699806900203
1.0069080778078565 -1.981601142027425
1.240343723507226 -1.883598535632311
1.3765145168318587 -1.769262161504678
1.3765145168318587 -1.5895907164469687
1.3570615463569111 -1.3772517359242216
1.2014377825573312 -1.1975802908665125
1.0069080778078565 -1.2302478263315504
0.7345664911585917 -1.2465815940640694
0.34550708165964217 -1.2302478263315504
-0.024099357364359926 -1.0669101490063604
-0.393705796388362 -0.772902329821018
-0.5687825306628893 -0.5115620461007138
-0.7049533239875216 -0.2828892978454476
-0.8605770877871015 -0.1358853882527764
-1.1718246153862613 0.01111852133989472
-1.327448379185841 0.20712373413012292
-1.4830721429854208 0.40312894692035106
-1.5025251134603683 0.5828003919780602
-1.5025251134603683 0.6808029983731744
-1.5025251134603683 0.6644692306406553
-1.5219780839353159 0.6318016951756174
-1.5219780839353159 0.5991341597105793
-1.5025251134603683 0.6808029983731744
-1.4247132315605784 0.7624718370357694
-1.3079954087108936 0.8441406756983645
-1.2301835268111037 0.8441406756983645
-1.1718246153862613 0.7951393725008075
-1.2496364972860512 0.7788056047682884
-1.288542438235946 0.8114731402333265
-1.2690894677609985 0.8604744434308835
-1.2496364972860512 0.9094757466284406
-1.2690894677609985 0.8931419788959215
-1.2690894677609985 0.8114731402333265
-1.288542438235946 0.8441406756983645
-1.2496364972860512 0.8931419788959215
-1.1912775858612086 0.9748108175585166
-1.1718246153862613 0.9584770498259976
-1.1718246153862613 0.9584770498259976
-1.1523716449113137 0.8931419788959215
-1.2107305563361561 0.9094757466284406
-1.2107305563361561 0.9584770498259976
-1.1912775858612086 1.0074783530235547
-1.1329186744363662 1.0564796562211116
-1.1134657039614186 1.0401458884885928
-1.1523716449113137 0.9748108175585166
-1.1718246153862613 0.9748108175585166
-1.1718246153862613 1.0074783530235547
-1.0745597630115238 1.0401458884885928
-1.0162008515866814 1.1218147271511878
-0.9578419401618389 1.1054809594186688
-0.9578419401618389 1.0728134239536307
-1.0551067925365762 1.0238121207560738
-1.0745597630115238 1.0401458884885928
-1.035653822061629 1.0564796562211116
-0.9578419401618389 1.1054809594186688
-0.8411241173121541 1.0891471916861497
-0.8022181763622591 1.0238121207560738
-0.8216711468372065 1.0564796562211116
-0.8605770877871015 1.1218147271511878
-0.7633122354123641 1.1871497980812638
-0.8022181763622591 1.1708160303487447
-0.8022181763622591 1.0891471916861497
-0.7438592649374166 1.0564796562211116
-0.7049533239875216 1.0728134239536307
-0.6855003535125742 1.1708160303487447
-0.5104236192380469 1.2034835658137828
-0.45206470781320446 1.25248486901134
-0.3353468849635196 1.2034835658137828
-0.3742528259134145 1.25248486901134
-0.3742528259134145 1.2198173335463018
-0.3158939144885721 1.25248486901134
-0.2575350030637297 1.268818636743859
-0.10191123926414984 1.285152404476378
-0.0435523278393074 1.25248486901134
-0.024099357364359926 1.2034835658137828
0.01480658358553503 1.2198173335463018
0.07316549501037747 1.2361511012788209
0.17043034738511487 1.3014861722088968
0.17043034738511487 1.3014861722088968
0.2287892588099573 1.268818636743859
0.26769519975985223 1.2198173335463018
0.3066011407097472 1.2034835658137828
0.36496005213458965 1.2034835658137828
0.4427719340343796 1.2361511012788209
0.5205838159341695 1.1708160303487447
0.6178486683089068 1.1708160303487447
0.7540194616335393 1.0564796562211116
0.7345664911585917 1.0401458884885928
0.7540194616335393 1.0074783530235547
0.8318313435333291 0.9748108175585166
0.909643225433119 0.9748108175585166
1.0069080778078565 0.9421432820934786
0.9680021368579615 0.8931419788959215
0.948549166383014 0.7788056047682884
0.948549166383014 0.7788056047682884
1.065266989232699 0.7461380693032504
1.1430788711324888 0.7461380693032504
1.1430788711324888 0.6644692306406553
1.1430788711324888 0.5174653210479842
1.1625318416074364 0.5011315533154652
1.1819848120823837 0.5337990887805032
1.240343723507226 0.5501328565130222
1.240343723507226 0.5991341597105793
1.2208907530322788 0.5011315533154652
1.1430788711324888 0.45213025011790814
1.0458140187577514 0.4357964823853891
0.948549166383014 0.45213025011790814
0.9290961959080666 0.5174653210479842
0.8707372844832241 0.5501328565130222
0.7929254025834341 0.5011315533154652
0.6762075797337493 0.4357964823853891
0.540036786409117 0.40312894692035106
0.4233189635594321 0.45213025011790814
0.4233189635594321 0.5174653210479842
0.34550708165964217 0.5664666242455413
0.2287892588099573 0.5337990887805032
0.15097737691016738 0.4847977855829462
0.05371252453542999 0.46846401785042713
-0.06300529831425489 0.45213025011790814
-0.004646386889412448 0.45213025011790814
-0.024099357364359926 0.4194627146528701
-0.08245826878920236 0.35412764372279404
-0.1408171802140448 0.35412764372279404
-0.2186290621138347 0.33779387599027505
-0.2575350030637297 0.40312894692035106
-0.2186290621138347 0.4357964823853891
-0.17972312116393976 0.4357964823853891
-0.17972312116393976 0.38679517918783207
-0.2575350030637297 0.40312894692035106
-0.3353468849635196 0.40312894692035106
-0.3158939144885721 0.45213025011790814
-0.3353468849635196 0.5011315533154652
-0.2575350030637297 0.4847977855829462
-0.2186290621138347 0.4194627146528701
-0.27698797353867716 0.4194627146528701
-0.3158939144885721 0.40312894692035106
-0.3158939144885721 0.40312894692035106
-0.3158939144885721 0.4194627146528701
-0.2575350030637297 0.45213025011790814
-0.2380820325887822 0.46846401785042713
-0.29644094401362464 0.4357964823853891
-0.3547998554384671 0.38679517918783207
-0.3353468849635196 0.45213025011790814
-0.27698797353867716 0.45213025011790814
-0.16027015068899228 0.4847977855829462
-0.19917609163888725 0.46846401785042713
-0.19917609163888725 0.4357964823853891
-0.19917609163888725 0.40312894692035106
-0.19917609163888725 0.4357964823853891
-0.17972312116393976 0.4847977855829462
-0.19917609163888725 0.5174653210479842
-0.19917609163888725 0.45213025011790814
-0.19917609163888725 0.4357964823853891
-0.2575350030637297 0.4194627146528701
-0.2380820325887822 0.40312894692035106
-0.19917609163888725 0.5011315533154652
-0.06300529831425489 0.45213025011790814
-0.0435523278393074 0.4847977855829462
-0.10191123926414984 0.40312894692035106
-0.16027015068899228 0.40312894692035106
-0.19917609163888725 0.4194627146528701
-0.10191123926414984 0.46846401785042713
-0.06300529831425489 0.4847977855829462
-0.024099357364359926 0.5011315533154652
-0.08245826878920236 0.4194627146528701
-0.16027015068899228 0.38679517918783207
-0.1408171802140448 0.4357964823853891
-0.08245826878920236 0.46846401785042713
-0.0435523278393074 0.5011315533154652
-0.024099357364359926 0.46846401785042713
-0.024099357364359926 0.40312894692035106
-0.06300529831425489 0.38679517918783207
-0.024099357364359926 0.4194627146528701
0.03425955406048251 0.5011315533154652
0.07316549501037747 0.5174653210479842
0.11207143596027243 0.46846401785042713
0.03425955406048251 0.4357964823853891
0.01480658358553503 0.38679517918783207
-0.06300529831425489 0.4194627146528701
0.03425955406048251 0.5174653210479842
0.07316549501037747 0.4847977855829462
0.07316549501037747 0.46846401785042713
0.09261846548532494 0.40312894692035106
0.07316549501037747 0.4194627146528701
0.05371252453542999 0.4357964823853891
0.07316549501037747 0.45213025011790814
0.1315244064352199 0.5174653210479842
0.1315244064352199 0.45213025011790814
0.11207143596027243 0.40312894692035106
0.07316549501037747 0.38679517918783207
0.07316549501037747 0.4357964823853891
0.1315244064352199 0.4847977855829462
0.15097737691016738 0.45213025011790814
0.15097737691016738 0.4194627146528701
0.15097737691016738 0.38679517918783207
0.03425955406048251 0.38679517918783207
0.11207143596027243 0.40312894692035106
0.1315244064352199 0.4194627146528701
0.2287892588099573 0.45213025011790814
0.2287892588099573 0.4357964823853891
0.15097737691016738 0.46846401785042713
0.1315244064352199 0.45213025011790814
0.11207143596027243 0.46846401785042713
0.09261846548532494 0.5174653210479842
0.2093362883350098 0.5501328565130222
0.2287892588099573 0.5337990887805032
0.18988331786006235 0.46846401785042713
0.2093362883350098 0.4847977855829462
0.24824222928490478 0.5011315533154652
0.2871481702347997 0.5501328565130222
0.34550708165964217 0.5664666242455413
0.34550708165964217 0.5828003919780602
0.34550708165964217 0.5174653210479842
0.36496005213458965 0.46846401785042713
0.3066011407097472 0.46846401785042713
0.2871481702347997 0.4847977855829462
0.36496005213458965 0.46846401785042713
0.4427719340343796 0.4357964823853891
0.4816778749842745 0.3704614114553131
0.462224904509327 0.321460108257756
0.4816778749842745 0.321460108257756
0.5205838159341695 0.3704614114553131
0.5789427273590119 0.33779387599027505
0.540036786409117 0.305126340525237
0.462224904509327 0.272458805060199
0.4233189635594321 0.1907899663976039
0.38441302260953714 0.2234575018626419
0.38441302260953714 0.2234575018626419
0.4427719340343796 0.20712373413012292
0.4233189635594321 0.15812243093256587
0.38441302260953714 0.14178866320004685
0.3260541111846947 0.10912112773500882
0.3260541111846947 0.15812243093256587
0.36496005213458965 0.17445619866508488
0.4038659930844846 0.20712373413012292
0.4038659930844846 0.12545489546752783
0.36496005213458965 0.12545489546752783
0.26769519975985223 0.07645359226997078
0.26769519975985223 0.12545489546752783
0.2093362883350098 0.15812243093256587
0.3260541111846947 0.15812243093256587
0.3260541111846947 0.15812243093256587
0.2871481702347997 0.14178866320004685
0.2093362883350098 0.12545489546752783
0.17043034738511487 0.20712373413012292
0.2287892588099573 0.25612503732767994
0.2287892588099573 0.33779387599027505
0.2093362883350098 0.28879257279271797
0.09261846548532494 0.2234575018626419
0.03425955406048251 0.20712373413012292
0.01480658358553503 0.2234575018626419
0.17043034738511487 0.28879257279271797
0.2093362883350098 0.321460108257756
0.17043034738511487 0.28879257279271797
0.15097737691016738 0.23979126959516092
0.07316549501037747 0.17445619866508488
0.05371252453542999 0.23979126959516092
0.05371252453542999 0.272458805060199
0.1315244064352199 0.272458805060199
0.17043034738511487 0.25612503732767994
0.15097737691016738 0.20712373413012292
0.05371252453542999 0.2234575018626419
0.05371252453542999 0.2234575018626419
0.1315244064352199 0.25612503732767994
0.17043034738511487 0.272458805060199
0.17043034738511487 0.23979126959516092
0.1315244064352199 0.1907899663976039
0.09261846548532494 0.1907899663976039
0.01480658358553503 0.17445619866508488
0.09261846548532494 0.20712373413012292
0.15097737691016738 0.23979126959516092
0.17043034738511487 0.2234575018626419
0.1315244064352199 0.17445619866508488
0.11207143596027243 0.14178866320004685
0.07316549501037747 0.15812243093256587
0.1315244064352199 0.1907899663976039
0.1315244064352199 0.2234575018626419
0.17043034738511487 0.1907899663976039
0.17043034738511487 0.17445619866508488
0.1315244064352199 0.10912112773500882
0.11207143596027243 0.12545489546752783
0.15097737691016738 0.10912112773500882
0.2287892588099573 0.15812243093256587
0.2287892588099573 0.0927873600024898
0.18988331786006235 0.0927873600024898
0.17043034738511487 -0.02154901412514331
0.24824222928490478 -0.054216549590181344
0.3260541111846947 -0.20122045918285247
0.4427719340343796 -0.38089190424056163
0.540036786409117 -0.772902329821018
0.6956605502086968 -1.2139140585990313
0.8512843140082766 -1.6385920196445258
1.2014377825573312 -1.9979349097599441
1.5904971920562807 -2.3899453353404003
2.037915512980073 -2.6839531545257427
2.4075219520040747 -2.961627205978566
2.67986353865334 -3.141298651036275
2.777128391028077 -3.1086311155712374
2.777128391028077 -3.010628509176123
2.7187694796032345 -2.961627205978566
2.52423977485376 -2.977960973711085
2.2713511586794426 -2.961627205978566
2.0768214539299676 -2.928959670513528
1.9406506606053355 -2.847290831850933
2.0573684834550203 -2.6839531545257427
2.329710070104285 -2.5369492449330715
2.660410568178392 -2.4226128708054384
3.030017007202394 -2.3899453353404003
3.3996234462263963 -2.3082764966778053
3.6525120624007137 -2.2919427289452865
3.788682855725346 -2.161272587085134
3.8859477081000833 -2.079603748422539
3.749776914775451 -1.89993230336483
3.4190764167013437 -1.769262161504678
3.0883759186272366 -1.6549257873770449
2.7187694796032345 -1.4752543423193356
2.485333833903865 -1.2792491295291075
2.2518981882044953 -1.0505763812738413
2.0962744244049154 -0.8382374007510941
1.843385808230598 -0.6912334911584229
1.5710442215813334 -0.5115620461007138
1.2208907530322788 -0.3972256719730807
0.7734724321084867 -0.16855292371781444
0.4427719340343796 0.04378605680493275
0.1315244064352199 0.272458805060199
-0.1408171802140448 0.35412764372279404
-0.3353468849635196 0.4847977855829462
-0.5493295601879419 0.4847977855829462
-0.6271414420877318 0.5501328565130222
-0.5493295601879419 0.6318016951756174
-0.4131587668633095 0.7134705338382124
-0.3353468849635196 0.7134705338382124
-0.27698797353867716 0.6808029983731744
-0.3158939144885721 0.6644692306406553
-0.3158939144885721 0.7134705338382124
-0.27698797353867716 0.7788056047682884
-0.2575350030637297 0.8114731402333265
-0.29644094401362464 0.8114731402333265
-0.29644094401362464 0.7951393725008075
-0.3353468849635196 0.7951393725008075
-0.3547998554384671 0.7951393725008075
-0.3353468849635196 0.8441406756983645
-0.3158939144885721 0.8768082111634026
-0.2380820325887822 0.8931419788959215
-0.2186290621138347 0.8441406756983645
-0.29644094401362464 0.7951393725008075
-0.3158939144885721 0.8931419788959215
-0.3547998554384671 0.8931419788959215
-0.29644094401362464 0.9911445852910357
-0.2575350030637297 0.9748108175585166
-0.27698797353867716 0.9421432820934786
-0.3742528259134145 0.9258095143609596
-0.393705796388362 0.8931419788959215
-0.3547998554384671 0.9584770498259976
-0.2186290621138347 1.0074783530235547
-0.2575350030637297 1.0074783530235547
-0.2380820325887822 0.9748108175585166
-0.3547998554384671 0.9421432820934786
-0.3742528259134145 0.9911445852910357
-0.3353468849635196 1.0238121207560738
-0.2575350030637297 1.0564796562211116
-0.2380820325887822 1.0401458884885928
-0.2186290621138347 1.0238121207560738
-0.3158939144885721 1.0238121207560738
-0.3353468849635196 1.0728134239536307
-0.2575350030637297 1.1218147271511878
-0.16027015068899228 1.1871497980812638
-0.16027015068899228 1.1871497980812638
-0.1408171802140448 1.1544822626162259
-0.16027015068899228 1.0891471916861497
-0.19917609163888725 1.1381484948837068
-0.10191123926414984 1.2198173335463018
-0.06300529831425489 1.268818636743859
0.01480658358553503 1.268818636743859
0.01480658358553503 1.25248486901134
-0.004646386889412448 1.2034835658137828
-0.004646386889412448 1.25248486901134
0.05371252453542999 1.3014861722088968
0.1315244064352199 1.334153707673935
0.18988331786006235 1.334153707673935
0.18988331786006235 1.285152404476378
0.1315244064352199 1.285152404476378
0.15097737691016738 1.3014861722088968
0.2093362883350098 1.383155010871492
0.3066011407097472 1.366821243138973
0.4038659930844846 1.350487475406454
0.4427719340343796 1.268818636743859
0.4233189635594321 1.2198173335463018
0.4427719340343796 1.285152404476378
0.540036786409117 1.285152404476378
0.6567546092588018 1.3178199399414159
0.7151135206836443 1.2361511012788209
0.7151135206836443 1.1381484948837068
0.6956605502086968 1.0564796562211116
0.6956605502086968 1.0401458884885928
0.7734724321084867 1.0401458884885928
0.8901902549581716 0.9911445852910357
0.987455107332909 0.8768082111634026
1.0069080778078565 0.7951393725008075
1.0069080778078565 0.7134705338382124
1.1041729301825938 0.6808029983731744
1.1819848120823837 0.6154679274430983
1.318155605407016 0.6318016951756174
1.395967487306806 0.5174653210479842
1.4543263987316484 0.4194627146528701
1.4932323396815435 0.321460108257756
1.4932323396815435 0.33779387599027505
1.5904971920562807 0.28879257279271797
1.6877620444310182 0.321460108257756
1.6683090739560706 0.272458805060199
1.7072150149059657 0.1907899663976039
1.5904971920562807 0.1907899663976039
1.5904971920562807 0.1907899663976039
1.512685310156491 0.17445619866508488
1.4932323396815435 0.23979126959516092
1.434873428256701 0.20712373413012292
1.318155605407016 0.0927873600024898
1.2208907530322788 0.060119824537451766
1.1430788711324888 0.060119824537451766
1.065266989232699 0.14178866320004685
1.065266989232699 0.14178866320004685
1.0069080778078565 0.14178866320004685
0.8901902549581716 0.07645359226997078
0.7540194616335393 0.01111852133989472
0.7345664911585917 0.060119824537451766
0.6567546092588018 0.10912112773500882
0.6762075797337493 0.17445619866508488
0.6762075797337493 0.0927873600024898
0.6567546092588018 0.04378605680493275
0.5789427273590119 0.01111852133989472
0.5594897568840644 0.07645359226997078
0.6373016387838544 0.12545489546752783
0.6762075797337493 0.12545489546752783
0.6762075797337493 0.12545489546752783
0.5983956978339594 0.060119824537451766
0.5205838159341695 0.01111852133989472
0.4816778749842745 0.027452289072413736
0.5789427273590119 0.060119824537451766
0.5789427273590119 0.12545489546752783
0.6373016387838544 0.0927873600024898
0.540036786409117 0.01111852133989472
0.5789427273590119 0.027452289072413736
0.4816778749842745 0.060119824537451766
0.501130845459222 0.10912112773500882
0.5983956978339594 0.15812243093256587
0.6373016387838544 0.10912112773500882
0.6373016387838544 0.04378605680493275
0.5789427273590119 0.027452289072413736
0.540036786409117 0.027452289072413736
0.5983956978339594 0.07645359226997078
0.5983956978339594 0.14178866320004685
0.6567546092588018 0.12545489546752783
0.6178486683089068 0.04378605680493275
0.5789427273590119 0.01111852133989472
0.5983956978339594 0.027452289072413736
0.5983956978339594 0.10912112773500882
0.6956605502086968 0.14178866320004685
0.7151135206836443 0.12545489546752783
0.6762075797337493 0.04378605680493275
0.6373016387838544 0.060119824537451766
0.6178486683089068 0.07645359226997078
0.6567546092588018 0.14178866320004685
0.7151135206836443 0.14178866320004685
0.7345664911585917 0.10912112773500882
0.6956605502086968 0.060119824537451766
0.6567546092588018 0.027452289072413736
0.6567546092588018 0.07645359226997078
0.6762075797337493 0.10912112773500882
0.6567546092588018 0.14178866320004685
0.7345664911585917 0.12545489546752783
0.7151135206836443 0.07645359226997078
0.6762075797337493 0.027452289072413736
0.6762075797337493 0.07645359226997078
0.6956605502086968 0.0927873600024898
0.6762075797337493 0.12545489546752783
0.6567546092588018 0.07645359226997078
0.7345664911585917 0.07645359226997078
0.6762075797337493 0.060119824537451766
0.6373016387838544 0.027452289072413736
0.6762075797337493 0.10912112773500882
0.6956605502086968 0.12545489546752783
0.6956605502086968 0.0927873600024898
0.6567546092588018 0.060119824537451766
0.5983956978339594 0.027452289072413736
0.6178486683089068 0.04378605680493275
0.6762075797337493 0.0927873600024898
0.7345664911585917 0.12545489546752783
0.7151135206836443 0.07645359226997078
0.6762075797337493 -0.0052152463926242966
0.6373016387838544 -0.0052152463926242966
0.6567546092588018 0.04378605680493275
0.6178486683089068 0.060119824537451766
0.7151135206836443 0.07645359226997078
0.7151135206836443 0.07645359226997078
0.7345664911585917 0.060119824537451766
0.6178486683089068 0.027452289072413736
0.5789427273590119 -0.0052152463926242966
0.5789427273590119 0.060119824537451766
0.6762075797337493 0.060119824537451766
0.6956605502086968 0.027452289072413736
0.6373016387838544 0.027452289072413736
0.6373016387838544 -0.02154901412514331
0.5789427273590119 -0.0052152463926242966
0.6178486683089068 0.060119824537451766
0.6762075797337493 0.07645359226997078
0.6956605502086968 0.060119824537451766
0.7345664911585917 0.01111852133989472
0.6178486683089068 -0.0052152463926242966
0.6567546092588018 -0.02154901412514331
0.6956605502086968 0.060119824537451766
0.6762075797337493 0.0927873600024898
0.7151135206836443 0.04378605680493275
0.6762075797337493 0.027452289072413736
0.6567546092588018 0.027452289072413736
0.6373016387838544 0.060119824537451766
0.6373016387838544 0.12545489546752783
0.6762075797337493 0.14178866320004685
0.6956605502086968 0.12545489546752783
0.6956605502086968 0.10912112773500882
0.7540194616335393 0.12545489546752783
0.7151135206836443 0.14178866320004685
0.8123783730583817 0.14178866320004685
0.8318313435333291 0.25612503732767994
0.8901902549581716 0.2234575018626419
0.8512843140082766 0.15812243093256587
0.8512843140082766 0.10912112773500882
0.8512843140082766 0.07645359226997078
0.909643225433119 0.10912112773500882
0.987455107332909 0.07645359226997078
1.0069080778078565 0.04378605680493275
0.9680021368579615 0.01111852133989472
0.909643225433119 -0.10321785278773839
0.8707372844832241 -0.03788278185766233
0.8707372844832241 -0.03788278185766233
0.8318313435333291 -0.0052152463926242966
0.8512843140082766 -0.054216549590181344
0.8512843140082766 -0.1358853882527764
0.8512843140082766 -0.20122045918285247
0.7929254025834341 -0.2175542269153715
0.7540194616335393 -0.18488669145033346
0.8123783730583817 -0.15221915598529542
0.8123783730583817 -0.16855292371781444
0.7345664911585917 -0.2338879946478905
0.6956605502086968 -0.25022176238040955
0.5789427273590119 -0.2175542269153715
0.6373016387838544 -0.20122045918285247
0.6567546092588018 -0.16855292371781444
0.6762075797337493 -0.16855292371781444
0.7151135206836443 -0.2175542269153715
0.5983956978339594 -0.2175542269153715
0.5594897568840644 -0.1358853882527764
0.5983956978339594 -0.03788278185766233
0.5789427273590119 -0.03788278185766233
0.5983956978339594 -0.07055031732270035
0.5205838159341695 -0.08688408505521937
0.462224904509327 -0.10321785278773839
0.4233189635594321 -0.07055031732270035
0.501130845459222 -0.03788278185766233
0.5205838159341695 0.01111852133989472
0.5594897568840644 -0.0052152463926242966
0.501130845459222 -0.10321785278773839
0.4233189635594321 -0.1358853882527764
0.4038659930844846 -0.08688408505521937
0.38441302260953714 -0.07055031732270035
0.4816778749842745 0.01111852133989472
0.5205838159341695 -0.03788278185766233
0.540036786409117 -0.08688408505521937
0.38441302260953714 -0.10321785278773839
0.38441302260953714 -0.054216549590181344
0.4427719340343796 -0.02154901412514331
0.462224904509327 0.027452289072413736
0.462224904509327 -0.0052152463926242966
0.462224904509327 -0.1195516205202574
0.4233189635594321 -0.10321785278773839
0.4038659930844846 -0.07055031732270035
0.4233189635594321 -0.03788278185766233
0.5205838159341695 0.027452289072413736
0.540036786409117 -0.054216549590181344
0.4816778749842745 -0.07055031732270035
0.501130845459222 -0.10321785278773839
0.4427719340343796 -0.1358853882527764
0.462224904509327 -0.07055031732270035
0.462224904509327 -0.03788278185766233
0.5205838159341695 -0.03788278185766233
0.540036786409117 -0.1195516205202574
0.4816778749842745 -0.16855292371781444
0.4816778749842745 -0.1358853882527764
0.5205838159341695 -0.15221915598529542
0.5983956978339594 -0.1358853882527764
0.6178486683089068 -0.16855292371781444
0.6178486683089068 -0.2992230655779666
0.6373016387838544 -0.4952282783681948
0.6956605502086968 -0.7402347943559799
0.8123783730583817 -1.0342426135413223
0.9680021368579615 -1.4099192713892597
1.1430788711324888 -1.883598535632311
1.395967487306806 -2.4226128708054384
1.7072150149059657 -2.89629213504849
2.0962744244049154 -3.3046363283614655
2.6409575977034447 -3.5659766120817697
3.146734830052079 -3.745648057139479
3.4190764167013437 -3.7783155926045167
3.5747001805009235 -3.745648057139479
3.555247210025976 -3.6476454507443647
3.3996234462263963 -3.631311683011846
3.2829056233767115 -3.5823103798142886
3.2050937414769214 -3.4679740056866555
3.0689229481522893 -3.3699713992915417
3.010564036727447 -3.2719687928964274
3.1661878005270268 -3.141298651036275
3.3607175052765013 -3.026962276908642
3.7692298852503985 -2.847290831850933
4.313913058548928 -2.7166206899907808
4.722425438522825 -2.618618083595667
4.99476702517209 -2.618618083595667
5.169843759446617 -2.5206154772005527
5.092031877546827 -2.4226128708054384
4.878049202322405 -2.2266076580152103
4.488989792823455 -2.014268677492463
4.177742265224295 -1.834597232434754
3.8859477081000833 -1.687593322842083
3.6525120624007137 -1.4425868068542977
3.3218115643266066 -1.2792491295291075
3.010564036727447 -1.0015750780762842
2.699316509128287 -0.821903633018575
2.3491630405792323 -0.6585659556933849
1.921197690130388 -0.47889451063567573
1.3376085758819636 -0.3318906010430046
0.9290961959080666 -0.1358853882527764
0.540036786409117 0.12545489546752783
0.2287892588099573 0.305126340525237
0.01480658358553503 0.35412764372279404
-0.10191123926414984 0.35412764372279404
-0.2186290621138347 0.4194627146528701
-0.2380820325887822 0.45213025011790814
-0.1408171802140448 0.5011315533154652
-0.08245826878920236 0.5828003919780602
-0.004646386889412448 0.5664666242455413
-0.024099357364359926 0.5991341597105793
-0.004646386889412448 0.5664666242455413
-0.08245826878920236 0.6154679274430983
-0.06300529831425489 0.6318016951756174
0.01480658358553503 0.6481354629081363
0.01480658358553503 0.6481354629081363
-0.004646386889412448 0.5991341597105793
-0.06300529831425489 0.5828003919780602
-0.12136420973909733 0.6154679274430983
-0.08245826878920236 0.6971367661056934
-0.0435523278393074 0.7298043015707314
-0.024099357364359926 0.7461380693032504
-0.024099357364359926 0.7624718370357694
-0.06300529831425489 0.7298043015707314
-0.06300529831425489 0.7461380693032504
-0.06300529831425489 0.8114731402333265
0.01480658358553503 0.8278069079658454
0.05371252453542999 0.8441406756983645
-0.0435523278393074 0.8114731402333265
-0.10191123926414984 0.7788056047682884
-0.08245826878920236 0.8278069079658454
-0.024099357364359926 0.8931419788959215
0.01480658358553503 0.9094757466284406
0.03425955406048251 0.8931419788959215
-0.024099357364359926 0.8604744434308835
-0.024099357364359926 0.8768082111634026
-0.06300529831425489 0.8768082111634026
-0.0435523278393074 0.9258095143609596
0.05371252453542999 0.9911445852910357
0.11207143596027243 0.9748108175585166
0.09261846548532494 0.9911445852910357
0.01480658358553503 0.9421432820934786
0.03425955406048251 1.0074783530235547
0.09261846548532494 1.0401458884885928
0.18988331786006235 1.1381484948837068
0.2287892588099573 1.0891471916861497
0.2287892588099573 1.1218147271511878
0.2093362883350098 1.0891471916861497
0.2093362883350098 1.1218147271511878
0.17043034738511487 1.1381484948837068
0.3066011407097472 1.2034835658137828
0.34550708165964217 1.2361511012788209
0.34550708165964217 1.1871497980812638
0.34550708165964217 1.1054809594186688
0.34550708165964217 1.1381484948837068
0.38441302260953714 1.1871497980812638
0.462224904509327 1.25248486901134
0.501130845459222 1.2034835658137828
0.540036786409117 1.25248486901134
0.540036786409117 1.2361511012788209
0.5789427273590119 1.2361511012788209
0.6567546092588018 1.2361511012788209
0.7734724321084867 1.268818636743859
0.8707372844832241 1.268818636743859
0.8901902549581716 1.1708160303487447
0.8707372844832241 1.0891471916861497
0.8318313435333291 1.0728134239536307
0.909643225433119 1.0564796562211116
1.0458140187577514 1.0728134239536307
1.1236259006575413 0.9584770498259976
1.1625318416074364 0.8931419788959215
1.1625318416074364 0.7788056047682884
1.1819848120823837 0.6971367661056934
1.2208907530322788 0.6644692306406553
1.4543263987316484 0.6154679274430983
1.512685310156491 0.5011315533154652
1.6099501625312282 0.38679517918783207
1.6294031330061758 0.321460108257756
1.7266679853809133 0.28879257279271797
1.8239328377556505 0.25612503732767994
1.921197690130388 0.28879257279271797
1.9601036310802828 0.20712373413012292
1.9406506606053355 0.12545489546752783
1.9017447196554405 0.04378605680493275
1.8628387787055456 0.060119824537451766
1.843385808230598 0.0927873600024898
1.8239328377556505 0.0927873600024898
1.843385808230598 0.07645359226997078
1.6877620444310182 0.04378605680493275
1.5710442215813334 0.01111852133989472
1.3765145168318587 -0.02154901412514331
1.3570615463569111 0.07645359226997078
1.318155605407016 0.10912112773500882
1.2208907530322788 0.027452289072413736
1.2014377825573312 -0.0052152463926242966
1.065266989232699 -0.02154901412514331
0.909643225433119 0.01111852133989472
0.8707372844832241 0.060119824537451766
0.8512843140082766 0.060119824537451766
0.8123783730583817 0.060119824537451766
0.7540194616335393 0.04378605680493275
0.6567546092588018 -0.02154901412514331
0.5789427273590119 0.01111852133989472
0.6178486683089068 0.04378605680493275
0.6567546092588018 0.10912112773500882
0.6567546092588018 0.07645359226997078
0.6373016387838544 0.04378605680493275
0.5789427273590119 -0.0052152463926242966
0.5205838159341695 0.027452289072413736
0.4816778749842745 0.07645359226997078
0.540036786409117 0.14178866320004685
0.5205838159341695 0.10912112773500882
0.5205838159341695 0.07645359226997078
0.462224904509327 0.060119824537451766
0.4233189635594321 0.04378605680493275
0.4038659930844846 0.12545489546752783
0.5205838159341695 0.12545489546752783
0.540036786409117 0.12545489546752783
0.540036786409117 0.0927873600024898
0.4427719340343796 0.060119824537451766
0.4427719340343796 0.07645359226997078
0.4816778749842745 0.0927873600024898
0.5205838159341695 0.14178866320004685
0.5789427273590119 0.17445619866508488
0.5594897568840644 0.12545489546752783
0.501130845459222 0.0927873600024898
0.462224904509327 0.14178866320004685
0.4427719340343796 0.1907899663976039
0.5205838159341695 0.1907899663976039
0.540036786409117 0.1907899663976039
0.5594897568840644 0.17445619866508488
0.5205838159341695 0.17445619866508488
0.4233189635594321 0.17445619866508488
0.462224904509327 0.2234575018626419
0.5594897568840644 0.1907899663976039
0.5983956978339594 0.15812243093256587
0.5594897568840644 0.15812243093256587
0.501130845459222 0.10912112773500882
0.462224904509327 0.1907899663976039
0.501130845459222 0.1907899663976039
0.5594897568840644 0.23979126959516092
0.5789427273590119 0.20712373413012292
0.5594897568840644 0.25612503732767994
0.540036786409117 0.23979126959516092
0.4816778749842745 0.23979126959516092
0.4816778749842745 0.272458805060199
0.540036786409117 0.305126340525237
0.5594897568840644 0.28879257279271797
0.5789427273590119 0.28879257279271797
0.462224904509327 0.20712373413012292
0.4816778749842745 0.25612503732767994
0.501130845459222 0.28879257279271797
0.5594897568840644 0.28879257279271797
0.6373016387838544 0.321460108257756
0.5789427273590119 0.28879257279271797
0.540036786409117 0.25612503732767994
0.4427719340343796 0.25612503732767994
0.501130845459222 0.305126340525237
0.540036786409117 0.3704614114553131
0.5789427273590119 0.321460108257756
0.5983956978339594 0.2234575018626419
0.462224904509327 0.23979126959516092
0.462224904509327 0.25612503732767994
0.4427719340343796 0.305126340525237
0.501130845459222 0.33779387599027505
0.501130845459222 0.305126340525237
0.4816778749842745 0.305126340525237
0.501130845459222 0.2234575018626419
0.4816778749842745 0.23979126959516092
0.5594897568840644 0.28879257279271797
0.6373016387838544 0.321460108257756
0.6178486683089068 0.35412764372279404
0.6178486683089068 0.305126340525237
0.5594897568840644 0.25612503732767994
0.5594897568840644 0.2234575018626419
0.5594897568840644 0.321460108257756
0.6178486683089068 0.3704614114553131
0.6178486683089068 0.3704614114553131
0.5594897568840644 0.3704614114553131
0.5205838159341695 0.28879257279271797
0.5205838159341695 0.305126340525237
0.540036786409117 0.3704614114553131
0.5789427273590119 0.38679517918783207
0.6178486683089068 0.38679517918783207
0.6178486683089068 0.38679517918783207
0.6178486683089068 0.38679517918783207
0.501130845459222 0.38679517918783207
0.5205838159341695 0.5174653210479842
0.6178486683089068 0.5174653210479842
0.6956605502086968 0.5174653210479842
0.7540194616335393 0.46846401785042713
0.6567546092588018 0.4357964823853891
0.6567546092588018 0.40312894692035106
0.6567546092588018 0.46846401785042713
0.7929254025834341 0.46846401785042713
0.8512843140082766 0.4847977855829462
0.8318313435333291 0.4357964823853891
0.7540194616335393 0.4357964823853891
0.7151135206836443 0.45213025011790814
0.8123783730583817 0.4357964823853891
0.948549166383014 0.45213025011790814
1.0263610482828038 0.4357964823853891
1.065266989232699 0.35412764372279404
1.0069080778078565 0.35412764372279404
0.9290961959080666 0.321460108257756
0.909643225433119 0.35412764372279404
1.0069080778078565 0.38679517918783207
1.0458140187577514 0.33779387599027505
1.0847199597076465 0.28879257279271797
0.987455107332909 0.20712373413012292
0.948549166383014 0.25612503732767994
0.8318313435333291 0.321460108257756
0.8707372844832241 0.38679517918783207
0.909643225433119 0.33779387599027505
0.948549166383014 0.305126340525237
0.8707372844832241 0.20712373413012292
0.7734724321084867 0.23979126959516092
0.8123783730583817 0.25612503732767994
0.8901902549581716 0.33779387599027505
0.909643225433119 0.3704614114553131
0.8512843140082766 0.33779387599027505
0.7540194616335393 0.321460108257756
0.7734724321084867 0.33779387599027505
0.7929254025834341 0.4194627146528701
0.8318313435333291 0.4357964823853891
0.8901902549581716 0.46846401785042713
0.8707372844832241 0.4847977855829462
0.8123783730583817 0.4847977855829462
0.6956605502086968 0.46846401785042713
0.6956605502086968 0.5501328565130222
0.8123783730583817 0.5501328565130222
0.8512843140082766 0.5011315533154652
0.8901902549581716 0.5174653210479842
0.8318313435333291 0.5174653210479842
0.7734724321084867 0.5828003919780602
0.7734724321084867 0.5991341597105793
0.8123783730583817 0.5828003919780602
0.7929254025834341 0.5664666242455413
0.7540194616335393 0.5174653210479842
0.7929254025834341 0.4847977855829462
0.7345664911585917 0.5174653210479842
0.7345664911585917 0.5501328565130222
0.8123783730583817 0.6318016951756174
0.8318313435333291 0.6154679274430983
0.8512843140082766 0.5828003919780602
0.7734724321084867 0.5664666242455413
0.7345664911585917 0.5828003919780602
0.7540194616335393 0.6481354629081363
0.8707372844832241 0.6481354629081363
0.909643225433119 0.6481354629081363
0.909643225433119 0.5828003919780602
0.8901902549581716 0.5664666242455413
0.8318313435333291 0.5337990887805032
0.909643225433119 0.5991341597105793
0.9680021368579615 0.6808029983731744
0.948549166383014 0.6481354629081363
0.987455107332909 0.6318016951756174
0.8901902549581716 0.5664666242455413
0.8707372844832241 0.6154679274430983
0.948549166383014 0.5991341597105793
0.987455107332909 0.6318016951756174
1.0847199597076465 0.5828003919780602
1.0458140187577514 0.5501328565130222
1.0458140187577514 0.4847977855829462
1.065266989232699 0.4357964823853891
1.1041729301825938 0.33779387599027505
1.318155605407016 0.0927873600024898
1.4543263987316484 -0.2338879946478905
1.5904971920562807 -0.6912334911584229
1.7072150149059657 -1.1485789876689554
1.9406506606053355 -1.6059244841794877
2.329710070104285 -1.981601142027425
2.8743932434028143 -2.2919427289452865
3.3607175052765013 -2.6022843158631477
3.671965032875661 -2.847290831850933
3.827588796675241 -2.847290831850933
3.9443066195249257 -2.749288225455819
3.9443066195249257 -2.6349518513281858
3.788682855725346 -2.6512856190607046
3.6136061214508186 -2.6349518513281858
3.4190764167013437 -2.585950548130629
3.3607175052765013 -2.4716141740029958
3.4385293871762914 -2.3082764966778053
3.749776914775451 -2.161272587085134
4.158289294749348 -1.965267374294906
4.722425438522825 -1.883598535632311
5.07257890707188 -1.883598535632311
5.364373464196092 -1.801929696969716
5.539450198470619 -1.687593322842083
5.617262080370409 -1.5405894132494118
5.442185346095882 -1.3282504327266644
5.092031877546827 -1.1485789876689554
4.68351949757293 -0.9362400071462081
4.3528189994988224 -0.723901026623461
4.0610244423746105 -0.47889451063567573
3.749776914775451 -0.2175542269153715
3.4579823576512387 0.01111852133989472
2.991111066252499 0.1907899663976039
2.485333833903865 0.3704614114553131
2.037915512980073 0.5501328565130222
1.5710442215813334 0.7298043015707314
1.240343723507226 0.9421432820934786
1.0069080778078565 1.1218147271511878
0.8901902549581716 1.2034835658137828
0.7540194616335393 1.285152404476378
0.7151135206836443 1.25248486901134
0.7151135206836443 1.3178199399414159
0.8123783730583817 1.383155010871492
0.909643225433119 1.432156314069049
1.0069080778078565 1.464823849534087
1.0069080778078565 1.4974913849991252
1.0263610482828038 1.481157617266606
0.9290961959080666 1.562826455929201
0.948549166383014 1.6281615268592773
0.9680021368579615 1.6608290623243154
1.0069080778078565 1.6281615268592773
0.987455107332909 1.6281615268592773
0.987455107332909 1.562826455929201
1.0069080778078565 1.5954939913942392
1.0458140187577514 1.6608290623243154
1.1041729301825938 1.7261641332543913
1.1819848120823837 1.7751654364519485
1.2014377825573312 1.7261641332543913
1.1041729301825938 1.6771628300568342
1.1041729301825938 1.7261641332543913
1.0458140187577514 1.8241667396495054
1.240343723507226 1.8405005073820244
1.318155605407016 1.8241667396495054
1.2987026349320687 1.8078329719169863
1.240343723507226 1.8078329719169863
1.2208907530322788 1.8241667396495054
1.2987026349320687 1.8895018105795816
1.3376085758819636 1.9711706492421766
1.3765145168318587 1.9711706492421766
1.395967487306806 1.9548368815096575
1.395967487306806 1.9221693460446194
1.4154204577817535 1.9548368815096575
1.4154204577817535 1.9711706492421766
1.473779369206596 2.0691732556372906
1.4932323396815435 2.0528394879047718
1.5515912511063858 2.0691732556372906
1.5710442215813334 2.0365057201722525
1.4932323396815435 2.1018407911023287
1.5904971920562807 2.1508420942998856
1.6099501625312282 2.199843397497443
1.6683090739560706 2.1835096297649237
1.7072150149059657 2.2325109329624806
1.7072150149059657 2.199843397497443
1.7655739263308081 2.199843397497443
1.7655739263308081 2.2325109329624806
1.8628387787055456 2.314179771625076
1.9406506606053355 2.330513539357595
1.9601036310802828 2.314179771625076
1.9406506606053355 2.281512236160038
1.882291749180493 2.314179771625076
1.9406506606053355 2.395848610287671
2.0184625425051252 2.526518752147823
2.0962744244049154 2.461183681217747
2.13518036535481 2.461183681217747
2.193539276779653 2.395848610287671
2.174086306304705 2.41218237802019
2.2713511586794426 2.41218237802019
2.3491630405792323 2.461183681217747
2.504786804378812 2.428516145752709
2.52423977485376 2.3795148425551518
2.504786804378812 2.346847307090114
2.52423977485376 2.314179771625076
2.5631457158036546 2.330513539357595
2.67986353865334 2.363181074822633
2.7187694796032345 2.281512236160038
2.738222450078182 2.1345083265673668
2.738222450078182 2.0201719524397337
2.7965813615030246 1.9711706492421766
2.8743932434028143 1.9058355783121006
3.030017007202394 1.8895018105795816
3.146734830052079 1.7588316687194294
3.185640771001974 1.7588316687194294
3.1661878005270268 1.7098303655218723
3.185640771001974 1.7261641332543913
3.263452652901764 1.6771628300568342
3.3607175052765013 1.6118277591267582
3.4190764167013437 1.5791602236617202
3.4190764167013437 1.546492688196682
3.3607175052765013 1.464823849534087
3.341264534801554 1.481157617266606
3.263452652901764 1.481157617266606
3.2829056233767115 1.5301589204641632
3.263452652901764 1.5301589204641632
3.1661878005270268 1.464823849534087
3.0689229481522893 1.399488778604011
2.9132991843527094 1.4974913849991252
2.8354873024529192 1.5138251527316442
2.7965813615030246 1.562826455929201
2.699316509128287 1.5138251527316442
2.660410568178392 1.5301589204641632
2.5436927453287073 1.481157617266606
2.4658808634289175 1.448490081801568
2.36861601105418 1.4974913849991252
2.504786804378812 1.546492688196682
2.485333833903865 1.4974913849991252
2.3491630405792323 1.5138251527316442
2.3880689815291274 1.481157617266606
2.2713511586794426 1.481157617266606
2.2324452177295475 1.5138251527316442
2.29080412915439 1.5301589204641632
2.3102570996293377 1.562826455929201
2.2713511586794426 1.5301589204641632
2.174086306304705 1.5138251527316442
2.13518036535481 1.4974913849991252
2.13518036535481 1.5791602236617202
2.193539276779653 1.6281615268592773
2.2129922472546 1.6934965977893532
2.2324452177295475 1.6934965977893532
2.193539276779653 1.6444952945917963
2.0962744244049154 1.5954939913942392
2.0962744244049154 1.5954939913942392
2.13518036535481 1.6608290623243154
2.154633335829758 1.6281615268592773
2.174086306304705 1.5791602236617202
2.0962744244049154 1.5138251527316442
2.0768214539299676 1.5138251527316442
2.13518036535481 1.4974913849991252
2.2129922472546 1.5791602236617202
2.2324452177295475 1.6281615268592773
2.154633335829758 1.5954939913942392
2.13518036535481 1.5954939913942392
2.1157273948798627 1.5954939913942392
2.13518036535481 1.6444952945917963
2.174086306304705 1.7098303655218723
2.2713511586794426 1.7424979009869104
2.2713511586794426 1.7588316687194294
2.2324452177295475 1.7914992041844673
2.13518036535481 1.8241667396495054
2.174086306304705 1.8895018105795816
2.2324452177295475 1.9058355783121006
2.29080412915439 1.7914992041844673
2.2324452177295475 1.6608290623243154
2.193539276779653 1.5138251527316442
2.0962744244049154 1.464823849534087
2.0573684834550203 1.546492688196682
2.154633335829758 1.6444952945917963
2.2129922472546 1.6934965977893532
2.2129922472546 1.6771628300568342
2.193539276779653 1.6281615268592773
2.1157273948798627 1.6934965977893532
2.154633335829758 1.6934965977893532
2.2324452177295475 1.7914992041844673
2.2713511586794426 1.7261641332543913
2.2129922472546 1.7098303655218723
2.2129922472546 1.6934965977893532
2.174086306304705 1.6934965977893532
2.174086306304705 1.7588316687194294
2.174086306304705 1.7261641332543913
2.2713511586794426 1.7424979009869104
2.2129922472546 1.7098303655218723
2.154633335829758 1.6934965977893532
2.0184625425051252 1.7261641332543913
2.0573684834550203 1.8078329719169863
2.154633335829758 1.8241667396495054
2.174086306304705 1.8405005073820244
2.174086306304705 1.7751654364519485
2.13518036535481 1.7098303655218723
2.0573684834550203 1.7588316687194294
2.0768214539299676 1.7914992041844673
2.174086306304705 1.7588316687194294
2.2129922472546 1.7588316687194294
2.174086306304705 1.7424979009869104
2.154633335829758 1.7261641332543913
2.0768214539299676 1.7751654364519485
2.1157273948798627 1.8405005073820244
2.193539276779653 1.8731680428470625
2.2129922472546 1.8241667396495054
2.174086306304705 1.7751654364519485
2.1157273948798627 1.7588316687194294
2.0962744244049154 1.7588316687194294
2.13518036535481 1.7588316687194294
2.174086306304705 1.8241667396495054
2.193539276779653 1.8078329719169863
2.193539276779653 1.8241667396495054
2.154633335829758 1.7914992041844673
2.13518036535481 1.8078329719169863
2.0962744244049154 1.8568342751145435
2.13518036535481 1.8895018105795816
2.174086306304705 1.9385031137771385
2.193539276779653 1.8895018105795816
2.174086306304705 1.8731680428470625
2.193539276779653 1.9058355783121006
2.2324452177295475 1.9058355783121006
2.29080412915439 1.9548368815096575
2.3491630405792323 1.9548368815096575
2.329710070104285 1.9385031137771385
2.329710070104285 1.9221693460446194
2.2713511586794426 1.9548368815096575
2.2713511586794426 1.9711706492421766
2.29080412915439 1.9221693460446194
2.3102570996293377 1.9221693460446194
2.36861601105418 1.8568342751145435
2.4075219520040747 1.7751654364519485
2.3102570996293377 1.8241667396495054
2.36861601105418 1.8568342751145435
2.3880689815291274 1.8895018105795816
2.4658808634289175 1.8241667396495054
2.4075219520040747 1.7588316687194294
2.329710070104285 1.7098303655218723
2.2518981882044953 1.6934965977893532
2.2324452177295475 1.7424979009869104
2.2713511586794426 1.7751654364519485
2.3102570996293377 1.7424979009869104
2.2518981882044953 1.6934965977893532
2.13518036535481 1.6281615268592773
2.13518036535481 1.6934965977893532
2.154633335829758 1.6934965977893532
2.193539276779653 1.7424979009869104
2.193539276779653 1.7424979009869104
2.13518036535481 1.7098303655218723
2.0962744244049154 1.6608290623243154
2.0573684834550203 1.6608290623243154
2.0768214539299676 1.6934965977893532
2.0962744244049154 1.8078329719169863
2.154633335829758 1.8405005073820244
2.1157273948798627 1.8568342751145435
2.037915512980073 1.8078329719169863
1.9795566015552304 1.7751654364519485
1.9406506606053355 1.7751654364519485
1.9601036310802828 1.8568342751145435
2.0184625425051252 1.8731680428470625
1.9795566015552304 1.8895018105795816
1.999009572030178 1.8731680428470625
1.921197690130388 1.8241667396495054
1.921197690130388 1.8731680428470625
1.9601036310802828 1.8731680428470625
1.9795566015552304 1.9221693460446194
1.921197690130388 1.8405005073820244
1.921197690130388 1.8568342751145435
1.843385808230598 1.8895018105795816
1.7850268968057557 1.8731680428470625
1.8628387787055456 1.9548368815096575
1.9406506606053355 1.9385031137771385
1.9017447196554405 1.9058355783121006
1.8628387787055456 1.8731680428470625
1.843385808230598 1.8568342751145435
1.843385808230598 1.8568342751145435
1.9406506606053355 1.8568342751145435
1.9601036310802828 1.8405005073820244
1.882291749180493 1.8241667396495054
1.8239328377556505 1.7751654364519485
1.7461209558558606 1.8078329719169863
1.8239328377556505 1.8568342751145435
1.882291749180493 1.9385031137771385
1.9795566015552304 1.9058355783121006
1.8628387787055456 1.8078329719169863
1.882291749180493 1.7751654364519485
1.8239328377556505 1.7751654364519485
1.8628387787055456 1.8568342751145435
1.9017447196554405 1.8568342751145435
1.9601036310802828 1.8241667396495054
1.9601036310802828 1.7424979009869104
1.9017447196554405 1.6771628300568342
1.921197690130388 1.5138251527316442
2.0184625425051252 1.25248486901134
2.1157273948798627 0.8931419788959215
2.2713511586794426 0.35412764372279404
2.5631457158036546 -0.15221915598529542
2.777128391028077 -0.6258984202283469
3.0883759186272366 -1.1159114522039173
3.5747001805009235 -1.5079218777843737
4.0610244423746105 -1.818263464702235
4.469536822348507 -1.9489336065623872
4.644613556623035 -1.9325998388298682
4.741878408997772 -1.867264767899792
4.566801674723245 -1.850931000167273
4.333366029023876 -1.801929696969716
4.236101176649138 -1.687593322842083
4.177742265224295 -1.6222582519120068
4.255554147124085 -1.4915881100518547
4.5278957337733505 -1.3772517359242216
4.936408113747247 -1.1975802908665125
5.461638316570829 -1.0505763812738413
5.967415548919464 -0.8872387039486511
6.37592792889336 -0.8545711684836131
6.512098722217993 -0.772902329821018
6.317569017468518 -0.6585659556933849
5.8701506965447265 -0.4952282783681948
5.500544257520724 -0.20122045918285247
5.130937818496722 0.07645359226997078
4.800237320422615 0.321460108257756
4.391724940448718 0.5828003919780602
3.8859477081000833 0.7951393725008075
3.3218115643266066 1.0401458884885928
2.816034331977972 1.3014861722088968
2.3491630405792323 1.5791602236617202
1.9406506606053355 1.7751654364519485
1.5904971920562807 1.9058355783121006
1.318155605407016 2.0201719524397337
1.1041729301825938 2.1181745588348475
1.065266989232699 2.2651784684275187
1.1430788711324888 2.346847307090114
1.2208907530322788 2.428516145752709
1.2014377825573312 2.41218237802019
1.1819848120823837 2.3795148425551518
1.2014377825573312 2.428516145752709
1.240343723507226 2.493851216682785
1.2792496644571212 2.510184984415304
1.240343723507226 2.542852519880342
1.1430788711324888 2.542852519880342
1.065266989232699 2.526518752147823
0.987455107332909 2.5755200553453803
1.065266989232699 2.624521358542937
1.1625318416074364 2.6898564294730134
1.2208907530322788 2.673522661740494
1.2208907530322788 2.673522661740494
1.0263610482828038 2.6898564294730134
1.0458140187577514 2.6898564294730134
0.9680021368579615 2.755191500403089
0.948549166383014 2.7715252681356084
1.0458140187577514 2.7878590358681272
1.0847199597076465 2.7388577326705703
1.1625318416074364 2.706190197205532
1.0847199597076465 2.6898564294730134
1.1236259006575413 2.7878590358681272
1.1625318416074364 2.8368603390656846
1.1819848120823837 2.8531941067982034
1.1625318416074364 2.8531941067982034
1.0263610482828038 2.8041928036006465
1.0069080778078565 2.8531941067982034
1.0069080778078565 2.8858616422632415
1.1041729301825938 2.9511967131933177
1.1430788711324888 2.9348629454607984
1.1819848120823837 2.9511967131933177
1.1430788711324888 2.9348629454607984
1.1236259006575413 2.9675304809258365
1.1625318416074364 3.0491993195884315
1.240343723507226 3.0818668550534696
1.2792496644571212 3.1308681582510265
1.318155605407016 3.0982006227859884
1.240343723507226 3.0655330873209508
1.1625318416074364 3.0655330873209508
1.2792496644571212 3.0982006227859884
1.3765145168318587 3.1635356937160646
1.4932323396815435 3.1635356937160646
1.4932323396815435 3.1635356937160646
1.473779369206596 3.1472019259835458
1.3765145168318587 3.1145343905185077
1.434873428256701 3.1962032291811027
1.512685310156491 3.3105396033087358
1.6099501625312282 3.2778720678436977
1.6294031330061758 3.261538300111179
1.6294031330061758 3.2452045323786596
1.5515912511063858 3.1962032291811027
1.6683090739560706 3.2288707646461408
1.7461209558558606 3.294205835576217
1.9017447196554405 3.2778720678436977
1.8239328377556505 3.212536996913622
1.843385808230598 3.1472019259835458
1.8239328377556505 3.0982006227859884
1.8239328377556505 3.1145343905185077
1.921197690130388 3.1308681582510265
2.0184625425051252 3.0491993195884315
2.0184625425051252 2.9348629454607984
1.9795566015552304 2.8368603390656846
2.0184625425051252 2.755191500403089
2.0573684834550203 2.7225239649380515
2.154633335829758 2.6571888940079753
2.29080412915439 2.510184984415304
2.2518981882044953 2.395848610287671
2.29080412915439 2.2978460038925568
2.29080412915439 2.2325109329624806
2.3491630405792323 2.167175862032405
2.4269749224790225 2.167175862032405
2.44642789295397 2.1345083265673668
2.44642789295397 2.0691732556372906
2.3880689815291274 2.0201719524397337
2.36861601105418 1.9875044169746956
2.329710070104285 2.0201719524397337
2.2713511586794426 1.9875044169746956
2.2713511586794426 1.9711706492421766
2.174086306304705 1.9221693460446194
2.0573684834550203 1.8568342751145435
1.9406506606053355 1.8895018105795816
1.9017447196554405 1.8731680428470625
1.7850268968057557 1.9385031137771385
1.7461209558558606 1.8731680428470625
1.6877620444310182 1.8731680428470625
1.5515912511063858 1.8078329719169863
1.4154204577817535 1.8405005073820244
1.318155605407016 1.8731680428470625
1.318155605407016 1.8568342751145435
1.318155605407016 1.8895018105795816
1.2987026349320687 1.8405005073820244
1.2208907530322788 1.8241667396495054
1.1430788711324888 1.8078329719169863
1.0847199597076465 1.8078329719169863
1.0847199597076465 1.8731680428470625
1.1625318416074364 1.8568342751145435
1.065266989232699 1.8405005073820244
0.987455107332909 1.7588316687194294
0.8901902549581716 1.7424979009869104
0.8901902549581716 1.8241667396495054
0.9290961959080666 1.8568342751145435
0.9680021368579615 1.8078329719169863
0.909643225433119 1.8078329719169863
0.8901902549581716 1.7914992041844673
0.7929254025834341 1.7424979009869104
0.7734724321084867 1.7914992041844673
0.8512843140082766 1.7914992041844673
0.8901902549581716 1.7914992041844673
0.8123783730583817 1.7751654364519485
0.7151135206836443 1.7098303655218723
0.6956605502086968 1.7424979009869104
0.7151135206836443 1.7751654364519485
0.7345664911585917 1.8078329719169863
0.7345664911585917 1.8241667396495054
0.6762075797337493 1.8078329719169863
0.6567546092588018 1.7261641332543913
0.5789427273590119 1.7261641332543913
0.5983956978339594 1.7588316687194294
0.6373016387838544 1.7751654364519485
0.6567546092588018 1.8078329719169863
0.6178486683089068 1.7751654364519485
0.5983956978339594 1.7424979009869104
0.540036786409117 1.7261641332543913
0.4816778749842745 1.7424979009869104
0.540036786409117 1.7751654364519485
0.5983956978339594 1.7751654364519485
0.5789427273590119 1.7588316687194294
0.5594897568840644 1.6771628300568342
0.4233189635594321 1.6771628300568342
0.462224904509327 1.7261641332543913
0.501130845459222 1.6771628300568342
0.540036786409117 1.6771628300568342
0.4816778749842745 1.6771628300568342
0.4038659930844846 1.6281615268592773
0.34550708165964217 1.6281615268592773
0.36496005213458965 1.6444952945917963
0.4038659930844846 1.7424979009869104
0.4233189635594321 1.7261641332543913
0.38441302260953714 1.6771628300568342
0.36496005213458965 1.6281615268592773
0.24824222928490478 1.5954939913942392
0.2287892588099573 1.6444952945917963
0.3066011407097472 1.6444952945917963
0.36496005213458965 1.6934965977893532
0.34550708165964217 1.6444952945917963
0.26769519975985223 1.562826455929201
0.18988331786006235 1.5954939913942392
0.2093362883350098 1.5791602236617202
0.18988331786006235 1.6281615268592773
0.2287892588099573 1.6118277591267582
0.18988331786006235 1.562826455929201
0.15097737691016738 1.464823849534087
0.1315244064352199 1.481157617266606
0.03425955406048251 1.546492688196682
0.07316549501037747 1.562826455929201
0.03425955406048251 1.5954939913942392
0.03425955406048251 1.5301589204641632
-0.0435523278393074 1.448490081801568
-0.06300529831425489 1.432156314069049
-0.0435523278393074 1.4974913849991252
-0.0435523278393074 1.5138251527316442
-0.024099357364359926 1.5138251527316442
-0.06300529831425489 1.4974913849991252
-0.1408171802140448 1.448490081801568
-0.19917609163888725 1.399488778604011
-0.2186290621138347 1.432156314069049
-0.19917609163888725 1.448490081801568
-0.2186290621138347 1.448490081801568
-0.29644094401362464 1.432156314069049
-0.3158939144885721 1.383155010871492
-0.3547998554384671 1.366821243138973
-0.3353468849635196 1.41582254633653
-0.3547998554384671 1.448490081801568
-0.3353468849635196 1.464823849534087
-0.3742528259134145 1.4974913849991252
-0.45206470781320446 1.432156314069049
-0.4909706487630994 1.448490081801568
-0.47151767828815194 1.5301589204641632
-0.393705796388362 1.546492688196682
-0.393705796388362 1.5954939913942392
-0.3742528259134145 1.5138251527316442
-0.393705796388362 1.4974913849991252
-0.47151767828815194 1.5138251527316442
-0.4131587668633095 1.5301589204641632
-0.45206470781320446 1.5301589204641632
-0.393705796388362 1.5791602236617202
-0.432611737338257 1.481157617266606
-0.4909706487630994 1.464823849534087
-0.5882355011378368 1.383155010871492
-0.5882355011378368 1.41582254633653
-0.5298765897129943 1.448490081801568
-0.5298765897129943 1.41582254633653
-0.5687825306628893 1.41582254633653
-0.5882355011378368 1.350487475406454
-0.6855003535125742 1.285152404476378
-0.7438592649374166 1.3014861722088968
-0.7633122354123641 1.3178199399414159
-0.8022181763622591 1.268818636743859
-0.8994830287369965 1.2361511012788209
-0.9772949106367864 1.1544822626162259
-1.035653822061629 1.1054809594186688
-1.1134657039614186 1.1381484948837068
-1.1718246153862613 1.1708160303487447
-1.2496364972860512 1.1708160303487447
-1.2496364972860512 1.1218147271511878
-1.327448379185841 1.1054809594186688
-1.4636191725104735 1.1054809594186688
-1.5414310544102632 1.1381484948837068
-1.5608840248852107 1.1544822626162259
-1.5414310544102632 1.1218147271511878
-1.5608840248852107 1.0891471916861497
-1.6776018477348957 1.0564796562211116
-1.7359607591597381 1.0401458884885928
-1.774866700109633 1.1381484948837068
-1.813772641059528 1.2034835658137828
-1.7943196705845805 1.25248486901134
-1.9110374934342653 1.1708160303487447
-1.9693964048591077 1.1381484948837068
-2.1055671981837403 1.1054809594186688
-2.2028320505584778 1.1708160303487447
-2.144473139133635 1.2361511012788209
-2.1250201686586876 1.25248486901134
-2.1639261096085827 1.2034835658137828
-2.222285021033425 1.1381484948837068
-2.300096902933215 1.1381484948837068
-2.358455814358057 1.1381484948837068
-2.33900284388311 1.2034835658137828
-2.3195498734081625 1.2034835658137828
-2.377908784833005 1.1218147271511878
-2.4557206667327947 1.1218147271511878
-2.4946266076826897 1.1054809594186688
-2.514079578157637 1.1381484948837068
-2.4946266076826897 1.1218147271511878
-2.514079578157637 1.1544822626162259
-2.4946266076826897 1.1054809594186688
-2.591891460057427 1.0891471916861497
-2.708609282907112 1.0728134239536307
-2.708609282907112 1.1054809594186688
-2.669703341957217 1.1054809594186688
-2.6307974010073223 1.1054809594186688
-2.6891563124321647 1.0564796562211116
-2.708609282907112 1.0401458884885928
-2.8058741352818495 1.0238121207560738
-2.8447800762317446 1.0891471916861497
-2.747515223857007 1.0564796562211116
-2.708609282907112 1.0401458884885928
-2.747515223857007 1.0074783530235547
-2.8447800762317446 0.9421432820934786
-2.864233046706692 0.9094757466284406
-2.825327105756797 0.9258095143609596
-2.7864211648069017 0.9748108175585166
-2.747515223857007 0.9748108175585166
-2.747515223857007 0.9258095143609596
-2.7280622533820593 0.8768082111634026
-2.7669681943319544 0.8114731402333265
-2.708609282907112 0.5828003919780602
-2.5724384895824794 0.35412764372279404
-2.4168147257829 -0.054216549590181344
-2.2806439324582675 -0.5278958138332328
-2.1639261096085827 -1.0179088458088033
-1.9110374934342653 -1.5405894132494118
-1.5997899658351058 -1.9979349097599441
-1.2690894677609985 -2.4062791030729196
-0.9967478811117338 -2.700286922258262
-0.8800300582620489 -2.814623296385895
-0.8994830287369965 -2.7982895286533758
-1.1134657039614186 -2.7329544577233
-1.4052602610856308 -2.7656219931883377
-1.6776018477348957 -2.847290831850933
-1.8332256115344754 -2.7982895286533758
-1.8332256115344754 -2.6839531545257427
-1.6192429363100531 -2.585950548130629
-1.2496364972860512 -2.4389466385379577
-0.7049533239875216 -2.2919427289452865
-0.12136420973909733 -2.1776063548176534
0.34550708165964217 -2.1122712838875772
0.6762075797337493 -1.965267374294906
0.7540194616335393 -1.9162660710973491
0.5983956978339594 -1.818263464702235
0.26769519975985223 -1.671259555109564
-0.12136420973909733 -1.4589205745868166
-0.5493295601879419 -1.2139140585990313
-0.9578419401618389 -0.9689075426112462
-1.5025251134603683 -0.772902329821018
-2.008302345809003 -0.5115620461007138
-2.4946266076826897 -0.26655553011292854
-3.0198568105062717 -0.02154901412514331
-3.4283691904801685 0.1907899663976039
-3.7979756295041707 0.40312894692035106
-3.9730523637786983 0.5991341597105793
-4.225940979953015 0.7788056047682884
-4.264846920902911 0.9421432820934786
-4.225940979953015 1.0564796562211116
-4.10922315710333 1.1381484948837068
-3.9535993933037505 1.1218147271511878
-3.895240481878908 1.1544822626162259
-3.8174285999791184 1.1708160303487447
-3.720163747604381 1.2034835658137828
-3.642351865704591 1.268818636743859
-3.5839929542797484 1.350487475406454
-3.6228988952296435 1.3178199399414159
-3.6228988952296435 1.3014861722088968
-3.7007107771294336 1.3178199399414159
-3.7007107771294336 1.366821243138973
-3.6618048361795386 1.366821243138973
-3.5839929542797484 1.432156314069049
-3.564539983804801 1.366821243138973
-3.6228988952296435 1.3178199399414159
-3.681257806654486 1.334153707673935
-3.6228988952296435 1.383155010871492
-3.5061810723799587 1.432156314069049
-3.5061810723799587 1.464823849534087
-3.4867281019050114 1.432156314069049
-3.525634042854906 1.383155010871492
-3.5450870133298538 1.399488778604011
-3.5061810723799587 1.432156314069049
-3.4672751314300636 1.481157617266606
-3.4283691904801685 1.4974913849991252
-3.408916220005221 1.432156314069049
-3.4672751314300636 1.432156314069049
-3.4478221609551163 1.41582254633653
-3.408916220005221 1.448490081801568
-3.370010279055326 1.4974913849991252
-3.3116513676304837 1.5138251527316442
-3.2921983971555364 1.464823849534087
