-0.7455455078543892 -0.0034847242094818505
-0.7873958217767372 -0.02008850180763693
-0.7036951939320412 -0.08650361220025726
-0.7036951939320412 -0.10310738979841234
-0.7246203508932152 -0.10310738979841234
-0.7664706648155633 -0.1363149449947225
-0.7455455078543892 -0.08650361220025726
-0.6827700369708671 -0.06989983460210218
-0.7455455078543892 -0.053296057003947093
-0.6827700369708671 -0.02008850180763693
-0.5781442521649971 0.013119053388673231
-0.5572190952038232 -0.0034847242094818505
-0.5781442521649971 0.013119053388673231
-0.5153687812814751 0.04632660858498339
-0.5572190952038232 -0.0034847242094818505
-0.5990694091261711 -0.03669227940579201
-0.6409197230485192 -0.06989983460210218
-0.6409197230485192 -0.053296057003947093
-0.6827700369708671 -0.053296057003947093
-0.6199945660873452 -0.02008850180763693
-0.5990694091261711 0.07953416378129356
-0.5572190952038232 0.07953416378129356
-0.4735184673591271 0.16255305177206897
-0.4735184673591271 0.1293454965757588
-0.4525933103979531 0.1293454965757588
-0.4525933103979531 0.07953416378129356
-0.4316681534367791 0.07953416378129356
-0.5362939382426491 0.07953416378129356
-0.5781442521649971 0.04632660858498339
-0.5781442521649971 0.07953416378129356
-0.5781442521649971 0.09613794137944864
-0.5990694091261711 0.16255305177206897
-0.5153687812814751 0.17915682937022404
-0.3898178395144311 0.2289681621646893
-0.30611721166973505 0.27877949495915455
-0.26426689774738704 0.3119870501554647
-0.20149142686386504 0.2953832725573096
-0.20149142686386504 0.2953832725573096
-0.22241658382503904 0.2953832725573096
-0.18056626990269103 0.27877949495915455
-0.24334174078621304 0.24557193976284436
-0.28519205470856107 0.2953832725573096
-0.28519205470856107 0.3119870501554647
-0.24334174078621304 0.3119870501554647
-0.24334174078621304 0.39500593814624013
-0.138715955980343 0.4780248261370155
-0.096865642057995 0.5112323813333257
-0.05501532813564698 0.5942512693241011
-0.03409017117447297 0.5444399365296358
0.007760142747875037 0.577647491725946
0.07053561363139706 0.577647491725946
0.09146077059257106 0.577647491725946
0.09146077059257106 0.5112323813333257
0.028685299709049043 0.5942512693241011
0.04961045667022305 0.6274588245204112
0.11238592755374507 0.6938739349130316
0.11238592755374507 0.7436852677074968
0.34256265412665915 0.8101003781001171
0.38441296804900715 0.8931192660908925
0.4471884389325292 0.9595343764835129
0.5099639098160512 0.9263268212872027
0.5727393806995732 0.9761381540816679
0.6355148515830953 0.9595343764835129
0.6355148515830953 0.992741931679823
0.6355148515830953 1.009345709277978
0.6355148515830953 1.0259494868761332
0.6982903224666173 1.0923645972687535
0.7819909503113133 1.1753834852595288
0.8447664211948352 1.2417985956521493
0.8656915781560093 1.2750061508484594
1.0121676768842274 1.3248174836429247
1.1377186186512713 1.4244401492318552
1.1586437756124455 1.4742514820263204
1.2214192464959674 1.4576477044281653
1.2841947173794894 1.4742514820263204
1.3051198743406633 1.5240628148207858
1.2841947173794894 1.4576477044281653
1.2841947173794894 1.5240628148207858
1.3051198743406633 1.5406665924189407
1.3469701882630114 1.5572703700170958
1.3888205021853595 1.623685480409716
1.4306708161077075 1.623685480409716
1.4515959730688814 1.6568930356060263
1.4934462869912295 1.773119478793112
1.5352966009135776 1.6568930356060263
1.5562217578747515 1.6734968132041814
1.5771469148359256 1.590477925213406
1.5562217578747515 1.6568930356060263
1.4725211300300556 1.590477925213406
1.4515959730688814 1.590477925213406
1.3678953452241855 1.5572703700170958
1.3469701882630114 1.5572703700170958
1.3260450313018375 1.5572703700170958
1.3469701882630114 1.5074590372226306
1.2423444034571414 1.5572703700170958
1.2423444034571414 1.4576477044281653
1.1795689325736194 1.3746288164373899
1.0958683047289233 1.2417985956521493
0.9493922060007053 1.158779707661374
0.8238412642336613 1.0259494868761332
0.6773651655054432 0.9429305988853578
0.5518142237383992 0.8599117108945824
0.3634878110878331 0.7436852677074968
0.3634878110878331 0.6772701573148765
0.2170117123596151 0.6274588245204112
0.09146077059257106 0.5278361589314807
0.028685299709049043 0.4780248261370155
-0.01316501421329897 0.5278361589314807
-0.07594048509682098 0.378402160548085
-0.138715955980343 0.2953832725573096
-0.18056626990269103 0.24557193976284436
-0.24334174078621304 0.09613794137944864
-0.3898178395144311 0.07953416378129356
-0.4316681534367791 0.013119053388673231
-0.5572190952038232 -0.0034847242094818505
-0.5781442521649971 0.013119053388673231
-0.5781442521649971 -0.02008850180763693
-0.5781442521649971 -0.03669227940579201
-0.6199945660873452 -0.053296057003947093
-0.5572190952038232 -0.03669227940579201
-0.6199945660873452 -0.08650361220025726
-0.6409197230485192 -0.10310738979841234
-0.7455455078543892 -0.1529187225928776
-0.7873958217767372 -0.18612627778918775
-0.7873958217767372 -0.25254138818180805
-0.8710964496214333 -0.2193338329854979
-0.8292461356990852 -0.25254138818180805
-0.8292461356990852 -0.23593761058365298
-0.8710964496214333 -0.20273005538734282
-0.8083209787379112 -0.16952250019103265
-0.7455455078543892 -0.16952250019103265
-0.6618448800096932 -0.1363149449947225
-0.6409197230485192 -0.20273005538734282
-0.7036951939320412 -0.18612627778918775
-0.7455455078543892 -0.23593761058365298
-0.8083209787379112 -0.23593761058365298
-0.8292461356990852 -0.26914516577996317
-0.8292461356990852 -0.25254138818180805
-0.8501712926602593 -0.26914516577996317
-0.8710964496214333 -0.25254138818180805
-0.7664706648155633 -0.25254138818180805
-0.7246203508932152 -0.1363149449947225
-0.7036951939320412 -0.16952250019103265
-0.6409197230485192 -0.10310738979841234
-0.6827700369708671 -0.1529187225928776
-0.6409197230485192 -0.18612627778918775
-0.6618448800096932 -0.1363149449947225
-0.7246203508932152 -0.25254138818180805
-0.7455455078543892 -0.23593761058365298
-0.8083209787379112 -0.28574894337811824
-0.8083209787379112 -0.23593761058365298
-0.8083209787379112 -0.25254138818180805
-0.7455455078543892 -0.18612627778918775
-0.7455455078543892 -0.1363149449947225
-0.6827700369708671 -0.1363149449947225
-0.6827700369708671 -0.10310738979841234
-0.6409197230485192 -0.08650361220025726
-0.6618448800096932 -0.1529187225928776
-0.7036951939320412 -0.11971116739656743
-0.6409197230485192 -0.20273005538734282
-0.7036951939320412 -0.2193338329854979
-0.7664706648155633 -0.23593761058365298
-0.8083209787379112 -0.2193338329854979
-0.7873958217767372 -0.2193338329854979
-0.7455455078543892 -0.16952250019103265
-0.7873958217767372 -0.11971116739656743
-0.7246203508932152 -0.08650361220025726
-0.7246203508932152 -0.053296057003947093
-0.6618448800096932 -0.1363149449947225
-0.7246203508932152 -0.1529187225928776
-0.7246203508932152 -0.2193338329854979
-0.8501712926602593 -0.20273005538734282
-0.8501712926602593 -0.2193338329854979
-0.8501712926602593 -0.28574894337811824
-0.8710964496214333 -0.23593761058365298
-0.8920216065826072 -0.25254138818180805
-0.8920216065826072 -0.2193338329854979
-0.8501712926602593 -0.16952250019103265
-0.8292461356990852 -0.16952250019103265
-0.8292461356990852 -0.20273005538734282
-0.8292461356990852 -0.18612627778918775
-0.8083209787379112 -0.18612627778918775
-0.9129467635437812 -0.16952250019103265
-0.9547970774661293 -0.23593761058365298
-0.9338719205049553 -0.25254138818180805
-1.0384977053108253 -0.28574894337811824
-1.0803480192331734 -0.3355602761725835
-1.0175725483496514 -0.26914516577996317
-0.9966473913884772 -0.28574894337811824
-0.8920216065826072 -0.25254138818180805
-0.9129467635437812 -0.23593761058365298
-0.7873958217767372 -0.1529187225928776
-0.8292461356990852 -0.2193338329854979
-0.8292461356990852 -0.25254138818180805
-0.8920216065826072 -0.3189564985744284
-0.8710964496214333 -0.26914516577996317
-0.8710964496214333 -0.36876783136889363
-0.9338719205049553 -0.36876783136889363
-0.9966473913884772 -0.3189564985744284
-1.0175725483496514 -0.3189564985744284
-0.9757222344273032 -0.28574894337811824
-0.9547970774661293 -0.28574894337811824
-0.9129467635437812 -0.26914516577996317
-0.8920216065826072 -0.25254138818180805
-0.8920216065826072 -0.23593761058365298
-0.8710964496214333 -0.3023527209762733
-0.8920216065826072 -0.3355602761725835
-0.8920216065826072 -0.3023527209762733
-0.9966473913884772 -0.3189564985744284
-1.0175725483496514 -0.35216405377073856
-1.0594228622719992 -0.36876783136889363
-1.0803480192331734 -0.3189564985744284
-0.9966473913884772 -0.3355602761725835
-0.9547970774661293 -0.25254138818180805
-0.9338719205049553 -0.3023527209762733
-0.9547970774661293 -0.26914516577996317
-0.8710964496214333 -0.26914516577996317
-0.9338719205049553 -0.28574894337811824
-0.8920216065826072 -0.28574894337811824
-0.9966473913884772 -0.28574894337811824
-0.9757222344273032 -0.4019753865652038
-1.1012731761943473 -0.36876783136889363
-1.1012731761943473 -0.36876783136889363
-1.0594228622719992 -0.3355602761725835
-1.0594228622719992 -0.3189564985744284
-1.0175725483496514 -0.28574894337811824
-0.9757222344273032 -0.2193338329854979
-0.9757222344273032 -0.28574894337811824
-1.0175725483496514 -0.23593761058365298
-0.9547970774661293 -0.3023527209762733
-0.9547970774661293 -0.3023527209762733
-0.9966473913884772 -0.35216405377073856
-0.9757222344273032 -0.35216405377073856
-1.0384977053108253 -0.36876783136889363
-1.0594228622719992 -0.4517867193596691
-1.0594228622719992 -0.3355602761725835
-1.0803480192331734 -0.3189564985744284
-1.0803480192331734 -0.26914516577996317
-1.0384977053108253 -0.28574894337811824
-0.9757222344273032 -0.18612627778918775
-0.8920216065826072 -0.23593761058365298
-0.9757222344273032 -0.3355602761725835
-0.9966473913884772 -0.28574894337811824
-0.9757222344273032 -0.38537160896704875
-1.0594228622719992 -0.38537160896704875
-1.1431234901166953 -0.43518294176151395
-1.1221983331555214 -0.4185791641633589
-1.1012731761943473 -0.4019753865652038
-1.0803480192331734 -0.3355602761725835
-1.0384977053108253 -0.35216405377073856
-1.0384977053108253 -0.3189564985744284
-1.0175725483496514 -0.2193338329854979
-0.9966473913884772 -0.26914516577996317
-0.9757222344273032 -0.26914516577996317
-0.9547970774661293 -0.26914516577996317
-1.0175725483496514 -0.3189564985744284
-1.0594228622719992 -0.3355602761725835
-0.9966473913884772 -0.3355602761725835
-1.0384977053108253 -0.3189564985744284
-1.0803480192331734 -0.38537160896704875
-1.1431234901166953 -0.3189564985744284
-1.1012731761943473 -0.3023527209762733
-1.1012731761943473 -0.25254138818180805
-1.0175725483496514 -0.23593761058365298
-0.9757222344273032 -0.26914516577996317
-0.9547970774661293 -0.3023527209762733
-0.9966473913884772 -0.3189564985744284
-0.9966473913884772 -0.3189564985744284
-0.9966473913884772 -0.35216405377073856
-1.0803480192331734 -0.38537160896704875
-1.0384977053108253 -0.36876783136889363
-1.1431234901166953 -0.38537160896704875
-1.1221983331555214 -0.3023527209762733
-1.1012731761943473 -0.3023527209762733
-0.9966473913884772 -0.26914516577996317
-0.9547970774661293 -0.23593761058365298
-0.9547970774661293 -0.26914516577996317
-0.9966473913884772 -0.28574894337811824
-0.9547970774661293 -0.3023527209762733
-0.9757222344273032 -0.3023527209762733
-1.0384977053108253 -0.3189564985744284
-1.0594228622719992 -0.36876783136889363
-1.0803480192331734 -0.36876783136889363
-1.1012731761943473 -0.28574894337811824
-1.0803480192331734 -0.3355602761725835
-1.0384977053108253 -0.3189564985744284
-1.0594228622719992 -0.28574894337811824
-1.0384977053108253 -0.23593761058365298
-0.9757222344273032 -0.28574894337811824
-0.9547970774661293 -0.3189564985744284
-0.9338719205049553 -0.3189564985744284
-0.9757222344273032 -0.3355602761725835
-0.9966473913884772 -0.35216405377073856
-0.9757222344273032 -0.4019753865652038
-1.0803480192331734 -0.35216405377073856
-1.0594228622719992 -0.35216405377073856
-1.0384977053108253 -0.35216405377073856
-1.0175725483496514 -0.26914516577996317
-0.9757222344273032 -0.28574894337811824
-0.9338719205049553 -0.23593761058365298
-0.9129467635437812 -0.28574894337811824
-0.8710964496214333 -0.28574894337811824
-0.9338719205049553 -0.3355602761725835
-0.9338719205049553 -0.35216405377073856
-0.9547970774661293 -0.36876783136889363
-1.0594228622719992 -0.35216405377073856
-1.0594228622719992 -0.36876783136889363
-1.0384977053108253 -0.3355602761725835
-1.0803480192331734 -0.28574894337811824
-0.9547970774661293 -0.3023527209762733
-0.9547970774661293 -0.25254138818180805
-0.9129467635437812 -0.25254138818180805
-0.9129467635437812 -0.3355602761725835
-0.8710964496214333 -0.3023527209762733
-0.9757222344273032 -0.3355602761725835
-0.9547970774661293 -0.3189564985744284
-0.9338719205049553 -0.3355602761725835
-1.0175725483496514 -0.35216405377073856
-1.0175725483496514 -0.35216405377073856
-1.0594228622719992 -0.3355602761725835
-0.9966473913884772 -0.36876783136889363
-0.9757222344273032 -0.3355602761725835
-0.9338719205049553 -0.28574894337811824
-0.9129467635437812 -0.23593761058365298
-0.8920216065826072 -0.25254138818180805
-0.9129467635437812 -0.28574894337811824
-0.8710964496214333 -0.3189564985744284
-0.9338719205049553 -0.3355602761725835
-0.9966473913884772 -0.36876783136889363
-0.9547970774661293 -0.3023527209762733
-0.9757222344273032 -0.4185791641633589
-1.0175725483496514 -0.3189564985744284
-0.9966473913884772 -0.26914516577996317
-0.9129467635437812 -0.2193338329854979
-0.8501712926602593 -0.23593761058365298
-0.8083209787379112 -0.23593761058365298
-0.7246203508932152 -0.25254138818180805
-0.6827700369708671 -0.36876783136889363
-0.7036951939320412 -0.35216405377073856
-0.7246203508932152 -0.35216405377073856
-0.7455455078543892 -0.36876783136889363
-0.8083209787379112 -0.38537160896704875
-0.8083209787379112 -0.36876783136889363
-0.7246203508932152 -0.3189564985744284
-0.5990694091261711 -0.2193338329854979
-0.5572190952038232 -0.16952250019103265
-0.5153687812814751 -0.1529187225928776
-0.3270423686309091 -0.08650361220025726
-0.34796752559208305 -0.03669227940579201
-0.28519205470856107 -0.0034847242094818505
-0.24334174078621304 -0.0034847242094818505
-0.4107429964756051 0.029722830986828312
-0.3688926825532571 0.029722830986828312
-0.5153687812814751 0.029722830986828312
-0.5781442521649971 0.06293038618313848
-0.6827700369708671 0.06293038618313848
-0.5990694091261711 0.09613794137944864
-0.5572190952038232 0.07953416378129356
-0.4735184673591271 0.11274171897760372
-0.5362939382426491 0.16255305177206897
-0.5153687812814751 0.14594927417391387
-0.49444362432030114 0.04632660858498339
-0.6199945660873452 0.029722830986828312
-0.6827700369708671 0.04632660858498339
-0.7664706648155633 -0.0034847242094818505
-0.8501712926602593 -0.02008850180763693
-0.8920216065826072 -0.10310738979841234
-0.9129467635437812 -0.16952250019103265
-0.9966473913884772 -0.1529187225928776
-0.9757222344273032 -0.10310738979841234
-0.9547970774661293 -0.1529187225928776
-0.9129467635437812 -0.11971116739656743
-0.9338719205049553 -0.16952250019103265
-0.8710964496214333 -0.20273005538734282
-0.8710964496214333 -0.25254138818180805
-0.9338719205049553 -0.25254138818180805
-0.9966473913884772 -0.3189564985744284
-1.0384977053108253 -0.35216405377073856
-1.0803480192331734 -0.36876783136889363
-1.1221983331555214 -0.3189564985744284
-1.1640486470778693 -0.3355602761725835
-1.0803480192331734 -0.3355602761725835
-1.0594228622719992 -0.26914516577996317
-1.0175725483496514 -0.25254138818180805
-0.9757222344273032 -0.3189564985744284
-0.9757222344273032 -0.3355602761725835
-0.9966473913884772 -0.35216405377073856
-1.0803480192331734 -0.3023527209762733
-1.1221983331555214 -0.36876783136889363
-1.1431234901166953 -0.4019753865652038
-1.1849738040390434 -0.36876783136889363
-1.1640486470778693 -0.38537160896704875
-1.0803480192331734 -0.26914516577996317
-0.9757222344273032 -0.26914516577996317
-0.9757222344273032 -0.2193338329854979
-0.9757222344273032 -0.23593761058365298
-0.9338719205049553 -0.2193338329854979
-0.8920216065826072 -0.25254138818180805
-0.8501712926602593 -0.25254138818180805
-0.7036951939320412 -0.3189564985744284
-0.4525933103979531 -0.26914516577996317
-0.20149142686386504 -0.02008850180763693
0.2379368693207891 0.378402160548085
0.7819909503113133 0.9263268212872027
1.4306708161077075 1.573874147615251
1.9537997401370577 2.221421473943299
2.4769286641664077 2.9187801330658125
2.6861802337781477 3.632742569786481
2.7071053907393217 4.2138747857219085
2.33045256543819 4.529346560086855
1.5771469148359256 4.529346560086855
0.7401406363889652 4.114252120132979
-0.3898178395144311 3.2010443522344487
-1.5197763154178274 2.1716101411488338
-2.4404832217094836 0.9595343764835129
-3.026387616622356 -0.03669227940579201
-3.193788872311748 -0.7340509385283054
-2.94268698877766 -0.9166924921080113
-2.5451090065153537 -0.7174471609301504
-2.0429052394471774 -0.4185791641633589
-1.7708781989519156 -0.16952250019103265
-1.5197763154178274 -0.03669227940579201
-1.3733002166896093 -0.02008850180763693
-1.2268241179613915 -0.0034847242094818505
-1.1431234901166953 -0.11971116739656743
-0.9547970774661293 -0.18612627778918775
-0.9547970774661293 -0.2193338329854979
-0.9757222344273032 -0.18612627778918775
-0.9338719205049553 -0.1363149449947225
-0.9129467635437812 -0.10310738979841234
-0.9338719205049553 -0.10310738979841234
-0.8501712926602593 -0.08650361220025726
-0.8501712926602593 -0.10310738979841234
-0.8501712926602593 -0.11971116739656743
-0.8292461356990852 -0.20273005538734282
-0.7664706648155633 -0.18612627778918775
-0.7873958217767372 -0.16952250019103265
-0.8292461356990852 -0.23593761058365298
-0.8710964496214333 -0.23593761058365298
-0.8920216065826072 -0.20273005538734282
-0.8710964496214333 -0.18612627778918775
-0.8292461356990852 -0.16952250019103265
-0.8292461356990852 -0.1363149449947225
-0.7873958217767372 -0.08650361220025726
-0.7455455078543892 -0.08650361220025726
-0.6618448800096932 -0.11971116739656743
-0.7036951939320412 -0.16952250019103265
-0.7246203508932152 -0.1363149449947225
-0.7455455078543892 -0.18612627778918775
-0.8083209787379112 -0.1529187225928776
-0.7873958217767372 -0.18612627778918775
-0.7873958217767372 -0.20273005538734282
-0.7036951939320412 -0.10310738979841234
-0.7036951939320412 -0.06989983460210218
-0.6199945660873452 -0.03669227940579201
-0.6199945660873452 -0.0034847242094818505
-0.5362939382426491 -0.0034847242094818505
-0.5362939382426491 -0.06989983460210218
-0.5362939382426491 -0.03669227940579201
-0.5572190952038232 -0.06989983460210218
-0.6618448800096932 -0.06989983460210218
-0.6199945660873452 -0.06989983460210218
-0.6618448800096932 -0.11971116739656743
-0.6199945660873452 -0.06989983460210218
-0.5990694091261711 0.013119053388673231
-0.5362939382426491 -0.02008850180763693
-0.49444362432030114 0.06293038618313848
-0.4107429964756051 0.06293038618313848
-0.4525933103979531 0.04632660858498339
-0.4735184673591271 0.04632660858498339
-0.3898178395144311 0.029722830986828312
-0.4107429964756051 0.04632660858498339
-0.4107429964756051 0.029722830986828312
-0.4735184673591271 0.04632660858498339
-0.4735184673591271 0.06293038618313848
-0.4316681534367791 0.14594927417391387
-0.3898178395144311 0.24557193976284436
-0.34796752559208305 0.24557193976284436
-0.24334174078621304 0.2953832725573096
-0.24334174078621304 0.36179838294992994
-0.117790799019169 0.3451946053517749
-0.18056626990269103 0.3285908277536198
-0.117790799019169 0.36179838294992994
-0.05501532813564698 0.3119870501554647
-0.138715955980343 0.3451946053517749
-0.138715955980343 0.36179838294992994
-0.117790799019169 0.4116097157443952
-0.07594048509682098 0.46142104853886046
0.007760142747875037 0.4946286037351706
0.07053561363139706 0.5278361589314807
0.13331108451491908 0.6606663797167214
0.2379368693207891 0.7436852677074968
0.25886202628196314 0.7436852677074968
0.3634878110878331 0.7602890453056519
0.4053381250101812 0.7436852677074968
0.42626328197135516 0.776892822903807
0.46811359589370316 0.8599117108945824
0.4471884389325292 0.8599117108945824
0.46811359589370316 0.8931192660908925
0.5099639098160512 1.009345709277978
0.5518142237383992 1.0757608196705986
0.7401406363889652 1.208591040455839
0.7401406363889652 1.208591040455839
0.9075418920783573 1.2750061508484594
1.0121676768842274 1.3248174836429247
0.9284670490395314 1.3580250388392348
1.0330928338454013 1.3248174836429247
1.0958683047289233 1.3248174836429247
1.0330928338454013 1.391232594035545
1.0121676768842274 1.4078363716337001
1.0540179908065754 1.4410439268300101
1.0749431477677494 1.4576477044281653
1.2004940895347933 1.5074590372226306
1.2423444034571414 1.5572703700170958
1.3051198743406633 1.6070817028115612
1.3469701882630114 1.6070817028115612
1.3888205021853595 1.6734968132041814
1.3888205021853595 1.6568930356060263
1.4097456591465334 1.6402892580078712
1.3678953452241855 1.6070817028115612
1.3888205021853595 1.5572703700170958
1.3051198743406633 1.5572703700170958
1.3260450313018375 1.5406665924189407
1.2004940895347933 1.4908552596244755
1.1795689325736194 1.5240628148207858
1.1795689325736194 1.4908552596244755
1.1377186186512713 1.4078363716337001
1.1586437756124455 1.391232594035545
1.0540179908065754 1.3248174836429247
0.9912425199230533 1.2916099284466145
0.9075418920783573 1.1089683748669086
0.7610657933501392 1.0259494868761332
0.5727393806995732 0.9097230436890477
0.4053381250101812 0.8101003781001171
0.30071234020431115 0.776892822903807
0.25886202628196314 0.6606663797167214
0.17516139843726708 0.6274588245204112
0.07053561363139706 0.577647491725946
0.007760142747875037 0.4946286037351706
-0.05501532813564698 0.44481727094070533
-0.096865642057995 0.39500593814624013
-0.20149142686386504 0.27877949495915455
-0.24334174078621304 0.19576060696837913
-0.34796752559208305 0.11274171897760372
-0.49444362432030114 0.04632660858498339
-0.5362939382426491 0.013119053388673231
-0.5990694091261711 -0.06989983460210218
-0.5990694091261711 -0.10310738979841234
-0.7036951939320412 -0.06989983460210218
-0.6409197230485192 -0.06989983460210218
-0.6827700369708671 -0.10310738979841234
-0.6199945660873452 -0.03669227940579201
-0.5990694091261711 -0.10310738979841234
-0.6827700369708671 -0.1529187225928776
-0.6827700369708671 -0.1529187225928776
-0.7246203508932152 -0.2193338329854979
-0.7664706648155633 -0.25254138818180805
-0.8083209787379112 -0.26914516577996317
-0.8501712926602593 -0.3355602761725835
-0.8292461356990852 -0.25254138818180805
-0.7664706648155633 -0.26914516577996317
-0.7873958217767372 -0.18612627778918775
-0.7664706648155633 -0.18612627778918775
-0.7455455078543892 -0.16952250019103265
-0.7455455078543892 -0.2193338329854979
-0.7036951939320412 -0.18612627778918775
-0.7455455078543892 -0.23593761058365298
-0.7455455078543892 -0.3023527209762733
-0.8083209787379112 -0.28574894337811824
-0.8083209787379112 -0.3023527209762733
-0.8292461356990852 -0.3023527209762733
-0.8083209787379112 -0.3023527209762733
-0.8292461356990852 -0.28574894337811824
-0.7873958217767372 -0.2193338329854979
-0.8501712926602593 -0.18612627778918775
-0.7455455078543892 -0.16952250019103265
-0.7036951939320412 -0.2193338329854979
-0.6827700369708671 -0.16952250019103265
-0.7036951939320412 -0.18612627778918775
-0.7246203508932152 -0.18612627778918775
-0.7664706648155633 -0.18612627778918775
-0.7873958217767372 -0.20273005538734282
-0.8501712926602593 -0.28574894337811824
-0.8292461356990852 -0.28574894337811824
-0.7664706648155633 -0.2193338329854979
-0.7036951939320412 -0.18612627778918775
-0.6827700369708671 -0.1529187225928776
-0.6827700369708671 -0.11971116739656743
-0.6827700369708671 -0.11971116739656743
-0.6827700369708671 -0.1363149449947225
-0.6827700369708671 -0.1529187225928776
-0.7873958217767372 -0.2193338329854979
-0.8920216065826072 -0.20273005538734282
-0.8710964496214333 -0.25254138818180805
-0.9129467635437812 -0.2193338329854979
-0.9129467635437812 -0.26914516577996317
-0.8920216065826072 -0.2193338329854979
-0.8920216065826072 -0.16952250019103265
-0.8920216065826072 -0.10310738979841234
-0.8083209787379112 -0.10310738979841234
-0.8083209787379112 -0.053296057003947093
-0.7873958217767372 -0.10310738979841234
-0.7664706648155633 -0.1529187225928776
-0.8501712926602593 -0.18612627778918775
-0.8920216065826072 -0.2193338329854979
-0.9338719205049553 -0.25254138818180805
-0.9757222344273032 -0.18612627778918775
-1.0175725483496514 -0.28574894337811824
-0.9547970774661293 -0.20273005538734282
-0.9966473913884772 -0.20273005538734282
-0.9547970774661293 -0.16952250019103265
-0.9338719205049553 -0.1363149449947225
-0.9129467635437812 -0.18612627778918775
-0.9338719205049553 -0.23593761058365298
-0.9547970774661293 -0.25254138818180805
-0.9547970774661293 -0.2193338329854979
-0.9757222344273032 -0.23593761058365298
-1.0803480192331734 -0.2193338329854979
-1.0594228622719992 -0.20273005538734282
-1.0384977053108253 -0.28574894337811824
-1.0594228622719992 -0.25254138818180805
-0.9966473913884772 -0.20273005538734282
-0.9966473913884772 -0.20273005538734282
-1.0175725483496514 -0.16952250019103265
-0.9757222344273032 -0.18612627778918775
-0.9757222344273032 -0.20273005538734282
-0.9338719205049553 -0.2193338329854979
-0.9757222344273032 -0.28574894337811824
-1.0175725483496514 -0.28574894337811824
-1.1012731761943473 -0.3189564985744284
-1.1221983331555214 -0.3355602761725835
-1.0594228622719992 -0.28574894337811824
-1.0594228622719992 -0.26914516577996317
-1.0594228622719992 -0.28574894337811824
-1.0175725483496514 -0.23593761058365298
-1.0803480192331734 -0.20273005538734282
-1.0384977053108253 -0.2193338329854979
-0.9757222344273032 -0.23593761058365298
-0.9757222344273032 -0.26914516577996317
-0.9547970774661293 -0.3023527209762733
-1.0384977053108253 -0.3189564985744284
-1.0594228622719992 -0.3355602761725835
-1.0594228622719992 -0.35216405377073856
-1.1012731761943473 -0.26914516577996317
-1.0803480192331734 -0.3189564985744284
-1.0384977053108253 -0.23593761058365298
-0.9966473913884772 -0.2193338329854979
-0.9757222344273032 -0.20273005538734282
-0.9129467635437812 -0.23593761058365298
-0.9338719205049553 -0.28574894337811824
-0.9966473913884772 -0.25254138818180805
-1.0594228622719992 -0.3023527209762733
-1.1431234901166953 -0.36876783136889363
-1.1012731761943473 -0.36876783136889363
-1.1431234901166953 -0.35216405377073856
-1.1221983331555214 -0.35216405377073856
-1.0594228622719992 -0.3023527209762733
-1.1221983331555214 -0.3355602761725835
-0.9757222344273032 -0.25254138818180805
-1.0175725483496514 -0.18612627778918775
-0.9966473913884772 -0.26914516577996317
-1.0594228622719992 -0.3023527209762733
-0.9966473913884772 -0.3023527209762733
-0.9757222344273032 -0.38537160896704875
-1.0384977053108253 -0.3189564985744284
-1.0594228622719992 -0.36876783136889363
-1.0594228622719992 -0.4019753865652038
-1.1012731761943473 -0.3189564985744284
-1.0384977053108253 -0.28574894337811824
-1.0803480192331734 -0.25254138818180805
-1.0175725483496514 -0.25254138818180805
-0.9757222344273032 -0.25254138818180805
-0.9338719205049553 -0.25254138818180805
-0.9547970774661293 -0.26914516577996317
-0.9129467635437812 -0.26914516577996317
-0.9757222344273032 -0.28574894337811824
-0.9757222344273032 -0.3189564985744284
-1.0594228622719992 -0.38537160896704875
-1.0594228622719992 -0.38537160896704875
-1.1221983331555214 -0.3189564985744284
-1.0594228622719992 -0.28574894337811824
-1.0384977053108253 -0.25254138818180805
-0.9966473913884772 -0.28574894337811824
-0.9966473913884772 -0.20273005538734282
-1.0384977053108253 -0.25254138818180805
-0.9757222344273032 -0.26914516577996317
-0.9547970774661293 -0.28574894337811824
-0.9757222344273032 -0.3023527209762733
-0.9966473913884772 -0.36876783136889363
-1.0594228622719992 -0.4019753865652038
-1.1012731761943473 -0.38537160896704875
-1.1012731761943473 -0.35216405377073856
-1.0384977053108253 -0.3189564985744284
-1.0594228622719992 -0.3189564985744284
-1.0594228622719992 -0.28574894337811824
-0.9338719205049553 -0.2193338329854979
-0.9547970774661293 -0.23593761058365298
-0.9338719205049553 -0.25254138818180805
-0.9338719205049553 -0.25254138818180805
-0.9547970774661293 -0.3355602761725835
-0.9966473913884772 -0.3355602761725835
-1.0384977053108253 -0.35216405377073856
-1.0594228622719992 -0.3355602761725835
-1.0803480192331734 -0.38537160896704875
-1.0594228622719992 -0.3355602761725835
-1.0175725483496514 -0.28574894337811824
-0.9966473913884772 -0.26914516577996317
-0.9338719205049553 -0.20273005538734282
-0.9129467635437812 -0.23593761058365298
-0.9547970774661293 -0.26914516577996317
-0.9547970774661293 -0.25254138818180805
-0.9757222344273032 -0.3355602761725835
-0.9757222344273032 -0.3355602761725835
-1.0175725483496514 -0.38537160896704875
-1.1012731761943473 -0.38537160896704875
-1.0384977053108253 -0.3189564985744284
-1.0594228622719992 -0.3355602761725835
-1.0384977053108253 -0.26914516577996317
-1.0175725483496514 -0.2193338329854979
-0.9338719205049553 -0.2193338329854979
-0.8710964496214333 -0.25254138818180805
-0.9547970774661293 -0.23593761058365298
-0.9338719205049553 -0.25254138818180805
-0.9757222344273032 -0.3023527209762733
-0.9966473913884772 -0.3023527209762733
-0.9757222344273032 -0.3023527209762733
-0.9757222344273032 -0.3189564985744284
-0.9966473913884772 -0.3355602761725835
-1.0384977053108253 -0.23593761058365298
-0.9757222344273032 -0.16952250019103265
-0.9129467635437812 -0.18612627778918775
-0.8710964496214333 -0.18612627778918775
-0.8501712926602593 -0.16952250019103265
-0.9129467635437812 -0.26914516577996317
-0.9338719205049553 -0.26914516577996317
-0.9129467635437812 -0.3355602761725835
-0.9338719205049553 -0.3355602761725835
-1.0384977053108253 -0.35216405377073856
-1.0384977053108253 -0.35216405377073856
-1.0384977053108253 -0.35216405377073856
-1.0384977053108253 -0.28574894337811824
-0.9966473913884772 -0.3355602761725835
-0.9338719205049553 -0.26914516577996317
-0.8710964496214333 -0.28574894337811824
-0.8292461356990852 -0.26914516577996317
-0.8292461356990852 -0.3189564985744284
-0.8083209787379112 -0.3189564985744284
-0.9129467635437812 -0.28574894337811824
-0.9338719205049553 -0.35216405377073856
-0.9547970774661293 -0.36876783136889363
-0.9338719205049553 -0.3023527209762733
-0.9547970774661293 -0.3023527209762733
-0.8920216065826072 -0.28574894337811824
-0.8501712926602593 -0.2193338329854979
-0.7455455078543892 -0.20273005538734282
-0.6618448800096932 -0.18612627778918775
-0.6199945660873452 -0.23593761058365298
-0.6199945660873452 -0.2193338329854979
-0.6199945660873452 -0.25254138818180805
-0.6827700369708671 -0.26914516577996317
-0.5781442521649971 -0.28574894337811824
-0.6409197230485192 -0.28574894337811824
-0.5781442521649971 -0.23593761058365298
-0.5362939382426491 -0.20273005538734282
-0.4735184673591271 -0.08650361220025726
-0.34796752559208305 -0.0034847242094818505
-0.30611721166973505 0.06293038618313848
-0.22241658382503904 0.11274171897760372
-0.24334174078621304 0.16255305177206897
-0.28519205470856107 0.2123643845665342
-0.3270423686309091 0.16255305177206897
-0.4107429964756051 0.1293454965757588
-0.49444362432030114 0.16255305177206897
-0.5362939382426491 0.09613794137944864
-0.6199945660873452 0.06293038618313848
-0.6409197230485192 0.07953416378129356
-0.6409197230485192 0.09613794137944864
-0.7036951939320412 0.09613794137944864
-0.7246203508932152 0.09613794137944864
-0.7246203508932152 0.07953416378129356
-0.7873958217767372 0.07953416378129356
-0.7664706648155633 -0.02008850180763693
-0.7873958217767372 -0.06989983460210218
-0.9129467635437812 -0.1529187225928776
-0.8920216065826072 -0.25254138818180805
-0.8920216065826072 -0.25254138818180805
-1.0175725483496514 -0.3189564985744284
-0.9547970774661293 -0.28574894337811824
-1.0384977053108253 -0.26914516577996317
-1.0175725483496514 -0.20273005538734282
-0.9757222344273032 -0.23593761058365298
-0.9547970774661293 -0.18612627778918775
-0.9338719205049553 -0.3023527209762733
-0.9338719205049553 -0.23593761058365298
-0.9129467635437812 -0.28574894337811824
-0.9547970774661293 -0.3189564985744284
-1.0594228622719992 -0.35216405377073856
-1.0594228622719992 -0.38537160896704875
-1.1012731761943473 -0.36876783136889363
-1.1640486470778693 -0.35216405377073856
-1.1431234901166953 -0.3355602761725835
-1.0594228622719992 -0.3023527209762733
-1.0594228622719992 -0.26914516577996317
-1.0175725483496514 -0.2193338329854979
-0.9757222344273032 -0.23593761058365298
-0.9757222344273032 -0.2193338329854979
-0.9757222344273032 -0.26914516577996317
-1.0175725483496514 -0.3355602761725835
-0.9547970774661293 -0.3189564985744284
-1.0175725483496514 -0.3355602761725835
-1.0175725483496514 -0.3023527209762733
-1.0175725483496514 -0.3189564985744284
-1.0175725483496514 -0.26914516577996317
-0.9338719205049553 -0.25254138818180805
-0.8920216065826072 -0.16952250019103265
-0.7246203508932152 -0.1529187225928776
-0.49444362432030114 -0.08650361220025726
-0.18056626990269103 0.04632660858498339
0.13331108451491908 0.2953832725573096
0.5099639098160512 0.7104777125111866
0.9075418920783573 1.1421759300632188
1.2841947173794894 1.6734968132041814
1.6189972287582735 2.2712328067377645
1.7236230135641435 2.852365022673192
1.5352966009135776 3.250855685028914
1.2004940895347933 3.5497236817957054
0.6355148515830953 3.599535014590171
-0.096865642057995 3.3006670178233795
-1.0175725483496514 2.7195348018879515
-1.8964291407189595 1.8395345891857322
-2.796210890049442 0.793496600501962
-3.46581591280701 -0.35216405377073856
-3.821543581146968 -1.3151831544637334
-3.800618424185794 -1.879711592801006
-3.507666226729358 -2.078956923978867
-3.110088244467052 -1.846504037604696
-2.6706599482823976 -1.3649944872581985
-2.2940071229812657 -0.9166924921080113
-2.0219800824860035 -0.65103205053753
-1.7708781989519156 -0.4517867193596691
-1.6244021002236975 -0.4185791641633589
-1.4988511584566535 -0.43518294176151395
-1.2895995888449134 -0.4019753865652038
-1.1012731761943473 -0.35216405377073856
-0.9338719205049553 -0.3355602761725835
-0.8292461356990852 -0.3189564985744284
-0.8710964496214333 -0.26914516577996317
-0.8292461356990852 -0.26914516577996317
-0.7873958217767372 -0.18612627778918775
-0.8501712926602593 -0.16952250019103265
-0.7455455078543892 -0.20273005538734282
-0.8083209787379112 -0.1529187225928776
-0.7455455078543892 -0.18612627778918775
-0.7246203508932152 -0.16952250019103265
-0.6618448800096932 -0.16952250019103265
-0.6618448800096932 -0.20273005538734282
-0.7036951939320412 -0.16952250019103265
-0.7246203508932152 -0.1529187225928776
-0.7455455078543892 -0.20273005538734282
-0.7246203508932152 -0.1363149449947225
-0.7246203508932152 -0.11971116739656743
-0.7455455078543892 -0.08650361220025726
-0.7246203508932152 -0.02008850180763693
-0.5990694091261711 -0.02008850180763693
-0.5362939382426491 -0.053296057003947093
-0.5572190952038232 -0.053296057003947093
-0.4735184673591271 -0.03669227940579201
-0.49444362432030114 -0.10310738979841234
-0.5362939382426491 -0.11971116739656743
-0.5572190952038232 -0.10310738979841234
-0.5781442521649971 -0.1363149449947225
-0.5781442521649971 -0.10310738979841234
-0.5362939382426491 -0.03669227940579201
-0.49444362432030114 0.029722830986828312
-0.49444362432030114 0.029722830986828312
-0.49444362432030114 0.07953416378129356
-0.4525933103979531 0.06293038618313848
-0.4316681534367791 0.06293038618313848
-0.4525933103979531 0.07953416378129356
-0.4735184673591271 0.06293038618313848
-0.3688926825532571 -0.0034847242094818505
-0.4316681534367791 0.013119053388673231
-0.4107429964756051 0.07953416378129356
-0.4107429964756051 0.09613794137944864
-0.34796752559208305 0.09613794137944864
-0.3270423686309091 0.17915682937022404
-0.30611721166973505 0.24557193976284436
-0.28519205470856107 0.24557193976284436
-0.18056626990269103 0.24557193976284436
-0.18056626990269103 0.24557193976284436
-0.18056626990269103 0.24557193976284436
-0.159641112941517 0.2621757173609994
-0.24334174078621304 0.19576060696837913
-0.24334174078621304 0.2953832725573096
-0.18056626990269103 0.27877949495915455
-0.20149142686386504 0.27877949495915455
-0.117790799019169 0.378402160548085
-0.096865642057995 0.39500593814624013
-0.05501532813564698 0.42821349334255027
0.04961045667022305 0.5112323813333257
0.11238592755374507 0.5278361589314807
0.17516139843726708 0.4946286037351706
0.17516139843726708 0.5278361589314807
0.13331108451491908 0.4946286037351706
0.17516139843726708 0.4946286037351706
0.25886202628196314 0.6274588245204112
0.2379368693207891 0.5942512693241011
0.30071234020431115 0.6772701573148765
0.3634878110878331 0.776892822903807
0.5099639098160512 0.8765154884927375
0.5308890667772252 0.9263268212872027
0.5936645376607472 1.0259494868761332
0.7192154794277913 1.0757608196705986
0.7401406363889652 1.0591570420724434
0.7819909503113133 1.0923645972687535
0.7819909503113133 1.1089683748669086
0.9075418920783573 1.1255721524650637
0.9912425199230533 1.1753834852595288
0.9912425199230533 1.2417985956521493
1.0749431477677494 1.3082137060447696
1.0958683047289233 1.3580250388392348
1.2214192464959674 1.4078363716337001
1.2423444034571414 1.4908552596244755
1.3469701882630114 1.5240628148207858
1.3469701882630114 1.5406665924189407
1.3888205021853595 1.590477925213406
1.4097456591465334 1.573874147615251
1.4515959730688814 1.5406665924189407
1.4515959730688814 1.5572703700170958
1.4097456591465334 1.573874147615251
1.4097456591465334 1.590477925213406
1.3888205021853595 1.573874147615251
1.4306708161077075 1.623685480409716
1.4515959730688814 1.6070817028115612
1.4515959730688814 1.6568930356060263
1.4097456591465334 1.6402892580078712
1.4934462869912295 1.590477925213406
1.4515959730688814 1.5406665924189407
1.3888205021853595 1.5074590372226306
1.3469701882630114 1.391232594035545
1.2214192464959674 1.2750061508484594
1.1377186186512713 1.208591040455839
1.0958683047289233 1.1421759300632188
0.9703173629618793 1.1089683748669086
0.9075418920783573 1.0425532644742883
0.8447664211948352 0.9761381540816679
0.8238412642336613 0.9429305988853578
0.8029161072724873 0.8931192660908925
0.7401406363889652 0.793496600501962
0.5518142237383992 0.6938739349130316
0.42626328197135516 0.5444399365296358
0.2797871832431371 0.46142104853886046
0.1960865553984411 0.2953832725573096
0.04961045667022305 0.2621757173609994
-0.03409017117447297 0.17915682937022404
-0.07594048509682098 0.1293454965757588
-0.138715955980343 0.09613794137944864
-0.22241658382503904 0.04632660858498339
-0.24334174078621304 -0.0034847242094818505
-0.24334174078621304 -0.02008850180763693
-0.28519205470856107 -0.10310738979841234
-0.30611721166973505 -0.1363149449947225
-0.3688926825532571 -0.18612627778918775
-0.49444362432030114 -0.26914516577996317
-0.5572190952038232 -0.3355602761725835
-0.5781442521649971 -0.36876783136889363
-0.6827700369708671 -0.38537160896704875
-0.7246203508932152 -0.4019753865652038
-0.6827700369708671 -0.36876783136889363
-0.7246203508932152 -0.36876783136889363
-0.6827700369708671 -0.35216405377073856
-0.5990694091261711 -0.36876783136889363
-0.6827700369708671 -0.36876783136889363
-0.6618448800096932 -0.38537160896704875
-0.7036951939320412 -0.4185791641633589
-0.6618448800096932 -0.46839049695782414
-0.7246203508932152 -0.5182018297522893
-0.7664706648155633 -0.5514093849485996
-0.7873958217767372 -0.5182018297522893
-0.7873958217767372 -0.5015980521541343
-0.7664706648155633 -0.4849942745559792
-0.7455455078543892 -0.43518294176151395
-0.8083209787379112 -0.4517867193596691
-0.6409197230485192 -0.4185791641633589
-0.5781442521649971 -0.4517867193596691
-0.5990694091261711 -0.4517867193596691
-0.7246203508932152 -0.4517867193596691
-0.6618448800096932 -0.4849942745559792
-0.7246203508932152 -0.5015980521541343
-0.7246203508932152 -0.5348056073504445
-0.7873958217767372 -0.5182018297522893
-0.7664706648155633 -0.5348056073504445
-0.7455455078543892 -0.46839049695782414
-0.6827700369708671 -0.5015980521541343
-0.7036951939320412 -0.43518294176151395
-0.6827700369708671 -0.4517867193596691
-0.7455455078543892 -0.38537160896704875
-0.6827700369708671 -0.43518294176151395
-0.6827700369708671 -0.46839049695782414
-0.7036951939320412 -0.4849942745559792
-0.7246203508932152 -0.5348056073504445
-0.8083209787379112 -0.5514093849485996
-0.7246203508932152 -0.5348056073504445
-0.7246203508932152 -0.6012207177430647
-0.6827700369708671 -0.5015980521541343
-0.7246203508932152 -0.5348056073504445
-0.7246203508932152 -0.4517867193596691
-0.6827700369708671 -0.4019753865652038
-0.6618448800096932 -0.4019753865652038
-0.6618448800096932 -0.4849942745559792
-0.6409197230485192 -0.46839049695782414
-0.6409197230485192 -0.5015980521541343
-0.7246203508932152 -0.5015980521541343
-0.7873958217767372 -0.5348056073504445
-0.8083209787379112 -0.5514093849485996
-0.8710964496214333 -0.5680131625467546
-0.8083209787379112 -0.4849942745559792
-0.7455455078543892 -0.5182018297522893
-0.7664706648155633 -0.4517867193596691
-0.7664706648155633 -0.4517867193596691
-0.7455455078543892 -0.46839049695782414
-0.7873958217767372 -0.46839049695782414
-0.7873958217767372 -0.4849942745559792
-0.8501712926602593 -0.5015980521541343
-0.8501712926602593 -0.5514093849485996
-0.9129467635437812 -0.5514093849485996
-0.9338719205049553 -0.5846169401449097
-0.9757222344273032 -0.5514093849485996
-0.9757222344273032 -0.6012207177430647
-0.9757222344273032 -0.5182018297522893
-0.9966473913884772 -0.6012207177430647
-0.8501712926602593 -0.5348056073504445
-0.8292461356990852 -0.5514093849485996
-0.8710964496214333 -0.634428272939375
-0.8710964496214333 -0.5846169401449097
-0.9338719205049553 -0.6012207177430647
-0.9338719205049553 -0.65103205053753
-0.9547970774661293 -0.65103205053753
-1.0175725483496514 -0.634428272939375
-1.1012731761943473 -0.634428272939375
-1.1012731761943473 -0.6676358281356851
-1.0384977053108253 -0.6178244953412199
-1.0803480192331734 -0.6178244953412199
-1.0175725483496514 -0.5182018297522893
-0.9338719205049553 -0.5846169401449097
-0.9129467635437812 -0.5680131625467546
-0.9547970774661293 -0.5680131625467546
-0.9757222344273032 -0.6842396057338402
-0.9966473913884772 -0.634428272939375
-1.0594228622719992 -0.6676358281356851
-1.0384977053108253 -0.7174471609301504
-1.0594228622719992 -0.6842396057338402
-1.0384977053108253 -0.634428272939375
-1.0175725483496514 -0.6178244953412199
-0.9547970774661293 -0.634428272939375
-0.9966473913884772 -0.5846169401449097
-0.9338719205049553 -0.6012207177430647
-0.9338719205049553 -0.6012207177430647
-0.9757222344273032 -0.6676358281356851
-0.9966473913884772 -0.6676358281356851
-1.0803480192331734 -0.7340509385283054
-1.0803480192331734 -0.7672584937246156
-1.0803480192331734 -0.7340509385283054
-1.1221983331555214 -0.7838622713227706
-1.1221983331555214 -0.6676358281356851
-1.0594228622719992 -0.634428272939375
-1.0594228622719992 -0.6178244953412199
-1.0175725483496514 -0.6178244953412199
-0.9757222344273032 -0.6178244953412199
-1.0175725483496514 -0.634428272939375
-1.0175725483496514 -0.6842396057338402
-1.0594228622719992 -0.7174471609301504
-1.0594228622719992 -0.7008433833319953
-1.0384977053108253 -0.7174471609301504
-1.1431234901166953 -0.7506547161264605
-1.1012731761943473 -0.7340509385283054
-1.1221983331555214 -0.7008433833319953
-1.0803480192331734 -0.7008433833319953
-1.0384977053108253 -0.6842396057338402
-0.9757222344273032 -0.65103205053753
-0.9547970774661293 -0.634428272939375
-0.9547970774661293 -0.6842396057338402
-0.9966473913884772 -0.6842396057338402
-1.0384977053108253 -0.7340509385283054
-1.0384977053108253 -0.8004660489209258
-1.1221983331555214 -0.8170698265190809
-1.1431234901166953 -0.850277381715391
-1.1221983331555214 -0.8004660489209258
-1.1431234901166953 -0.7838622713227706
-1.1221983331555214 -0.6842396057338402
-1.0594228622719992 -0.7174471609301504
-0.9966473913884772 -0.6676358281356851
-0.9966473913884772 -0.7008433833319953
-0.9966473913884772 -0.7008433833319953
-1.0175725483496514 -0.6842396057338402
-1.0594228622719992 -0.7506547161264605
-1.0384977053108253 -0.7506547161264605
-1.1012731761943473 -0.8004660489209258
-1.1849738040390434 -0.7838622713227706
-1.1640486470778693 -0.8336736041172359
-1.1640486470778693 -0.7838622713227706
-1.1431234901166953 -0.7506547161264605
-1.0803480192331734 -0.7174471609301504
-1.0803480192331734 -0.634428272939375
-0.9966473913884772 -0.6842396057338402
-1.1012731761943473 -0.6676358281356851
-1.0803480192331734 -0.6842396057338402
-1.0594228622719992 -0.7838622713227706
-1.0594228622719992 -0.7838622713227706
-1.1012731761943473 -0.8170698265190809
-1.1221983331555214 -0.8336736041172359
-1.1640486470778693 -0.7838622713227706
-1.0594228622719992 -0.7340509385283054
-1.0175725483496514 -0.7506547161264605
-1.1012731761943473 -0.7008433833319953
-0.9757222344273032 -0.7174471609301504
-0.9966473913884772 -0.7008433833319953
-1.0175725483496514 -0.7340509385283054
-0.9966473913884772 -0.7174471609301504
-1.0594228622719992 -0.7672584937246156
-1.0803480192331734 -0.7838622713227706
-1.1012731761943473 -0.8004660489209258
-1.1640486470778693 -0.850277381715391
-1.1640486470778693 -0.8170698265190809
-1.1431234901166953 -0.7506547161264605
-1.0384977053108253 -0.7838622713227706
-1.0803480192331734 -0.6842396057338402
-1.0384977053108253 -0.7008433833319953
-0.9757222344273032 -0.6178244953412199
-0.9966473913884772 -0.7340509385283054
-1.0384977053108253 -0.7838622713227706
-1.0384977053108253 -0.7506547161264605
-1.0594228622719992 -0.8170698265190809
-1.1431234901166953 -0.8170698265190809
-1.2058989610002173 -0.850277381715391
-1.1849738040390434 -0.7838622713227706
-1.1849738040390434 -0.8004660489209258
-1.1640486470778693 -0.7838622713227706
-1.1012731761943473 -0.7340509385283054
-1.1431234901166953 -0.65103205053753
-1.0594228622719992 -0.7174471609301504
-1.0384977053108253 -0.7174471609301504
-1.0803480192331734 -0.7340509385283054
-1.1012731761943473 -0.8004660489209258
-1.1640486470778693 -0.7838622713227706
-1.1431234901166953 -0.8170698265190809
-1.1221983331555214 -0.8004660489209258
-1.1221983331555214 -0.8170698265190809
-1.1431234901166953 -0.8170698265190809
-1.1431234901166953 -0.7672584937246156
-1.0803480192331734 -0.7174471609301504
-1.0384977053108253 -0.6842396057338402
-1.0594228622719992 -0.7506547161264605
-1.0384977053108253 -0.7340509385283054
-1.0384977053108253 -0.8004660489209258
-1.1012731761943473 -0.8336736041172359
-1.0803480192331734 -0.8170698265190809
-1.1221983331555214 -0.8834849369117012
-1.1221983331555214 -0.8668811593135461
-1.1221983331555214 -0.8668811593135461
-1.1012731761943473 -0.8170698265190809
-1.0175725483496514 -0.7838622713227706
-0.9966473913884772 -0.7340509385283054
-0.9966473913884772 -0.7506547161264605
-1.0175725483496514 -0.8004660489209258
-0.9966473913884772 -0.7672584937246156
-0.9966473913884772 -0.7672584937246156
-0.9966473913884772 -0.8336736041172359
-1.0175725483496514 -0.850277381715391
-1.0175725483496514 -0.8336736041172359
-0.9966473913884772 -0.850277381715391
-0.9338719205049553 -0.9000887145098563
-0.8710964496214333 -0.8668811593135461
-0.8292461356990852 -0.8336736041172359
-0.8292461356990852 -0.850277381715391
-0.8083209787379112 -0.8004660489209258
-0.7873958217767372 -0.8004660489209258
-0.7036951939320412 -0.7838622713227706
-0.7036951939320412 -0.8170698265190809
-0.6409197230485192 -0.8004660489209258
-0.6409197230485192 -0.7838622713227706
-0.6199945660873452 -0.7506547161264605
-0.5781442521649971 -0.7340509385283054
-0.5990694091261711 -0.6676358281356851
-0.5572190952038232 -0.65103205053753
-0.49444362432030114 -0.5514093849485996
-0.4525933103979531 -0.4849942745559792
-0.4525933103979531 -0.46839049695782414
-0.5153687812814751 -0.4185791641633589
-0.5781442521649971 -0.4185791641633589
-0.6199945660873452 -0.46839049695782414
-0.6618448800096932 -0.5015980521541343
-0.7455455078543892 -0.5680131625467546
-0.7246203508932152 -0.5680131625467546
-0.7664706648155633 -0.5680131625467546
-0.7455455078543892 -0.5680131625467546
-0.8292461356990852 -0.5680131625467546
-0.8920216065826072 -0.5182018297522893
-0.8920216065826072 -0.5514093849485996
-0.9129467635437812 -0.5182018297522893
-0.9129467635437812 -0.5846169401449097
-0.9966473913884772 -0.65103205053753
-1.0175725483496514 -0.7008433833319953
-1.1221983331555214 -0.7672584937246156
-1.1849738040390434 -0.8336736041172359
-1.1849738040390434 -0.8336736041172359
-1.2477492749225654 -0.850277381715391
-1.2268241179613915 -0.8336736041172359
-1.3105247458060874 -0.8004660489209258
-1.2268241179613915 -0.8336736041172359
-1.2686744318837393 -0.7672584937246156
-1.2058989610002173 -0.7340509385283054
-1.2477492749225654 -0.7672584937246156
-1.1849738040390434 -0.8336736041172359
-1.2268241179613915 -0.8170698265190809
-1.2268241179613915 -0.9000887145098563
-1.3105247458060874 -0.9000887145098563
-1.3314499027672613 -0.9665038249024765
-1.3733002166896093 -0.9166924921080113
-1.3733002166896093 -0.9166924921080113
-1.3523750597284354 -0.9000887145098563
-1.3105247458060874 -0.8668811593135461
-1.3105247458060874 -0.9000887145098563
-1.2895995888449134 -0.8668811593135461
-1.2477492749225654 -0.8668811593135461
-1.2686744318837393 -0.8336736041172359
-1.2477492749225654 -0.8834849369117012
-1.2686744318837393 -0.8834849369117012
-1.2477492749225654 -0.9000887145098563
-1.2477492749225654 -0.9499000473043215
-1.2895995888449134 -0.9831076025006317
-1.2268241179613915 -0.8834849369117012
-1.2686744318837393 -0.8834849369117012
-1.0803480192331734 -0.8668811593135461
-0.8920216065826072 -0.7838622713227706
-0.49444362432030114 -0.5846169401449097
-0.07594048509682098 -0.26914516577996317
0.4053381250101812 0.11274171897760372
0.9284670490395314 0.6108550469222561
1.5143714439524034 1.2584023732503042
2.100275838865276 1.9391572547746627
2.33045256543819 2.603308358700866
2.497853821127582 3.3006670178233795
2.3723028793605376 3.8817992337588074
1.9119494262147096 4.230478563320064
1.1795689325736194 4.2138747857219085
0.2379368693207891 3.7821765681698767
-0.7664706648155633 2.985195243458433
-1.7499530419907414 1.9225534771765076
-2.586959320437702 0.776892822903807
-3.214714029272922 -0.3189564985744284
-3.382115284962314 -1.0661264904914072
-3.214714029272922 -1.3982020424545087
-2.900836674855312 -1.3483907096600434
-2.482333535631832 -1.082730268089562
-2.168456181214222 -0.8336736041172359
-1.8755039837577856 -0.6178244953412199
-1.6244021002236975 -0.5182018297522893
-1.4988511584566535 -0.4849942745559792
-1.3105247458060874 -0.5680131625467546
-1.1849738040390434 -0.6676358281356851
-1.0594228622719992 -0.6676358281356851
-1.0803480192331734 -0.7506547161264605
-1.1221983331555214 -0.7838622713227706
-1.1640486470778693 -0.8004660489209258
-1.2058989610002173 -0.8004660489209258
-1.2477492749225654 -0.8834849369117012
-1.1849738040390434 -0.8004660489209258
-1.1849738040390434 -0.850277381715391
-1.1640486470778693 -0.8004660489209258
-1.0594228622719992 -0.7838622713227706
-0.9757222344273032 -0.7838622713227706
-1.0175725483496514 -0.7506547161264605
-1.0175725483496514 -0.8336736041172359
-1.0175725483496514 -0.8004660489209258
-1.0384977053108253 -0.8336736041172359
-1.1012731761943473 -0.9000887145098563
-1.0175725483496514 -0.9166924921080113
-1.1012731761943473 -0.850277381715391
-1.1012731761943473 -0.8668811593135461
-1.0803480192331734 -0.8170698265190809
-1.0384977053108253 -0.8336736041172359
-0.9757222344273032 -0.7672584937246156
-0.9338719205049553 -0.7008433833319953
-0.8920216065826072 -0.7008433833319953
-0.8710964496214333 -0.6676358281356851
-0.9338719205049553 -0.7340509385283054
-0.8710964496214333 -0.7506547161264605
-0.9547970774661293 -0.7340509385283054
-0.9129467635437812 -0.7838622713227706
-0.9129467635437812 -0.7506547161264605
-0.9129467635437812 -0.7174471609301504
-0.9338719205049553 -0.6676358281356851
-0.8710964496214333 -0.65103205053753
-0.8083209787379112 -0.634428272939375
-0.8292461356990852 -0.65103205053753
-0.7873958217767372 -0.5015980521541343
-0.7873958217767372 -0.6012207177430647
-0.7246203508932152 -0.5514093849485996
-0.7873958217767372 -0.5846169401449097
-0.8083209787379112 -0.65103205053753
-0.8083209787379112 -0.6676358281356851
-0.8083209787379112 -0.6178244953412199
-0.8292461356990852 -0.5680131625467546
-0.8083209787379112 -0.5182018297522893
-0.7036951939320412 -0.5182018297522893
-0.6618448800096932 -0.4517867193596691
-0.6409197230485192 -0.43518294176151395
-0.5781442521649971 -0.38537160896704875
-0.5362939382426491 -0.36876783136889363
-0.5362939382426491 -0.36876783136889363
-0.49444362432030114 -0.4019753865652038
-0.5153687812814751 -0.38537160896704875
-0.5153687812814751 -0.35216405377073856
-0.5781442521649971 -0.38537160896704875
-0.5572190952038232 -0.35216405377073856
-0.4735184673591271 -0.3023527209762733
-0.3270423686309091 -0.25254138818180805
-0.34796752559208305 -0.16952250019103265
-0.24334174078621304 -0.08650361220025726
-0.22241658382503904 -0.10310738979841234
-0.22241658382503904 -0.03669227940579201
-0.138715955980343 -0.053296057003947093
-0.117790799019169 -0.08650361220025726
-0.138715955980343 -0.10310738979841234
-0.159641112941517 -0.06989983460210218
-0.138715955980343 -0.06989983460210218
-0.07594048509682098 0.013119053388673231
0.007760142747875037 0.04632660858498339
0.11238592755374507 0.14594927417391387
0.1960865553984411 0.2289681621646893
0.1960865553984411 0.3285908277536198
0.3216374971654851 0.3451946053517749
0.38441296804900715 0.3451946053517749
0.46811359589370316 0.36179838294992994
0.4890387528548772 0.44481727094070533
0.4890387528548772 0.39500593814624013
0.5727393806995732 0.44481727094070533
0.6355148515830953 0.5278361589314807
0.5936645376607472 0.5942512693241011
0.6564400085442692 0.561043714127791
0.7401406363889652 0.6938739349130316
0.8238412642336613 0.7436852677074968
0.9912425199230533 0.7436852677074968
1.0330928338454013 0.8101003781001171
1.0958683047289233 0.793496600501962
1.1167934616900974 0.793496600501962
1.1167934616900974 0.8599117108945824
1.0958683047289233 0.776892822903807
1.1167934616900974 0.8599117108945824
1.0749431477677494 0.7602890453056519
1.0958683047289233 0.8433079332964273
1.1167934616900974 0.9097230436890477
1.2004940895347933 0.9263268212872027
1.2004940895347933 0.9263268212872027
1.1586437756124455 0.9761381540816679
1.2004940895347933 0.9097230436890477
1.1795689325736194 0.8267041556982723
1.0540179908065754 0.7104777125111866
1.0121676768842274 0.7104777125111866
0.7819909503113133 0.5942512693241011
0.7192154794277913 0.4946286037351706
0.5936645376607472 0.4116097157443952
0.5099639098160512 0.378402160548085
0.3634878110878331 0.3285908277536198
0.2797871832431371 0.24557193976284436
0.1960865553984411 0.16255305177206897
0.11238592755374507 0.16255305177206897
0.09146077059257106 0.013119053388673231
-0.03409017117447297 -0.053296057003947093
-0.138715955980343 -0.16952250019103265
-0.28519205470856107 -0.26914516577996317
-0.4316681534367791 -0.35216405377073856
-0.5572190952038232 -0.43518294176151395
-0.6618448800096932 -0.4849942745559792
-0.7873958217767372 -0.5680131625467546
-0.8083209787379112 -0.5846169401449097
-0.8292461356990852 -0.6012207177430647
-0.8710964496214333 -0.634428272939375
-0.8710964496214333 -0.6012207177430647
-0.8920216065826072 -0.634428272939375
-0.8710964496214333 -0.7506547161264605
-0.9966473913884772 -0.7838622713227706
-0.9966473913884772 -0.8170698265190809
-1.0803480192331734 -0.850277381715391
-1.0594228622719992 -0.9332962697061664
-1.1431234901166953 -0.9665038249024765
-1.1640486470778693 -0.8834849369117012
-1.1640486470778693 -0.8834849369117012
-1.1640486470778693 -0.9000887145098563
-1.1849738040390434 -0.8668811593135461
-1.1640486470778693 -0.8336736041172359
-1.1221983331555214 -0.9166924921080113
-1.1640486470778693 -0.9166924921080113
-1.1640486470778693 -0.9166924921080113
-1.1221983331555214 -0.9000887145098563
-1.1849738040390434 -1.0163151576969418
-1.2268241179613915 -1.049522712893252
-1.2268241179613915 -1.0661264904914072
-1.2895995888449134 -1.049522712893252
-1.2895995888449134 -0.9997113800987868
-1.3105247458060874 -0.9997113800987868
-1.2895995888449134 -0.9499000473043215
-1.2268241179613915 -0.9000887145098563
-1.1640486470778693 -0.9332962697061664
-1.1640486470778693 -0.9166924921080113
-1.1221983331555214 -0.9166924921080113
-1.1431234901166953 -0.9831076025006317
-1.1849738040390434 -0.9997113800987868
-1.2686744318837393 -0.9499000473043215
-1.2686744318837393 -1.049522712893252
-1.3105247458060874 -0.9997113800987868
-1.2686744318837393 -0.9997113800987868
-1.2268241179613915 -0.9997113800987868
-1.2058989610002173 -0.9000887145098563
-1.2268241179613915 -0.9000887145098563
-1.1221983331555214 -0.8668811593135461
-1.1221983331555214 -0.9166924921080113
-1.1640486470778693 -0.9665038249024765
-1.1431234901166953 -0.9332962697061664
-1.1849738040390434 -0.9665038249024765
-1.2477492749225654 -0.9997113800987868
-1.2268241179613915 -1.049522712893252
-1.2477492749225654 -1.0163151576969418
-1.2686744318837393 -0.9831076025006317
-1.1431234901166953 -0.9332962697061664
-1.1221983331555214 -0.8336736041172359
-1.1221983331555214 -0.8834849369117012
-1.0594228622719992 -0.8834849369117012
-1.1221983331555214 -0.9499000473043215
-1.1431234901166953 -0.9000887145098563
-1.1640486470778693 -0.9831076025006317
-1.2477492749225654 -0.9997113800987868
-1.2686744318837393 -0.9831076025006317
-1.2477492749225654 -0.9997113800987868
-1.2895995888449134 -0.9665038249024765
-1.3105247458060874 -0.9000887145098563
-1.2477492749225654 -0.9332962697061664
-1.2268241179613915 -0.9166924921080113
-1.2477492749225654 -0.8834849369117012
-1.2268241179613915 -0.9499000473043215
-1.2268241179613915 -0.9166924921080113
-1.2058989610002173 -0.9332962697061664
-1.2895995888449134 -0.9831076025006317
-1.2895995888449134 -1.032918935295097
-1.3523750597284354 -1.032918935295097
-1.3523750597284354 -1.032918935295097
-1.3942253736507835 -1.049522712893252
-1.3942253736507835 -0.9997113800987868
-1.3733002166896093 -0.9000887145098563
-1.3733002166896093 -0.8834849369117012
-1.3314499027672613 -0.8834849369117012
-1.2477492749225654 -0.8834849369117012
-1.2895995888449134 -0.9166924921080113
-1.3105247458060874 -0.9665038249024765
-1.2686744318837393 -1.0163151576969418
-1.3733002166896093 -1.082730268089562
-1.4151505306119574 -1.082730268089562
-1.3942253736507835 -1.0993340456877172
-1.4570008445343055 -1.0993340456877172
-1.4360756875731313 -1.032918935295097
-1.4360756875731313 -1.0163151576969418
-1.3314499027672613 -0.9997113800987868
-1.3314499027672613 -0.9499000473043215
-1.3523750597284354 -0.9831076025006317
-1.3733002166896093 -0.9997113800987868
-1.3523750597284354 -1.0163151576969418
-1.3523750597284354 -1.0163151576969418
-1.3942253736507835 -1.0661264904914072
-1.4779260014954794 -1.1159378232858723
-1.4570008445343055 -1.1325416008840274
-1.5407014723790013 -1.0993340456877172
-1.5197763154178274 -1.032918935295097
-1.4779260014954794 -1.0661264904914072
-1.4151505306119574 -0.9997113800987868
-1.4570008445343055 -0.9332962697061664
-1.3314499027672613 -0.9665038249024765
-1.3523750597284354 -0.9665038249024765
-1.3733002166896093 -0.9665038249024765
-1.4151505306119574 -0.9665038249024765
-1.4360756875731313 -0.9499000473043215
-1.4360756875731313 -0.9997113800987868
-1.4360756875731313 -0.9997113800987868
-1.5616266293401755 -0.9332962697061664
-1.5197763154178274 -0.9665038249024765
-1.4570008445343055 -0.9332962697061664
-1.4988511584566535 -0.9166924921080113
-1.4988511584566535 -0.9166924921080113
-1.3942253736507835 -0.8834849369117012
-1.4360756875731313 -0.9665038249024765
-1.4779260014954794 -0.9665038249024765
-1.4988511584566535 -0.9831076025006317
-1.5197763154178274 -1.0163151576969418
-1.4988511584566535 -0.9831076025006317
-1.5616266293401755 -1.049522712893252
-1.6034769432625235 -1.032918935295097
-1.5825517863013494 -1.0163151576969418
-1.5825517863013494 -0.9997113800987868
-1.4570008445343055 -0.9499000473043215
-1.3733002166896093 -0.8834849369117012
-1.3105247458060874 -0.9166924921080113
-1.3523750597284354 -0.9166924921080113
-1.4151505306119574 -0.9499000473043215
-1.4151505306119574 -0.9665038249024765
-1.3942253736507835 -0.9665038249024765
-1.4360756875731313 -0.9997113800987868
-1.4570008445343055 -0.9997113800987868
-1.4779260014954794 -0.9665038249024765
-1.4779260014954794 -0.9665038249024765
-1.4360756875731313 -0.9000887145098563
-1.3733002166896093 -0.8668811593135461
-1.3105247458060874 -0.8336736041172359
-1.2895995888449134 -0.850277381715391
-1.2895995888449134 -0.8834849369117012
-1.4151505306119574 -0.9332962697061664
-1.4360756875731313 -0.9831076025006317
-1.4360756875731313 -0.9665038249024765
-1.4779260014954794 -0.9332962697061664
-1.4151505306119574 -0.9997113800987868
-1.4151505306119574 -0.9665038249024765
-1.3523750597284354 -0.9166924921080113
-1.3733002166896093 -0.8834849369117012
-1.3733002166896093 -0.8668811593135461
-1.3314499027672613 -0.8336736041172359
-1.2477492749225654 -0.8336736041172359
-1.2686744318837393 -0.850277381715391
-1.3105247458060874 -0.850277381715391
-1.2895995888449134 -0.9166924921080113
-1.3314499027672613 -0.9166924921080113
-1.3523750597284354 -0.9831076025006317
-1.3942253736507835 -0.9499000473043215
-1.4360756875731313 -0.9332962697061664
-1.4360756875731313 -0.8834849369117012
-1.3942253736507835 -0.850277381715391
-1.2895995888449134 -0.8004660489209258
-1.2895995888449134 -0.8336736041172359
-1.2895995888449134 -0.8004660489209258
-1.2895995888449134 -0.8668811593135461
-1.3314499027672613 -0.8668811593135461
-1.3105247458060874 -0.9166924921080113
-1.3942253736507835 -0.9000887145098563
-1.3733002166896093 -0.9332962697061664
-1.3942253736507835 -0.9166924921080113
-1.4988511584566535 -0.8834849369117012
-1.4570008445343055 -0.8834849369117012
-1.3314499027672613 -0.850277381715391
-1.3105247458060874 -0.8170698265190809
-1.2477492749225654 -0.7506547161264605
-1.2895995888449134 -0.7672584937246156
-1.2477492749225654 -0.7838622713227706
-1.3105247458060874 -0.7340509385283054
-1.3523750597284354 -0.850277381715391
-1.4151505306119574 -0.8834849369117012
-1.4151505306119574 -0.9000887145098563
-1.3942253736507835 -0.8170698265190809
-1.4360756875731313 -0.8668811593135461
-1.3942253736507835 -0.8170698265190809
-1.3733002166896093 -0.8004660489209258
-1.2895995888449134 -0.7672584937246156
-1.2895995888449134 -0.7008433833319953
-1.1849738040390434 -0.7506547161264605
-1.2058989610002173 -0.7340509385283054
-1.2268241179613915 -0.7340509385283054
-1.2477492749225654 -0.8004660489209258
-1.3105247458060874 -0.8004660489209258
-1.3523750597284354 -0.850277381715391
-1.4151505306119574 -0.8336736041172359
-1.4570008445343055 -0.8170698265190809
-1.4779260014954794 -0.7506547161264605
-1.3733002166896093 -0.7838622713227706
-1.3942253736507835 -0.7340509385283054
-1.2895995888449134 -0.7008433833319953
-1.2477492749225654 -0.6842396057338402
-1.2686744318837393 -0.7340509385283054
-1.2268241179613915 -0.7174471609301504
-1.2895995888449134 -0.7340509385283054
-1.3523750597284354 -0.7672584937246156
-1.3733002166896093 -0.7506547161264605
-1.3733002166896093 -0.8170698265190809
-1.3733002166896093 -0.7506547161264605
-1.3942253736507835 -0.7672584937246156
-1.3105247458060874 -0.6842396057338402
-1.2477492749225654 -0.7008433833319953
-1.2477492749225654 -0.7008433833319953
-1.1640486470778693 -0.6842396057338402
-1.2477492749225654 -0.634428272939375
-1.2477492749225654 -0.7008433833319953
-1.3105247458060874 -0.7340509385283054
-1.3314499027672613 -0.7008433833319953
-1.3105247458060874 -0.7340509385283054
-1.2268241179613915 -0.7008433833319953
-1.2477492749225654 -0.7340509385283054
-1.2686744318837393 -0.7506547161264605
-1.1640486470778693 -0.6842396057338402
-1.0175725483496514 -0.7008433833319953
-0.9757222344273032 -0.7340509385283054
-0.9338719205049553 -0.6676358281356851
-0.9966473913884772 -0.6178244953412199
-0.9547970774661293 -0.6012207177430647
-0.9547970774661293 -0.6178244953412199
-0.8501712926602593 -0.6676358281356851
-0.8710964496214333 -0.634428272939375
-0.8710964496214333 -0.6012207177430647
-0.8501712926602593 -0.5846169401449097
-0.8083209787379112 -0.5348056073504445
-0.7036951939320412 -0.4517867193596691
-0.5781442521649971 -0.36876783136889363
-0.5362939382426491 -0.25254138818180805
-0.5572190952038232 -0.25254138818180805
-0.5572190952038232 -0.23593761058365298
-0.7036951939320412 -0.18612627778918775
-0.7664706648155633 -0.26914516577996317
-0.8501712926602593 -0.23593761058365298
-0.8710964496214333 -0.26914516577996317
-0.8920216065826072 -0.3189564985744284
-1.0384977053108253 -0.3023527209762733
-1.0384977053108253 -0.28574894337811824
-1.1012731761943473 -0.3023527209762733
-1.1012731761943473 -0.3023527209762733
-1.0594228622719992 -0.26914516577996317
-1.0803480192331734 -0.3189564985744284
-1.1221983331555214 -0.3355602761725835
-1.1012731761943473 -0.36876783136889363
-1.2058989610002173 -0.4517867193596691
-1.2058989610002173 -0.4849942745559792
-1.3314499027672613 -0.5680131625467546
-1.2895995888449134 -0.6012207177430647
-1.3733002166896093 -0.5846169401449097
-1.3314499027672613 -0.5846169401449097
-1.3314499027672613 -0.5182018297522893
-1.3105247458060874 -0.5015980521541343
-1.2895995888449134 -0.5182018297522893
-1.2477492749225654 -0.5348056073504445
-1.2895995888449134 -0.5182018297522893
-1.2477492749225654 -0.6178244953412199
-1.2895995888449134 -0.6012207177430647
-1.3105247458060874 -0.6012207177430647
-1.3314499027672613 -0.6178244953412199
-1.3942253736507835 -0.6676358281356851
-1.4151505306119574 -0.65103205053753
-1.4779260014954794 -0.6012207177430647
-1.4570008445343055 -0.5846169401449097
-1.3942253736507835 -0.5514093849485996
-1.3733002166896093 -0.5846169401449097
-1.2895995888449134 -0.5348056073504445
-1.2268241179613915 -0.5514093849485996
-1.3105247458060874 -0.6178244953412199
-1.3105247458060874 -0.5680131625467546
-1.2477492749225654 -0.634428272939375
-1.2686744318837393 -0.5846169401449097
-1.2895995888449134 -0.634428272939375
-1.3314499027672613 -0.5846169401449097
-1.2477492749225654 -0.6178244953412199
-1.1431234901166953 -0.5348056073504445
-0.9129467635437812 -0.4517867193596691
-0.5781442521649971 -0.3189564985744284
-0.18056626990269103 -0.0034847242094818505
0.11238592755374507 0.36179838294992994
0.5308890667772252 0.8931192660908925
1.0749431477677494 1.4410439268300101
1.4097456591465334 2.0387799203635932
1.4934462869912295 2.5534970259064007
1.4515959730688814 3.1014216866455184
1.0749431477677494 3.4667047938049302
0.4471884389325292 3.5663274593938605
-0.24334174078621304 3.350478350617845
-1.1849738040390434 2.835761245075037
-2.1266058672918735 2.0387799203635932
-2.817136047010616 1.0591570420724434
-3.507666226729358 -0.0034847242094818505
-3.8424687381081424 -0.9665038249024765
-3.8633938950693163 -1.6140511512305247
-3.6332171684964023 -1.9461267031936265
-3.277489500156444 -1.7800889272120757
-2.83806120397179 -1.4314095976508188
-2.5451090065153537 -1.0163151576969418
-2.273081966020092 -0.7340509385283054
-2.0847555533695257 -0.5348056073504445
-1.7918033559130895 -0.4517867193596691
-1.6034769432625235 -0.4185791641633589
-1.4151505306119574 -0.4849942745559792
-1.1849738040390434 -0.4185791641633589
-1.1012731761943473 -0.4185791641633589
-1.0803480192331734 -0.38537160896704875
-1.1012731761943473 -0.4517867193596691
-1.1849738040390434 -0.46839049695782414
-1.1640486470778693 -0.46839049695782414
-1.2477492749225654 -0.46839049695782414
-1.2477492749225654 -0.46839049695782414
-1.1221983331555214 -0.38537160896704875
-1.0803480192331734 -0.38537160896704875
-0.9757222344273032 -0.3355602761725835
-0.9129467635437812 -0.3355602761725835
-0.9757222344273032 -0.3189564985744284
-0.8920216065826072 -0.3023527209762733
-0.9338719205049553 -0.35216405377073856
-0.9547970774661293 -0.3355602761725835
-0.8920216065826072 -0.36876783136889363
-0.9129467635437812 -0.28574894337811824
-0.9129467635437812 -0.26914516577996317
-0.8920216065826072 -0.28574894337811824
-0.9129467635437812 -0.2193338329854979
-0.8292461356990852 -0.18612627778918775
-0.7455455078543892 -0.16952250019103265
-0.7873958217767372 -0.18612627778918775
-0.7664706648155633 -0.18612627778918775
-0.7246203508932152 -0.20273005538734282
-0.7455455078543892 -0.2193338329854979
-0.7873958217767372 -0.18612627778918775
-0.7664706648155633 -0.23593761058365298
-0.8292461356990852 -0.2193338329854979
-0.7873958217767372 -0.20273005538734282
-0.8083209787379112 -0.16952250019103265
-0.7455455078543892 -0.06989983460210218
-0.6618448800096932 -0.08650361220025726
-0.5781442521649971 -0.02008850180763693
-0.5781442521649971 0.013119053388673231
-0.5990694091261711 -0.02008850180763693
-0.5781442521649971 -0.03669227940579201
-0.5781442521649971 -0.053296057003947093
-0.6827700369708671 -0.06989983460210218
-0.7036951939320412 -0.0034847242094818505
-0.6827700369708671 -0.02008850180763693
-0.7246203508932152 0.04632660858498339
-0.5990694091261711 0.11274171897760372
-0.5781442521649971 0.14594927417391387
-0.5362939382426491 0.2123643845665342
-0.4316681534367791 0.27877949495915455
-0.30611721166973505 0.3285908277536198
-0.34796752559208305 0.2953832725573096
-0.3270423686309091 0.3119870501554647
-0.3688926825532571 0.3119870501554647
-0.26426689774738704 0.3451946053517749
-0.34796752559208305 0.3119870501554647
-0.30611721166973505 0.3285908277536198
-0.24334174078621304 0.39500593814624013
-0.24334174078621304 0.46142104853886046
-0.117790799019169 0.4780248261370155
-0.07594048509682098 0.561043714127791
0.007760142747875037 0.6606663797167214
0.11238592755374507 0.6606663797167214
0.11238592755374507 0.6938739349130316
0.09146077059257106 0.7436852677074968
0.15423624147609308 0.7436852677074968
0.15423624147609308 0.7436852677074968
0.2170117123596151 0.793496600501962
0.25886202628196314 0.8433079332964273
0.30071234020431115 0.8599117108945824
0.34256265412665915 0.992741931679823
0.46811359589370316 1.0757608196705986
0.5727393806995732 1.1753834852595288
0.6564400085442692 1.2584023732503042
0.7819909503113133 1.2750061508484594
0.9075418920783573 1.3248174836429247
0.8238412642336613 1.3746288164373899
0.8866167351171833 1.3414212612410799
0.8866167351171833 1.4078363716337001
0.9912425199230533 1.4410439268300101
1.0749431477677494 1.5074590372226306
1.0958683047289233 1.5240628148207858
1.1167934616900974 1.6070817028115612
1.2004940895347933 1.6734968132041814
1.3260450313018375 1.773119478793112
1.3888205021853595 1.806327033989422
1.5143714439524034 1.8727421443820425
1.5143714439524034 1.8395345891857322
1.4934462869912295 1.8561383667838873
1.5562217578747515 1.822930811587577
1.4515959730688814 1.8395345891857322
1.4515959730688814 1.822930811587577
1.4306708161077075 1.806327033989422
1.3888205021853595 1.822930811587577
1.4934462869912295 1.806327033989422
1.4725211300300556 1.8727421443820425
1.5143714439524034 1.8561383667838873
1.4725211300300556 1.9225534771765076
1.4934462869912295 1.8893459219801974
1.4725211300300556 1.7399119235968017
1.3469701882630114 1.6568930356060263
1.3051198743406633 1.5572703700170958
1.2214192464959674 1.4908552596244755
1.0540179908065754 1.391232594035545
0.9493922060007053 1.2417985956521493
0.8238412642336613 1.191987262857684
0.6982903224666173 1.1089683748669086
0.5936645376607472 1.0591570420724434
0.5308890667772252 1.0259494868761332
0.4471884389325292 0.9429305988853578
0.38441296804900715 0.8599117108945824
0.2797871832431371 0.7270814901093418
0.17516139843726708 0.6108550469222561
0.028685299709049043 0.5278361589314807
-0.096865642057995 0.378402160548085
-0.18056626990269103 0.27877949495915455
-0.34796752559208305 0.19576060696837913
-0.3898178395144311 0.14594927417391387
-0.4107429964756051 0.14594927417391387
-0.4525933103979531 0.11274171897760372
-0.49444362432030114 0.11274171897760372
-0.5153687812814751 0.09613794137944864
-0.49444362432030114 0.04632660858498339
-0.5153687812814751 -0.02008850180763693
-0.6409197230485192 -0.06989983460210218
-0.5990694091261711 -0.10310738979841234
-0.7246203508932152 -0.16952250019103265
-0.7873958217767372 -0.23593761058365298
-0.7664706648155633 -0.25254138818180805
-0.8710964496214333 -0.25254138818180805
-0.8292461356990852 -0.26914516577996317
-0.8292461356990852 -0.2193338329854979
-0.7873958217767372 -0.18612627778918775
-0.7873958217767372 -0.2193338329854979
-0.7664706648155633 -0.16952250019103265
-0.8292461356990852 -0.20273005538734282
-0.7664706648155633 -0.23593761058365298
-0.7873958217767372 -0.25254138818180805
-0.8501712926602593 -0.28574894337811824
-0.8501712926602593 -0.3189564985744284
-0.9547970774661293 -0.3189564985744284
-0.9338719205049553 -0.3355602761725835
-0.9757222344273032 -0.35216405377073856
-0.8710964496214333 -0.2193338329854979
-0.8292461356990852 -0.26914516577996317
-0.8292461356990852 -0.23593761058365298
-0.7664706648155633 -0.20273005538734282
-0.7873958217767372 -0.23593761058365298
-0.8501712926602593 -0.2193338329854979
-0.7873958217767372 -0.3189564985744284
-0.8501712926602593 -0.3189564985744284
-0.8710964496214333 -0.3355602761725835
-0.9129467635437812 -0.3355602761725835
-0.9338719205049553 -0.3189564985744284
-0.8920216065826072 -0.28574894337811824
-0.9338719205049553 -0.26914516577996317
-0.8710964496214333 -0.25254138818180805
-0.7873958217767372 -0.25254138818180805
-0.7664706648155633 -0.23593761058365298
-0.7246203508932152 -0.26914516577996317
-0.7873958217767372 -0.26914516577996317
-0.8292461356990852 -0.28574894337811824
-0.7873958217767372 -0.3189564985744284
-0.8710964496214333 -0.4185791641633589
-0.8710964496214333 -0.3355602761725835
-0.9129467635437812 -0.35216405377073856
-0.8920216065826072 -0.28574894337811824
-0.9129467635437812 -0.3189564985744284
-0.9129467635437812 -0.25254138818180805
-0.8710964496214333 -0.2193338329854979
-0.7664706648155633 -0.20273005538734282
-0.8292461356990852 -0.26914516577996317
-0.8710964496214333 -0.23593761058365298
-0.8292461356990852 -0.28574894337811824
-0.8920216065826072 -0.36876783136889363
-1.0803480192331734 -0.3189564985744284
-0.9757222344273032 -0.36876783136889363
-0.9757222344273032 -0.3189564985744284
-0.9757222344273032 -0.3189564985744284
-1.0175725483496514 -0.26914516577996317
-1.0384977053108253 -0.3189564985744284
-0.9547970774661293 -0.25254138818180805
-0.8710964496214333 -0.23593761058365298
-0.8710964496214333 -0.25254138818180805
-0.8710964496214333 -0.26914516577996317
-0.9338719205049553 -0.3189564985744284
-1.0175725483496514 -0.35216405377073856
-0.9547970774661293 -0.4019753865652038
-0.9966473913884772 -0.4019753865652038
-1.1431234901166953 -0.36876783136889363
-1.1640486470778693 -0.35216405377073856
-1.1640486470778693 -0.3355602761725835
-1.0803480192331734 -0.3023527209762733
-0.9966473913884772 -0.28574894337811824
-0.9547970774661293 -0.26914516577996317
-1.0175725483496514 -0.3189564985744284
-1.0175725483496514 -0.36876783136889363
-1.0175725483496514 -0.4019753865652038
-1.0594228622719992 -0.4517867193596691
-1.0594228622719992 -0.4517867193596691
-1.1431234901166953 -0.5015980521541343
-1.1640486470778693 -0.5348056073504445
-1.1640486470778693 -0.5182018297522893
-1.1012731761943473 -0.4849942745559792
-1.0384977053108253 -0.4517867193596691
-1.0803480192331734 -0.36876783136889363
-1.0175725483496514 -0.4185791641633589
-0.9547970774661293 -0.4517867193596691
-0.9966473913884772 -0.38537160896704875
-0.9966473913884772 -0.43518294176151395
-1.0384977053108253 -0.4517867193596691
-1.1012731761943473 -0.4517867193596691
-1.0803480192331734 -0.38537160896704875
-1.1640486470778693 -0.4517867193596691
-1.1640486470778693 -0.4517867193596691
-1.0803480192331734 -0.4185791641633589
-1.0175725483496514 -0.4185791641633589
-1.0384977053108253 -0.35216405377073856
-0.9129467635437812 -0.35216405377073856
-0.9757222344273032 -0.3355602761725835
-0.9966473913884772 -0.36876783136889363
-1.0175725483496514 -0.4517867193596691
-1.0594228622719992 -0.43518294176151395
-1.1640486470778693 -0.5182018297522893
-1.1431234901166953 -0.5015980521541343
-1.1849738040390434 -0.43518294176151395
-1.1849738040390434 -0.4517867193596691
-1.0594228622719992 -0.4019753865652038
-1.1640486470778693 -0.36876783136889363
-1.0384977053108253 -0.35216405377073856
-0.9966473913884772 -0.36876783136889363
-1.0384977053108253 -0.4019753865652038
-0.9966473913884772 -0.38537160896704875
-1.0384977053108253 -0.4517867193596691
-1.0594228622719992 -0.46839049695782414
-1.1012731761943473 -0.4517867193596691
-1.2058989610002173 -0.46839049695782414
-1.1849738040390434 -0.4849942745559792
-1.1849738040390434 -0.4517867193596691
-1.1221983331555214 -0.4185791641633589
-1.0384977053108253 -0.36876783136889363
-1.0803480192331734 -0.36876783136889363
-0.9966473913884772 -0.38537160896704875
-1.0175725483496514 -0.3189564985744284
-1.0594228622719992 -0.4185791641633589
-1.1012731761943473 -0.4019753865652038
-1.1012731761943473 -0.4849942745559792
-1.1012731761943473 -0.46839049695782414
-1.1221983331555214 -0.5182018297522893
-1.1012731761943473 -0.4849942745559792
-1.1431234901166953 -0.43518294176151395
-1.1012731761943473 -0.38537160896704875
-1.1012731761943473 -0.35216405377073856
-1.0803480192331734 -0.35216405377073856
-1.0384977053108253 -0.3355602761725835
-0.9966473913884772 -0.4019753865652038
-1.0594228622719992 -0.36876783136889363
-1.0384977053108253 -0.4517867193596691
-1.0594228622719992 -0.43518294176151395
-1.1012731761943473 -0.5015980521541343
-1.1221983331555214 -0.5015980521541343
-1.1431234901166953 -0.46839049695782414
-1.1640486470778693 -0.4517867193596691
-1.1221983331555214 -0.4185791641633589
-1.1012731761943473 -0.4019753865652038
-1.0594228622719992 -0.35216405377073856
-1.0384977053108253 -0.35216405377073856
-1.0384977053108253 -0.38537160896704875
-1.1012731761943473 -0.3355602761725835
-1.0594228622719992 -0.4019753865652038
-1.1012731761943473 -0.46839049695782414
-1.0803480192331734 -0.43518294176151395
-1.1012731761943473 -0.5015980521541343
-1.1431234901166953 -0.4849942745559792
-1.1431234901166953 -0.4517867193596691
-1.0384977053108253 -0.35216405377073856
-1.0384977053108253 -0.36876783136889363
-0.9757222344273032 -0.38537160896704875
-0.9547970774661293 -0.3189564985744284
-0.9338719205049553 -0.3355602761725835
-0.9757222344273032 -0.4019753865652038
-0.9966473913884772 -0.36876783136889363
-1.0594228622719992 -0.43518294176151395
-1.1640486470778693 -0.43518294176151395
-1.2058989610002173 -0.43518294176151395
-1.1431234901166953 -0.4517867193596691
-1.1221983331555214 -0.4019753865652038
-1.0803480192331734 -0.38537160896704875
-1.0594228622719992 -0.4185791641633589
-1.0175725483496514 -0.3355602761725835
-0.9338719205049553 -0.36876783136889363
-0.9757222344273032 -0.36876783136889363
-1.0175725483496514 -0.46839049695782414
-1.0175725483496514 -0.46839049695782414
-1.0803480192331734 -0.5015980521541343
-1.1221983331555214 -0.5015980521541343
-1.0803480192331734 -0.5348056073504445
-1.1221983331555214 -0.5182018297522893
-1.1221983331555214 -0.46839049695782414
-1.1012731761943473 -0.4019753865652038
-1.0384977053108253 -0.38537160896704875
-1.0175725483496514 -0.35216405377073856
-0.9338719205049553 -0.35216405377073856
-0.9338719205049553 -0.36876783136889363
-0.9757222344273032 -0.36876783136889363
-0.9757222344273032 -0.46839049695782414
-1.0803480192331734 -0.4517867193596691
-1.1221983331555214 -0.46839049695782414
-1.0803480192331734 -0.46839049695782414
-1.1221983331555214 -0.46839049695782414
-1.1431234901166953 -0.4849942745559792
-1.1012731761943473 -0.4019753865652038
-1.0384977053108253 -0.4019753865652038
-1.0175725483496514 -0.35216405377073856
-0.9338719205049553 -0.36876783136889363
-0.9757222344273032 -0.3355602761725835
-1.0175725483496514 -0.35216405377073856
-0.9547970774661293 -0.4019753865652038
-0.9338719205049553 -0.4517867193596691
-0.9966473913884772 -0.43518294176151395
-1.1012731761943473 -0.4517867193596691
-1.1221983331555214 -0.43518294176151395
-1.1221983331555214 -0.36876783136889363
-1.0594228622719992 -0.4185791641633589
-1.0175725483496514 -0.38537160896704875
-0.9757222344273032 -0.28574894337811824
-0.9129467635437812 -0.36876783136889363
-0.8501712926602593 -0.3355602761725835
-0.9338719205049553 -0.3355602761725835
-0.8710964496214333 -0.4517867193596691
-0.8920216065826072 -0.43518294176151395
-0.9547970774661293 -0.46839049695782414
-0.8292461356990852 -0.4849942745559792
-0.9338719205049553 -0.4849942745559792
-0.8292461356990852 -0.5015980521541343
-0.7455455078543892 -0.4517867193596691
-0.7246203508932152 -0.38537160896704875
-0.6199945660873452 -0.36876783136889363
-0.5362939382426491 -0.3189564985744284
-0.5572190952038232 -0.3189564985744284
-0.49444362432030114 -0.26914516577996317
-0.4107429964756051 -0.28574894337811824
-0.4107429964756051 -0.25254138818180805
-0.3688926825532571 -0.28574894337811824
-0.3270423686309091 -0.23593761058365298
-0.4107429964756051 -0.10310738979841234
-0.49444362432030114 -0.08650361220025726
-0.49444362432030114 0.013119053388673231
-0.5153687812814751 -0.0034847242094818505
-0.49444362432030114 0.04632660858498339
-0.49444362432030114 0.07953416378129356
-0.49444362432030114 0.013119053388673231
-0.5990694091261711 -0.02008850180763693
-0.6409197230485192 -0.03669227940579201
-0.7873958217767372 -0.03669227940579201
-0.8292461356990852 -0.1363149449947225
-0.8710964496214333 -0.1363149449947225
-0.9129467635437812 -0.1529187225928776
-0.9757222344273032 -0.16952250019103265
-0.9757222344273032 -0.18612627778918775
-0.9338719205049553 -0.25254138818180805
-0.9338719205049553 -0.25254138818180805
-0.9129467635437812 -0.3189564985744284
-0.9129467635437812 -0.28574894337811824
-1.0384977053108253 -0.3189564985744284
-1.0384977053108253 -0.36876783136889363
-1.1012731761943473 -0.4185791641633589
-1.1012731761943473 -0.43518294176151395
-1.1640486470778693 -0.43518294176151395
-1.1640486470778693 -0.46839049695782414
-1.2268241179613915 -0.4185791641633589
-1.2058989610002173 -0.4019753865652038
-1.1431234901166953 -0.43518294176151395
-1.1012731761943473 -0.36876783136889363
-1.0803480192331734 -0.36876783136889363
-1.0384977053108253 -0.38537160896704875
-1.0594228622719992 -0.4185791641633589
-1.1221983331555214 -0.4517867193596691
-1.1012731761943473 -0.4849942745559792
-1.1849738040390434 -0.5182018297522893
-1.1849738040390434 -0.5182018297522893
-1.2058989610002173 -0.46839049695782414
-1.1849738040390434 -0.46839049695782414
-1.1431234901166953 -0.4019753865652038
-1.0803480192331734 -0.4185791641633589
-1.0175725483496514 -0.36876783136889363
-0.9966473913884772 -0.35216405377073856
-0.9966473913884772 -0.38537160896704875
-1.0175725483496514 -0.38537160896704875
-0.9757222344273032 -0.38537160896704875
-0.9966473913884772 -0.43518294176151395
-0.9547970774661293 -0.4517867193596691
-0.8292461356990852 -0.43518294176151395
-0.5990694091261711 -0.4019753865652038
-0.20149142686386504 -0.08650361220025726
0.3216374971654851 0.36179838294992994
0.9075418920783573 0.8101003781001171
1.4725211300300556 1.4576477044281653
2.079350681904102 2.1217988083543684
2.5815544489722777 2.8855725778695023
2.8117311755451917 3.616138792188326
2.74895570466167 4.164063452927444
2.43507835024406 4.512742782488701
1.6608475426806215 4.562554115283166
0.7401406363889652 4.263686118516374
-0.30611721166973505 3.5663274593938605
-1.3523750597284354 2.586704581102711
-2.3149322799424397 1.4576477044281653
-2.9845373027000077 0.39500593814624013
-3.277489500156444 -0.5182018297522893
-3.110088244467052 -0.9499000473043215
-2.7543605761270937 -0.9499000473043215
-2.3358574369036136 -0.7838622713227706
-1.9592046116024815 -0.46839049695782414
-1.6453272571848714 -0.25254138818180805
-1.4779260014954794 -0.18612627778918775
-1.3523750597284354 -0.20273005538734282
-1.3105247458060874 -0.20273005538734282
-1.0803480192331734 -0.28574894337811824
-1.1012731761943473 -0.3023527209762733
-0.9757222344273032 -0.26914516577996317
-0.9129467635437812 -0.25254138818180805
-0.8292461356990852 -0.26914516577996317
-0.8501712926602593 -0.3023527209762733
-0.8710964496214333 -0.3355602761725835
-0.8920216065826072 -0.36876783136889363
-0.9129467635437812 -0.38537160896704875
-0.9338719205049553 -0.38537160896704875
-0.8920216065826072 -0.38537160896704875
-0.9129467635437812 -0.4019753865652038
-0.9129467635437812 -0.3189564985744284
-0.9129467635437812 -0.28574894337811824
-0.7873958217767372 -0.26914516577996317
-0.7873958217767372 -0.28574894337811824
-0.7664706648155633 -0.28574894337811824
-0.7036951939320412 -0.3023527209762733
-0.6827700369708671 -0.25254138818180805
-0.6618448800096932 -0.28574894337811824
-0.7246203508932152 -0.3189564985744284
-0.7246203508932152 -0.38537160896704875
-0.8083209787379112 -0.35216405377073856
-0.8083209787379112 -0.35216405377073856
-0.8501712926602593 -0.3023527209762733
-0.7664706648155633 -0.26914516577996317
-0.6827700369708671 -0.23593761058365298
-0.6618448800096932 -0.18612627778918775
-0.5990694091261711 -0.16952250019103265
-0.5781442521649971 -0.18612627778918775
-0.5362939382426491 -0.20273005538734282
-0.5362939382426491 -0.26914516577996317
-0.5990694091261711 -0.23593761058365298
-0.6199945660873452 -0.3023527209762733
-0.6199945660873452 -0.26914516577996317
-0.6199945660873452 -0.2193338329854979
-0.6199945660873452 -0.16952250019103265
-0.6199945660873452 -0.16952250019103265
-0.4735184673591271 -0.08650361220025726
-0.4735184673591271 -0.08650361220025726
-0.3688926825532571 -0.10310738979841234
-0.4107429964756051 -0.06989983460210218
-0.3898178395144311 -0.10310738979841234
-0.34796752559208305 -0.11971116739656743
-0.3898178395144311 -0.1363149449947225
-0.3898178395144311 -0.1529187225928776
-0.4316681534367791 -0.11971116739656743
-0.4735184673591271 -0.10310738979841234
-0.4525933103979531 -0.03669227940579201
-0.3688926825532571 -0.02008850180763693
-0.26426689774738704 0.04632660858498339
-0.22241658382503904 0.06293038618313848
-0.18056626990269103 0.06293038618313848
-0.159641112941517 0.11274171897760372
-0.117790799019169 0.14594927417391387
-0.07594048509682098 0.09613794137944864
-0.117790799019169 0.06293038618313848
-0.096865642057995 0.14594927417391387
-0.05501532813564698 0.1293454965757588
-0.138715955980343 0.11274171897760372
-0.01316501421329897 0.16255305177206897
-0.07594048509682098 0.27877949495915455
0.028685299709049043 0.27877949495915455
0.11238592755374507 0.39500593814624013
0.3216374971654851 0.42821349334255027
0.3634878110878331 0.4116097157443952
0.4053381250101812 0.4780248261370155
0.34256265412665915 0.4780248261370155
0.46811359589370316 0.46142104853886046
0.4471884389325292 0.46142104853886046
0.4471884389325292 0.5444399365296358
0.5308890667772252 0.6274588245204112
0.5936645376607472 0.6772701573148765
0.6982903224666173 0.776892822903807
0.8029161072724873 0.8101003781001171
0.9075418920783573 0.8599117108945824
0.9284670490395314 0.9263268212872027
1.0330928338454013 0.9429305988853578
1.0958683047289233 0.992741931679823
1.0958683047289233 0.9761381540816679
1.1795689325736194 1.0259494868761332
1.1795689325736194 0.992741931679823
1.1795689325736194 1.0259494868761332
1.2423444034571414 1.0425532644742883
1.2841947173794894 1.0923645972687535
1.3260450313018375 1.208591040455839
1.4097456591465334 1.2417985956521493
1.4306708161077075 1.2750061508484594
1.5143714439524034 1.2916099284466145
1.5562217578747515 1.2916099284466145
1.5562217578747515 1.2417985956521493
1.5562217578747515 1.2417985956521493
1.5562217578747515 1.2251948180539942
1.4934462869912295 1.1421759300632188
1.4306708161077075 1.1421759300632188
1.3888205021853595 1.158779707661374
1.4097456591465334 1.158779707661374
1.3260450313018375 1.1255721524650637
1.3260450313018375 1.1255721524650637
1.2632695604183155 1.1089683748669086
1.2004940895347933 1.009345709277978
1.1586437756124455 0.9097230436890477
1.1167934616900974 0.9097230436890477
0.9912425199230533 0.7270814901093418
0.8447664211948352 0.6108550469222561
0.6982903224666173 0.5278361589314807
0.5518142237383992 0.4116097157443952
0.2797871832431371 0.3119870501554647
0.11238592755374507 0.27877949495915455
0.09146077059257106 0.2289681621646893
0.028685299709049043 0.09613794137944864
0.007760142747875037 0.07953416378129356
-0.03409017117447297 0.029722830986828312
-0.096865642057995 -0.0034847242094818505
-0.24334174078621304 -0.16952250019103265
-0.28519205470856107 -0.25254138818180805
-0.4107429964756051 -0.3189564985744284
-0.5153687812814751 -0.43518294176151395
-0.5990694091261711 -0.46839049695782414
-0.7036951939320412 -0.46839049695782414
-0.7246203508932152 -0.5015980521541343
-0.7036951939320412 -0.4849942745559792
-0.7036951939320412 -0.46839049695782414
-0.7036951939320412 -0.5182018297522893
-0.6618448800096932 -0.4849942745559792
-0.7036951939320412 -0.5846169401449097
-0.7246203508932152 -0.6178244953412199
-0.7873958217767372 -0.65103205053753
-0.8083209787379112 -0.7174471609301504
-0.8501712926602593 -0.7672584937246156
-0.9338719205049553 -0.7506547161264605
-0.9129467635437812 -0.7506547161264605
-0.9966473913884772 -0.7506547161264605
-0.9757222344273032 -0.634428272939375
-0.9547970774661293 -0.6676358281356851
-0.9129467635437812 -0.6676358281356851
-0.8083209787379112 -0.6676358281356851
-0.8920216065826072 -0.6842396057338402
-0.9129467635437812 -0.6676358281356851
-0.8710964496214333 -0.7506547161264605
-0.9338719205049553 -0.8004660489209258
-0.9547970774661293 -0.8004660489209258
-0.9547970774661293 -0.8170698265190809
-0.9338719205049553 -0.8336736041172359
-1.0175725483496514 -0.7174471609301504
-0.9547970774661293 -0.7672584937246156
-0.8501712926602593 -0.7506547161264605
-0.8501712926602593 -0.7008433833319953
-0.8292461356990852 -0.6842396057338402
-0.8501712926602593 -0.7340509385283054
-0.7873958217767372 -0.7340509385283054
-0.8501712926602593 -0.7838622713227706
-0.8920216065826072 -0.8170698265190809
-0.8710964496214333 -0.8336736041172359
-0.9129467635437812 -0.8336736041172359
-0.9547970774661293 -0.8170698265190809
-0.9757222344273032 -0.7506547161264605
-0.8920216065826072 -0.7340509385283054
-0.8710964496214333 -0.7506547161264605
-0.8292461356990852 -0.7340509385283054
-0.7664706648155633 -0.6676358281356851
-0.8083209787379112 -0.6842396057338402
-0.7873958217767372 -0.7008433833319953
-0.8501712926602593 -0.7506547161264605
-0.8710964496214333 -0.7340509385283054
-0.8710964496214333 -0.8004660489209258
-0.8920216065826072 -0.7672584937246156
-0.9338719205049553 -0.8004660489209258
-0.9338719205049553 -0.7838622713227706
-0.8710964496214333 -0.7340509385283054
-0.9129467635437812 -0.6842396057338402
-0.8083209787379112 -0.6842396057338402
-0.7664706648155633 -0.7174471609301504
-0.7664706648155633 -0.6676358281356851
-0.8083209787379112 -0.7008433833319953
-0.8501712926602593 -0.7340509385283054
-0.9129467635437812 -0.7506547161264605
-0.9547970774661293 -0.8004660489209258
-0.9757222344273032 -0.8004660489209258
-1.0175725483496514 -0.8668811593135461
-1.0594228622719992 -0.7838622713227706
-0.9757222344273032 -0.7838622713227706
-0.9338719205049553 -0.7506547161264605
-0.9757222344273032 -0.7506547161264605
-0.9547970774661293 -0.7008433833319953
-0.9757222344273032 -0.7506547161264605
-0.9966473913884772 -0.7838622713227706
-1.0594228622719992 -0.7672584937246156
-1.0803480192331734 -0.8336736041172359
-1.1012731761943473 -0.9499000473043215
-1.1012731761943473 -0.9000887145098563
-1.1012731761943473 -0.9000887145098563
-1.1849738040390434 -0.8668811593135461
-1.1849738040390434 -0.8170698265190809
-1.1640486470778693 -0.7506547161264605
-1.1221983331555214 -0.7838622713227706
-1.1012731761943473 -0.8004660489209258
-1.0384977053108253 -0.8170698265190809
-1.1012731761943473 -0.8170698265190809
-1.0803480192331734 -0.8668811593135461
-1.1221983331555214 -0.9000887145098563
-1.1849738040390434 -0.8834849369117012
-1.1640486470778693 -0.9831076025006317
-1.2058989610002173 -0.9332962697061664
-1.1849738040390434 -0.8668811593135461
-1.2058989610002173 -0.850277381715391
-1.1849738040390434 -0.8170698265190809
-1.1849738040390434 -0.850277381715391
-1.1640486470778693 -0.8170698265190809
-1.1431234901166953 -0.8336736041172359
-1.1431234901166953 -0.8668811593135461
-1.2058989610002173 -0.9499000473043215
-1.2477492749225654 -0.9332962697061664
-1.2477492749225654 -1.0163151576969418
-1.2686744318837393 -1.0163151576969418
-1.3314499027672613 -0.9997113800987868
-1.3314499027672613 -0.9831076025006317
-1.2895995888449134 -0.9499000473043215
-1.2686744318837393 -0.9332962697061664
-1.1640486470778693 -0.850277381715391
-1.1640486470778693 -0.8834849369117012
-1.1849738040390434 -0.8834849369117012
-1.2477492749225654 -0.9499000473043215
-1.2477492749225654 -0.9831076025006317
-1.2686744318837393 -0.9499000473043215
-1.3105247458060874 -1.0163151576969418
-1.3105247458060874 -1.0163151576969418
-1.3105247458060874 -1.0163151576969418
-1.3733002166896093 -0.9997113800987868
-1.3105247458060874 -0.9499000473043215
-1.2268241179613915 -0.9000887145098563
-1.3105247458060874 -0.8668811593135461
-1.2268241179613915 -0.8834849369117012
-1.2058989610002173 -0.8004660489209258
-1.2058989610002173 -0.850277381715391
-1.2895995888449134 -0.8668811593135461
-1.2686744318837393 -0.8668811593135461
-1.2477492749225654 -0.9332962697061664
-1.3105247458060874 -0.9166924921080113
-1.3314499027672613 -0.9499000473043215
-1.3105247458060874 -0.9499000473043215
-1.2895995888449134 -0.8668811593135461
-1.2686744318837393 -0.9166924921080113
-1.2058989610002173 -0.850277381715391
-1.2058989610002173 -0.8336736041172359
-1.2686744318837393 -0.8834849369117012
-1.1849738040390434 -0.9000887145098563
-1.2477492749225654 -0.9166924921080113
-1.2686744318837393 -0.9499000473043215
-1.2895995888449134 -0.9831076025006317
-1.2895995888449134 -0.9499000473043215
-1.3105247458060874 -0.9665038249024765
-1.2895995888449134 -0.9166924921080113
-1.3105247458060874 -0.9166924921080113
-1.2895995888449134 -0.9166924921080113
-1.2058989610002173 -0.850277381715391
-1.1640486470778693 -0.8834849369117012
-1.1849738040390434 -0.8668811593135461
-1.2058989610002173 -0.8834849369117012
-1.1849738040390434 -0.8668811593135461
-1.2268241179613915 -0.9332962697061664
-1.2686744318837393 -0.9665038249024765
-1.2268241179613915 -1.0163151576969418
-1.4151505306119574 -0.9665038249024765
-1.3314499027672613 -0.9499000473043215
-1.3105247458060874 -0.9166924921080113
-1.3523750597284354 -0.9332962697061664
-1.2895995888449134 -0.8834849369117012
-1.1849738040390434 -0.850277381715391
-1.2268241179613915 -0.9000887145098563
-1.2686744318837393 -0.9000887145098563
-1.2895995888449134 -0.9166924921080113
-1.3523750597284354 -0.9665038249024765
-1.3105247458060874 -1.0163151576969418
-1.2895995888449134 -1.049522712893252
-1.3523750597284354 -0.9831076025006317
-1.3314499027672613 -0.9499000473043215
-1.3942253736507835 -0.9499000473043215
-1.2895995888449134 -0.8668811593135461
-1.3105247458060874 -0.8668811593135461
-1.2895995888449134 -0.8336736041172359
-1.3105247458060874 -0.8336736041172359
-1.2686744318837393 -0.9166924921080113
-1.2477492749225654 -0.9166924921080113
-1.3523750597284354 -0.9997113800987868
-1.3314499027672613 -0.9997113800987868
-1.4360756875731313 -0.9332962697061664
-1.4988511584566535 -0.9332962697061664
-1.3942253736507835 -0.9332962697061664
-1.3105247458060874 -0.9000887145098563
-1.3523750597284354 -0.8834849369117012
-1.3105247458060874 -0.8170698265190809
-1.2268241179613915 -0.9166924921080113
-1.2268241179613915 -0.8668811593135461
-1.3314499027672613 -0.8834849369117012
-1.2477492749225654 -0.9000887145098563
-1.3314499027672613 -0.9332962697061664
-1.3733002166896093 -0.9499000473043215
-1.3523750597284354 -0.9499000473043215
-1.3523750597284354 -0.9332962697061664
-1.3314499027672613 -0.9499000473043215
-1.3523750597284354 -0.8834849369117012
-1.2686744318837393 -0.8834849369117012
-1.2686744318837393 -0.850277381715391
-1.2477492749225654 -0.8170698265190809
-1.2477492749225654 -0.8336736041172359
-1.2686744318837393 -0.850277381715391
-1.3314499027672613 -0.9332962697061664
-1.3105247458060874 -0.9000887145098563
-1.3314499027672613 -0.9000887145098563
-1.3733002166896093 -0.9665038249024765
-1.3314499027672613 -0.9332962697061664
-1.3523750597284354 -0.9166924921080113
-1.3733002166896093 -0.8668811593135461
-1.3314499027672613 -0.8834849369117012
-1.2686744318837393 -0.850277381715391
-1.2058989610002173 -0.8336736041172359
-1.1640486470778693 -0.8336736041172359
-1.2058989610002173 -0.8668811593135461
-1.2268241179613915 -0.8668811593135461
-1.2895995888449134 -0.9000887145098563
-1.3314499027672613 -0.9499000473043215
-1.3942253736507835 -0.9332962697061664
-1.3314499027672613 -0.9166924921080113
-1.3523750597284354 -0.9499000473043215
-1.3105247458060874 -0.8834849369117012
-1.3314499027672613 -0.8336736041172359
-1.3523750597284354 -0.8170698265190809
-1.2058989610002173 -0.8170698265190809
-1.1640486470778693 -0.7672584937246156
-1.2477492749225654 -0.8336736041172359
-1.2268241179613915 -0.9000887145098563
-1.3105247458060874 -0.8668811593135461
-1.3942253736507835 -0.9166924921080113
-1.4151505306119574 -0.9166924921080113
-1.3314499027672613 -0.9166924921080113
-1.3314499027672613 -0.9332962697061664
-1.2686744318837393 -0.8170698265190809
-1.1431234901166953 -0.8336736041172359
-1.1012731761943473 -0.7340509385283054
-1.0384977053108253 -0.7838622713227706
-0.9757222344273032 -0.850277381715391
-0.9966473913884772 -0.850277381715391
-0.9757222344273032 -0.850277381715391
-1.0175725483496514 -0.9000887145098563
-0.9757222344273032 -0.8668811593135461
-1.0384977053108253 -0.850277381715391
-0.9547970774661293 -0.8004660489209258
-0.9338719205049553 -0.7174471609301504
-0.8292461356990852 -0.7174471609301504
-0.7036951939320412 -0.634428272939375
-0.5781442521649971 -0.5514093849485996
-0.5362939382426491 -0.5182018297522893
-0.5572190952038232 -0.46839049695782414
-0.6409197230485192 -0.4019753865652038
-0.7036951939320412 -0.4185791641633589
-0.7036951939320412 -0.43518294176151395
-0.8083209787379112 -0.5015980521541343
-0.8292461356990852 -0.43518294176151395
-0.9129467635437812 -0.4849942745559792
-0.9129467635437812 -0.43518294176151395
-0.9338719205049553 -0.4185791641633589
-0.9129467635437812 -0.38537160896704875
-0.9757222344273032 -0.38537160896704875
-0.9966473913884772 -0.43518294176151395
-1.0594228622719992 -0.4849942745559792
-1.1012731761943473 -0.4849942745559792
-1.2058989610002173 -0.6178244953412199
-1.2477492749225654 -0.6178244953412199
-1.3105247458060874 -0.7174471609301504
-1.3523750597284354 -0.7506547161264605
-1.3942253736507835 -0.7506547161264605
-1.4360756875731313 -0.7672584937246156
-1.4360756875731313 -0.7340509385283054
-1.3942253736507835 -0.7174471609301504
-1.4570008445343055 -0.7174471609301504
-1.3314499027672613 -0.7008433833319953
-1.3733002166896093 -0.7340509385283054
-1.3523750597284354 -0.7174471609301504
-1.3733002166896093 -0.7506547161264605
-1.4360756875731313 -0.7838622713227706
-1.4360756875731313 -0.8668811593135461
-1.4360756875731313 -0.850277381715391
-1.5197763154178274 -0.850277381715391
-1.4988511584566535 -0.850277381715391
-1.4779260014954794 -0.850277381715391
-1.4779260014954794 -0.7838622713227706
-1.4360756875731313 -0.7672584937246156
-1.2895995888449134 -0.7506547161264605
-1.3105247458060874 -0.7506547161264605
-1.3314499027672613 -0.7838622713227706
-1.2895995888449134 -0.8170698265190809
-1.3314499027672613 -0.8834849369117012
-1.3942253736507835 -0.8004660489209258
-1.4570008445343055 -0.8336736041172359
-1.4360756875731313 -0.7672584937246156
-1.4360756875731313 -0.7340509385283054
-1.3523750597284354 -0.7008433833319953
-1.2686744318837393 -0.634428272939375
-1.0175725483496514 -0.6012207177430647
-0.7455455078543892 -0.5348056073504445
-0.4525933103979531 -0.35216405377073856
-0.117790799019169 -0.11971116739656743
0.25886202628196314 0.3119870501554647
0.7610657933501392 0.793496600501962
1.2632695604183155 1.3414212612410799
1.6608475426806215 1.9391572547746627
1.8910242692535357 2.619912136299021
1.9956500540594058 3.151233019439984
1.8282487983700135 3.632742569786481
1.3678953452241855 3.9150067889551172
0.6564400085442692 3.848591678562497
-0.18056626990269103 3.350478350617845
-1.1221983331555214 2.5534970259064007
-1.9801297685636556 1.5572703700170958
-2.817136047010616 0.4780248261370155
-3.298414657117618 -0.6012207177430647
-3.507666226729358 -1.281975599267423
-3.340264971039966 -1.6804662616231452
-3.110088244467052 -1.5310322632397493
-2.607884477398876 -1.3151831544637334
-2.273081966020092 -0.850277381715391
-2.0638303964083518 -0.634428272939375
-1.7499530419907414 -0.5348056073504445
-1.5825517863013494 -0.5182018297522893
-1.4151505306119574 -0.5182018297522893
-1.2477492749225654 -0.5182018297522893
-1.1221983331555214 -0.5514093849485996
-1.1431234901166953 -0.6178244953412199
-1.1221983331555214 -0.65103205053753
-1.1431234901166953 -0.634428272939375
-1.2477492749225654 -0.5680131625467546
-1.2268241179613915 -0.6178244953412199
-1.2058989610002173 -0.5514093849485996
-1.1431234901166953 -0.5514093849485996
-1.1221983331555214 -0.4849942745559792
-1.0594228622719992 -0.46839049695782414
-0.9966473913884772 -0.43518294176151395
-0.9757222344273032 -0.46839049695782414
-0.9757222344273032 -0.4849942745559792
-1.0384977053108253 -0.5348056073504445
-0.9966473913884772 -0.5846169401449097
-1.0384977053108253 -0.5182018297522893
-1.1012731761943473 -0.5348056073504445
-1.0594228622719992 -0.5514093849485996
-1.0384977053108253 -0.4517867193596691
-0.9966473913884772 -0.43518294176151395
-0.9547970774661293 -0.38537160896704875
-0.9338719205049553 -0.38537160896704875
-0.8920216065826072 -0.4019753865652038
-0.8710964496214333 -0.38537160896704875
-0.8292461356990852 -0.4517867193596691
-0.8920216065826072 -0.43518294176151395
-0.9338719205049553 -0.4019753865652038
-0.9129467635437812 -0.4517867193596691
-0.9129467635437812 -0.38537160896704875
-0.9547970774661293 -0.35216405377073856
-0.8710964496214333 -0.35216405377073856
-0.8292461356990852 -0.28574894337811824
-0.7455455078543892 -0.26914516577996317
-0.7036951939320412 -0.25254138818180805
-0.7036951939320412 -0.2193338329854979
-0.6827700369708671 -0.2193338329854979
-0.7246203508932152 -0.2193338329854979
-0.7036951939320412 -0.25254138818180805
-0.7664706648155633 -0.26914516577996317
-0.7664706648155633 -0.3023527209762733
-0.7664706648155633 -0.25254138818180805
-0.8083209787379112 -0.23593761058365298
-0.7246203508932152 -0.16952250019103265
-0.7455455078543892 -0.1363149449947225
-0.5990694091261711 -0.053296057003947093
-0.4735184673591271 -0.08650361220025726
-0.4735184673591271 -0.03669227940579201
-0.5572190952038232 -0.053296057003947093
-0.5153687812814751 -0.06989983460210218
-0.49444362432030114 -0.053296057003947093
-0.4525933103979531 -0.053296057003947093
-0.4735184673591271 -0.03669227940579201
-0.4525933103979531 0.029722830986828312
-0.4735184673591271 0.04632660858498339
-0.4735184673591271 0.1293454965757588
-0.3270423686309091 0.17915682937022404
-0.30611721166973505 0.2289681621646893
-0.22241658382503904 0.2289681621646893
-0.138715955980343 0.27877949495915455
-0.117790799019169 0.2621757173609994
-0.096865642057995 0.3119870501554647
-0.05501532813564698 0.36179838294992994
-0.05501532813564698 0.378402160548085
-0.03409017117447297 0.39500593814624013
-0.07594048509682098 0.4780248261370155
0.09146077059257106 0.4946286037351706
0.17516139843726708 0.5942512693241011
0.2797871832431371 0.6772701573148765
0.4053381250101812 0.7270814901093418
0.5308890667772252 0.776892822903807
0.5727393806995732 0.8267041556982723
0.5518142237383992 0.8599117108945824
0.6355148515830953 0.8931192660908925
0.6982903224666173 0.9263268212872027
0.6982903224666173 0.9595343764835129
0.7401406363889652 1.009345709277978
0.7192154794277913 1.0757608196705986
0.8866167351171833 1.158779707661374
0.9703173629618793 1.2750061508484594
1.0958683047289233 1.3414212612410799
1.1795689325736194 1.4244401492318552
1.2423444034571414 1.4410439268300101
1.3260450313018375 1.4908552596244755
1.3051198743406633 1.4742514820263204
1.3678953452241855 1.4576477044281653
1.3678953452241855 1.4908552596244755
1.3888205021853595 1.5240628148207858
1.3888205021853595 1.4576477044281653
1.3678953452241855 1.4742514820263204
1.3678953452241855 1.573874147615251
1.4306708161077075 1.6070817028115612
1.4306708161077075 1.6070817028115612
1.4306708161077075 1.6568930356060263
1.4725211300300556 1.6402892580078712
1.4306708161077075 1.590477925213406
1.4097456591465334 1.5406665924189407
1.3888205021853595 1.4410439268300101
1.2214192464959674 1.3580250388392348
1.2423444034571414 1.3082137060447696
1.1167934616900974 1.208591040455839
1.0330928338454013 1.158779707661374
0.8447664211948352 1.1255721524650637
0.7819909503113133 0.992741931679823
0.7192154794277913 0.9429305988853578
0.6355148515830953 0.8765154884927375
0.5727393806995732 0.776892822903807
0.42626328197135516 0.7104777125111866
0.3216374971654851 0.6274588245204112
0.2170117123596151 0.46142104853886046
0.07053561363139706 0.378402160548085
-0.03409017117447297 0.3451946053517749
-0.18056626990269103 0.19576060696837913
-0.30611721166973505 0.24557193976284436
-0.3898178395144311 0.09613794137944864
-0.3898178395144311 0.14594927417391387
-0.5153687812814751 0.09613794137944864
-0.49444362432030114 0.04632660858498339
-0.4735184673591271 0.06293038618313848
-0.5572190952038232 -0.0034847242094818505
-0.5781442521649971 -0.03669227940579201
-0.5781442521649971 -0.10310738979841234
-0.6618448800096932 -0.1529187225928776
-0.7664706648155633 -0.2193338329854979
-0.8083209787379112 -0.28574894337811824
-0.8292461356990852 -0.28574894337811824
-0.8501712926602593 -0.23593761058365298
-0.9129467635437812 -0.20273005538734282
-0.8920216065826072 -0.18612627778918775
-0.8501712926602593 -0.20273005538734282
-0.7455455078543892 -0.18612627778918775
-0.7873958217767372 -0.2193338329854979
-0.8292461356990852 -0.2193338329854979
-0.8083209787379112 -0.26914516577996317
-0.8083209787379112 -0.28574894337811824
-0.9338719205049553 -0.3023527209762733
-0.8710964496214333 -0.3023527209762733
-0.9338719205049553 -0.3023527209762733
-0.9129467635437812 -0.23593761058365298
-0.9547970774661293 -0.26914516577996317
-0.9129467635437812 -0.25254138818180805
-0.9129467635437812 -0.26914516577996317
-0.8292461356990852 -0.23593761058365298
-0.8292461356990852 -0.26914516577996317
-0.8292461356990852 -0.26914516577996317
-0.8083209787379112 -0.3023527209762733
-0.8710964496214333 -0.3355602761725835
-0.9338719205049553 -0.3189564985744284
-0.9129467635437812 -0.35216405377073856
-0.9129467635437812 -0.3189564985744284
-0.9338719205049553 -0.3023527209762733
-0.9129467635437812 -0.25254138818180805
-0.8501712926602593 -0.2193338329854979
-0.8292461356990852 -0.20273005538734282
-0.8292461356990852 -0.20273005538734282
-0.7664706648155633 -0.18612627778918775
-0.7873958217767372 -0.20273005538734282
-0.8083209787379112 -0.26914516577996317
-0.8292461356990852 -0.23593761058365298
-0.8920216065826072 -0.3189564985744284
-0.9129467635437812 -0.28574894337811824
-0.9129467635437812 -0.23593761058365298
-0.8501712926602593 -0.28574894337811824
-0.8710964496214333 -0.23593761058365298
-0.8292461356990852 -0.20273005538734282
-0.8083209787379112 -0.11971116739656743
-0.7455455078543892 -0.10310738979841234
-0.7246203508932152 -0.11971116739656743
-0.7664706648155633 -0.08650361220025726
-0.7664706648155633 -0.18612627778918775
-0.8083209787379112 -0.16952250019103265
-0.8292461356990852 -0.23593761058365298
-0.8920216065826072 -0.28574894337811824
-0.9338719205049553 -0.25254138818180805
-0.8920216065826072 -0.23593761058365298
-0.9966473913884772 -0.23593761058365298
-0.8501712926602593 -0.18612627778918775
-0.8292461356990852 -0.1363149449947225
-0.8501712926602593 -0.16952250019103265
-0.8083209787379112 -0.1529187225928776
-0.8083209787379112 -0.18612627778918775
-0.8292461356990852 -0.23593761058365298
-0.9338719205049553 -0.18612627778918775
-0.9757222344273032 -0.26914516577996317
-0.9966473913884772 -0.3189564985744284
-1.0175725483496514 -0.3023527209762733
-1.0175725483496514 -0.28574894337811824
-1.0175725483496514 -0.23593761058365298
-0.8710964496214333 -0.1529187225928776
-0.8710964496214333 -0.20273005538734282
-0.9129467635437812 -0.16952250019103265
-0.8920216065826072 -0.2193338329854979
-0.8710964496214333 -0.26914516577996317
-0.9338719205049553 -0.3189564985744284
-0.9757222344273032 -0.3023527209762733
-0.9338719205049553 -0.3355602761725835
-1.0384977053108253 -0.3189564985744284
-0.9966473913884772 -0.36876783136889363
-1.0175725483496514 -0.3189564985744284
-1.0175725483496514 -0.28574894337811824
-0.9966473913884772 -0.28574894337811824
-0.9757222344273032 -0.26914516577996317
-0.9547970774661293 -0.25254138818180805
-0.8501712926602593 -0.28574894337811824
-0.9129467635437812 -0.3023527209762733
-0.9757222344273032 -0.36876783136889363
-0.9547970774661293 -0.38537160896704875
-1.0175725483496514 -0.46839049695782414
-1.1221983331555214 -0.4019753865652038
-1.1012731761943473 -0.38537160896704875
-1.0384977053108253 -0.38537160896704875
-1.0803480192331734 -0.3189564985744284
-1.0384977053108253 -0.28574894337811824
-0.9966473913884772 -0.28574894337811824
-0.9547970774661293 -0.26914516577996317
-0.9129467635437812 -0.3355602761725835
-0.9757222344273032 -0.3355602761725835
-0.9547970774661293 -0.36876783136889363
-1.0175725483496514 -0.4185791641633589
-1.0594228622719992 -0.35216405377073856
-1.1012731761943473 -0.4185791641633589
-1.1221983331555214 -0.38537160896704875
-1.1431234901166953 -0.36876783136889363
-1.1221983331555214 -0.4185791641633589
-1.1012731761943473 -0.3355602761725835
-0.9966473913884772 -0.3023527209762733
-1.0384977053108253 -0.35216405377073856
-0.9547970774661293 -0.3355602761725835
-1.0594228622719992 -0.3189564985744284
-1.0175725483496514 -0.3355602761725835
-1.0803480192331734 -0.35216405377073856
-1.1012731761943473 -0.38537160896704875
-1.1431234901166953 -0.36876783136889363
-1.1431234901166953 -0.36876783136889363
-1.1012731761943473 -0.4019753865652038
-1.1431234901166953 -0.3355602761725835
-1.0594228622719992 -0.35216405377073856
-0.9966473913884772 -0.28574894337811824
-0.9757222344273032 -0.3023527209762733
-0.9338719205049553 -0.3189564985744284
-1.0384977053108253 -0.3355602761725835
-0.9338719205049553 -0.3355602761725835
-0.9338719205049553 -0.3189564985744284
-0.9757222344273032 -0.35216405377073856
-1.0594228622719992 -0.35216405377073856
-1.0384977053108253 -0.38537160896704875
-1.0803480192331734 -0.3189564985744284
-1.0175725483496514 -0.26914516577996317
-1.0175725483496514 -0.25254138818180805
-0.9757222344273032 -0.23593761058365298
-0.9757222344273032 -0.28574894337811824
-0.9966473913884772 -0.3023527209762733
-0.9547970774661293 -0.25254138818180805
-1.0175725483496514 -0.3023527209762733
-0.9757222344273032 -0.3023527209762733
-0.9757222344273032 -0.3023527209762733
-0.9547970774661293 -0.3189564985744284
-0.9757222344273032 -0.3355602761725835
-1.1012731761943473 -0.3355602761725835
-0.9966473913884772 -0.25254138818180805
-0.9129467635437812 -0.2193338329854979
-0.9338719205049553 -0.16952250019103265
-0.8710964496214333 -0.16952250019103265
-0.8920216065826072 -0.18612627778918775
-0.8710964496214333 -0.11971116739656743
-0.8920216065826072 -0.20273005538734282
-0.9547970774661293 -0.28574894337811824
-0.9757222344273032 -0.3023527209762733
-0.9757222344273032 -0.26914516577996317
-1.0594228622719992 -0.26914516577996317
-1.1221983331555214 -0.26914516577996317
-1.0803480192331734 -0.20273005538734282
-0.9966473913884772 -0.2193338329854979
-1.0175725483496514 -0.23593761058365298
-0.9757222344273032 -0.1363149449947225
-0.9547970774661293 -0.1529187225928776
-0.8920216065826072 -0.16952250019103265
-0.8710964496214333 -0.2193338329854979
-0.9547970774661293 -0.25254138818180805
-0.9757222344273032 -0.3355602761725835
-1.0175725483496514 -0.3023527209762733
-0.9966473913884772 -0.25254138818180805
-0.9757222344273032 -0.25254138818180805
-0.9966473913884772 -0.20273005538734282
-0.9547970774661293 -0.1529187225928776
-0.9129467635437812 -0.1363149449947225
-0.8710964496214333 -0.08650361220025726
-0.7873958217767372 -0.1363149449947225
-0.8710964496214333 -0.11971116739656743
-0.8501712926602593 -0.20273005538734282
-0.8501712926602593 -0.18612627778918775
-0.8920216065826072 -0.23593761058365298
-0.9547970774661293 -0.23593761058365298
-0.9966473913884772 -0.18612627778918775
-0.9338719205049553 -0.20273005538734282
-0.9547970774661293 -0.16952250019103265
-0.8920216065826072 -0.11971116739656743
-0.9129467635437812 -0.10310738979841234
-0.8292461356990852 -0.06989983460210218
-0.8292461356990852 -0.08650361220025726
-0.8920216065826072 -0.16952250019103265
-0.8501712926602593 -0.16952250019103265
-0.9757222344273032 -0.20273005538734282
-0.9547970774661293 -0.25254138818180805
-0.9757222344273032 -0.20273005538734282
-0.9966473913884772 -0.2193338329854979
-0.9966473913884772 -0.18612627778918775
-0.9338719205049553 -0.11971116739656743
-0.8501712926602593 -0.1363149449947225
-0.8710964496214333 -0.10310738979841234
-0.8292461356990852 -0.11971116739656743
-0.8501712926602593 -0.10310738979841234
-0.7664706648155633 -0.1529187225928776
-0.8292461356990852 -0.18612627778918775
-0.8083209787379112 -0.20273005538734282
-0.8710964496214333 -0.18612627778918775
-0.9129467635437812 -0.20273005538734282
-0.8920216065826072 -0.16952250019103265
-0.8710964496214333 -0.16952250019103265
-0.7873958217767372 -0.1363149449947225
-0.7873958217767372 -0.11971116739656743
-0.7455455078543892 -0.053296057003947093
-0.5990694091261711 -0.08650361220025726
-0.5990694091261711 -0.11971116739656743
-0.49444362432030114 -0.11971116739656743
-0.5362939382426491 -0.20273005538734282
-0.5572190952038232 -0.1529187225928776
-0.6199945660873452 -0.16952250019103265
-0.5781442521649971 -0.16952250019103265
-0.5781442521649971 -0.10310738979841234
-0.5362939382426491 -0.10310738979841234
-0.4316681534367791 -0.053296057003947093
-0.3688926825532571 -0.0034847242094818505
-0.24334174078621304 0.09613794137944864
-0.138715955980343 0.17915682937022404
-0.138715955980343 0.2123643845665342
-0.096865642057995 0.2289681621646893
-0.24334174078621304 0.24557193976284436
-0.30611721166973505 0.24557193976284436
-0.3898178395144311 0.24557193976284436
-0.4107429964756051 0.2123643845665342
-0.4525933103979531 0.19576060696837913
-0.4525933103979531 0.2123643845665342
-0.4735184673591271 0.2953832725573096
-0.49444362432030114 0.27877949495915455
-0.5153687812814751 0.3285908277536198
-0.49444362432030114 0.3285908277536198
-0.5781442521649971 0.24557193976284436
-0.6409197230485192 0.2289681621646893
-0.8083209787379112 0.11274171897760372
-0.8083209787379112 0.09613794137944864
-0.8292461356990852 -0.053296057003947093
-0.8920216065826072 -0.08650361220025726
-0.8920216065826072 -0.06989983460210218
-0.9547970774661293 -0.06989983460210218
-0.9547970774661293 -0.03669227940579201
-0.9129467635437812 -0.08650361220025726
-0.9338719205049553 -0.03669227940579201
-0.8710964496214333 -0.02008850180763693
-0.9129467635437812 -0.053296057003947093
-0.9757222344273032 -0.02008850180763693
-0.9547970774661293 -0.1363149449947225
-0.9129467635437812 -0.1363149449947225
-0.9547970774661293 -0.1529187225928776
-1.0594228622719992 -0.20273005538734282
-1.0594228622719992 -0.18612627778918775
-1.0384977053108253 -0.18612627778918775
-0.9966473913884772 -0.18612627778918775
-0.9966473913884772 -0.18612627778918775
-0.9547970774661293 -0.1363149449947225
-0.9129467635437812 -0.10310738979841234
-0.9129467635437812 -0.1363149449947225
-0.9129467635437812 -0.11971116739656743
-0.9338719205049553 -0.16952250019103265
-0.9338719205049553 -0.16952250019103265
-0.8920216065826072 -0.18612627778918775
-0.9338719205049553 -0.23593761058365298
-0.9757222344273032 -0.20273005538734282
-0.8710964496214333 -0.18612627778918775
-0.9338719205049553 -0.1529187225928776
-0.8083209787379112 -0.08650361220025726
-0.5990694091261711 -0.0034847242094818505
-0.28519205470856107 0.09613794137944864
0.11238592755374507 0.36179838294992994
0.5308890667772252 0.7104777125111866
1.0540179908065754 1.158779707661374
1.5352966009135776 1.822930811587577
1.9119494262147096 2.48708191551378
2.204901623671146 3.068214131449208
2.100275838865276 3.5663274593938605
1.7445481705253176 3.9316105665532723
1.1795689325736194 4.064440787338513
0.3634878110878331 3.8651954561606523
-0.5781442521649971 3.3006670178233795
-1.4988511584566535 2.404063027523005
-2.4404832217094836 1.2417985956521493
-3.110088244467052 0.07953416378129356
-3.36119012800114 -0.850277381715391
-3.4239655988846622 -1.464617152847129
-3.068237930544704 -1.5476360408379044
-2.6497347913212237 -1.3151831544637334
-2.3567825938647875 -0.8834849369117012
-1.9801297685636556 -0.5514093849485996
-1.8127285128742636 -0.26914516577996317
-1.5616266293401755 -0.1529187225928776
-1.3733002166896093 -0.1363149449947225
-1.2268241179613915 -0.11971116739656743
-0.9966473913884772 -0.1363149449947225
-0.8710964496214333 -0.11971116739656743
-0.7455455078543892 -0.1363149449947225
-0.7873958217767372 -0.1529187225928776
-0.7873958217767372 -0.11971116739656743
-0.8920216065826072 -0.1529187225928776
-0.8710964496214333 -0.1363149449947225
-0.8920216065826072 -0.1529187225928776
-0.9338719205049553 -0.1529187225928776
-0.7873958217767372 -0.1363149449947225
-0.7455455078543892 -0.03669227940579201
-0.7036951939320412 0.013119053388673231
-0.6618448800096932 -0.11971116739656743
-0.6199945660873452 -0.02008850180763693
-0.6199945660873452 -0.08650361220025726
-0.6618448800096932 -0.08650361220025726
-0.6827700369708671 -0.1363149449947225
-0.6618448800096932 -0.1363149449947225
-0.6827700369708671 -0.1363149449947225
-0.6827700369708671 -0.08650361220025726
-0.6409197230485192 -0.03669227940579201
-0.6199945660873452 -0.03669227940579201
-0.5781442521649971 -0.0034847242094818505
-0.5153687812814751 0.07953416378129356
-0.4525933103979531 0.1293454965757588
-0.49444362432030114 0.06293038618313848
-0.49444362432030114 0.06293038618313848
-0.5362939382426491 0.07953416378129356
-0.49444362432030114 -0.0034847242094818505
-0.5362939382426491 0.04632660858498339
-0.5153687812814751 0.04632660858498339
-0.5362939382426491 0.09613794137944864
-0.49444362432030114 0.11274171897760372
-0.4316681534367791 0.17915682937022404
-0.3688926825532571 0.19576060696837913
-0.34796752559208305 0.27877949495915455
-0.3270423686309091 0.2289681621646893
-0.26426689774738704 0.2123643845665342
-0.30611721166973505 0.24557193976284436
-0.34796752559208305 0.24557193976284436
-0.3270423686309091 0.24557193976284436
-0.4107429964756051 0.2289681621646893
-0.3898178395144311 0.2289681621646893
-0.34796752559208305 0.2621757173609994
-0.26426689774738704 0.3119870501554647
-0.22241658382503904 0.3285908277536198
-0.20149142686386504 0.4116097157443952
-0.096865642057995 0.39500593814624013
-0.07594048509682098 0.39500593814624013
-0.05501532813564698 0.42821349334255027
-0.05501532813564698 0.4116097157443952
-0.117790799019169 0.42821349334255027
-0.096865642057995 0.42821349334255027
-0.096865642057995 0.46142104853886046
-0.138715955980343 0.4946286037351706
-0.03409017117447297 0.5112323813333257
0.007760142747875037 0.577647491725946
0.09146077059257106 0.6440626021185664
0.11238592755374507 0.6938739349130316
0.25886202628196314 0.7436852677074968
0.30071234020431115 0.8101003781001171
0.2797871832431371 0.776892822903807
0.2797871832431371 0.8433079332964273
0.3216374971654851 0.8267041556982723
0.3634878110878331 0.7436852677074968
0.3634878110878331 0.8433079332964273
0.3634878110878331 0.8599117108945824
0.42626328197135516 0.9595343764835129
0.5099639098160512 1.0259494868761332
0.6355148515830953 1.0757608196705986
