-0.4687495891816293 -0.517972976147759
-0.4853731420804362 -0.6516768747851647
-0.5684909065744708 -0.5447137558752401
-0.5019966949792432 -0.4644914166927967
-0.4355024833840155 -0.4110098572378344
-0.4355024833840155 -0.4110098572378344
-0.4355024833840155 -0.3842690775103533
-0.4521260362828224 -0.5447137558752401
-0.4687495891816293 -0.5981953153302024
-0.4355024833840155 -0.6249360950576835
-0.3690082717887878 -0.5981953153302024
-0.3191376130923671 -0.4377506369653156
-0.3025140601935602 -0.4110098572378344
-0.3025140601935602 -0.35752829778287215
-0.3690082717887878 -0.517972976147759
-0.3856318246875947 -0.5447137558752401
-0.3191376130923671 -0.5981953153302024
-0.2526434014971395 -0.6249360950576835
-0.2692669543959464 -0.5447137558752401
-0.2858905072947533 -0.517972976147759
-0.3523847188899809 -0.3842690775103533
-0.2858905072947533 -0.4110098572378344
-0.21939629569952565 -0.4110098572378344
-0.18614918990191184 -0.4377506369653156
-0.16952563700310494 -0.5447137558752401
-0.18614918990191184 -0.8388623328775326
-0.18614918990191184 -1.2399740287897498
-0.152902084104298 -1.4004187071546366
-0.1362785312054911 -1.3469371476996743
-0.06978431961026348 -1.2667148085172308
-0.06978431961026348 -1.1864924693347874
-0.06978431961026348 -1.0795293504248629
-0.152902084104298 -0.731899213967608
-0.1196549783066842 -0.4644914166927967
-0.05316076671145657 -0.35752829778287215
-0.019913660913842755 -0.5714545356027213
0.013333444883771065 -1.0260477909699006
-0.03653721381264966 -1.320196367972193
-0.03653721381264966 -1.2667148085172308
-0.0864078725090704 -0.9993070112424195
-0.05316076671145657 -0.8656031126050138
-0.019913660913842755 -0.6784176545126458
-0.06978431961026348 -0.5981953153302024
-0.0864078725090704 -0.4644914166927967
-0.1030314254078773 -0.25056517887294755
-0.1196549783066842 0.04358339812934497
-0.0864078725090704 0.07032417785682611
-0.1030314254078773 -0.06337972078057959
-0.18614918990191184 -0.09012050050806074
-0.16952563700310494 -0.09012050050806074
-0.23601984859833255 0.07032417785682611
-0.23601984859833255 0.09706495758430725
-0.18614918990191184 0.09706495758430725
-0.152902084104298 0.09706495758430725
-0.20277274280071875 0.12380573731178839
-0.2692669543959464 0.23076885622171295
-0.3191376130923671 0.3377319751316375
-0.3690082717887878 0.3912135345865998
-0.2692669543959464 0.3912135345865998
-0.2692669543959464 0.28425041567667525
-0.2858905072947533 0.28425041567667525
-0.335761165991174 0.3377319751316375
-0.3191376130923671 0.5516582129514866
-0.3025140601935602 0.7655844507713357
-0.2692669543959464 0.7655844507713357
-0.2692669543959464 0.6051397724064489
-0.2858905072947533 0.23076885622171295
-0.3025140601935602 -0.009898161325617313
-0.3690082717887878 -0.03663894105309845
-0.3523847188899809 0.15054651703926952
-0.3025140601935602 0.44469509404156204
-0.2692669543959464 0.7121028913163735
-0.3025140601935602 0.6853621115888923
-0.2858905072947533 0.4179543143140809
-0.3523847188899809 0.07032417785682611
-0.335761165991174 -0.09012050050806074
-0.23601984859833255 -0.03663894105309845
-0.20277274280071875 0.016842618401863827
-0.23601984859833255 0.04358339812934497
-0.2858905072947533 0.016842618401863827
-0.2858905072947533 0.04358339812934497
-0.2692669543959464 0.07032417785682611
-0.2526434014971395 0.09706495758430725
-0.21939629569952565 0.09706495758430725
-0.2692669543959464 0.23076885622171295
-0.335761165991174 0.2040280764942318
-0.335761165991174 0.12380573731178839
-0.3025140601935602 0.016842618401863827
-0.2526434014971395 -0.1970836194179853
-0.23601984859833255 -0.22382439914546642
-0.2526434014971395 -0.1970836194179853
-0.3191376130923671 -0.22382439914546642
-0.3690082717887878 -0.11686128023554188
-0.3690082717887878 0.17728729676675067
-0.335761165991174 0.3377319751316375
-0.3025140601935602 0.28425041567667525
-0.2858905072947533 -0.11686128023554188
-0.335761165991174 -0.3842690775103533
-0.3690082717887878 -0.25056517887294755
-0.3856318246875947 -0.09012050050806074
-0.3690082717887878 0.23076885622171295
-0.3191376130923671 0.3109911954041564
-0.3025140601935602 0.25750963594919407
-0.3523847188899809 0.12380573731178839
-0.3523847188899809 -0.03663894105309845
-0.3191376130923671 -0.009898161325617313
-0.2692669543959464 0.17728729676675067
-0.23601984859833255 0.3377319751316375
-0.3025140601935602 0.3912135345865998
-0.3191376130923671 0.25750963594919407
-0.335761165991174 -0.009898161325617313
-0.3523847188899809 -0.30404673832790985
-0.3025140601935602 -0.4912321964202778
-0.3025140601935602 -0.35752829778287215
-0.2692669543959464 -0.17034283969050415
-0.3523847188899809 -0.09012050050806074
-0.4022553775864017 0.04358339812934497
-0.3856318246875947 0.016842618401863827
-0.3523847188899809 0.07032417785682611
-0.2858905072947533 -0.009898161325617313
-0.3191376130923671 -0.03663894105309845
-0.4022553775864017 -0.06337972078057959
-0.4355024833840155 0.04358339812934497
-0.4022553775864017 0.17728729676675067
-0.3523847188899809 0.3109911954041564
-0.2526434014971395 0.3109911954041564
-0.2858905072947533 0.3377319751316375
-0.335761165991174 0.3644727548591186
-0.3191376130923671 0.3912135345865998
-0.335761165991174 0.28425041567667525
-0.23601984859833255 0.07032417785682611
-0.16952563700310494 -0.11686128023554188
-0.23601984859833255 -0.143602059963023
-0.2858905072947533 -0.143602059963023
-0.335761165991174 0.17728729676675067
-0.3191376130923671 0.6051397724064489
-0.3191376130923671 0.9260291291362226
-0.21939629569952565 0.7388436710438546
-0.152902084104298 0.28425041567667525
-0.152902084104298 -0.35752829778287215
-0.05316076671145657 -0.6249360950576835
0.12969831517541944 -0.8923438923324949
0.39567516155633 -0.919084672059976
0.7115226666336613 -0.9458254517874572
1.0439937246097994 -0.8121215531500515
1.476206099978779 -0.731899213967608
2.074654004335828 -0.8923438923324949
2.789466778984525 -1.0527885706973819
3.537526659430836 -1.0260477909699006
4.352080751472374 -0.9458254517874572
5.083517079019878 -0.8388623328775326
5.299623266704368 -0.7051584342401269
5.050269973222265 -0.3842690775103533
4.335457198573567 -0.1970836194179853
3.2383027072523114 0.09706495758430725
2.074654004335828 0.5249174332240055
0.7946404311276958 0.8992883494087415
-0.21939629569952565 1.006251468318666
-0.8012206471577674 0.9527699088637037
-0.8677148587529951 0.8725475696812603
-0.6017380123720846 0.6853621115888923
-0.2858905072947533 0.49817665349652435
-0.1196549783066842 0.23076885622171295
-0.21939629569952565 0.09706495758430725
-0.335761165991174 0.07032417785682611
-0.4355024833840155 0.23076885622171295
-0.4853731420804362 0.3912135345865998
-0.4188789304852086 0.4179543143140809
-0.4687495891816293 0.25750963594919407
-0.5684909065744708 0.016842618401863827
-0.6349851181696984 0.016842618401863827
-0.6682322239673122 0.09706495758430725
-0.6183615652708915 0.28425041567667525
-0.6017380123720846 0.4179543143140809
-0.6349851181696984 0.6586213318614111
-0.6848557768661191 0.63188055213393
-0.7347264355625398 0.3109911954041564
-0.7181028826637329 0.15054651703926952
-0.6682322239673122 0.04358339812934497
-0.6516086710685053 0.09706495758430725
-0.701479329764926 0.09706495758430725
-0.701479329764926 -0.17034283969050415
-0.701479329764926 -0.33078751805539097
-0.6516086710685053 -0.35752829778287215
-0.6848557768661191 -0.143602059963023
-0.6183615652708915 -0.143602059963023
-0.6682322239673122 0.016842618401863827
-0.6183615652708915 -0.03663894105309845
-0.6516086710685053 0.04358339812934497
-0.6183615652708915 0.07032417785682611
-0.5851144594732777 0.07032417785682611
-0.5186202478780501 0.04358339812934497
-0.5684909065744708 -0.06337972078057959
-0.6017380123720846 -0.143602059963023
-0.6516086710685053 -0.11686128023554188
-0.6017380123720846 -0.009898161325617313
-0.6183615652708915 0.15054651703926952
-0.6017380123720846 0.12380573731178839
-0.6682322239673122 0.12380573731178839
-0.6682322239673122 0.15054651703926952
-0.701479329764926 0.2040280764942318
-0.6349851181696984 0.3644727548591186
-0.5851144594732777 0.4179543143140809
-0.5186202478780501 0.3644727548591186
-0.535243800776857 0.23076885622171295
-0.6017380123720846 0.3912135345865998
-0.6183615652708915 0.49817665349652435
-0.535243800776857 0.6853621115888923
-0.4687495891816293 0.6853621115888923
-0.4687495891816293 0.44469509404156204
-0.4355024833840155 -0.03663894105309845
-0.4355024833840155 -0.517972976147759
-0.4521260362828224 -0.919084672059976
-0.5019966949792432 -0.9458254517874572
-0.4022553775864017 -0.7853807734225704
-0.3523847188899809 -0.731899213967608
-0.335761165991174 -0.731899213967608
-0.4355024833840155 -0.8121215531500515
-0.4853731420804362 -0.731899213967608
-0.4355024833840155 -0.6516768747851647
-0.3690082717887878 -0.4912321964202778
-0.3690082717887878 -0.4912321964202778
-0.3856318246875947 -0.6516768747851647
-0.3523847188899809 -0.7586399936950893
-0.4355024833840155 -0.8656031126050138
-0.3690082717887878 -0.8923438923324949
-0.335761165991174 -0.919084672059976
-0.3025140601935602 -0.919084672059976
-0.2858905072947533 -0.9993070112424195
-0.3523847188899809 -1.106270130152344
-0.2692669543959464 -1.1597516896073063
-0.2858905072947533 -1.0795293504248629
-0.2526434014971395 -1.0260477909699006
-0.18614918990191184 -1.0260477909699006
-0.18614918990191184 -1.0795293504248629
-0.20277274280071875 -1.1330109098798251
-0.20277274280071875 -1.1330109098798251
-0.16952563700310494 -1.1597516896073063
-0.16952563700310494 -0.9993070112424195
-0.1362785312054911 -0.9725662315149384
-0.152902084104298 -0.9458254517874572
-0.20277274280071875 -1.1330109098798251
-0.20277274280071875 -1.2399740287897498
-0.20277274280071875 -1.2399740287897498
-0.1030314254078773 -1.1864924693347874
-0.03653721381264966 -1.2132332490622686
-0.03653721381264966 -1.2667148085172308
-0.06978431961026348 -1.2667148085172308
-0.05316076671145657 -1.2132332490622686
-0.05316076671145657 -1.106270130152344
0.013333444883771065 -0.8656031126050138
0.0964512093778056 -0.9458254517874572
0.0964512093778056 -0.9725662315149384
0.046580550681384884 -0.919084672059976
0.029956997782577974 -0.7586399936950893
0.046580550681384884 -0.5447137558752401
0.0798276564789987 -0.517972976147759
0.12969831517541944 -0.5447137558752401
0.0964512093778056 -0.6784176545126458
0.013333444883771065 -0.7586399936950893
-0.05316076671145657 -0.6249360950576835
-0.019913660913842755 -0.4912321964202778
0.013333444883771065 -0.33078751805539097
0.013333444883771065 -0.30404673832790985
-0.03653721381264966 -0.22382439914546642
-0.1362785312054911 -0.22382439914546642
-0.1362785312054911 -0.1970836194179853
-0.1196549783066842 -0.143602059963023
-0.1030314254078773 -0.03663894105309845
-0.05316076671145657 -0.03663894105309845
-0.1196549783066842 -0.17034283969050415
-0.152902084104298 -0.22382439914546642
-0.20277274280071875 -0.11686128023554188
-0.3025140601935602 0.2040280764942318
-0.2692669543959464 0.44469509404156204
-0.2692669543959464 0.49817665349652435
-0.2692669543959464 0.3644727548591186
-0.3025140601935602 0.07032417785682611
-0.3690082717887878 -0.33078751805539097
-0.3025140601935602 -0.4912321964202778
-0.2858905072947533 -0.4912321964202778
-0.2858905072947533 -0.33078751805539097
-0.335761165991174 -0.25056517887294755
-0.3856318246875947 -0.17034283969050415
-0.4188789304852086 -0.06337972078057959
-0.4355024833840155 0.12380573731178839
-0.3690082717887878 0.23076885622171295
-0.2858905072947533 0.15054651703926952
-0.2858905072947533 -0.06337972078057959
-0.4022553775864017 -0.22382439914546642
-0.4687495891816293 -0.30404673832790985
-0.4022553775864017 -0.17034283969050415
-0.2858905072947533 -0.06337972078057959
-0.2526434014971395 0.09706495758430725
-0.3191376130923671 0.07032417785682611
-0.335761165991174 0.07032417785682611
-0.335761165991174 0.12380573731178839
-0.3025140601935602 0.17728729676675067
-0.2526434014971395 0.2040280764942318
-0.21939629569952565 0.17728729676675067
-0.2526434014971395 0.15054651703926952
-0.2858905072947533 0.07032417785682611
-0.3191376130923671 0.016842618401863827
-0.3523847188899809 0.09706495758430725
-0.2858905072947533 0.09706495758430725
-0.20277274280071875 0.12380573731178839
-0.21939629569952565 0.09706495758430725
-0.23601984859833255 -0.009898161325617313
-0.2858905072947533 0.016842618401863827
-0.2526434014971395 0.17728729676675067
-0.18614918990191184 0.3109911954041564
-0.1362785312054911 0.4179543143140809
-0.21939629569952565 0.25750963594919407
-0.2692669543959464 0.12380573731178839
-0.2526434014971395 -0.009898161325617313
-0.2526434014971395 0.09706495758430725
-0.23601984859833255 0.12380573731178839
-0.1362785312054911 0.09706495758430725
-0.1362785312054911 0.07032417785682611
-0.1362785312054911 -0.03663894105309845
-0.20277274280071875 -0.09012050050806074
-0.18614918990191184 -0.09012050050806074
-0.18614918990191184 -0.03663894105309845
-0.1030314254078773 0.07032417785682611
-0.16952563700310494 0.17728729676675067
-0.21939629569952565 0.25750963594919407
-0.2692669543959464 0.17728729676675067
-0.23601984859833255 0.07032417785682611
-0.23601984859833255 -0.11686128023554188
-0.18614918990191184 -0.22382439914546642
-0.20277274280071875 -0.4110098572378344
-0.2692669543959464 -0.4644914166927967
-0.335761165991174 -0.3842690775103533
-0.3523847188899809 -0.1970836194179853
-0.335761165991174 -0.009898161325617313
-0.2858905072947533 0.04358339812934497
-0.3025140601935602 -0.009898161325617313
-0.2858905072947533 -0.09012050050806074
-0.3523847188899809 -0.22382439914546642
-0.3523847188899809 -0.1970836194179853
-0.3856318246875947 -0.09012050050806074
-0.3025140601935602 -0.009898161325617313
-0.335761165991174 -0.03663894105309845
-0.4022553775864017 -0.03663894105309845
-0.4188789304852086 0.04358339812934497
-0.4355024833840155 0.09706495758430725
-0.4188789304852086 0.23076885622171295
-0.4355024833840155 0.2040280764942318
-0.4188789304852086 0.04358339812934497
-0.4188789304852086 -0.11686128023554188
-0.4188789304852086 -0.06337972078057959
-0.4022553775864017 0.07032417785682611
-0.4188789304852086 0.25750963594919407
-0.2858905072947533 0.23076885622171295
-0.2858905072947533 0.25750963594919407
-0.335761165991174 0.23076885622171295
-0.3856318246875947 0.28425041567667525
-0.4022553775864017 0.3644727548591186
-0.4521260362828224 0.3912135345865998
-0.335761165991174 0.25750963594919407
-0.3191376130923671 0.17728729676675067
-0.335761165991174 0.09706495758430725
-0.3191376130923671 0.07032417785682611
-0.335761165991174 0.23076885622171295
-0.335761165991174 0.28425041567667525
-0.2526434014971395 0.3109911954041564
-0.20277274280071875 0.12380573731178839
-0.1362785312054911 -0.143602059963023
0.013333444883771065 -0.2773059586004287
0.17956897387184015 -0.4110098572378344
0.36242805575871617 -0.517972976147759
0.6117813492408197 -0.5981953153302024
0.9774995130145717 -0.6249360950576835
1.4263354412823583 -0.8121215531500515
1.9582891340441795 -0.9725662315149384
2.6398548028952624 -1.2132332490622686
3.40453823624038 -1.4271594868821178
4.152598116686692 -1.3736779274271553
4.784293126841354 -1.106270130152344
5.166634843513913 -0.7051584342401269
5.116764184817492 -0.22382439914546642
4.684551809448513 0.04358339812934497
3.969739034799815 0.09706495758430725
3.0055729666690145 0.23076885622171295
1.9749126869429863 0.49817665349652435
0.7447697724312751 0.8458067899537791
-0.20277274280071875 1.2469184858659963
-0.8344677529553812 1.5410670628682888
-0.9342090703482228 1.7015117412331757
-0.7347264355625398 1.5410670628682888
-0.5186202478780501 1.1666961466835528
-0.4521260362828224 0.7923252304988169
-0.3523847188899809 0.63188055213393
-0.335761165991174 0.4179543143140809
-0.335761165991174 0.28425041567667525
-0.3523847188899809 -0.03663894105309845
-0.4521260362828224 -0.143602059963023
-0.5019966949792432 -0.25056517887294755
-0.5684909065744708 -0.143602059963023
-0.5851144594732777 -0.009898161325617313
-0.5851144594732777 0.12380573731178839
-0.5518673536756639 0.17728729676675067
-0.6183615652708915 -0.009898161325617313
-0.7181028826637329 -0.1970836194179853
-0.7845970942589605 -0.1970836194179853
-0.7679735413601536 -0.11686128023554188
-0.701479329764926 0.04358339812934497
-0.6516086710685053 0.15054651703926952
-0.701479329764926 0.23076885622171295
-0.701479329764926 0.25750963594919407
-0.701479329764926 0.3912135345865998
-0.701479329764926 0.5516582129514866
-0.6682322239673122 0.5516582129514866
-0.6017380123720846 0.3109911954041564
-0.6349851181696984 -0.009898161325617313
-0.6516086710685053 -0.33078751805539097
-0.7181028826637329 -0.4644914166927967
-0.7679735413601536 -0.33078751805539097
-0.7181028826637329 -0.03663894105309845
-0.6848557768661191 0.2040280764942318
-0.6349851181696984 0.3109911954041564
-0.6516086710685053 0.28425041567667525
-0.6682322239673122 0.07032417785682611
-0.6848557768661191 -0.03663894105309845
-0.6516086710685053 -0.03663894105309845
-0.6017380123720846 -0.09012050050806074
-0.6848557768661191 -0.143602059963023
-0.7181028826637329 -0.22382439914546642
-0.7181028826637329 -0.2773059586004287
-0.6682322239673122 -0.25056517887294755
-0.6183615652708915 -0.11686128023554188
-0.5518673536756639 -0.17034283969050415
-0.6183615652708915 -0.17034283969050415
-0.6516086710685053 -0.11686128023554188
-0.7181028826637329 0.04358339812934497
-0.701479329764926 0.2040280764942318
-0.6682322239673122 0.15054651703926952
-0.6183615652708915 -0.06337972078057959
-0.6017380123720846 -0.2773059586004287
-0.6183615652708915 -0.4377506369653156
-0.6682322239673122 -0.4110098572378344
-0.6017380123720846 -0.30404673832790985
-0.5518673536756639 -0.17034283969050415
-0.5186202478780501 -0.09012050050806074
-0.5186202478780501 -0.17034283969050415
-0.5851144594732777 -0.33078751805539097
-0.6682322239673122 -0.33078751805539097
-0.6516086710685053 -0.22382439914546642
-0.5851144594732777 -0.1970836194179853
-0.5186202478780501 -0.25056517887294755
-0.5186202478780501 -0.35752829778287215
-0.535243800776857 -0.4912321964202778
-0.535243800776857 -0.6249360950576835
-0.4687495891816293 -0.5714545356027213
-0.4022553775864017 -0.4912321964202778
-0.3856318246875947 -0.4644914166927967
-0.3856318246875947 -0.5447137558752401
-0.4022553775864017 -0.6784176545126458
-0.4188789304852086 -0.7586399936950893
-0.3856318246875947 -0.7586399936950893
-0.3191376130923671 -0.5714545356027213
-0.23601984859833255 -0.7586399936950893
-0.2692669543959464 -0.9993070112424195
-0.3191376130923671 -1.2667148085172308
-0.3191376130923671 -1.2399740287897498
-0.3690082717887878 -1.0795293504248629
-0.3191376130923671 -0.8121215531500515
-0.2526434014971395 -0.517972976147759
-0.21939629569952565 -0.4110098572378344
-0.23601984859833255 -0.6516768747851647
-0.21939629569952565 -0.9993070112424195
-0.18614918990191184 -1.4539002666095988
-0.152902084104298 -1.5608633855195235
-0.1030314254078773 -1.5608633855195235
-0.1362785312054911 -1.4271594868821178
-0.0864078725090704 -1.4004187071546366
-0.16952563700310494 -1.320196367972193
-0.152902084104298 -1.2399740287897498
-0.0864078725090704 -0.9725662315149384
-0.0032901080150358445 -0.8923438923324949
-0.019913660913842755 -0.919084672059976
0.013333444883771065 -1.0527885706973819
-0.019913660913842755 -1.1330109098798251
0.013333444883771065 -1.1864924693347874
0.0632041035801918 -1.0527885706973819
0.0798276564789987 -0.9458254517874572
0.0632041035801918 -0.8388623328775326
-0.0032901080150358445 -0.731899213967608
-0.019913660913842755 -0.4644914166927967
-0.0032901080150358445 -0.33078751805539097
0.029956997782577974 -0.3842690775103533
0.046580550681384884 -0.5714545356027213
0.013333444883771065 -0.6516768747851647
-0.0864078725090704 -0.5714545356027213
-0.16952563700310494 -0.4377506369653156
-0.16952563700310494 -0.11686128023554188
-0.0864078725090704 0.2040280764942318
-0.06978431961026348 0.44469509404156204
-0.1196549783066842 0.3644727548591186
-0.16952563700310494 0.04358339812934497
-0.21939629569952565 -0.30404673832790985
-0.152902084104298 -0.30404673832790985
-0.1362785312054911 -0.17034283969050415
-0.1196549783066842 -0.03663894105309845
-0.16952563700310494 -0.09012050050806074
-0.20277274280071875 -0.11686128023554188
-0.3025140601935602 0.04358339812934497
-0.21939629569952565 0.12380573731178839
-0.152902084104298 0.17728729676675067
-0.0864078725090704 0.25750963594919407
-0.152902084104298 0.2040280764942318
-0.21939629569952565 0.17728729676675067
-0.2692669543959464 0.15054651703926952
-0.2858905072947533 0.3109911954041564
-0.2526434014971395 0.49817665349652435
-0.21939629569952565 0.6051397724064489
-0.2526434014971395 0.63188055213393
-0.21939629569952565 0.4714358737690432
-0.2526434014971395 0.23076885622171295
-0.21939629569952565 0.04358339812934497
-0.16952563700310494 -0.09012050050806074
-0.152902084104298 -0.09012050050806074
-0.18614918990191184 -0.009898161325617313
-0.2526434014971395 0.17728729676675067
-0.2858905072947533 0.44469509404156204
-0.2526434014971395 0.5516582129514866
-0.20277274280071875 0.5249174332240055
-0.18614918990191184 0.23076885622171295
-0.20277274280071875 -0.06337972078057959
-0.2526434014971395 -0.25056517887294755
-0.2858905072947533 -0.22382439914546642
-0.2858905072947533 -0.11686128023554188
-0.2526434014971395 0.09706495758430725
-0.21939629569952565 0.25750963594919407
-0.2526434014971395 0.3109911954041564
-0.2692669543959464 0.25750963594919407
-0.2858905072947533 0.17728729676675067
-0.2692669543959464 0.07032417785682611
-0.20277274280071875 0.07032417785682611
-0.18614918990191184 0.17728729676675067
-0.21939629569952565 0.15054651703926952
-0.2526434014971395 0.17728729676675067
-0.2858905072947533 0.23076885622171295
-0.2526434014971395 0.49817665349652435
-0.23601984859833255 0.49817665349652435
-0.1362785312054911 0.28425041567667525
-0.1362785312054911 -0.06337972078057959
-0.16952563700310494 -0.17034283969050415
-0.20277274280071875 -0.1970836194179853
-0.2526434014971395 0.04358339812934497
-0.152902084104298 0.17728729676675067
-0.1196549783066842 0.17728729676675067
-0.152902084104298 0.07032417785682611
-0.21939629569952565 0.09706495758430725
-0.23601984859833255 0.04358339812934497
-0.23601984859833255 0.07032417785682611
-0.16952563700310494 0.04358339812934497
-0.1196549783066842 0.04358339812934497
-0.152902084104298 0.04358339812934497
-0.152902084104298 0.016842618401863827
-0.2526434014971395 0.12380573731178839
-0.21939629569952565 0.09706495758430725
-0.23601984859833255 0.17728729676675067
-0.16952563700310494 0.2040280764942318
-0.18614918990191184 0.3912135345865998
-0.2692669543959464 0.4714358737690432
-0.2526434014971395 0.5516582129514866
-0.23601984859833255 0.5783989926789678
-0.1362785312054911 0.4714358737690432
-0.1030314254078773 0.3377319751316375
-0.152902084104298 0.17728729676675067
-0.20277274280071875 -0.009898161325617313
-0.2858905072947533 0.04358339812934497
-0.2858905072947533 0.2040280764942318
-0.2692669543959464 0.5249174332240055
-0.23601984859833255 0.6853621115888923
-0.2526434014971395 0.6051397724064489
-0.2858905072947533 0.3377319751316375
-0.2858905072947533 0.04358339812934497
-0.2858905072947533 -0.11686128023554188
-0.2692669543959464 -0.09012050050806074
-0.2858905072947533 -0.03663894105309845
-0.3025140601935602 -0.009898161325617313
-0.335761165991174 0.016842618401863827
-0.3690082717887878 0.016842618401863827
-0.3690082717887878 0.12380573731178839
-0.335761165991174 0.25750963594919407
-0.2692669543959464 0.28425041567667525
-0.3191376130923671 0.23076885622171295
-0.3690082717887878 0.23076885622171295
-0.3523847188899809 0.23076885622171295
-0.3025140601935602 0.28425041567667525
-0.2526434014971395 0.4714358737690432
-0.2692669543959464 0.4179543143140809
-0.2526434014971395 0.3644727548591186
-0.335761165991174 0.17728729676675067
-0.3191376130923671 0.09706495758430725
-0.23601984859833255 0.15054651703926952
-0.23601984859833255 0.3109911954041564
-0.16952563700310494 0.3644727548591186
-0.20277274280071875 0.49817665349652435
-0.21939629569952565 0.6051397724064489
-0.23601984859833255 0.5783989926789678
-0.21939629569952565 0.3109911954041564
-0.152902084104298 0.12380573731178839
-0.1362785312054911 -0.03663894105309845
-0.152902084104298 -0.09012050050806074
-0.16952563700310494 -0.17034283969050415
-0.152902084104298 -0.06337972078057959
-0.03653721381264966 -0.06337972078057959
0.0798276564789987 0.09706495758430725
0.36242805575871617 0.12380573731178839
0.6117813492408197 0.04358339812934497
0.8777581956217303 -0.22382439914546642
1.2933470180919031 -0.5447137558752401
1.8585478166513378 -0.8656031126050138
2.556737038401228 -1.1597516896073063
3.288173365948732 -1.2667148085172308
4.036233246395043 -1.320196367972193
4.701175362347319 -1.2132332490622686
5.266376160906754 -0.9993070112424195
5.5157294543888575 -0.5447137558752401
5.282999713805561 -0.22382439914546642
4.584810492055671 -0.25056517887294755
3.504279553633222 -0.17034283969050415
2.357254403615545 0.07032417785682611
1.2600999122942893 0.4714358737690432
0.2793102912646816 0.9795106885911848
-0.3191376130923671 1.2736592655934773
-0.5186202478780501 1.3538816047759208
-0.535243800776857 1.2736592655934773
-0.3523847188899809 0.9260291291362226
-0.18614918990191184 0.63188055213393
-0.1362785312054911 0.4714358737690432
-0.20277274280071875 0.3912135345865998
-0.21939629569952565 0.3644727548591186
-0.2858905072947533 0.17728729676675067
-0.3690082717887878 0.016842618401863827
-0.4188789304852086 -0.06337972078057959
-0.4853731420804362 -0.06337972078057959
-0.4521260362828224 -0.009898161325617313
-0.4022553775864017 0.016842618401863827
-0.4687495891816293 -0.03663894105309845
-0.5684909065744708 0.07032417785682611
-0.6848557768661191 0.2040280764942318
-0.6183615652708915 0.4179543143140809
-0.5684909065744708 0.3377319751316375
-0.535243800776857 0.09706495758430725
-0.4687495891816293 -0.06337972078057959
-0.5186202478780501 -0.11686128023554188
-0.535243800776857 0.04358339812934497
-0.535243800776857 0.15054651703926952
-0.4687495891816293 0.3109911954041564
-0.4687495891816293 0.3644727548591186
-0.4853731420804362 0.3377319751316375
-0.5518673536756639 0.28425041567667525
-0.5684909065744708 0.25750963594919407
-0.6183615652708915 0.23076885622171295
-0.5518673536756639 0.23076885622171295
-0.4687495891816293 0.23076885622171295
-0.5019966949792432 0.25750963594919407
-0.5019966949792432 0.2040280764942318
-0.5851144594732777 0.3377319751316375
-0.5851144594732777 0.5516582129514866
-0.5186202478780501 0.819066010226298
-0.5186202478780501 0.7923252304988169
-0.4853731420804362 0.6051397724064489
-0.5186202478780501 0.3644727548591186
-0.535243800776857 0.28425041567667525
-0.5684909065744708 0.4179543143140809
-0.535243800776857 0.5516582129514866
-0.5019966949792432 0.7121028913163735
-0.4521260362828224 0.49817665349652435
-0.4521260362828224 0.23076885622171295
-0.4521260362828224 0.09706495758430725
-0.4521260362828224 0.04358339812934497
-0.4521260362828224 0.12380573731178839
-0.3856318246875947 0.15054651703926952
-0.2692669543959464 0.15054651703926952
-0.335761165991174 0.09706495758430725
-0.4355024833840155 0.04358339812934497
-0.5019966949792432 0.2040280764942318
-0.4687495891816293 0.17728729676675067
-0.3856318246875947 0.15054651703926952
-0.3856318246875947 0.12380573731178839
-0.3856318246875947 0.07032417785682611
-0.4521260362828224 0.016842618401863827
-0.4022553775864017 -0.09012050050806074
-0.4188789304852086 -0.06337972078057959
-0.3523847188899809 -0.09012050050806074
-0.3690082717887878 -0.143602059963023
-0.4188789304852086 -0.03663894105309845
-0.4022553775864017 0.016842618401863827
-0.4022553775864017 -0.009898161325617313
-0.3690082717887878 -0.25056517887294755
-0.3191376130923671 -0.3842690775103533
-0.2858905072947533 -0.4912321964202778
-0.3025140601935602 -0.6516768747851647
-0.2858905072947533 -0.517972976147759
-0.3025140601935602 -0.4644914166927967
-0.2692669543959464 -0.3842690775103533
-0.16952563700310494 -0.4377506369653156
-0.16952563700310494 -0.5714545356027213
-0.18614918990191184 -0.7051584342401269
-0.23601984859833255 -0.731899213967608
-0.2526434014971395 -0.8121215531500515
-0.18614918990191184 -0.731899213967608
-0.1196549783066842 -0.7586399936950893
-0.1030314254078773 -0.7853807734225704
-0.1030314254078773 -0.8121215531500515
-0.16952563700310494 -0.8121215531500515
-0.21939629569952565 -0.731899213967608
-0.152902084104298 -0.8121215531500515
-0.06978431961026348 -0.8923438923324949
-0.05316076671145657 -0.9725662315149384
-0.03653721381264966 -0.9458254517874572
-0.06978431961026348 -0.9993070112424195
-0.03653721381264966 -0.8923438923324949
0.029956997782577974 -0.731899213967608
0.0632041035801918 -0.7586399936950893
0.046580550681384884 -0.5981953153302024
0.013333444883771065 -0.517972976147759
0.013333444883771065 -0.33078751805539097
0.0798276564789987 -0.2773059586004287
0.16294542097303324 -0.5447137558752401
0.21281607966945396 -0.8923438923324949
0.21281607966945396 -1.1597516896073063
0.0964512093778056 -1.1597516896073063
0.0798276564789987 -0.9725662315149384
0.046580550681384884 -0.8388623328775326
0.12969831517541944 -0.6784176545126458
0.19619252677064705 -0.4912321964202778
0.12969831517541944 -0.4377506369653156
0.0798276564789987 -0.4110098572378344
0.0798276564789987 -0.3842690775103533
0.0632041035801918 -0.2773059586004287
0.0964512093778056 -0.22382439914546642
0.12969831517541944 -0.17034283969050415
0.0798276564789987 -0.11686128023554188
-0.03653721381264966 -0.17034283969050415
-0.152902084104298 -0.11686128023554188
-0.06978431961026348 0.016842618401863827
-0.0864078725090704 0.07032417785682611
-0.03653721381264966 0.17728729676675067
-0.1362785312054911 0.25750963594919407
-0.16952563700310494 0.3109911954041564
-0.1362785312054911 0.3109911954041564
-0.1362785312054911 0.44469509404156204
-0.1030314254078773 0.4179543143140809
-0.16952563700310494 0.3109911954041564
-0.1196549783066842 0.17728729676675067
-0.152902084104298 0.12380573731178839
-0.18614918990191184 0.3912135345865998
-0.20277274280071875 0.7388436710438546
-0.21939629569952565 1.006251468318666
-0.18614918990191184 0.7388436710438546
-0.20277274280071875 0.3644727548591186
-0.18614918990191184 -0.009898161325617313
-0.23601984859833255 -0.009898161325617313
-0.18614918990191184 0.15054651703926952
-0.05316076671145657 0.25750963594919407
-0.03653721381264966 0.15054651703926952
-0.05316076671145657 -0.009898161325617313
-0.152902084104298 -0.03663894105309845
-0.152902084104298 0.07032417785682611
-0.0864078725090704 0.12380573731178839
-0.0032901080150358445 0.12380573731178839
0.11307476227661252 0.04358339812934497
0.14632186807422634 -0.11686128023554188
0.14632186807422634 -0.09012050050806074
0.11307476227661252 -0.09012050050806074
0.16294542097303324 0.09706495758430725
0.2626867383658747 0.25750963594919407
0.36242805575871617 0.3912135345865998
0.3790516086575231 0.49817665349652435
0.4621693731515576 0.5249174332240055
0.6450284550384336 0.49817665349652435
0.8943817485205372 0.3377319751316375
1.1437350420026409 -0.03663894105309845
1.3764647825859375 -0.5447137558752401
1.675688734764462 -0.9993070112424195
1.9250420282465655 -1.3736779274271553
2.174395321728669 -1.9084935219767782
2.423748615210773 -2.2026420989790707
2.6897254615916832 -2.4165683367989197
2.972325860871401 -2.7909392529836556
3.288173365948732 -3.432717966443203
3.6040208710260635 -4.181459798812675
3.8866212703057808 -4.930201631182147
4.185845222484305 -5.304572547366883
4.485069174662829 -5.438276446004289
4.651304703650899 -5.571980344641695
4.800916679740161 -5.732425023006582
4.784293126841354 -5.839388141916506
4.701175362347319 -5.973092040553912
4.717798915246126 -5.946351260826431
4.601434044954478 -5.839388141916506
4.501692727561636 -5.866128921643987
4.435198515966409 -5.999832820281393
4.1692216695854984 -6.053314379736355
3.919868376103395 -5.91961048109895
3.6206444239248703 -5.571980344641695
3.321420471746346 -5.22435020818444
3.0055729666690145 -4.903460851454666
2.6398548028952624 -4.636053054179855
2.174395321728669 -4.368645256905043
1.8585478166513378 -4.021015120447788
1.5593238644728136 -3.6466442042630525
1.4595825470799721 -3.3257548475332785
1.3432176767883237 -3.1118286097134296
1.1936057006990615 -2.9513839313485426
1.0107466188121856 -2.7909392529836556
0.9941230659133786 -2.3898275570714387
0.9442524072169579 -2.095678980069146
0.927628854318151 -1.694567284156929
0.9110053014193441 -1.48064104633708
0.9941230659133786 -1.320196367972193
1.0606172775086062 -1.1330109098798251
1.1936057006990615 -1.0260477909699006
1.3432176767883237 -0.9725662315149384
1.5759474173716204 -0.9993070112424195
1.5427003115740066 -1.1330109098798251
1.1769821478002547 -1.1597516896073063
0.6117813492408197 -1.106270130152344
-0.06978431961026348 -0.8923438923324949
-0.5684909065744708 -0.4377506369653156
-0.8510913058541881 0.2040280764942318
-1.0173268348422573 0.7388436710438546
-1.050573940639871 1.1399553669560718
-1.2001859167291333 1.2736592655934773
-1.3331743399195886 1.2736592655934773
-1.3664214457172024 1.2736592655934773
-1.3165507870207815 1.4875855034133265
-1.3664214457172024 1.5410670628682888
-1.3996685515148162 1.6212894020507322
-1.5160334218064646 1.6480301817782133
-1.5659040805028852 1.8352156398705812
-1.4827863160088508 1.8619564195980625
-1.5160334218064646 1.8886971993255437
-1.5492805276040784 1.7282525209606567
-1.6323982920981128 1.5410670628682888
-1.6490218449969198 1.5143262831408077
-1.7321396094909542 1.56780784259577
-1.6822689507945336 1.8084748601431002
-1.6490218449969198 2.0758826574179117
-1.6988925036933404 2.2630681155102796
-1.782010268187375 2.370031234420204
-1.798633821086182 2.2630681155102796
-1.8485044797826027 2.1293642168728737
-1.8152573739849889 2.022401097962949
-1.8485044797826027 1.968919538507987
-1.798633821086182 2.0491418776904307
-1.8152573739849889 1.9956603182354682
-1.9149986913778303 2.0758826574179117
-1.948245797175444 2.156104996600355
-1.948245797175444 2.2898088952377607
-1.9648693500742511 2.4502535736026476
-1.981492902973058 2.557216692512572
-2.0313635616694787 2.557216692512572
-2.0978577732647063 2.530475912785091
-2.147728431961127 2.6106982519675346
-2.13110487906232 2.771142930332421
-2.1809755377587408 2.8513652695148646
-2.114481326163513 2.8246244897873836
-2.114481326163513 2.8246244897873836
-2.197599090657548 3.0118099478797515
-2.2807168551515824 3.145513846517157
-2.2640933022527756 3.3594400843370065
-2.2308461964551616 3.4396624235194495
-2.197599090657548 3.305958524882044
-2.197599090657548 3.1989954059721195
-2.2807168551515824 3.118773066789676
-2.297340408050389 3.145513846517157
-2.214222643556355 3.3861808640644875
-2.197599090657548 3.493143982974412
-2.13110487906232 3.4129216437919685
-2.1809755377587408 3.2524769654270815
-2.197599090657548 3.279217745154563
-2.1809755377587408 3.279217745154563
-2.114481326163513 3.2257361856996005
-2.0978577732647063 3.2524769654270815
-2.0978577732647063 3.1722546262446385
-2.0812342203658996 3.1989954059721195
-2.147728431961127 3.1722546262446385
-2.0646106674670923 3.279217745154563
-2.0812342203658996 3.4129216437919685
-2.014740008770672 3.519884762701893
-1.8983751384790235 3.493143982974412
-1.8485044797826027 3.3861808640644875
-1.798633821086182 3.3594400843370065
-1.8152573739849889 3.332699304609525
-1.6822689507945336 3.2257361856996005
-1.6323982920981128 3.145513846517157
-1.5326569747052714 3.0385507276072325
-1.4994098689076576 2.9850691681522705
-1.4994098689076576 3.0652915073347136
-1.449539210211237 3.0118099478797515
-1.3664214457172024 2.931587608697308
-1.266680128324361 2.6641798114224966
-1.1336917051339057 2.4235127938751666
-1.1835623638303263 2.209586556055317
-1.083821046437485 2.0758826574179117
-1.100444599336292 2.182845776327836
-1.033950387741064 2.370031234420204
-0.9674561761458366 2.3165496749652417
-0.8677148587529951 2.156104996600355
-0.8510913058541881 1.781734080415619
-0.8344677529553812 1.4875855034133265
-0.8344677529553812 1.4341039439583643
-0.7679735413601536 1.5143262831408077
-0.7181028826637329 1.6747709615056945
-0.6682322239673122 1.5410670628682888
-0.6516086710685053 1.1666961466835528
-0.6516086710685053 0.819066010226298
-0.6183615652708915 0.7655844507713357
-0.5518673536756639 0.7121028913163735
-0.4853731420804362 0.5516582129514866
-0.4521260362828224 0.3644727548591186
-0.4521260362828224 0.3377319751316375
-0.5186202478780501 0.3377319751316375
-0.5019966949792432 0.4179543143140809
-0.4687495891816293 0.5249174332240055
-0.4355024833840155 0.5249174332240055
-0.3690082717887878 0.3377319751316375
-0.335761165991174 0.23076885622171295
-0.3523847188899809 0.09706495758430725
-0.4022553775864017 0.2040280764942318
-0.3690082717887878 0.2040280764942318
-0.3025140601935602 0.23076885622171295
-0.2692669543959464 0.07032417785682611
-0.3025140601935602 0.04358339812934497
-0.3191376130923671 -0.009898161325617313
-0.3523847188899809 0.09706495758430725
-0.3856318246875947 0.17728729676675067
-0.3523847188899809 0.3109911954041564
-0.2858905072947533 0.3109911954041564
-0.3191376130923671 0.28425041567667525
-0.3690082717887878 0.17728729676675067
-0.335761165991174 0.23076885622171295
-0.3025140601935602 0.3109911954041564
-0.23601984859833255 0.2040280764942318
-0.21939629569952565 0.15054651703926952
-0.3025140601935602 0.04358339812934497
-0.3191376130923671 0.07032417785682611
-0.2692669543959464 0.15054651703926952
-0.2526434014971395 0.3644727548591186
-0.20277274280071875 0.4714358737690432
-0.152902084104298 0.4179543143140809
-0.20277274280071875 0.2040280764942318
-0.2526434014971395 -0.009898161325617313
-0.23601984859833255 -0.03663894105309845
-0.2526434014971395 0.04358339812934497
-0.21939629569952565 0.25750963594919407
-0.18614918990191184 0.3912135345865998
-0.20277274280071875 0.5783989926789678
-0.18614918990191184 0.5249174332240055
-0.23601984859833255 0.4179543143140809
-0.16952563700310494 0.23076885622171295
-0.16952563700310494 0.17728729676675067
-0.1362785312054911 0.17728729676675067
-0.21939629569952565 0.016842618401863827
-0.2526434014971395 -0.09012050050806074
-0.21939629569952565 -0.143602059963023
-0.18614918990191184 -0.17034283969050415
-0.1362785312054911 -0.11686128023554188
-0.1196549783066842 0.12380573731178839
-0.1196549783066842 0.28425041567667525
-0.16952563700310494 0.3377319751316375
-0.18614918990191184 0.17728729676675067
-0.152902084104298 -0.06337972078057959
-0.152902084104298 -0.09012050050806074
-0.1030314254078773 0.04358339812934497
-0.21939629569952565 0.17728729676675067
-0.2692669543959464 0.28425041567667525
-0.2858905072947533 0.2040280764942318
-0.2526434014971395 0.09706495758430725
-0.152902084104298 -0.06337972078057959
-0.1362785312054911 -0.17034283969050415
-0.152902084104298 -0.009898161325617313
-0.20277274280071875 0.09706495758430725
-0.2526434014971395 0.3644727548591186
-0.18614918990191184 0.5783989926789678
-0.152902084104298 0.7121028913163735
-0.152902084104298 0.49817665349652435
-0.18614918990191184 0.28425041567667525
-0.152902084104298 0.15054651703926952
-0.16952563700310494 0.12380573731178839
-0.1196549783066842 0.016842618401863827
-0.06978431961026348 -0.09012050050806074
-0.03653721381264966 -0.17034283969050415
-0.05316076671145657 -0.25056517887294755
-0.1030314254078773 -0.2773059586004287
-0.20277274280071875 -0.30404673832790985
-0.18614918990191184 -0.22382439914546642
-0.152902084104298 -0.09012050050806074
-0.152902084104298 -0.17034283969050415
-0.16952563700310494 -0.143602059963023
-0.20277274280071875 0.07032417785682611
-0.21939629569952565 0.23076885622171295
-0.18614918990191184 0.3912135345865998
-0.0864078725090704 0.3109911954041564
-0.05316076671145657 0.09706495758430725
-0.05316076671145657 -0.143602059963023
-0.1196549783066842 -0.2773059586004287
-0.1362785312054911 -0.17034283969050415
-0.152902084104298 0.07032417785682611
-0.1196549783066842 0.23076885622171295
-0.06978431961026348 0.28425041567667525
-0.152902084104298 0.25750963594919407
-0.16952563700310494 0.12380573731178839
-0.16952563700310494 0.016842618401863827
-0.152902084104298 -0.03663894105309845
-0.1362785312054911 0.04358339812934497
-0.1362785312054911 0.04358339812934497
-0.1030314254078773 0.09706495758430725
-0.1196549783066842 0.12380573731178839
-0.1362785312054911 0.12380573731178839
-0.16952563700310494 0.17728729676675067
-0.0864078725090704 0.09706495758430725
-0.06978431961026348 -0.009898161325617313
-0.16952563700310494 -0.03663894105309845
-0.20277274280071875 0.2040280764942318
-0.20277274280071875 0.7388436710438546
-0.152902084104298 1.032992248046147
-0.1030314254078773 0.8992883494087415
-0.05316076671145657 0.4714358737690432
-0.0864078725090704 -0.09012050050806074
-0.152902084104298 -0.33078751805539097
-0.16952563700310494 -0.2773059586004287
-0.152902084104298 -0.06337972078057959
-0.0864078725090704 0.3109911954041564
-0.05316076671145657 0.25750963594919407
-0.1196549783066842 0.07032417785682611
-0.1030314254078773 -0.11686128023554188
-0.1196549783066842 -0.009898161325617313
-0.06978431961026348 0.15054651703926952
-0.019913660913842755 0.23076885622171295
-0.0032901080150358445 0.15054651703926952
-0.05316076671145657 -0.06337972078057959
-0.0864078725090704 -0.30404673832790985
-0.1030314254078773 -0.17034283969050415
-0.1362785312054911 -0.03663894105309845
-0.0864078725090704 0.12380573731178839
-0.03653721381264966 0.12380573731178839
-0.06978431961026348 0.15054651703926952
-0.1196549783066842 0.09706495758430725
-0.152902084104298 0.04358339812934497
-0.1362785312054911 0.09706495758430725
-0.1030314254078773 0.23076885622171295
-0.0864078725090704 0.4179543143140809
-0.0864078725090704 0.3109911954041564
-0.0864078725090704 0.15054651703926952
-0.1362785312054911 -0.143602059963023
-0.1196549783066842 -0.1970836194179853
-0.1030314254078773 -0.03663894105309845
-0.05316076671145657 0.12380573731178839
-0.1030314254078773 0.3109911954041564
-0.0864078725090704 0.4179543143140809
-0.0864078725090704 0.25750963594919407
-0.1030314254078773 -0.06337972078057959
-0.05316076671145657 -0.22382439914546642
-0.03653721381264966 -0.1970836194179853
-0.05316076671145657 -0.06337972078057959
-0.03653721381264966 -0.09012050050806074
-0.152902084104298 0.09706495758430725
-0.06978431961026348 0.23076885622171295
-0.06978431961026348 0.3109911954041564
0.029956997782577974 0.23076885622171295
0.013333444883771065 -0.03663894105309845
0.013333444883771065 -0.33078751805539097
-0.03653721381264966 -0.35752829778287215
-0.05316076671145657 -0.17034283969050415
0.013333444883771065 0.07032417785682611
0.029956997782577974 0.17728729676675067
0.013333444883771065 0.23076885622171295
0.013333444883771065 0.3109911954041564
-0.019913660913842755 0.4179543143140809
-0.06978431961026348 0.4179543143140809
0.029956997782577974 0.3377319751316375
-0.0032901080150358445 0.2040280764942318
-0.019913660913842755 0.28425041567667525
-0.0032901080150358445 0.3377319751316375
-0.0032901080150358445 0.25750963594919407
-0.019913660913842755 0.07032417785682611
0.046580550681384884 -0.22382439914546642
0.013333444883771065 -0.2773059586004287
0.046580550681384884 -0.33078751805539097
0.029956997782577974 -0.17034283969050415
-0.0032901080150358445 -0.03663894105309845
-0.019913660913842755 0.15054651703926952
-0.0032901080150358445 0.12380573731178839
0.013333444883771065 0.04358339812934497
-0.03653721381264966 0.07032417785682611
-0.05316076671145657 -0.009898161325617313
-0.0864078725090704 -0.03663894105309845
-0.06978431961026348 -0.17034283969050415
-0.03653721381264966 -0.143602059963023
-0.0032901080150358445 -0.143602059963023
-0.0864078725090704 -0.11686128023554188
-0.1030314254078773 0.016842618401863827
-0.0864078725090704 0.2040280764942318
-0.0864078725090704 0.3377319751316375
-0.05316076671145657 0.3912135345865998
-0.019913660913842755 0.15054651703926952
-0.019913660913842755 -0.03663894105309845
-0.1030314254078773 -0.03663894105309845
-0.06978431961026348 0.09706495758430725
-0.0864078725090704 0.17728729676675067
0.029956997782577974 0.07032417785682611
0.046580550681384884 -0.143602059963023
-0.0032901080150358445 -0.30404673832790985
-0.0864078725090704 -0.3842690775103533
-0.06978431961026348 -0.22382439914546642
-0.0032901080150358445 -0.06337972078057959
0.046580550681384884 -0.009898161325617313
0.0964512093778056 0.07032417785682611
0.0798276564789987 0.016842618401863827
0.046580550681384884 -0.11686128023554188
-0.0032901080150358445 -0.06337972078057959
0.0798276564789987 -0.03663894105309845
0.16294542097303324 0.016842618401863827
0.2294396325682609 -0.009898161325617313
0.21281607966945396 -0.17034283969050415
0.19619252677064705 -0.22382439914546642
0.21281607966945396 -0.30404673832790985
0.2959338441634885 -0.2773059586004287
0.3458045028599092 -0.30404673832790985
0.4621693731515576 -0.33078751805539097
0.6284049021396266 -0.3842690775103533
0.761393325330082 -0.35752829778287215
0.9442524072169579 -0.30404673832790985
1.2600999122942893 -0.22382439914546642
1.6258180760680412 -0.2773059586004287
2.1079011101334415 -0.6784176545126458
2.506866379704807 -1.1597516896073063
2.972325860871401 -1.5341226057920423
3.454408894936801 -1.5341226057920423
3.969739034799815 -1.293455588244712
4.451822068865216 -0.8656031126050138
4.734422468144933 -0.6516768747851647
4.784293126841354 -0.4912321964202778
4.518316280460443 -0.4110098572378344
3.869997717406974 -0.35752829778287215
3.1385613898594698 -0.22382439914546642
2.407125062311966 0.09706495758430725
1.659065181865655 0.3377319751316375
0.8777581956217303 0.3912135345865998
0.2294396325682609 0.5249174332240055
-0.03653721381264966 0.5783989926789678
-0.06978431961026348 0.5516582129514866
-0.0032901080150358445 0.3912135345865998
0.17956897387184015 0.2040280764942318
0.14632186807422634 0.15054651703926952
0.029956997782577974 0.2040280764942318
-0.03653721381264966 0.12380573731178839
-0.1362785312054911 0.09706495758430725
-0.06978431961026348 -0.11686128023554188
-0.03653721381264966 -0.4110098572378344
-0.0864078725090704 -0.5714545356027213
-0.16952563700310494 -0.5981953153302024
-0.23601984859833255 -0.4110098572378344
-0.21939629569952565 -0.22382439914546642
-0.20277274280071875 -0.03663894105309845
-0.16952563700310494 -0.06337972078057959
-0.21939629569952565 -0.11686128023554188
-0.2526434014971395 -0.25056517887294755
-0.3025140601935602 -0.2773059586004287
-0.2858905072947533 -0.11686128023554188
-0.2692669543959464 0.016842618401863827
-0.18614918990191184 0.12380573731178839
-0.16952563700310494 0.15054651703926952
-0.2692669543959464 0.12380573731178839
-0.23601984859833255 0.04358339812934497
-0.21939629569952565 -0.06337972078057959
-0.18614918990191184 -0.06337972078057959
-0.21939629569952565 -0.143602059963023
-0.23601984859833255 -0.22382439914546642
-0.2858905072947533 -0.33078751805539097
-0.2692669543959464 -0.33078751805539097
-0.2692669543959464 -0.1970836194179853
-0.2526434014971395 0.016842618401863827
-0.20277274280071875 0.12380573731178839
-0.21939629569952565 0.2040280764942318
-0.2692669543959464 0.2040280764942318
-0.3523847188899809 0.09706495758430725
-0.3191376130923671 0.016842618401863827
-0.2858905072947533 0.17728729676675067
-0.20277274280071875 0.3377319751316375
-0.2526434014971395 0.3377319751316375
-0.2858905072947533 0.3109911954041564
-0.3191376130923671 0.016842618401863827
-0.3025140601935602 -0.35752829778287215
-0.23601984859833255 -0.4912321964202778
-0.21939629569952565 -0.4644914166927967
-0.21939629569952565 -0.35752829778287215
-0.3191376130923671 -0.25056517887294755
-0.4022553775864017 -0.25056517887294755
-0.3523847188899809 -0.11686128023554188
-0.2858905072947533 0.09706495758430725
-0.2858905072947533 0.12380573731178839
-0.2858905072947533 -0.009898161325617313
-0.3690082717887878 -0.25056517887294755
-0.335761165991174 -0.2773059586004287
-0.3191376130923671 -0.33078751805539097
-0.2526434014971395 -0.17034283969050415
-0.21939629569952565 -0.25056517887294755
-0.2526434014971395 -0.2773059586004287
-0.2692669543959464 -0.30404673832790985
-0.3191376130923671 -0.2773059586004287
-0.23601984859833255 -0.22382439914546642
-0.18614918990191184 -0.22382439914546642
-0.152902084104298 -0.30404673832790985
-0.152902084104298 -0.4912321964202778
-0.1362785312054911 -0.5447137558752401
-0.1196549783066842 -0.517972976147759
-0.1030314254078773 -0.4644914166927967
0.013333444883771065 -0.35752829778287215
0.0798276564789987 -0.33078751805539097
0.0798276564789987 -0.3842690775103533
-0.0032901080150358445 -0.517972976147759
0.029956997782577974 -0.5714545356027213
0.0964512093778056 -0.5714545356027213
0.14632186807422634 -0.5447137558752401
0.2294396325682609 -0.6784176545126458
0.21281607966945396 -0.9458254517874572
0.12969831517541944 -0.9993070112424195
0.0964512093778056 -0.8656031126050138
0.11307476227661252 -0.4110098572378344
0.17956897387184015 0.016842618401863827
0.2959338441634885 -0.2773059586004287
0.2959338441634885 -0.919084672059976
0.2793102912646816 -1.48064104633708
0.2793102912646816 -1.694567284156929
0.3125573970622954 -1.48064104633708
0.3458045028599092 -1.2399740287897498
0.39567516155633 -1.1597516896073063
0.3790516086575231 -1.1864924693347874
0.36242805575871617 -1.0527885706973819
0.36242805575871617 -1.0527885706973819
0.4122987144551369 -1.106270130152344
0.4787929260503645 -1.1330109098798251
0.5286635847467852 -1.3736779274271553
0.5785342434432059 -1.293455588244712
0.5120400318479783 -1.293455588244712
0.4954164789491714 -1.2132332490622686
0.5452871376455921 -1.0527885706973819
0.6117813492408197 -0.9725662315149384
0.6782755608360475 -0.9458254517874572
0.6450284550384336 -0.919084672059976
0.6117813492408197 -0.9458254517874572
0.6450284550384336 -0.8656031126050138
0.6284049021396266 -0.8121215531500515
0.6616520079372405 -0.6516768747851647
0.6450284550384336 -0.6784176545126458
0.6284049021396266 -0.7051584342401269
0.5120400318479783 -0.6516768747851647
0.4954164789491714 -0.35752829778287215
0.4954164789491714 -0.143602059963023
0.5452871376455921 -0.1970836194179853
0.5785342434432059 -0.35752829778287215
0.4621693731515576 -0.5447137558752401
0.4787929260503645 -0.6784176545126458
0.4621693731515576 -0.5714545356027213
0.4289222673539438 -0.3842690775103533
0.4122987144551369 -0.06337972078057959
0.4787929260503645 0.12380573731178839
0.4455458202527507 0.3109911954041564
0.39567516155633 0.2040280764942318
0.36242805575871617 -0.009898161325617313
0.36242805575871617 -0.2773059586004287
0.4455458202527507 -0.3842690775103533
0.4621693731515576 -0.4912321964202778
0.36242805575871617 -0.517972976147759
0.3125573970622954 -0.517972976147759
0.2626867383658747 -0.4377506369653156
0.2959338441634885 -0.1970836194179853
0.2959338441634885 0.04358339812934497
0.3125573970622954 0.09706495758430725
0.3458045028599092 0.09706495758430725
0.2626867383658747 -0.09012050050806074
0.19619252677064705 -0.25056517887294755
0.21281607966945396 -0.2773059586004287
0.21281607966945396 -0.22382439914546642
0.21281607966945396 -0.25056517887294755
0.17956897387184015 -0.25056517887294755
0.17956897387184015 -0.2773059586004287
0.14632186807422634 -0.1970836194179853
0.17956897387184015 0.07032417785682611
0.21281607966945396 0.3912135345865998
0.21281607966945396 0.5249174332240055
0.2460631854670678 0.28425041567667525
0.19619252677064705 -0.17034283969050415
0.12969831517541944 -0.4912321964202778
0.16294542097303324 -0.4644914166927967
0.2294396325682609 -0.30404673832790985
0.2626867383658747 -0.11686128023554188
0.19619252677064705 0.016842618401863827
0.14632186807422634 -0.143602059963023
0.12969831517541944 -0.11686128023554188
0.17956897387184015 -0.11686128023554188
0.17956897387184015 -0.25056517887294755
0.16294542097303324 -0.4644914166927967
0.12969831517541944 -0.6516768747851647
0.11307476227661252 -0.5447137558752401
0.046580550681384884 -0.25056517887294755
0.0798276564789987 -0.009898161325617313
0.11307476227661252 0.23076885622171295
0.16294542097303324 0.17728729676675067
0.0798276564789987 -0.11686128023554188
0.0632041035801918 -0.33078751805539097
0.029956997782577974 -0.517972976147759
0.11307476227661252 -0.4110098572378344
0.0964512093778056 -0.22382439914546642
0.11307476227661252 -0.11686128023554188
0.12969831517541944 -0.03663894105309845
0.11307476227661252 -0.143602059963023
0.0632041035801918 -0.143602059963023
0.0798276564789987 -0.06337972078057959
0.16294542097303324 0.15054651703926952
0.12969831517541944 0.09706495758430725
0.0964512093778056 -0.143602059963023
0.0798276564789987 -0.517972976147759
0.013333444883771065 -0.5981953153302024
0.0798276564789987 -0.4377506369653156
0.12969831517541944 -0.17034283969050415
0.046580550681384884 0.07032417785682611
0.0632041035801918 0.12380573731178839
0.0632041035801918 0.04358339812934497
0.046580550681384884 -0.143602059963023
0.0632041035801918 -0.2773059586004287
0.16294542097303324 -0.35752829778287215
0.14632186807422634 -0.4377506369653156
0.0798276564789987 -0.4377506369653156
-0.019913660913842755 -0.4110098572378344
-0.05316076671145657 -0.33078751805539097
-0.019913660913842755 -0.1970836194179853
0.013333444883771065 -0.06337972078057959
0.0632041035801918 -0.009898161325617313
0.029956997782577974 -0.06337972078057959
-0.019913660913842755 -0.09012050050806074
-0.05316076671145657 -0.11686128023554188
-0.019913660913842755 -0.03663894105309845
0.013333444883771065 0.04358339812934497
0.029956997782577974 0.09706495758430725
0.029956997782577974 0.23076885622171295
-0.019913660913842755 0.28425041567667525
-0.05316076671145657 0.3644727548591186
0.013333444883771065 0.25750963594919407
0.046580550681384884 0.12380573731178839
0.029956997782577974 -0.009898161325617313
-0.03653721381264966 0.016842618401863827
-0.1030314254078773 -0.09012050050806074
-0.1030314254078773 -0.1970836194179853
-0.0864078725090704 -0.143602059963023
-0.05316076671145657 -0.11686128023554188
-0.0032901080150358445 -0.09012050050806074
-0.03653721381264966 -0.25056517887294755
-0.0864078725090704 -0.3842690775103533
-0.0864078725090704 -0.33078751805539097
-0.0864078725090704 -0.11686128023554188
-0.019913660913842755 0.09706495758430725
-0.0032901080150358445 0.23076885622171295
-0.03653721381264966 0.23076885622171295
-0.06978431961026348 0.2040280764942318
-0.1196549783066842 0.07032417785682611
-0.0864078725090704 -0.03663894105309845
-0.06978431961026348 -0.1970836194179853
-0.03653721381264966 -0.30404673832790985
-0.019913660913842755 -0.22382439914546642
-0.019913660913842755 -0.17034283969050415
-0.1196549783066842 -0.09012050050806074
-0.0864078725090704 0.04358339812934497
-0.019913660913842755 0.23076885622171295
0.013333444883771065 0.2040280764942318
0.029956997782577974 0.09706495758430725
0.029956997782577974 -0.009898161325617313
-0.0032901080150358445 -0.09012050050806074
0.013333444883771065 -0.06337972078057959
0.013333444883771065 0.016842618401863827
0.0632041035801918 0.07032417785682611
-0.0032901080150358445 0.09706495758430725
-0.03653721381264966 -0.03663894105309845
-0.03653721381264966 -0.11686128023554188
0.029956997782577974 -0.06337972078057959
0.0632041035801918 0.016842618401863827
0.12969831517541944 -0.143602059963023
0.12969831517541944 -0.4110098572378344
0.17956897387184015 -0.5447137558752401
0.3291809499611023 -0.4644914166927967
0.561910690544399 -0.22382439914546642
0.8611346427229234 -0.09012050050806074
1.1936057006990615 -0.25056517887294755
1.5925709702704274 -0.4644914166927967
2.0580304514370207 -0.8923438923324949
2.6731019086928764 -1.293455588244712
3.3380440246451526 -1.6410857247019668
4.002986140597429 -1.881752742249297
4.684551809448513 -1.881752742249297
5.133387737716299 -1.4539002666095988
5.166634843513913 -0.8121215531500515
4.717798915246126 -0.22382439914546642
3.919868376103395 0.15054651703926952
2.92245520217498 0.44469509404156204
1.9749126869429863 0.7923252304988169
0.9941230659133786 0.9260291291362226
0.0798276564789987 0.8725475696812603
-0.4355024833840155 0.7923252304988169
-0.5186202478780501 0.819066010226298
-0.23601984859833255 0.7388436710438546
0.013333444883771065 0.44469509404156204
0.046580550681384884 0.17728729676675067
0.046580550681384884 0.04358339812934497
-0.03653721381264966 -0.06337972078057959
-0.0864078725090704 -0.009898161325617313
-0.1030314254078773 -0.03663894105309845
-0.1030314254078773 -0.009898161325617313
-0.152902084104298 -0.06337972078057959
-0.23601984859833255 -0.009898161325617313
-0.3025140601935602 0.09706495758430725
-0.2858905072947533 0.25750963594919407
-0.2692669543959464 0.28425041567667525
-0.3025140601935602 0.28425041567667525
-0.335761165991174 0.2040280764942318
-0.3523847188899809 0.25750963594919407
-0.3690082717887878 0.2040280764942318
-0.335761165991174 0.3109911954041564
-0.3025140601935602 0.3377319751316375
-0.23601984859833255 0.17728729676675067
-0.3690082717887878 -0.06337972078057959
-0.3856318246875947 -0.4110098572378344
-0.3856318246875947 -0.4110098572378344
-0.335761165991174 -0.33078751805539097
-0.2692669543959464 -0.143602059963023
-0.2858905072947533 -0.11686128023554188
-0.3523847188899809 -0.009898161325617313
-0.4355024833840155 0.09706495758430725
-0.3523847188899809 0.17728729676675067
-0.3690082717887878 0.07032417785682611
-0.2692669543959464 -0.009898161325617313
-0.2692669543959464 -0.143602059963023
-0.3025140601935602 -0.25056517887294755
-0.3191376130923671 -0.25056517887294755
-0.3523847188899809 -0.25056517887294755
-0.335761165991174 -0.17034283969050415
-0.3191376130923671 -0.11686128023554188
-0.2858905072947533 -0.09012050050806074
-0.335761165991174 -0.09012050050806074
-0.3690082717887878 -0.06337972078057959
-0.335761165991174 -0.06337972078057959
-0.335761165991174 0.04358339812934497
-0.2858905072947533 0.23076885622171295
-0.2526434014971395 0.25750963594919407
-0.2858905072947533 0.15054651703926952
-0.2858905072947533 -0.1970836194179853
-0.2858905072947533 -0.4912321964202778
-0.3191376130923671 -0.5714545356027213
-0.2692669543959464 -0.517972976147759
-0.2692669543959464 -0.4377506369653156
-0.23601984859833255 -0.4110098572378344
-0.3191376130923671 -0.25056517887294755
-0.335761165991174 -0.09012050050806074
-0.2858905072947533 -0.11686128023554188
-0.2692669543959464 -0.35752829778287215
-0.20277274280071875 -0.6516768747851647
-0.21939629569952565 -0.7586399936950893
-0.3025140601935602 -0.7586399936950893
-0.23601984859833255 -0.7051584342401269
-0.21939629569952565 -0.5447137558752401
-0.1362785312054911 -0.4377506369653156
-0.0864078725090704 -0.5447137558752401
-0.1196549783066842 -0.731899213967608
-0.1196549783066842 -0.7051584342401269
-0.1362785312054911 -0.6249360950576835
-0.06978431961026348 -0.4377506369653156
-0.03653721381264966 -0.25056517887294755
-0.019913660913842755 -0.33078751805539097
0.013333444883771065 -0.7051584342401269
0.013333444883771065 -1.1597516896073063
-0.0032901080150358445 -1.3469371476996743
-0.019913660913842755 -1.2667148085172308
0.0632041035801918 -1.1330109098798251
0.0798276564789987 -1.1330109098798251
0.0632041035801918 -1.0795293504248629
0.029956997782577974 -1.106270130152344
0.029956997782577974 -1.1597516896073063
0.0964512093778056 -1.2132332490622686
0.16294542097303324 -1.1330109098798251
0.16294542097303324 -1.1597516896073063
0.12969831517541944 -1.320196367972193
0.16294542097303324 -1.3469371476996743
0.19619252677064705 -1.2667148085172308
0.16294542097303324 -1.1597516896073063
0.2460631854670678 -0.9458254517874572
0.2626867383658747 -1.0527885706973819
0.2294396325682609 -1.0795293504248629
0.2294396325682609 -1.0527885706973819
0.2294396325682609 -0.9725662315149384
0.3125573970622954 -0.7853807734225704
0.2959338441634885 -0.6249360950576835
0.2793102912646816 -0.6249360950576835
0.2959338441634885 -0.731899213967608
0.2626867383658747 -0.8656031126050138
0.2460631854670678 -0.8923438923324949
0.2460631854670678 -0.7586399936950893
0.2626867383658747 -0.5714545356027213
0.2460631854670678 -0.5714545356027213
0.2460631854670678 -0.4912321964202778
0.19619252677064705 -0.35752829778287215
0.14632186807422634 -0.25056517887294755
0.14632186807422634 -0.2773059586004287
0.19619252677064705 -0.25056517887294755
0.16294542097303324 -0.33078751805539097
0.14632186807422634 -0.30404673832790985
0.0964512093778056 -0.25056517887294755
0.0632041035801918 -0.06337972078057959
0.046580550681384884 0.04358339812934497
0.14632186807422634 0.12380573731178839
0.14632186807422634 0.09706495758430725
0.12969831517541944 -0.009898161325617313
0.046580550681384884 -0.09012050050806074
-0.03653721381264966 -0.06337972078057959
-0.03653721381264966 0.016842618401863827
0.0632041035801918 0.12380573731178839
0.0964512093778056 0.2040280764942318
0.0798276564789987 0.25750963594919407
0.046580550681384884 0.2040280764942318
0.0632041035801918 0.23076885622171295
0.16294542097303324 0.23076885622171295
0.17956897387184015 0.25750963594919407
0.14632186807422634 0.25750963594919407
0.11307476227661252 0.2040280764942318
0.046580550681384884 0.17728729676675067
0.029956997782577974 0.2040280764942318
0.0632041035801918 0.25750963594919407
0.0964512093778056 0.25750963594919407
0.0964512093778056 0.04358339812934497
0.0798276564789987 -0.1970836194179853
0.029956997782577974 -0.25056517887294755
0.013333444883771065 -0.11686128023554188
0.046580550681384884 0.09706495758430725
0.0798276564789987 0.3109911954041564
0.046580550681384884 0.3377319751316375
0.029956997782577974 0.2040280764942318
-0.019913660913842755 0.12380573731178839
-0.0864078725090704 0.09706495758430725
-0.1196549783066842 0.15054651703926952
-0.03653721381264966 0.15054651703926952
0.046580550681384884 0.04358339812934497
0.013333444883771065 -0.06337972078057959
-0.019913660913842755 -0.11686128023554188
-0.03653721381264966 -0.009898161325617313
-0.0032901080150358445 0.016842618401863827
0.029956997782577974 -0.03663894105309845
0.029956997782577974 -0.06337972078057959
-0.06978431961026348 -0.17034283969050415
-0.1196549783066842 -0.17034283969050415
-0.1030314254078773 -0.09012050050806074
-0.03653721381264966 0.016842618401863827
-0.019913660913842755 0.07032417785682611
0.013333444883771065 0.12380573731178839
-0.0032901080150358445 0.2040280764942318
-0.03653721381264966 0.28425041567667525
-0.05316076671145657 0.17728729676675067
-0.05316076671145657 0.25750963594919407
-0.03653721381264966 0.3377319751316375
-0.06978431961026348 0.3377319751316375
-0.019913660913842755 0.3109911954041564
-0.03653721381264966 0.2040280764942318
-0.05316076671145657 0.016842618401863827
-0.019913660913842755 -0.11686128023554188
0.046580550681384884 -0.2773059586004287
0.0798276564789987 -0.33078751805539097
-0.019913660913842755 -0.30404673832790985
-0.0864078725090704 -0.1970836194179853
-0.0864078725090704 -0.11686128023554188
-0.019913660913842755 0.09706495758430725
-0.0032901080150358445 0.25750963594919407
-0.03653721381264966 0.28425041567667525
-0.1196549783066842 0.17728729676675067
-0.1196549783066842 -0.03663894105309845
-0.1196549783066842 -0.09012050050806074
-0.0864078725090704 -0.09012050050806074
-0.16952563700310494 0.04358339812934497
-0.0864078725090704 0.016842618401863827
-0.1030314254078773 -0.06337972078057959
-0.16952563700310494 -0.06337972078057959
-0.20277274280071875 0.04358339812934497
-0.21939629569952565 0.2040280764942318
-0.1196549783066842 0.28425041567667525
-0.1196549783066842 0.17728729676675067
-0.1362785312054911 0.15054651703926952
-0.20277274280071875 0.04358339812934497
-0.2692669543959464 0.07032417785682611
-0.21939629569952565 0.17728729676675067
-0.18614918990191184 0.25750963594919407
-0.16952563700310494 0.17728729676675067
-0.152902084104298 0.07032417785682611
-0.23601984859833255 0.15054651703926952
-0.3025140601935602 0.3644727548591186
-0.2858905072947533 0.3644727548591186
-0.20277274280071875 0.17728729676675067
-0.16952563700310494 -0.009898161325617313
-0.1196549783066842 -0.06337972078057959
-0.1196549783066842 0.04358339812934497
-0.152902084104298 0.17728729676675067
-0.1196549783066842 0.28425041567667525
-0.019913660913842755 0.3109911954041564
-0.0864078725090704 0.3912135345865998
-0.1030314254078773 0.3912135345865998
-0.1030314254078773 0.3912135345865998
-0.0864078725090704 0.25750963594919407
-0.019913660913842755 0.04358339812934497
-0.0032901080150358445 -0.06337972078057959
0.029956997782577974 -0.143602059963023
0.013333444883771065 -0.09012050050806074
0.013333444883771065 -0.06337972078057959
-0.05316076671145657 0.016842618401863827
-0.06978431961026348 0.04358339812934497
-0.019913660913842755 0.17728729676675067
-0.03653721381264966 0.07032417785682611
-0.1030314254078773 0.09706495758430725
-0.1196549783066842 0.09706495758430725
-0.0864078725090704 0.15054651703926952
-0.019913660913842755 0.17728729676675067
-0.0032901080150358445 0.23076885622171295
0.013333444883771065 0.25750963594919407
0.0632041035801918 0.25750963594919407
-0.019913660913842755 0.23076885622171295
-0.019913660913842755 0.12380573731178839
-0.05316076671145657 -0.03663894105309845
-0.019913660913842755 -0.03663894105309845
0.013333444883771065 0.07032417785682611
-0.019913660913842755 0.07032417785682611
-0.03653721381264966 0.12380573731178839
-0.1030314254078773 0.07032417785682611
-0.1196549783066842 0.15054651703926952
-0.1030314254078773 0.2040280764942318
-0.0864078725090704 0.17728729676675067
-0.06978431961026348 0.07032417785682611
-0.0864078725090704 0.04358339812934497
-0.1196549783066842 0.15054651703926952
-0.18614918990191184 0.3109911954041564
-0.16952563700310494 0.23076885622171295
-0.1196549783066842 0.07032417785682611
-0.152902084104298 0.016842618401863827
-0.152902084104298 0.016842618401863827
-0.16952563700310494 0.15054651703926952
-0.0864078725090704 0.2040280764942318
-0.05316076671145657 0.15054651703926952
-0.03653721381264966 -0.03663894105309845
-0.03653721381264966 -0.09012050050806074
-0.1362785312054911 -0.03663894105309845
-0.1362785312054911 -0.009898161325617313
-0.1030314254078773 0.15054651703926952
-0.05316076671145657 0.23076885622171295
0.013333444883771065 0.23076885622171295
0.013333444883771065 0.25750963594919407
-0.019913660913842755 0.23076885622171295
-0.05316076671145657 0.2040280764942318
-0.019913660913842755 0.23076885622171295
0.013333444883771065 0.2040280764942318
0.013333444883771065 0.07032417785682611
0.013333444883771065 0.04358339812934497
-0.0032901080150358445 0.12380573731178839
0.013333444883771065 0.04358339812934497
-0.019913660913842755 0.12380573731178839
0.029956997782577974 0.17728729676675067
0.029956997782577974 0.2040280764942318
0.0632041035801918 0.016842618401863827
0.0632041035801918 -0.143602059963023
0.16294542097303324 -0.30404673832790985
0.2460631854670678 -0.2773059586004287
0.4455458202527507 -0.30404673832790985
0.6782755608360475 -0.4110098572378344
0.9774995130145717 -0.5981953153302024
1.276723465193096 -0.8388623328775326
1.7421829463596896 -1.0527885706973819
2.373877956514352 -1.106270130152344
3.105314284061856 -1.1864924693347874
3.7536328471153255 -1.1597516896073063
4.418574963067602 -1.2399740287897498
5.000399314525843 -1.1597516896073063
5.399364584097209 -0.7051584342401269
5.465858795692437 -0.25056517887294755
5.050269973222265 0.07032417785682611
4.185845222484305 0.04358339812934497
3.105314284061856 -0.06337972078057959
1.9582891340441795 0.016842618401863827
0.8445110898241165 0.3644727548591186
-0.1030314254078773 0.7655844507713357
-0.535243800776857 1.1132145872285906
-0.535243800776857 1.2736592655934773
-0.3191376130923671 1.1132145872285906
-0.152902084104298 0.7121028913163735
-0.05316076671145657 0.5249174332240055
-0.019913660913842755 0.3912135345865998
-0.0032901080150358445 0.28425041567667525
-0.0864078725090704 0.12380573731178839
-0.16952563700310494 0.07032417785682611
-0.2526434014971395 -0.03663894105309845
-0.2858905072947533 -0.009898161325617313
-0.3191376130923671 0.07032417785682611
-0.3523847188899809 0.2040280764942318
-0.335761165991174 0.2040280764942318
-0.335761165991174 0.17728729676675067
-0.3690082717887878 0.09706495758430725
-0.4188789304852086 0.25750963594919407
-0.4022553775864017 0.44469509404156204
-0.3856318246875947 0.7121028913163735
-0.3523847188899809 0.6051397724064489
-0.3523847188899809 0.23076885622171295
-0.4022553775864017 -0.22382439914546642
-0.4355024833840155 -0.2773059586004287
-0.4521260362828224 -0.17034283969050415
-0.3856318246875947 0.04358339812934497
-0.3690082717887878 0.09706495758430725
-0.3856318246875947 0.07032417785682611
-0.3856318246875947 -0.11686128023554188
-0.4687495891816293 -0.143602059963023
-0.4188789304852086 -0.22382439914546642
-0.3523847188899809 -0.143602059963023
-0.3025140601935602 -0.22382439914546642
-0.3690082717887878 -0.11686128023554188
-0.4188789304852086 -0.17034283969050415
-0.4022553775864017 -0.06337972078057959
-0.4188789304852086 0.016842618401863827
-0.3856318246875947 0.07032417785682611
-0.4022553775864017 0.04358339812934497
-0.4521260362828224 -0.143602059963023
-0.4687495891816293 -0.25056517887294755
-0.5186202478780501 -0.25056517887294755
-0.4687495891816293 -0.09012050050806074
-0.4853731420804362 0.15054651703926952
-0.3690082717887878 0.12380573731178839
-0.4521260362828224 0.09706495758430725
-0.5019966949792432 -0.143602059963023
-0.4853731420804362 -0.25056517887294755
-0.4687495891816293 -0.143602059963023
-0.3856318246875947 0.016842618401863827
-0.3856318246875947 0.016842618401863827
-0.4188789304852086 -0.09012050050806074
-0.4188789304852086 -0.1970836194179853
-0.3856318246875947 -0.143602059963023
-0.3856318246875947 0.016842618401863827
-0.3523847188899809 0.016842618401863827
-0.3191376130923671 -0.009898161325617313
-0.3025140601935602 0.016842618401863827
-0.2692669543959464 0.016842618401863827
-0.2858905072947533 -0.03663894105309845
-0.20277274280071875 -0.11686128023554188
-0.23601984859833255 -0.22382439914546642
-0.16952563700310494 -0.35752829778287215
-0.2526434014971395 -0.4110098572378344
-0.2692669543959464 -0.4644914166927967
-0.2692669543959464 -0.4377506369653156
-0.20277274280071875 -0.33078751805539097
-0.1196549783066842 -0.25056517887294755
-0.0864078725090704 -0.4110098572378344
-0.06978431961026348 -0.4912321964202778
-0.1196549783066842 -0.5981953153302024
-0.1030314254078773 -0.6516768747851647
-0.06978431961026348 -0.5981953153302024
-0.0032901080150358445 -0.6249360950576835
0.013333444883771065 -0.6784176545126458
0.046580550681384884 -0.7853807734225704
0.046580550681384884 -0.8923438923324949
0.046580550681384884 -0.9993070112424195
0.0632041035801918 -0.9725662315149384
0.0798276564789987 -0.8656031126050138
0.14632186807422634 -0.8121215531500515
0.12969831517541944 -0.8656031126050138
0.11307476227661252 -0.9458254517874572
0.14632186807422634 -1.2132332490622686
0.16294542097303324 -1.2399740287897498
0.14632186807422634 -1.1864924693347874
0.21281607966945396 -1.1330109098798251
0.17956897387184015 -1.0795293504248629
0.14632186807422634 -1.106270130152344
0.12969831517541944 -1.0527885706973819
0.17956897387184015 -0.919084672059976
0.2793102912646816 -0.9993070112424195
0.2626867383658747 -1.1330109098798251
0.2626867383658747 -1.106270130152344
0.17956897387184015 -1.0795293504248629
0.17956897387184015 -0.919084672059976
0.16294542097303324 -0.731899213967608
0.2626867383658747 -0.6516768747851647
0.3291809499611023 -0.731899213967608
0.2793102912646816 -0.7586399936950893
0.3125573970622954 -0.7586399936950893
0.2793102912646816 -0.6784176545126458
0.2626867383658747 -0.5981953153302024
0.2793102912646816 -0.4912321964202778
0.3291809499611023 -0.33078751805539097
0.2793102912646816 -0.17034283969050415
0.2460631854670678 -0.009898161325617313
0.19619252677064705 0.016842618401863827
0.14632186807422634 -0.06337972078057959
0.17956897387184015 0.07032417785682611
0.21281607966945396 0.2040280764942318
0.17956897387184015 0.28425041567667525
0.0632041035801918 0.17728729676675067
0.046580550681384884 -0.09012050050806074
0.0798276564789987 -0.09012050050806074
0.16294542097303324 -0.06337972078057959
0.11307476227661252 -0.03663894105309845
0.046580550681384884 -0.03663894105309845
-0.03653721381264966 0.016842618401863827
-0.06978431961026348 0.07032417785682611
-0.019913660913842755 0.04358339812934497
0.013333444883771065 -0.009898161325617313
-0.0032901080150358445 -0.009898161325617313
-0.03653721381264966 0.04358339812934497
-0.06978431961026348 0.04358339812934497
-0.1030314254078773 0.12380573731178839
-0.1030314254078773 0.25750963594919407
-0.019913660913842755 0.3644727548591186
-0.019913660913842755 0.25750963594919407
-0.03653721381264966 0.15054651703926952
-0.05316076671145657 0.15054651703926952
-0.0864078725090704 0.49817665349652435
-0.1196549783066842 0.7655844507713357
-0.1030314254078773 0.7388436710438546
-0.1030314254078773 0.3109911954041564
-0.06978431961026348 0.07032417785682611
-0.152902084104298 0.07032417785682611
-0.1196549783066842 0.3109911954041564
-0.152902084104298 0.44469509404156204
-0.03653721381264966 0.25750963594919407
-0.019913660913842755 -0.143602059963023
-0.019913660913842755 -0.33078751805539097
-0.1030314254078773 -0.17034283969050415
-0.1030314254078773 -0.06337972078057959
-0.0864078725090704 -0.009898161325617313
-0.1030314254078773 0.17728729676675067
-0.05316076671145657 0.23076885622171295
-0.1030314254078773 0.23076885622171295
-0.1196549783066842 0.15054651703926952
-0.1030314254078773 -0.143602059963023
-0.05316076671145657 -0.33078751805539097
-0.019913660913842755 -0.3842690775103533
0.013333444883771065 -0.30404673832790985
-0.0032901080150358445 -0.09012050050806074
-0.06978431961026348 -0.009898161325617313
-0.019913660913842755 0.2040280764942318
-0.019913660913842755 0.4179543143140809
-0.0032901080150358445 0.4714358737690432
0.013333444883771065 0.3109911954041564
0.013333444883771065 -0.06337972078057959
0.029956997782577974 -0.35752829778287215
-0.0032901080150358445 -0.30404673832790985
0.046580550681384884 -0.09012050050806074
0.0798276564789987 0.2040280764942318
0.0798276564789987 0.28425041567667525
0.0632041035801918 0.04358339812934497
0.013333444883771065 -0.11686128023554188
-0.0032901080150358445 -0.17034283969050415
-0.019913660913842755 -0.1970836194179853
0.0632041035801918 -0.06337972078057959
0.0632041035801918 -0.06337972078057959
-0.05316076671145657 -0.03663894105309845
-0.1030314254078773 0.04358339812934497
-0.1362785312054911 0.25750963594919407
-0.1196549783066842 0.49817665349652435
-0.1030314254078773 0.6051397724064489
-0.03653721381264966 0.3377319751316375
-0.06978431961026348 0.07032417785682611
-0.1362785312054911 -0.17034283969050415
-0.152902084104298 -0.09012050050806074
-0.1196549783066842 -0.03663894105309845
-0.0864078725090704 0.09706495758430725
-0.1362785312054911 0.09706495758430725
-0.23601984859833255 0.12380573731178839
-0.2692669543959464 0.09706495758430725
-0.2526434014971395 0.12380573731178839
-0.21939629569952565 0.15054651703926952
-0.20277274280071875 0.25750963594919407
-0.20277274280071875 0.3644727548591186
-0.23601984859833255 0.4179543143140809
-0.3191376130923671 0.5783989926789678
-0.2692669543959464 0.5783989926789678
-0.18614918990191184 0.3644727548591186
-0.16952563700310494 0.12380573731178839
-0.1362785312054911 -0.11686128023554188
-0.152902084104298 -0.25056517887294755
-0.2526434014971395 -0.22382439914546642
-0.3025140601935602 -0.03663894105309845
-0.2858905072947533 -0.03663894105309845
-0.23601984859833255 0.15054651703926952
-0.18614918990191184 0.25750963594919407
-0.21939629569952565 0.28425041567667525
-0.3025140601935602 0.28425041567667525
-0.3191376130923671 0.3109911954041564
-0.3191376130923671 0.25750963594919407
-0.23601984859833255 0.2040280764942318
-0.23601984859833255 0.12380573731178839
-0.2526434014971395 0.17728729676675067
-0.2692669543959464 0.12380573731178839
-0.2858905072947533 0.12380573731178839
-0.23601984859833255 0.15054651703926952
-0.152902084104298 0.28425041567667525
-0.1196549783066842 0.28425041567667525
-0.1030314254078773 0.09706495758430725
-0.152902084104298 -0.17034283969050415
-0.18614918990191184 -0.17034283969050415
-0.16952563700310494 0.016842618401863827
-0.1362785312054911 0.17728729676675067
-0.1030314254078773 0.3644727548591186
-0.1030314254078773 0.4179543143140809
-0.152902084104298 0.3644727548591186
-0.152902084104298 0.3109911954041564
-0.1362785312054911 0.25750963594919407
-0.05316076671145657 0.28425041567667525
-0.03653721381264966 0.15054651703926952
-0.1196549783066842 0.07032417785682611
-0.18614918990191184 0.15054651703926952
-0.152902084104298 0.23076885622171295
-0.18614918990191184 0.17728729676675067
-0.1362785312054911 0.23076885622171295
-0.1362785312054911 0.23076885622171295
-0.1362785312054911 0.3377319751316375
-0.152902084104298 0.17728729676675067
-0.16952563700310494 -0.009898161325617313
-0.16952563700310494 -0.143602059963023
-0.1362785312054911 -0.143602059963023
-0.16952563700310494 0.07032417785682611
-0.1196549783066842 0.23076885622171295
-0.152902084104298 0.15054651703926952
-0.21939629569952565 -0.009898161325617313
-0.18614918990191184 -0.06337972078057959
-0.0864078725090704 -0.009898161325617313
-0.1030314254078773 -0.009898161325617313
-0.1196549783066842 -0.009898161325617313
-0.152902084104298 -0.009898161325617313
-0.152902084104298 -0.009898161325617313
-0.20277274280071875 0.09706495758430725
-0.18614918990191184 0.25750963594919407
-0.1362785312054911 0.3377319751316375
-0.06978431961026348 0.4179543143140809
-0.1030314254078773 0.23076885622171295
-0.1196549783066842 0.23076885622171295
-0.1030314254078773 0.25750963594919407
-0.06978431961026348 0.25750963594919407
-0.019913660913842755 0.04358339812934497
-0.05316076671145657 -0.22382439914546642
-0.0864078725090704 -0.22382439914546642
-0.1030314254078773 -0.11686128023554188
-0.05316076671145657 -0.03663894105309845
0.12969831517541944 0.17728729676675067
0.2959338441634885 0.09706495758430725
0.4787929260503645 -0.06337972078057959
0.761393325330082 -0.2773059586004287
1.1769821478002547 -0.4110098572378344
1.7255593934608826 -0.5981953153302024
2.3406308507167384 -0.8388623328775326
3.0554436253654353 -1.106270130152344
3.687138635520098 -1.2132332490622686
4.385327857269988 -1.3469371476996743
5.033646420323458 -1.2399740287897498
5.44923524279363 -0.8923438923324949
5.382741031198402 -0.4644914166927967
4.800916679740161 -0.2773059586004287
3.653891529722484 -0.143602059963023
2.506866379704807 -0.03663894105309845
1.4097118883835513 0.15054651703926952
0.4289222673539438 0.4179543143140809
-0.152902084104298 0.5516582129514866
-0.335761165991174 0.49817665349652435
-0.2858905072947533 0.44469509404156204
-0.1030314254078773 0.28425041567667525
0.013333444883771065 0.15054651703926952
0.046580550681384884 0.07032417785682611
-0.0032901080150358445 -0.03663894105309845
-0.06978431961026348 -0.1970836194179853
-0.18614918990191184 -0.25056517887294755
-0.2526434014971395 -0.143602059963023
-0.3025140601935602 0.04358339812934497
-0.3191376130923671 0.3377319751316375
-0.3856318246875947 0.6051397724064489
-0.3025140601935602 0.6051397724064489
-0.3690082717887878 0.3377319751316375
-0.3856318246875947 -0.03663894105309845
-0.3856318246875947 -0.25056517887294755
-0.335761165991174 -0.35752829778287215
-0.3191376130923671 -0.4377506369653156
-0.335761165991174 -0.4377506369653156
-0.4022553775864017 -0.35752829778287215
-0.4687495891816293 -0.2773059586004287
-0.5186202478780501 -0.06337972078057959
-0.4521260362828224 0.04358339812934497
-0.4355024833840155 0.04358339812934497
-0.3856318246875947 -0.06337972078057959
-0.4687495891816293 -0.143602059963023
-0.5019966949792432 -0.1970836194179853
-0.535243800776857 -0.06337972078057959
-0.535243800776857 0.15054651703926952
-0.4853731420804362 0.2040280764942318
-0.4355024833840155 0.2040280764942318
-0.4521260362828224 0.3109911954041564
-0.4687495891816293 0.23076885622171295
-0.4521260362828224 0.17728729676675067
-0.4521260362828224 0.2040280764942318
-0.3856318246875947 0.17728729676675067
-0.3690082717887878 0.12380573731178839
-0.3856318246875947 0.07032417785682611
-0.4022553775864017 -0.009898161325617313
-0.4355024833840155 0.12380573731178839
-0.4188789304852086 0.23076885622171295
-0.3523847188899809 0.4714358737690432
-0.3856318246875947 0.4179543143140809
-0.4355024833840155 0.17728729676675067
-0.4188789304852086 -0.03663894105309845
-0.4188789304852086 -0.09012050050806074
-0.3690082717887878 0.09706495758430725
-0.3025140601935602 0.12380573731178839
-0.335761165991174 0.23076885622171295
-0.3523847188899809 0.28425041567667525
-0.4188789304852086 0.3912135345865998
-0.4188789304852086 0.3377319751316375
-0.4188789304852086 0.3109911954041564
-0.3523847188899809 0.23076885622171295
-0.3025140601935602 0.07032417785682611
-0.3523847188899809 -0.22382439914546642
-0.335761165991174 -0.5714545356027213
-0.3191376130923671 -0.7051584342401269
-0.3025140601935602 -0.5981953153302024
-0.2526434014971395 -0.6516768747851647
-0.23601984859833255 -0.6516768747851647
-0.2526434014971395 -0.7586399936950893
-0.2692669543959464 -0.7051584342401269
-0.2858905072947533 -0.5714545356027213
-0.2526434014971395 -0.4377506369653156
-0.21939629569952565 -0.5981953153302024
-0.1196549783066842 -0.5714545356027213
-0.1196549783066842 -0.8121215531500515
-0.16952563700310494 -0.8923438923324949
-0.1362785312054911 -0.8121215531500515
-0.1030314254078773 -0.7853807734225704
0.046580550681384884 -0.7586399936950893
0.046580550681384884 -0.7853807734225704
0.029956997782577974 -0.8388623328775326
-0.03653721381264966 -0.919084672059976
-0.0864078725090704 -0.8121215531500515
-0.06978431961026348 -0.8656031126050138
-0.0032901080150358445 -0.731899213967608
0.046580550681384884 -0.7586399936950893
0.013333444883771065 -0.6784176545126458
-0.03653721381264966 -0.6784176545126458
-0.03653721381264966 -0.6784176545126458
0.0632041035801918 -0.7586399936950893
0.16294542097303324 -0.8656031126050138
0.16294542097303324 -0.8656031126050138
0.16294542097303324 -0.8656031126050138
0.11307476227661252 -0.7853807734225704
0.11307476227661252 -0.6249360950576835
0.11307476227661252 -0.517972976147759
0.16294542097303324 -0.6784176545126458
0.2294396325682609 -0.9725662315149384
0.19619252677064705 -1.1597516896073063
0.19619252677064705 -1.2399740287897498
0.0964512093778056 -0.9725662315149384
0.16294542097303324 -0.7586399936950893
0.17956897387184015 -0.5714545356027213
0.17956897387184015 -0.517972976147759
0.16294542097303324 -0.6516768747851647
0.12969831517541944 -0.7051584342401269
0.11307476227661252 -0.6516768747851647
0.0632041035801918 -0.5981953153302024
0.11307476227661252 -0.517972976147759
0.11307476227661252 -0.4110098572378344
0.029956997782577974 -0.3842690775103533
-0.03653721381264966 -0.22382439914546642
-0.0864078725090704 -0.06337972078057959
-0.0864078725090704 -0.09012050050806074
-0.1030314254078773 -0.11686128023554188
-0.1362785312054911 -0.11686128023554188
-0.16952563700310494 -0.22382439914546642
-0.2692669543959464 -0.22382439914546642
-0.3025140601935602 -0.11686128023554188
-0.3025140601935602 0.016842618401863827
-0.2858905072947533 0.12380573731178839
-0.2526434014971395 0.3377319751316375
-0.2858905072947533 0.4714358737690432
-0.3191376130923671 0.4714358737690432
-0.3025140601935602 0.12380573731178839
-0.2692669543959464 -0.25056517887294755
-0.23601984859833255 -0.3842690775103533
-0.21939629569952565 -0.4110098572378344
-0.2526434014971395 -0.22382439914546642
-0.3025140601935602 -0.09012050050806074
-0.3191376130923671 0.07032417785682611
-0.3191376130923671 0.04358339812934497
-0.2692669543959464 -0.009898161325617313
-0.21939629569952565 -0.143602059963023
-0.2526434014971395 -0.30404673832790985
-0.3025140601935602 -0.4110098572378344
-0.2858905072947533 -0.22382439914546642
-0.2692669543959464 0.09706495758430725
-0.23601984859833255 0.23076885622171295
-0.23601984859833255 0.2040280764942318
-0.2858905072947533 -0.09012050050806074
-0.2858905072947533 -0.143602059963023
-0.3025140601935602 -0.06337972078057959
-0.3191376130923671 0.09706495758430725
-0.23601984859833255 0.3109911954041564
-0.18614918990191184 0.25750963594919407
-0.21939629569952565 0.12380573731178839
-0.2692669543959464 -0.03663894105309845
-0.2692669543959464 0.04358339812934497
-0.18614918990191184 0.12380573731178839
-0.152902084104298 0.23076885622171295
-0.1196549783066842 0.23076885622171295
-0.152902084104298 0.28425041567667525
-0.18614918990191184 0.3109911954041564
-0.21939629569952565 0.3644727548591186
-0.1362785312054911 0.3644727548591186
-0.1196549783066842 0.2040280764942318
-0.1362785312054911 -0.11686128023554188
-0.21939629569952565 -0.33078751805539097
-0.2692669543959464 -0.3842690775103533
-0.2692669543959464 -0.25056517887294755
-0.23601984859833255 -0.06337972078057959
-0.2526434014971395 -0.03663894105309845
-0.2692669543959464 -0.03663894105309845
-0.335761165991174 -0.03663894105309845
-0.4188789304852086 0.09706495758430725
-0.4355024833840155 0.23076885622171295
-0.4022553775864017 0.07032417785682611
-0.3191376130923671 -0.22382439914546642
-0.2858905072947533 -0.4377506369653156
-0.3690082717887878 -0.4912321964202778
-0.4022553775864017 -0.4377506369653156
-0.3690082717887878 -0.30404673832790985
-0.3690082717887878 -0.11686128023554188
-0.3523847188899809 -0.009898161325617313
-0.3025140601935602 0.17728729676675067
-0.3523847188899809 0.17728729676675067
-0.4188789304852086 0.09706495758430725
-0.3690082717887878 -0.03663894105309845
-0.3523847188899809 -0.143602059963023
-0.3523847188899809 -0.143602059963023
-0.335761165991174 0.07032417785682611
-0.335761165991174 0.17728729676675067
-0.3690082717887878 0.23076885622171295
-0.3856318246875947 0.17728729676675067
-0.3690082717887878 0.016842618401863827
-0.3523847188899809 -0.09012050050806074
-0.3025140601935602 -0.25056517887294755
-0.2692669543959464 -0.22382439914546642
-0.3025140601935602 -0.11686128023554188
-0.3523847188899809 -0.09012050050806074
-0.3856318246875947 -0.1970836194179853
-0.3690082717887878 -0.06337972078057959
-0.3856318246875947 -0.009898161325617313
-0.3690082717887878 0.04358339812934497
-0.4355024833840155 0.09706495758430725
-0.3856318246875947 0.09706495758430725
-0.3856318246875947 0.09706495758430725
-0.3025140601935602 0.15054651703926952
-0.3025140601935602 0.07032417785682611
-0.335761165991174 -0.03663894105309845
-0.3690082717887878 -0.17034283969050415
-0.4188789304852086 -0.1970836194179853
-0.3690082717887878 -0.03663894105309845
-0.3191376130923671 0.016842618401863827
-0.2692669543959464 -0.03663894105309845
-0.3191376130923671 -0.09012050050806074
-0.3523847188899809 -0.11686128023554188
-0.3856318246875947 -0.09012050050806074
-0.3856318246875947 -0.03663894105309845
-0.3690082717887878 -0.03663894105309845
-0.3523847188899809 -0.03663894105309845
-0.3523847188899809 -0.11686128023554188
-0.3856318246875947 -0.009898161325617313
-0.3523847188899809 0.04358339812934497
-0.3191376130923671 0.07032417785682611
-0.3523847188899809 0.016842618401863827
-0.4188789304852086 -0.09012050050806074
-0.4687495891816293 -0.1970836194179853
-0.5186202478780501 -0.2773059586004287
-0.4687495891816293 -0.17034283969050415
-0.4022553775864017 -0.009898161325617313
-0.335761165991174 0.12380573731178839
-0.2858905072947533 0.17728729676675067
-0.335761165991174 0.25750963594919407
-0.4188789304852086 0.09706495758430725
-0.4022553775864017 -0.009898161325617313
-0.3191376130923671 -0.11686128023554188
-0.3523847188899809 -0.09012050050806074
-0.335761165991174 0.016842618401863827
-0.3690082717887878 0.17728729676675067
-0.4188789304852086 0.28425041567667525
-0.4022553775864017 0.17728729676675067
-0.3690082717887878 0.04358339812934497
-0.2858905072947533 -0.17034283969050415
-0.3025140601935602 -0.2773059586004287
-0.3025140601935602 -0.35752829778287215
-0.3690082717887878 -0.30404673832790985
-0.3690082717887878 -0.17034283969050415
-0.3523847188899809 -0.09012050050806074
-0.3025140601935602 0.04358339812934497
-0.3191376130923671 0.016842618401863827
-0.3523847188899809 -0.09012050050806074
-0.3690082717887878 -0.143602059963023
-0.3856318246875947 -0.11686128023554188
-0.3523847188899809 -0.09012050050806074
-0.23601984859833255 0.07032417785682611
-0.3025140601935602 -0.03663894105309845
-0.335761165991174 -0.06337972078057959
-0.4188789304852086 -0.09012050050806074
-0.4022553775864017 -0.009898161325617313
-0.3856318246875947 0.09706495758430725
-0.3191376130923671 0.12380573731178839
-0.3523847188899809 0.12380573731178839
-0.335761165991174 0.09706495758430725
-0.3690082717887878 -0.03663894105309845
-0.4188789304852086 -0.09012050050806074
-0.4022553775864017 -0.09012050050806074
-0.3025140601935602 -0.06337972078057959
-0.2858905072947533 -0.143602059963023
-0.3690082717887878 -0.09012050050806074
-0.4022553775864017 -0.143602059963023
-0.4355024833840155 0.016842618401863827
-0.4022553775864017 0.25750963594919407
-0.3523847188899809 0.3644727548591186
-0.3523847188899809 0.28425041567667525
-0.3856318246875947 0.07032417785682611
-0.4853731420804362 -0.06337972078057959
-0.4355024833840155 -0.09012050050806074
-0.4022553775864017 -0.06337972078057959
-0.4188789304852086 0.016842618401863827
-0.335761165991174 0.016842618401863827
-0.3523847188899809 -0.09012050050806074
-0.3690082717887878 -0.09012050050806074
-0.3856318246875947 -0.009898161325617313
-0.335761165991174 0.09706495758430725
-0.2692669543959464 0.09706495758430725
-0.2858905072947533 0.12380573731178839
-0.3523847188899809 0.016842618401863827
-0.4022553775864017 -0.143602059963023
-0.4188789304852086 -0.22382439914546642
-0.3523847188899809 -0.22382439914546642
-0.2858905072947533 -0.009898161325617313
-0.3025140601935602 0.09706495758430725
-0.3523847188899809 0.09706495758430725
-0.3690082717887878 -0.06337972078057959
-0.4022553775864017 -0.11686128023554188
-0.3191376130923671 -0.17034283969050415
-0.2858905072947533 -0.143602059963023
-0.2858905072947533 -0.143602059963023
-0.335761165991174 -0.2773059586004287
-0.335761165991174 -0.22382439914546642
-0.3191376130923671 -0.143602059963023
-0.2692669543959464 -0.009898161325617313
-0.2526434014971395 0.016842618401863827
-0.21939629569952565 -0.03663894105309845
-0.2692669543959464 -0.143602059963023
-0.2526434014971395 -0.17034283969050415
-0.16952563700310494 0.016842618401863827
-0.152902084104298 0.016842618401863827
-0.0864078725090704 -0.03663894105309845
-0.0864078725090704 -0.06337972078057959
-0.152902084104298 -0.009898161325617313
-0.1030314254078773 0.09706495758430725
0.029956997782577974 -0.03663894105309845
0.2460631854670678 -0.1970836194179853
0.4954164789491714 -0.3842690775103533
0.7946404311276958 -0.5447137558752401
1.1437350420026409 -0.5981953153302024
1.5593238644728136 -0.7051584342401269
2.041406898538214 -0.9458254517874572
2.6731019086928764 -1.2132332490622686
3.3380440246451526 -1.3736779274271553
4.019609693496236 -1.48064104633708
4.634681150752091 -1.4539002666095988
5.050269973222265 -1.2399740287897498
5.116764184817492 -0.8656031126050138
4.834163785537775 -0.5447137558752401
4.135974563787884 -0.4644914166927967
3.155184942758277 -0.33078751805539097
2.1079011101334415 -0.17034283969050415
1.110487936205027 0.2040280764942318
0.19619252677064705 0.6051397724064489
-0.4188789304852086 0.9260291291362226
-0.6017380123720846 1.032992248046147
-0.4687495891816293 0.819066010226298
-0.3191376130923671 0.5516582129514866
-0.2692669543959464 0.3644727548591186
-0.20277274280071875 0.4179543143140809
-0.2692669543959464 0.5249174332240055
-0.3191376130923671 0.4714358737690432
-0.335761165991174 0.3377319751316375
-0.4022553775864017 0.04358339812934497
-0.4355024833840155 -0.30404673832790985
-0.5019966949792432 -0.4644914166927967
-0.4687495891816293 -0.33078751805539097
-0.4853731420804362 -0.11686128023554188
-0.5019966949792432 -0.03663894105309845
-0.5518673536756639 0.09706495758430725
-0.6349851181696984 0.04358339812934497
-0.6183615652708915 -0.03663894105309845
-0.6183615652708915 -0.009898161325617313
-0.5851144594732777 -0.06337972078057959
-0.6183615652708915 -0.06337972078057959
-0.6516086710685053 -0.03663894105309845
-0.6848557768661191 -0.03663894105309845
-0.6516086710685053 0.09706495758430725
-0.6349851181696984 0.15054651703926952
-0.5684909065744708 0.28425041567667525
-0.5684909065744708 0.15054651703926952
-0.6017380123720846 0.2040280764942318
-0.6682322239673122 0.23076885622171295
-0.5851144594732777 0.3912135345865998
-0.5518673536756639 0.3377319751316375
-0.5019966949792432 0.17728729676675067
-0.535243800776857 -0.143602059963023
-0.5684909065744708 -0.4377506369653156
-0.535243800776857 -0.5714545356027213
-0.5518673536756639 -0.4377506369653156
-0.5019966949792432 -0.35752829778287215
-0.4188789304852086 -0.17034283969050415
-0.4687495891816293 -0.11686128023554188
-0.535243800776857 -0.1970836194179853
-0.5684909065744708 -0.17034283969050415
-0.6349851181696984 -0.143602059963023
-0.5518673536756639 -0.03663894105309845
-0.5186202478780501 0.12380573731178839
-0.5019966949792432 0.2040280764942318
-0.5186202478780501 0.15054651703926952
-0.5851144594732777 0.016842618401863827
-0.5684909065744708 -0.11686128023554188
-0.535243800776857 -0.22382439914546642
-0.4687495891816293 -0.2773059586004287
-0.4687495891816293 -0.4377506369653156
-0.4853731420804362 -0.517972976147759
-0.5186202478780501 -0.5981953153302024
-0.5518673536756639 -0.5447137558752401
-0.5186202478780501 -0.22382439914546642
-0.4853731420804362 -0.06337972078057959
-0.4521260362828224 -0.143602059963023
-0.4687495891816293 -0.33078751805539097
-0.5019966949792432 -0.4912321964202778
-0.4687495891816293 -0.4912321964202778
-0.4188789304852086 -0.4644914166927967
-0.3523847188899809 -0.35752829778287215
-0.3856318246875947 -0.4377506369653156
-0.3856318246875947 -0.4110098572378344
-0.4687495891816293 -0.33078751805539097
-0.4853731420804362 -0.25056517887294755
-0.4022553775864017 -0.143602059963023
-0.335761165991174 -0.11686128023554188
-0.2692669543959464 -0.22382439914546642
-0.3025140601935602 -0.5447137558752401
-0.335761165991174 -0.6784176545126458
-0.3191376130923671 -0.6516768747851647
-0.2526434014971395 -0.517972976147759
-0.1362785312054911 -0.33078751805539097
-0.1030314254078773 -0.4377506369653156
-0.1362785312054911 -0.6249360950576835
-0.18614918990191184 -0.7051584342401269
-0.1362785312054911 -0.5714545356027213
-0.0864078725090704 -0.5447137558752401
-0.0032901080150358445 -0.4912321964202778
0.029956997782577974 -0.731899213967608
0.0632041035801918 -0.8656031126050138
0.013333444883771065 -1.0260477909699006
0.029956997782577974 -1.0527885706973819
0.0632041035801918 -0.9725662315149384
0.0964512093778056 -0.8388623328775326
0.12969831517541944 -0.8656031126050138
0.14632186807422634 -0.919084672059976
0.0798276564789987 -1.106270130152344
0.046580550681384884 -1.2132332490622686
0.0798276564789987 -1.1864924693347874
0.17956897387184015 -1.0260477909699006
0.17956897387184015 -0.9725662315149384
0.12969831517541944 -1.0527885706973819
0.0964512093778056 -1.106270130152344
0.12969831517541944 -1.0795293504248629
0.19619252677064705 -0.9725662315149384
0.21281607966945396 -0.919084672059976
0.2460631854670678 -0.8656031126050138
0.12969831517541944 -0.8388623328775326
0.0964512093778056 -0.8656031126050138
0.16294542097303324 -0.8656031126050138
0.17956897387184015 -0.8388623328775326
0.2460631854670678 -0.7586399936950893
0.2460631854670678 -0.7853807734225704
0.19619252677064705 -0.8121215531500515
0.11307476227661252 -0.731899213967608
0.12969831517541944 -0.5714545356027213
0.0964512093778056 -0.4110098572378344
0.0798276564789987 -0.25056517887294755
0.0964512093778056 -0.143602059963023
-0.019913660913842755 -0.09012050050806074
-0.06978431961026348 -0.06337972078057959
-0.06978431961026348 0.04358339812934497
-0.03653721381264966 -0.06337972078057959
-0.03653721381264966 -0.09012050050806074
-0.0864078725090704 -0.25056517887294755
-0.1196549783066842 -0.30404673832790985
-0.18614918990191184 -0.3842690775103533
-0.21939629569952565 -0.33078751805539097
-0.20277274280071875 -0.1970836194179853
-0.16952563700310494 -0.009898161325617313
-0.1362785312054911 0.23076885622171295
-0.152902084104298 0.2040280764942318
-0.23601984859833255 0.17728729676675067
-0.23601984859833255 0.09706495758430725
-0.23601984859833255 -0.03663894105309845
-0.20277274280071875 0.07032417785682611
-0.21939629569952565 0.04358339812934497
-0.2526434014971395 -0.009898161325617313
-0.2692669543959464 -0.03663894105309845
-0.3025140601935602 0.016842618401863827
-0.3025140601935602 0.17728729676675067
-0.21939629569952565 0.3377319751316375
-0.21939629569952565 0.44469509404156204
-0.20277274280071875 0.44469509404156204
-0.2526434014971395 0.3109911954041564
-0.23601984859833255 0.17728729676675067
-0.23601984859833255 0.15054651703926952
-0.20277274280071875 0.17728729676675067
-0.21939629569952565 0.17728729676675067
-0.20277274280071875 -0.03663894105309845
-0.21939629569952565 -0.09012050050806074
-0.23601984859833255 -0.09012050050806074
-0.16952563700310494 0.12380573731178839
-0.152902084104298 0.12380573731178839
-0.152902084104298 -0.11686128023554188
-0.21939629569952565 -0.33078751805539097
-0.23601984859833255 -0.517972976147759
-0.18614918990191184 -0.35752829778287215
-0.16952563700310494 -0.11686128023554188
-0.1030314254078773 0.09706495758430725
-0.1196549783066842 0.09706495758430725
-0.18614918990191184 -0.009898161325617313
-0.2526434014971395 -0.17034283969050415
-0.21939629569952565 -0.1970836194179853
-0.18614918990191184 -0.22382439914546642
-0.1362785312054911 -0.1970836194179853
-0.1362785312054911 -0.03663894105309845
-0.16952563700310494 0.016842618401863827
-0.21939629569952565 -0.009898161325617313
-0.20277274280071875 -0.143602059963023
-0.18614918990191184 -0.25056517887294755
-0.1362785312054911 -0.2773059586004287
-0.16952563700310494 -0.30404673832790985
-0.18614918990191184 -0.2773059586004287
-0.2526434014971395 -0.1970836194179853
-0.23601984859833255 0.04358339812934497
-0.21939629569952565 0.2040280764942318
-0.152902084104298 0.25750963594919407
-0.1362785312054911 0.2040280764942318
-0.1362785312054911 0.016842618401863827
-0.20277274280071875 -0.11686128023554188
-0.21939629569952565 -0.11686128023554188
-0.20277274280071875 0.07032417785682611
-0.1196549783066842 0.17728729676675067
-0.1030314254078773 0.2040280764942318
-0.16952563700310494 0.23076885622171295
-0.16952563700310494 0.3109911954041564
-0.20277274280071875 0.3377319751316375
-0.20277274280071875 0.3377319751316375
-0.1030314254078773 0.15054651703926952
-0.1196549783066842 0.09706495758430725
-0.152902084104298 -0.06337972078057959
-0.23601984859833255 -0.03663894105309845
-0.23601984859833255 0.09706495758430725
-0.20277274280071875 0.09706495758430725
-0.152902084104298 0.04358339812934497
-0.18614918990191184 -0.03663894105309845
-0.20277274280071875 -0.09012050050806074
-0.2692669543959464 -0.09012050050806074
-0.2526434014971395 0.016842618401863827
-0.23601984859833255 0.17728729676675067
-0.20277274280071875 0.28425041567667525
-0.21939629569952565 0.17728729676675067
-0.23601984859833255 -0.03663894105309845
-0.2692669543959464 -0.143602059963023
-0.2526434014971395 -0.09012050050806074
-0.23601984859833255 -0.03663894105309845
-0.23601984859833255 0.2040280764942318
-0.18614918990191184 0.09706495758430725
-0.2692669543959464 0.12380573731178839
-0.3025140601935602 0.09706495758430725
-0.3191376130923671 0.09706495758430725
-0.2692669543959464 0.17728729676675067
-0.21939629569952565 0.25750963594919407
-0.20277274280071875 -0.03663894105309845
-0.21939629569952565 -0.2773059586004287
-0.3025140601935602 -0.4377506369653156
-0.3191376130923671 -0.3842690775103533
-0.2858905072947533 -0.22382439914546642
-0.23601984859833255 -0.09012050050806074
-0.2526434014971395 -0.009898161325617313
-0.2526434014971395 0.09706495758430725
-0.3523847188899809 0.15054651703926952
-0.3690082717887878 0.25750963594919407
-0.3191376130923671 0.28425041567667525
-0.23601984859833255 0.17728729676675067
-0.2692669543959464 0.016842618401863827
-0.3025140601935602 -0.11686128023554188
-0.3523847188899809 -0.25056517887294755
-0.335761165991174 -0.17034283969050415
-0.335761165991174 0.016842618401863827
-0.2526434014971395 0.17728729676675067
-0.2526434014971395 0.28425041567667525
-0.2526434014971395 0.28425041567667525
-0.3191376130923671 0.3644727548591186
-0.3191376130923671 0.28425041567667525
-0.3025140601935602 0.23076885622171295
-0.20277274280071875 0.09706495758430725
-0.16952563700310494 -0.06337972078057959
-0.21939629569952565 -0.09012050050806074
-0.2692669543959464 -0.11686128023554188
-0.3191376130923671 0.04358339812934497
-0.3523847188899809 0.28425041567667525
-0.3025140601935602 0.49817665349652435
-0.2858905072947533 0.6051397724064489
-0.3025140601935602 0.3912135345865998
-0.335761165991174 0.12380573731178839
-0.3523847188899809 -0.1970836194179853
-0.3191376130923671 -0.22382439914546642
-0.3025140601935602 -0.09012050050806074
-0.2692669543959464 -0.06337972078057959
-0.3025140601935602 0.016842618401863827
-0.2692669543959464 0.12380573731178839
-0.2858905072947533 0.15054651703926952
-0.23601984859833255 0.016842618401863827
-0.21939629569952565 -0.143602059963023
-0.21939629569952565 -0.17034283969050415
-0.2526434014971395 -0.22382439914546642
-0.2858905072947533 -0.25056517887294755
-0.2858905072947533 -0.09012050050806074
-0.2526434014971395 0.15054651703926952
-0.23601984859833255 0.25750963594919407
-0.21939629569952565 0.25750963594919407
-0.3025140601935602 0.17728729676675067
-0.2858905072947533 -0.09012050050806074
-0.3191376130923671 -0.1970836194179853
-0.2526434014971395 -0.1970836194179853
-0.2526434014971395 -0.09012050050806074
-0.2526434014971395 0.07032417785682611
-0.2858905072947533 0.3109911954041564
-0.3025140601935602 0.3377319751316375
-0.2858905072947533 0.4179543143140809
-0.23601984859833255 0.3644727548591186
-0.20277274280071875 0.25750963594919407
-0.152902084104298 0.23076885622171295
-0.16952563700310494 0.3109911954041564
-0.23601984859833255 0.3377319751316375
-0.23601984859833255 0.25750963594919407
-0.20277274280071875 0.23076885622171295
-0.16952563700310494 0.09706495758430725
-0.1362785312054911 -0.06337972078057959
-0.20277274280071875 -0.143602059963023
-0.20277274280071875 -0.22382439914546642
-0.23601984859833255 -0.17034283969050415
-0.1362785312054911 0.016842618401863827
-0.1362785312054911 0.23076885622171295
-0.152902084104298 0.3644727548591186
-0.152902084104298 0.3109911954041564
-0.16952563700310494 0.2040280764942318
-0.16952563700310494 0.016842618401863827
-0.16952563700310494 -0.03663894105309845
-0.1030314254078773 -0.009898161325617313
-0.06978431961026348 -0.06337972078057959
-0.152902084104298 -0.11686128023554188
-0.1362785312054911 -0.06337972078057959
-0.152902084104298 0.07032417785682611
-0.0864078725090704 0.12380573731178839
-0.0032901080150358445 0.016842618401863827
-0.0032901080150358445 -0.06337972078057959
-0.05316076671145657 -0.2773059586004287
-0.06978431961026348 -0.1970836194179853
-0.0864078725090704 -0.143602059963023
-0.0032901080150358445 -0.17034283969050415
0.0798276564789987 -0.2773059586004287
0.2626867383658747 -0.4110098572378344
0.39567516155633 -0.4644914166927967
0.5951577963420128 -0.517972976147759
0.9941230659133786 -0.5447137558752401
1.5094532057763927 -0.7586399936950893
2.1411482159310555 -0.9993070112424195
2.739596120288104 -1.320196367972193
3.40453823624038 -1.5608633855195235
4.086103905091464 -1.7747896233393725
4.734422468144933 -1.667826504429448
5.18325839641272 -1.1597516896073063
5.199881949311527 -0.5714545356027213
4.667928256549706 -0.1970836194179853
3.7370092942165187 -0.143602059963023
2.6731019086928764 -0.03663894105309845
1.6258180760680412 0.15054651703926952
0.6616520079372405 0.3109911954041564
-0.0864078725090704 0.4714358737690432
-0.4355024833840155 0.63188055213393
-0.5186202478780501 0.5783989926789678
-0.3523847188899809 0.3377319751316375
-0.152902084104298 0.3377319751316375
-0.03653721381264966 0.25750963594919407
-0.05316076671145657 0.12380573731178839
-0.1030314254078773 0.09706495758430725
-0.20277274280071875 -0.03663894105309845
-0.3191376130923671 -0.143602059963023
-0.3690082717887878 -0.009898161325617313
-0.4022553775864017 0.12380573731178839
-0.3856318246875947 0.28425041567667525
-0.3690082717887878 0.3377319751316375
-0.4022553775864017 0.28425041567667525
-0.4853731420804362 0.2040280764942318
-0.5019966949792432 0.12380573731178839
-0.4355024833840155 0.07032417785682611
-0.4355024833840155 0.09706495758430725
-0.4521260362828224 0.09706495758430725
-0.4853731420804362 0.04358339812934497
-0.5186202478780501 0.12380573731178839
-0.535243800776857 0.12380573731178839
-0.4853731420804362 0.17728729676675067
-0.4355024833840155 0.17728729676675067
-0.4188789304852086 0.15054651703926952
-0.4355024833840155 0.15054651703926952
-0.5019966949792432 0.07032417785682611
-0.535243800776857 0.23076885622171295
-0.5186202478780501 0.28425041567667525
-0.4188789304852086 0.23076885622171295
-0.3856318246875947 0.2040280764942318
-0.4521260362828224 0.04358339812934497
-0.4853731420804362 -0.2773059586004287
-0.4687495891816293 -0.35752829778287215
-0.4853731420804362 -0.30404673832790985
-0.4687495891816293 -0.2773059586004287
-0.4521260362828224 -0.09012050050806074
-0.4355024833840155 0.016842618401863827
-0.4853731420804362 -0.17034283969050415
-0.5019966949792432 -0.17034283969050415
-0.4521260362828224 -0.11686128023554188
-0.4188789304852086 -0.03663894105309845
-0.3523847188899809 0.04358339812934497
-0.4022553775864017 -0.009898161325617313
-0.4853731420804362 -0.06337972078057959
-0.5186202478780501 -0.09012050050806074
-0.4853731420804362 0.12380573731178839
-0.5186202478780501 0.3377319751316375
-0.4687495891816293 0.49817665349652435
-0.4521260362828224 0.4714358737690432
-0.4687495891816293 0.3377319751316375
-0.4687495891816293 0.12380573731178839
-0.4355024833840155 -0.09012050050806074
-0.3690082717887878 -0.143602059963023
-0.3856318246875947 -0.17034283969050415
-0.3856318246875947 -0.22382439914546642
-0.4521260362828224 -0.25056517887294755
-0.4521260362828224 -0.03663894105309845
-0.4022553775864017 0.07032417785682611
-0.335761165991174 0.25750963594919407
-0.335761165991174 0.17728729676675067
-0.3191376130923671 -0.143602059963023
-0.335761165991174 -0.4110098572378344
-0.3523847188899809 -0.5447137558752401
-0.335761165991174 -0.4644914166927967
-0.2858905072947533 -0.3842690775103533
-0.2526434014971395 -0.4377506369653156
-0.21939629569952565 -0.4644914166927967
-0.2526434014971395 -0.4644914166927967
-0.2526434014971395 -0.517972976147759
-0.20277274280071875 -0.5447137558752401
-0.1362785312054911 -0.5447137558752401
-0.06978431961026348 -0.5714545356027213
-0.1030314254078773 -0.731899213967608
-0.1196549783066842 -0.7853807734225704
-0.1030314254078773 -0.6516768747851647
-0.05316076671145657 -0.5981953153302024
-0.05316076671145657 -0.4110098572378344
0.029956997782577974 -0.4110098572378344
0.013333444883771065 -0.5981953153302024
-0.05316076671145657 -0.8656031126050138
-0.06978431961026348 -1.0527885706973819
-0.019913660913842755 -1.1330109098798251
0.0632041035801918 -1.106270130152344
0.11307476227661252 -0.9993070112424195
0.0964512093778056 -0.9993070112424195
0.0964512093778056 -1.0260477909699006
0.0798276564789987 -0.919084672059976
0.0632041035801918 -0.7853807734225704
0.029956997782577974 -0.6516768747851647
0.11307476227661252 -0.517972976147759
0.0964512093778056 -0.6516768747851647
0.0632041035801918 -0.8388623328775326
0.0798276564789987 -0.9725662315149384
0.12969831517541944 -0.9725662315149384
0.17956897387184015 -0.8923438923324949
0.21281607966945396 -0.7853807734225704
0.21281607966945396 -0.8121215531500515
0.11307476227661252 -0.8388623328775326
0.11307476227661252 -0.7586399936950893
0.16294542097303324 -0.517972976147759
0.2460631854670678 -0.4912321964202778
0.2294396325682609 -0.4912321964202778
0.14632186807422634 -0.5714545356027213
0.0964512093778056 -0.6784176545126458
0.0798276564789987 -0.6784176545126458
0.0964512093778056 -0.517972976147759
0.12969831517541944 -0.4110098572378344
0.11307476227661252 -0.33078751805539097
0.0632041035801918 -0.4110098572378344
-0.019913660913842755 -0.4377506369653156
-0.0864078725090704 -0.33078751805539097
-0.03653721381264966 -0.143602059963023
-0.03653721381264966 -0.03663894105309845
-0.019913660913842755 0.016842618401863827
-0.1196549783066842 0.17728729676675067
-0.1362785312054911 0.3377319751316375
-0.152902084104298 0.44469509404156204
-0.1362785312054911 0.3109911954041564
-0.0864078725090704 -0.06337972078057959
-0.18614918990191184 -0.33078751805539097
-0.18614918990191184 -0.517972976147759
-0.2858905072947533 -0.4644914166927967
-0.2858905072947533 -0.11686128023554188
-0.20277274280071875 0.07032417785682611
-0.1362785312054911 0.12380573731178839
-0.152902084104298 0.07032417785682611
-0.23601984859833255 -0.03663894105309845
-0.3191376130923671 -0.09012050050806074
-0.2526434014971395 0.12380573731178839
-0.20277274280071875 0.23076885622171295
-0.16952563700310494 0.3109911954041564
-0.20277274280071875 0.3644727548591186
-0.3025140601935602 0.3377319751316375
-0.3523847188899809 0.4714358737690432
-0.3856318246875947 0.49817665349652435
-0.3191376130923671 0.6051397724064489
-0.23601984859833255 0.6051397724064489
-0.20277274280071875 0.44469509404156204
-0.20277274280071875 0.2040280764942318
-0.23601984859833255 0.17728729676675067
-0.21939629569952565 0.15054651703926952
-0.18614918990191184 0.25750963594919407
-0.16952563700310494 0.28425041567667525
-0.1362785312054911 0.15054651703926952
-0.18614918990191184 -0.06337972078057959
-0.20277274280071875 -0.09012050050806074
-0.21939629569952565 -0.06337972078057959
-0.20277274280071875 0.016842618401863827
-0.20277274280071875 0.07032417785682611
-0.16952563700310494 0.016842618401863827
-0.18614918990191184 0.07032417785682611
-0.20277274280071875 0.07032417785682611
-0.2692669543959464 0.09706495758430725
-0.21939629569952565 0.016842618401863827
-0.16952563700310494 0.04358339812934497
-0.1196549783066842 0.12380573731178839
-0.18614918990191184 0.09706495758430725
-0.23601984859833255 -0.009898161325617313
-0.20277274280071875 -0.03663894105309845
-0.20277274280071875 -0.03663894105309845
-0.23601984859833255 -0.009898161325617313
-0.18614918990191184 -0.03663894105309845
-0.16952563700310494 -0.143602059963023
-0.20277274280071875 -0.33078751805539097
-0.2526434014971395 -0.30404673832790985
-0.18614918990191184 -0.22382439914546642
-0.152902084104298 -0.11686128023554188
-0.21939629569952565 -0.009898161325617313
-0.23601984859833255 0.016842618401863827
-0.3025140601935602 0.17728729676675067
-0.3191376130923671 0.44469509404156204
-0.2692669543959464 0.6051397724064489
-0.18614918990191184 0.5516582129514866
-0.20277274280071875 0.17728729676675067
-0.1362785312054911 -0.2773059586004287
-0.21939629569952565 -0.4644914166927967
-0.2526434014971395 -0.3842690775103533
-0.3025140601935602 -0.143602059963023
-0.21939629569952565 0.016842618401863827
-0.152902084104298 0.07032417785682611
-0.20277274280071875 0.15054651703926952
-0.23601984859833255 0.12380573731178839
-0.2526434014971395 -0.009898161325617313
-0.2692669543959464 -0.11686128023554188
-0.2858905072947533 -0.11686128023554188
-0.23601984859833255 -0.11686128023554188
-0.3025140601935602 -0.03663894105309845
-0.3856318246875947 0.09706495758430725
-0.3856318246875947 0.25750963594919407
-0.3856318246875947 0.25750963594919407
-0.335761165991174 0.23076885622171295
-0.2858905072947533 0.09706495758430725
-0.2858905072947533 -0.06337972078057959
-0.335761165991174 -0.09012050050806074
-0.3025140601935602 -0.009898161325617313
-0.3025140601935602 0.07032417785682611
-0.2692669543959464 0.2040280764942318
-0.20277274280071875 0.17728729676675067
-0.2858905072947533 0.17728729676675067
-0.3025140601935602 0.2040280764942318
-0.3690082717887878 0.23076885622171295
-0.2858905072947533 0.25750963594919407
-0.23601984859833255 0.3109911954041564
-0.18614918990191184 0.2040280764942318
-0.20277274280071875 0.09706495758430725
-0.2692669543959464 -0.03663894105309845
-0.2526434014971395 0.016842618401863827
-0.21939629569952565 0.12380573731178839
-0.16952563700310494 0.2040280764942318
-0.18614918990191184 0.2040280764942318
-0.23601984859833255 0.23076885622171295
-0.2858905072947533 0.25750963594919407
-0.3025140601935602 0.3644727548591186
-0.2858905072947533 0.4179543143140809
-0.23601984859833255 0.4179543143140809
-0.21939629569952565 0.3109911954041564
-0.2526434014971395 0.3109911954041564
-0.2526434014971395 0.25750963594919407
-0.2692669543959464 0.28425041567667525
-0.2692669543959464 0.23076885622171295
-0.21939629569952565 0.15054651703926952
-0.21939629569952565 0.07032417785682611
-0.2858905072947533 0.09706495758430725
-0.335761165991174 -0.009898161325617313
-0.3191376130923671 0.07032417785682611
-0.2526434014971395 0.12380573731178839
-0.2526434014971395 0.3109911954041564
-0.21939629569952565 0.44469509404156204
-0.23601984859833255 0.4179543143140809
-0.2692669543959464 0.25750963594919407
-0.3025140601935602 0.07032417785682611
-0.2858905072947533 0.016842618401863827
-0.152902084104298 0.2040280764942318
-0.18614918990191184 0.17728729676675067
-0.16952563700310494 0.07032417785682611
-0.21939629569952565 -0.03663894105309845
-0.2526434014971395 -0.03663894105309845
-0.152902084104298 -0.009898161325617313
-0.152902084104298 -0.03663894105309845
-0.18614918990191184 -0.09012050050806074
-0.23601984859833255 -0.17034283969050415
-0.3025140601935602 -0.22382439914546642
-0.2858905072947533 -0.09012050050806074
-0.2526434014971395 -0.06337972078057959
-0.18614918990191184 0.09706495758430725
-0.21939629569952565 0.12380573731178839
-0.2526434014971395 0.12380573731178839
-0.3690082717887878 0.07032417785682611
-0.3191376130923671 0.04358339812934497
-0.2526434014971395 0.12380573731178839
-0.21939629569952565 0.23076885622171295
-0.21939629569952565 0.2040280764942318
-0.2526434014971395 0.07032417785682611
-0.2858905072947533 -0.009898161325617313
-0.23601984859833255 0.09706495758430725
-0.20277274280071875 0.2040280764942318
-0.16952563700310494 0.3912135345865998
-0.18614918990191184 0.49817665349652435
-0.21939629569952565 0.49817665349652435
-0.23601984859833255 0.3377319751316375
-0.2858905072947533 0.17728729676675067
-0.21939629569952565 0.09706495758430725
-0.20277274280071875 -0.009898161325617313
-0.23601984859833255 -0.09012050050806074
-0.2692669543959464 -0.09012050050806074
-0.2692669543959464 -0.03663894105309845
-0.3191376130923671 0.04358339812934497
-0.20277274280071875 0.09706495758430725
-0.152902084104298 0.2040280764942318
-0.1362785312054911 0.28425041567667525
-0.21939629569952565 0.3644727548591186
-0.23601984859833255 0.3912135345865998
-0.23601984859833255 0.28425041567667525
-0.20277274280071875 0.016842618401863827
-0.16952563700310494 -0.17034283969050415
-0.1030314254078773 -0.2773059586004287
-0.1196549783066842 -0.22382439914546642
-0.16952563700310494 -0.1970836194179853
-0.20277274280071875 -0.11686128023554188
-0.16952563700310494 -0.06337972078057959
-0.1196549783066842 0.07032417785682611
-0.1030314254078773 0.12380573731178839
-0.152902084104298 0.15054651703926952
-0.1196549783066842 0.15054651703926952
-0.06978431961026348 0.07032417785682611
0.046580550681384884 -0.11686128023554188
0.2959338441634885 -0.25056517887294755
0.5951577963420128 -0.35752829778287215
0.8445110898241165 -0.4644914166927967
1.1603585949014477 -0.517972976147759
1.659065181865655 -0.5981953153302024
2.22426598042509 -0.7853807734225704
2.8725845434785593 -1.1597516896073063
3.5209031065320286 -1.4271594868821178
4.1692216695854984 -1.4004187071546366
4.717798915246126 -1.1597516896073063
5.100140631918685 -0.4912321964202778
5.083517079019878 0.23076885622171295
4.701175362347319 0.7923252304988169
3.919868376103395 0.7923252304988169
3.0055729666690145 0.63188055213393
2.0081597927406003 0.6051397724064489
1.0439937246097994 0.6853621115888923
0.2793102912646816 0.9527699088637037
-0.2692669543959464 1.193436926411034
-0.4022553775864017 1.3004000453209585
-0.335761165991174 1.2469184858659963
-0.2526434014971395 0.8725475696812603
-0.0864078725090704 0.5516582129514866
0.013333444883771065 0.28425041567667525
-0.0032901080150358445 -0.009898161325617313
-0.03653721381264966 -0.1970836194179853
-0.152902084104298 -0.4110098572378344
-0.21939629569952565 -0.30404673832790985
-0.3523847188899809 -0.33078751805539097
-0.2858905072947533 -0.17034283969050415
-0.23601984859833255 -0.03663894105309845
-0.2692669543959464 0.04358339812934497
-0.335761165991174 0.04358339812934497
-0.4521260362828224 -0.009898161325617313
-0.4188789304852086 -0.09012050050806074
-0.4188789304852086 -0.17034283969050415
-0.3856318246875947 -0.143602059963023
-0.3690082717887878 -0.11686128023554188
-0.4022553775864017 -0.11686128023554188
-0.5186202478780501 -0.143602059963023
-0.5186202478780501 -0.06337972078057959
-0.4687495891816293 0.016842618401863827
-0.4355024833840155 0.09706495758430725
-0.4022553775864017 -0.009898161325617313
-0.4687495891816293 -0.009898161325617313
-0.5186202478780501 -0.06337972078057959
-0.5186202478780501 -0.009898161325617313
-0.5186202478780501 0.04358339812934497
-0.4521260362828224 0.23076885622171295
-0.4355024833840155 0.28425041567667525
-0.4687495891816293 0.4179543143140809
-0.4521260362828224 0.5783989926789678
-0.535243800776857 0.6586213318614111
-0.5186202478780501 0.63188055213393
-0.4521260362828224 0.3644727548591186
-0.3523847188899809 -0.143602059963023
-0.4022553775864017 -0.5981953153302024
-0.4188789304852086 -0.6784176545126458
-0.4687495891816293 -0.5714545356027213
-0.4188789304852086 -0.22382439914546642
-0.3523847188899809 -0.009898161325617313
-0.3690082717887878 0.09706495758430725
-0.3856318246875947 0.15054651703926952
-0.4521260362828224 0.17728729676675067
-0.4687495891816293 0.17728729676675067
-0.4687495891816293 -0.03663894105309845
-0.3690082717887878 -0.143602059963023
-0.3690082717887878 -0.2773059586004287
-0.4022553775864017 -0.11686128023554188
-0.4188789304852086 -0.06337972078057959
-0.4022553775864017 -0.17034283969050415
-0.3690082717887878 -0.25056517887294755
-0.335761165991174 -0.30404673832790985
-0.2692669543959464 -0.30404673832790985
-0.335761165991174 -0.30404673832790985
-0.4022553775864017 -0.2773059586004287
-0.335761165991174 -0.25056517887294755
-0.335761165991174 -0.17034283969050415
-0.3191376130923671 -0.09012050050806074
-0.2858905072947533 -0.11686128023554188
-0.2692669543959464 -0.2773059586004287
-0.2692669543959464 -0.3842690775103533
-0.3025140601935602 -0.33078751805539097
-0.2692669543959464 -0.25056517887294755
-0.23601984859833255 -0.2773059586004287
-0.20277274280071875 -0.35752829778287215
-0.16952563700310494 -0.4644914166927967
-0.23601984859833255 -0.6249360950576835
-0.20277274280071875 -0.7051584342401269
-0.1362785312054911 -0.6784176545126458
-0.05316076671145657 -0.7051584342401269
-0.019913660913842755 -0.7051584342401269
-0.019913660913842755 -0.8121215531500515
-0.019913660913842755 -0.8121215531500515
-0.0864078725090704 -0.6784176545126458
-0.05316076671145657 -0.7051584342401269
-0.0032901080150358445 -0.6249360950576835
0.029956997782577974 -0.6516768747851647
0.013333444883771065 -0.7051584342401269
-0.0032901080150358445 -0.731899213967608
0.029956997782577974 -0.731899213967608
0.0632041035801918 -0.6249360950576835
0.11307476227661252 -0.5981953153302024
0.11307476227661252 -0.7051584342401269
0.12969831517541944 -0.9458254517874572
0.0798276564789987 -1.1597516896073063
