1.5759474173716204 -3.619903424535571
1.326594123889517 -3.0850878299859485
1.1769821478002547 -2.7107169138012126
1.110487936205027 -2.3898275570714387
1.0439937246097994 -2.068938200341665
0.9608759601157648 -1.7480488436118915
0.8278875369253096 -1.4271594868821178
0.8112639840265027 -1.0527885706973819
0.9110053014193441 -0.731899213967608
1.110487936205027 -0.517972976147759
1.326594123889517 -0.4377506369653156
1.5094532057763927 -0.30404673832790985
1.4429589941811651 -0.25056517887294755
1.1603585949014477 -0.143602059963023
0.6616520079372405 0.04358339812934497
0.0798276564789987 0.07032417785682611
-0.4355024833840155 0.28425041567667525
-0.7679735413601536 0.44469509404156204
-0.9342090703482228 0.8725475696812603
-1.0007032819434503 1.3538816047759208
-1.050573940639871 1.594548622323251
-1.083821046437485 1.594548622323251
-1.1835623638303263 1.56780784259577
-1.2833036812231677 1.6747709615056945
-1.3165507870207815 1.754993300688138
-1.2833036812231677 1.8352156398705812
-1.266680128324361 1.8886971993255437
-1.3497978928183954 1.781734080415619
-1.449539210211237 1.6747709615056945
-1.4827863160088508 1.7015117412331757
-1.599151186300499 1.8619564195980625
-1.615774739199306 1.9154379790530247
-1.599151186300499 2.1026234371453927
-1.599151186300499 2.0758826574179117
-1.5659040805028852 2.1293642168728737
-1.6323982920981128 2.1293642168728737
-1.6988925036933404 2.2898088952377607
-1.6323982920981128 2.343290454692723
-1.615774739199306 2.4769943533301286
-1.5492805276040784 2.557216692512572
-1.615774739199306 2.530475912785091
-1.6822689507945336 2.6374390316950156
-1.765386715288568 2.7978837100599026
-1.7487631623897613 2.9850691681522705
-1.7155160565921475 3.118773066789676
-1.6822689507945336 3.1989954059721195
-1.7487631623897613 3.2524769654270815
-1.7487631623897613 3.2257361856996005
-1.8651280326814097 3.3594400843370065
-1.948245797175444 3.305958524882044
-1.9149986913778303 3.279217745154563
-1.8817515855802165 3.305958524882044
-1.8651280326814097 3.2257361856996005
-1.9648693500742511 3.092032287062195
-2.0479871145682855 3.0652915073347136
-2.0479871145682855 3.1722546262446385
-2.0313635616694787 3.3861808640644875
-2.0646106674670923 3.5466255424293744
-2.0646106674670923 3.5466255424293744
-2.13110487906232 3.493143982974412
-2.147728431961127 3.4396624235194495
-2.114481326163513 3.6001071018843365
-1.981492902973058 3.894255678886629
-1.9149986913778303 3.867514899159148
-1.9149986913778303 3.7872925599767044
-1.9648693500742511 3.653588661339299
-2.014740008770672 3.6001071018843365
-2.0479871145682855 3.8140333397041855
-1.998116455871865 3.9744780180690724
-1.8983751384790235 4.001218797796554
-1.8817515855802165 3.894255678886629
-1.8817515855802165 3.840774119431667
-1.8485044797826027 3.7605517802492234
-1.765386715288568 3.840774119431667
-1.7155160565921475 3.9477372383415914
-1.6656453978957266 3.840774119431667
-1.6988925036933404 3.840774119431667
-1.6822689507945336 3.6268478816118175
-1.5825276334016922 3.653588661339299
-1.4994098689076576 3.6268478816118175
-1.3664214457172024 3.519884762701893
-1.2833036812231677 3.332699304609525
-1.2168094696279401 3.092032287062195
-1.1503152580327125 2.8513652695148646
-1.100444599336292 2.771142930332421
-1.0173268348422573 2.8246244897873836
-0.900961964550609 2.717661370877459
-0.8178442000565743 2.6106982519675346
-0.8012206471577674 2.396772014147685
-0.7845970942589605 2.343290454692723
-0.8012206471577674 2.343290454692723
-0.7347264355625398 2.3165496749652417
-0.5851144594732777 2.2363273357827986
-0.4853731420804362 2.0758826574179117
-0.4853731420804362 1.9956603182354682
-0.5019966949792432 1.8352156398705812
-0.5019966949792432 1.8084748601431002
-0.4355024833840155 1.6747709615056945
-0.3690082717887878 1.5410670628682888
-0.3690082717887878 1.3271408250484398
-0.3025140601935602 1.1399553669560718
-0.3191376130923671 0.9527699088637037
-0.2858905072947533 0.819066010226298
-0.3025140601935602 0.8992883494087415
-0.3025140601935602 0.9795106885911848
-0.2692669543959464 1.006251468318666
-0.2526434014971395 0.8725475696812603
-0.2692669543959464 0.7923252304988169
-0.3025140601935602 0.7388436710438546
-0.2858905072947533 0.7388436710438546
-0.152902084104298 0.7121028913163735
-0.16952563700310494 0.63188055213393
-0.18614918990191184 0.5783989926789678
-0.23601984859833255 0.49817665349652435
-0.2858905072947533 0.5516582129514866
-0.21939629569952565 0.6051397724064489
-0.2526434014971395 0.6586213318614111
-0.21939629569952565 0.5783989926789678
-0.18614918990191184 0.49817665349652435
-0.23601984859833255 0.44469509404156204
-0.23601984859833255 0.4714358737690432
-0.21939629569952565 0.6051397724064489
-0.20277274280071875 0.6853621115888923
-0.1030314254078773 0.6853621115888923
-0.16952563700310494 0.6051397724064489
-0.21939629569952565 0.44469509404156204
-0.2692669543959464 0.28425041567667525
-0.21939629569952565 0.2040280764942318
-0.1362785312054911 0.3109911954041564
-0.06978431961026348 0.2040280764942318
-0.1196549783066842 0.23076885622171295
-0.18614918990191184 0.23076885622171295
-0.21939629569952565 0.3912135345865998
-0.18614918990191184 0.4714358737690432
-0.1030314254078773 0.6586213318614111
-0.18614918990191184 0.7388436710438546
-0.21939629569952565 0.7923252304988169
-0.21939629569952565 0.7923252304988169
-0.21939629569952565 0.6051397724064489
-0.152902084104298 0.3912135345865998
-0.1030314254078773 0.3109911954041564
-0.1030314254078773 0.23076885622171295
-0.1362785312054911 0.28425041567667525
-0.16952563700310494 0.3377319751316375
-0.152902084104298 0.49817665349652435
-0.06978431961026348 0.5516582129514866
-0.019913660913842755 0.5249174332240055
0.029956997782577974 0.23076885622171295
0.029956997782577974 0.12380573731178839
-0.05316076671145657 0.25750963594919407
-0.06978431961026348 0.5249174332240055
-0.0864078725090704 0.5516582129514866
-0.0032901080150358445 0.3109911954041564
-0.0032901080150358445 -0.03663894105309845
-0.0032901080150358445 -0.17034283969050415
-0.05316076671145657 -0.11686128023554188
-0.06978431961026348 -0.009898161325617313
-0.0032901080150358445 0.17728729676675067
0.046580550681384884 0.3377319751316375
0.046580550681384884 0.3644727548591186
-0.0032901080150358445 0.3109911954041564
-0.06978431961026348 0.2040280764942318
-0.1196549783066842 0.2040280764942318
-0.1362785312054911 0.3109911954041564
-0.05316076671145657 0.3912135345865998
-0.0032901080150358445 0.4714358737690432
0.013333444883771065 0.4179543143140809
-0.03653721381264966 0.28425041567667525
-0.06978431961026348 0.28425041567667525
-0.0864078725090704 0.3912135345865998
-0.03653721381264966 0.5249174332240055
-0.0032901080150358445 0.4714358737690432
-0.03653721381264966 0.3644727548591186
-0.1196549783066842 0.3912135345865998
-0.152902084104298 0.5783989926789678
-0.05316076671145657 0.5783989926789678
0.0798276564789987 0.5249174332240055
0.046580550681384884 0.4179543143140809
-0.019913660913842755 0.4179543143140809
-0.06978431961026348 0.49817665349652435
-0.152902084104298 0.7388436710438546
-0.1030314254078773 0.819066010226298
-0.019913660913842755 0.6586213318614111
-0.0032901080150358445 0.3377319751316375
-0.0032901080150358445 0.09706495758430725
-0.05316076671145657 0.09706495758430725
-0.03653721381264966 0.17728729676675067
-0.03653721381264966 0.3377319751316375
-0.019913660913842755 0.6051397724064489
0.046580550681384884 0.6051397724064489
0.046580550681384884 0.6586213318614111
-0.019913660913842755 0.6586213318614111
-0.1030314254078773 0.63188055213393
-0.1030314254078773 0.7655844507713357
-0.05316076671145657 0.8725475696812603
0.013333444883771065 0.8458067899537791
-0.05316076671145657 0.6853621115888923
-0.05316076671145657 0.49817665349652435
-0.05316076671145657 0.3377319751316375
0.013333444883771065 0.49817665349652435
0.0798276564789987 0.5516582129514866
0.0964512093778056 0.5516582129514866
0.046580550681384884 0.5516582129514866
-0.0032901080150358445 0.6051397724064489
-0.0032901080150358445 0.7923252304988169
0.013333444883771065 0.8458067899537791
0.0632041035801918 0.7923252304988169
0.0798276564789987 0.49817665349652435
0.11307476227661252 0.3912135345865998
0.0798276564789987 0.3377319751316375
0.013333444883771065 0.28425041567667525
0.0632041035801918 0.3644727548591186
0.0798276564789987 0.44469509404156204
0.11307476227661252 0.44469509404156204
0.0964512093778056 0.4179543143140809
0.029956997782577974 0.3377319751316375
0.013333444883771065 0.3109911954041564
0.0632041035801918 0.44469509404156204
0.11307476227661252 0.5249174332240055
0.14632186807422634 0.5249174332240055
0.0632041035801918 0.4714358737690432
-0.0032901080150358445 0.4714358737690432
-0.019913660913842755 0.44469509404156204
-0.019913660913842755 0.44469509404156204
0.046580550681384884 0.5516582129514866
0.0632041035801918 0.6853621115888923
-0.0032901080150358445 0.7923252304988169
-0.03653721381264966 0.9260291291362226
-0.05316076671145657 0.9795106885911848
-0.05316076671145657 0.8458067899537791
0.11307476227661252 0.6586213318614111
0.12969831517541944 0.25750963594919407
0.0964512093778056 0.04358339812934497
0.013333444883771065 0.04358339812934497
-0.0032901080150358445 0.12380573731178839
0.029956997782577974 0.2040280764942318
0.0964512093778056 0.25750963594919407
0.12969831517541944 0.23076885622171295
0.0798276564789987 0.2040280764942318
0.029956997782577974 0.23076885622171295
0.029956997782577974 0.3377319751316375
0.0632041035801918 0.3377319751316375
0.12969831517541944 0.4714358737690432
0.17956897387184015 0.44469509404156204
0.14632186807422634 0.3912135345865998
0.0964512093778056 0.3109911954041564
0.046580550681384884 0.3109911954041564
0.029956997782577974 0.44469509404156204
0.0798276564789987 0.6586213318614111
0.11307476227661252 0.63188055213393
0.11307476227661252 0.6051397724064489
0.0964512093778056 0.6586213318614111
0.0798276564789987 0.7923252304988169
0.14632186807422634 0.6853621115888923
0.17956897387184015 0.63188055213393
0.17956897387184015 0.5249174332240055
0.2294396325682609 0.44469509404156204
0.17956897387184015 0.3109911954041564
0.16294542097303324 0.23076885622171295
0.19619252677064705 0.23076885622171295
0.2294396325682609 0.3377319751316375
0.2626867383658747 0.3377319751316375
0.2793102912646816 0.4179543143140809
0.2460631854670678 0.44469509404156204
0.2793102912646816 0.5783989926789678
0.3790516086575231 0.5783989926789678
0.4621693731515576 0.4714358737690432
0.7447697724312751 0.25750963594919407
1.0107466188121856 -0.03663894105309845
1.30997057099071 -0.35752829778287215
1.7255593934608826 -0.5447137558752401
2.2741366391215108 -0.6516768747851647
2.9557023079725937 -0.731899213967608
3.6206444239248703 -0.8923438923324949
4.252339434079532 -0.9458254517874572
4.817540232638968 -0.8923438923324949
5.199881949311527 -0.6784176545126458
5.465858795692437 -0.35752829778287215
5.199881949311527 -0.009898161325617313
4.584810492055671 0.17728729676675067
3.5873973181272563 0.17728729676675067
2.606607697097649 0.25750963594919407
1.6424416289668482 0.5249174332240055
0.7946404311276958 0.8992883494087415
0.2294396325682609 1.220177706138515
0.046580550681384884 1.2736592655934773
0.046580550681384884 1.193436926411034
0.14632186807422634 1.0597330277736283
0.21281607966945396 0.9527699088637037
0.2793102912646816 0.8725475696812603
0.2460631854670678 0.7655844507713357
0.17956897387184015 0.5783989926789678
0.11307476227661252 0.3912135345865998
0.013333444883771065 0.28425041567667525
-0.03653721381264966 0.44469509404156204
-0.019913660913842755 0.6051397724064489
-0.03653721381264966 0.7121028913163735
-0.05316076671145657 0.6051397724064489
-0.0864078725090704 0.4179543143140809
-0.1362785312054911 0.3109911954041564
-0.1362785312054911 0.25750963594919407
-0.16952563700310494 0.3912135345865998
-0.152902084104298 0.49817665349652435
-0.0864078725090704 0.49817665349652435
-0.06978431961026348 0.5516582129514866
-0.152902084104298 0.5516582129514866
-0.18614918990191184 0.6051397724064489
-0.152902084104298 0.6853621115888923
-0.18614918990191184 0.7923252304988169
-0.18614918990191184 0.7388436710438546
-0.152902084104298 0.63188055213393
-0.20277274280071875 0.5516582129514866
-0.21939629569952565 0.5783989926789678
-0.18614918990191184 0.6853621115888923
-0.152902084104298 0.7923252304988169
-0.1196549783066842 0.7923252304988169
-0.18614918990191184 0.8458067899537791
-0.3025140601935602 0.9260291291362226
-0.2858905072947533 0.8458067899537791
-0.23601984859833255 0.6853621115888923
-0.16952563700310494 0.63188055213393
-0.1030314254078773 0.3644727548591186
-0.1362785312054911 0.2040280764942318
-0.152902084104298 0.07032417785682611
-0.18614918990191184 -0.009898161325617313
-0.16952563700310494 0.09706495758430725
-0.1196549783066842 0.17728729676675067
-0.1030314254078773 0.3109911954041564
-0.0864078725090704 0.3377319751316375
-0.1362785312054911 0.3109911954041564
-0.1196549783066842 0.3912135345865998
-0.1030314254078773 0.6051397724064489
-0.05316076671145657 0.7121028913163735
-0.0032901080150358445 0.49817665349652435
-0.05316076671145657 0.25750963594919407
-0.05316076671145657 -0.09012050050806074
-0.1030314254078773 -0.143602059963023
-0.0864078725090704 -0.009898161325617313
-0.1362785312054911 0.17728729676675067
-0.019913660913842755 0.3109911954041564
-0.03653721381264966 0.23076885622171295
-0.03653721381264966 0.28425041567667525
-0.06978431961026348 0.23076885622171295
0.013333444883771065 0.25750963594919407
0.0632041035801918 0.2040280764942318
0.046580550681384884 0.04358339812934497
0.029956997782577974 -0.06337972078057959
0.029956997782577974 -0.143602059963023
-0.0032901080150358445 -0.17034283969050415
0.0798276564789987 -0.06337972078057959
0.14632186807422634 -0.03663894105309845
0.17956897387184015 -0.009898161325617313
0.19619252677064705 -0.06337972078057959
0.0964512093778056 -0.06337972078057959
0.14632186807422634 -0.03663894105309845
0.21281607966945396 -0.03663894105309845
0.2959338441634885 -0.03663894105309845
0.2959338441634885 -0.25056517887294755
0.2959338441634885 -0.35752829778287215
0.2626867383658747 -0.4644914166927967
0.2460631854670678 -0.4110098572378344
0.2959338441634885 -0.1970836194179853
0.36242805575871617 0.04358339812934497
0.3790516086575231 0.17728729676675067
0.36242805575871617 0.12380573731178839
0.3458045028599092 -0.143602059963023
0.2959338441634885 -0.4644914166927967
0.36242805575871617 -0.7586399936950893
0.4954164789491714 -0.8656031126050138
0.561910690544399 -0.8656031126050138
0.5785342434432059 -0.8923438923324949
0.5951577963420128 -0.8656031126050138
0.561910690544399 -0.8388623328775326
0.561910690544399 -0.7586399936950893
0.6450284550384336 -0.5981953153302024
0.6782755608360475 -0.517972976147759
0.5785342434432059 -0.5447137558752401
0.6450284550384336 -0.6249360950576835
0.6450284550384336 -0.6249360950576835
0.6616520079372405 -0.4377506369653156
0.7281462195324682 -0.3842690775103533
0.7447697724312751 -0.3842690775103533
0.7281462195324682 -0.4377506369653156
0.6616520079372405 -0.4912321964202778
0.6117813492408197 -0.4110098572378344
0.6117813492408197 -0.33078751805539097
0.5951577963420128 -0.09012050050806074
0.6117813492408197 -0.009898161325617313
0.5120400318479783 -0.009898161325617313
0.4621693731515576 0.04358339812934497
0.4122987144551369 0.2040280764942318
0.4122987144551369 0.23076885622171295
0.4122987144551369 0.25750963594919407
0.39567516155633 0.28425041567667525
0.3291809499611023 0.3109911954041564
0.2294396325682609 0.2040280764942318
0.21281607966945396 0.28425041567667525
0.17956897387184015 0.3644727548591186
0.19619252677064705 0.3912135345865998
0.21281607966945396 0.44469509404156204
0.17956897387184015 0.3377319751316375
0.0964512093778056 0.3644727548591186
0.0632041035801918 0.4179543143140809
0.046580550681384884 0.6051397724064489
0.0964512093778056 0.7121028913163735
0.16294542097303324 0.7388436710438546
0.11307476227661252 0.3912135345865998
0.046580550681384884 0.23076885622171295
0.046580550681384884 0.2040280764942318
0.0964512093778056 0.28425041567667525
0.16294542097303324 0.3644727548591186
0.16294542097303324 0.44469509404156204
0.11307476227661252 0.4714358737690432
0.0798276564789987 0.4714358737690432
0.0798276564789987 0.4179543143140809
0.16294542097303324 0.3912135345865998
0.2294396325682609 0.49817665349652435
0.21281607966945396 0.5516582129514866
0.19619252677064705 0.49817665349652435
0.17956897387184015 0.3644727548591186
0.14632186807422634 0.3644727548591186
0.19619252677064705 0.49817665349652435
0.2793102912646816 0.5249174332240055
0.21281607966945396 0.4179543143140809
0.2460631854670678 0.2040280764942318
0.2294396325682609 0.09706495758430725
0.19619252677064705 0.28425041567667525
0.16294542097303324 0.44469509404156204
0.21281607966945396 0.5516582129514866
0.2294396325682609 0.3377319751316375
0.2294396325682609 0.2040280764942318
0.17956897387184015 0.15054651703926952
0.12969831517541944 0.17728729676675067
0.16294542097303324 0.23076885622171295
0.21281607966945396 0.4179543143140809
0.16294542097303324 0.44469509404156204
0.21281607966945396 0.3377319751316375
0.16294542097303324 0.15054651703926952
0.14632186807422634 0.04358339812934497
0.12969831517541944 0.12380573731178839
0.16294542097303324 0.17728729676675067
0.21281607966945396 0.17728729676675067
0.17956897387184015 0.09706495758430725
0.11307476227661252 0.15054651703926952
0.11307476227661252 0.2040280764942318
0.14632186807422634 0.25750963594919407
0.14632186807422634 0.25750963594919407
0.19619252677064705 0.2040280764942318
0.16294542097303324 0.17728729676675067
0.0798276564789987 0.15054651703926952
0.0964512093778056 0.15054651703926952
0.0964512093778056 0.2040280764942318
0.12969831517541944 0.3109911954041564
0.14632186807422634 0.28425041567667525
0.11307476227661252 0.3644727548591186
0.029956997782577974 0.4179543143140809
0.029956997782577974 0.44469509404156204
0.0632041035801918 0.3109911954041564
0.0632041035801918 0.12380573731178839
0.11307476227661252 -0.09012050050806074
0.0964512093778056 -0.09012050050806074
0.013333444883771065 -0.03663894105309845
-0.03653721381264966 0.09706495758430725
-0.03653721381264966 0.25750963594919407
0.046580550681384884 0.3377319751316375
0.013333444883771065 0.4714358737690432
0.013333444883771065 0.4714358737690432
-0.03653721381264966 0.5249174332240055
-0.019913660913842755 0.5249174332240055
0.029956997782577974 0.49817665349652435
0.0964512093778056 0.3912135345865998
0.0798276564789987 0.2040280764942318
0.0632041035801918 0.15054651703926952
0.013333444883771065 0.17728729676675067
-0.0032901080150358445 0.23076885622171295
0.013333444883771065 0.3109911954041564
0.046580550681384884 0.4179543143140809
0.11307476227661252 0.3912135345865998
0.029956997782577974 0.3912135345865998
0.013333444883771065 0.3644727548591186
-0.019913660913842755 0.44469509404156204
0.013333444883771065 0.5783989926789678
0.013333444883771065 0.6853621115888923
0.029956997782577974 0.6853621115888923
0.029956997782577974 0.5783989926789678
-0.019913660913842755 0.4714358737690432
-0.05316076671145657 0.4179543143140809
-0.019913660913842755 0.3912135345865998
-0.019913660913842755 0.4714358737690432
-0.019913660913842755 0.6051397724064489
-0.0032901080150358445 0.7121028913163735
-0.05316076671145657 0.6853621115888923
-0.06978431961026348 0.6051397724064489
-0.03653721381264966 0.5249174332240055
-0.019913660913842755 0.5783989926789678
-0.019913660913842755 0.5249174332240055
-0.06978431961026348 0.3912135345865998
-0.03653721381264966 0.28425041567667525
-0.1196549783066842 0.17728729676675067
-0.1030314254078773 0.28425041567667525
-0.019913660913842755 0.4179543143140809
0.013333444883771065 0.44469509404156204
-0.03653721381264966 0.3912135345865998
-0.019913660913842755 0.3109911954041564
-0.03653721381264966 0.3377319751316375
-0.0032901080150358445 0.4179543143140809
0.013333444883771065 0.3912135345865998
0.029956997782577974 0.3644727548591186
0.0798276564789987 0.15054651703926952
-0.019913660913842755 0.17728729676675067
-0.06978431961026348 0.25750963594919407
-0.03653721381264966 0.3377319751316375
-0.05316076671145657 0.3644727548591186
0.029956997782577974 0.17728729676675067
-0.019913660913842755 0.2040280764942318
-0.06978431961026348 0.3377319751316375
-0.1196549783066842 0.5249174332240055
-0.05316076671145657 0.6051397724064489
-0.0032901080150358445 0.6051397724064489
0.046580550681384884 0.4714358737690432
-0.019913660913842755 0.4179543143140809
-0.03653721381264966 0.3377319751316375
-0.0864078725090704 0.28425041567667525
-0.03653721381264966 0.3109911954041564
-0.05316076671145657 0.3644727548591186
-0.019913660913842755 0.4179543143140809
-0.03653721381264966 0.4179543143140809
-0.05316076671145657 0.4179543143140809
-0.1362785312054911 0.44469509404156204
-0.019913660913842755 0.63188055213393
-0.0032901080150358445 0.7121028913163735
0.013333444883771065 0.5249174332240055
-0.019913660913842755 0.4179543143140809
-0.05316076671145657 0.2040280764942318
-0.06978431961026348 0.23076885622171295
-0.03653721381264966 0.28425041567667525
-0.05316076671145657 0.3644727548591186
-0.03653721381264966 0.3644727548591186
-0.0864078725090704 0.3377319751316375
-0.1196549783066842 0.3109911954041564
-0.0864078725090704 0.3644727548591186
-0.1196549783066842 0.4179543143140809
-0.0032901080150358445 0.5516582129514866
0.029956997782577974 0.6051397724064489
-0.03653721381264966 0.49817665349652435
-0.06978431961026348 0.3377319751316375
-0.06978431961026348 0.3644727548591186
-0.03653721381264966 0.3109911954041564
0.029956997782577974 0.4714358737690432
0.029956997782577974 0.4179543143140809
-0.05316076671145657 0.3644727548591186
-0.05316076671145657 0.3912135345865998
-0.05316076671145657 0.5249174332240055
-0.03653721381264966 0.5783989926789678
0.029956997782577974 0.6051397724064489
0.0798276564789987 0.3644727548591186
0.0798276564789987 0.17728729676675067
0.0632041035801918 0.17728729676675067
0.0632041035801918 0.23076885622171295
0.029956997782577974 0.28425041567667525
0.0964512093778056 0.4179543143140809
0.12969831517541944 0.4714358737690432
0.11307476227661252 0.44469509404156204
0.046580550681384884 0.3644727548591186
-0.019913660913842755 0.4179543143140809
0.029956997782577974 0.49817665349652435
0.12969831517541944 0.49817665349652435
0.0964512093778056 0.4179543143140809
0.046580550681384884 0.28425041567667525
0.046580550681384884 0.15054651703926952
0.013333444883771065 0.28425041567667525
0.046580550681384884 0.3912135345865998
0.12969831517541944 0.5249174332240055
0.12969831517541944 0.5249174332240055
0.11307476227661252 0.4714358737690432
0.0964512093778056 0.3644727548591186
0.21281607966945396 0.17728729676675067
0.4289222673539438 0.07032417785682611
0.6948991137348544 0.07032417785682611
1.0107466188121856 0.12380573731178839
1.326594123889517 0.07032417785682611
1.659065181865655 -0.17034283969050415
2.174395321728669 -0.4912321964202778
2.789466778984525 -0.7853807734225704
3.3879146833415734 -1.0527885706973819
4.05285679929385 -1.1597516896073063
4.6180575978532845 -1.2132332490622686
5.050269973222265 -1.0795293504248629
5.282999713805561 -0.7051584342401269
5.166634843513913 -0.22382439914546642
4.651304703650899 0.12380573731178839
3.687138635520098 0.3377319751316375
2.6731019086928764 0.4179543143140809
1.659065181865655 0.5783989926789678
0.7447697724312751 0.9260291291362226
0.11307476227661252 0.9795106885911848
-0.0864078725090704 1.1132145872285906
-0.019913660913842755 0.9260291291362226
0.11307476227661252 0.5249174332240055
0.16294542097303324 0.07032417785682611
0.16294542097303324 -0.009898161325617313
0.12969831517541944 0.12380573731178839
0.029956997782577974 0.3109911954041564
-0.0032901080150358445 0.3644727548591186
-0.05316076671145657 0.44469509404156204
-0.1030314254078773 0.44469509404156204
-0.152902084104298 0.4714358737690432
-0.16952563700310494 0.3912135345865998
-0.16952563700310494 0.28425041567667525
-0.20277274280071875 0.23076885622171295
-0.20277274280071875 0.17728729676675067
-0.2858905072947533 0.15054651703926952
-0.3025140601935602 0.23076885622171295
-0.2692669543959464 0.3912135345865998
-0.335761165991174 0.5249174332240055
-0.23601984859833255 0.4179543143140809
-0.2692669543959464 0.4179543143140809
-0.335761165991174 0.4179543143140809
-0.3856318246875947 0.3912135345865998
-0.335761165991174 0.5783989926789678
-0.3191376130923671 0.7121028913163735
-0.335761165991174 0.5783989926789678
-0.3523847188899809 0.4179543143140809
-0.4188789304852086 0.2040280764942318
-0.4355024833840155 0.3377319751316375
-0.3690082717887878 0.4179543143140809
-0.3523847188899809 0.5249174332240055
-0.2526434014971395 0.5249174332240055
-0.3191376130923671 0.49817665349652435
-0.3191376130923671 0.3912135345865998
-0.3523847188899809 0.3912135345865998
-0.3025140601935602 0.4179543143140809
-0.3025140601935602 0.5249174332240055
-0.2858905072947533 0.5516582129514866
-0.335761165991174 0.5249174332240055
-0.335761165991174 0.3912135345865998
-0.335761165991174 0.3109911954041564
-0.2858905072947533 0.3377319751316375
-0.2692669543959464 0.3912135345865998
-0.23601984859833255 0.3377319751316375
-0.2858905072947533 0.3109911954041564
-0.3191376130923671 0.28425041567667525
-0.3025140601935602 0.3912135345865998
-0.3025140601935602 0.4714358737690432
-0.23601984859833255 0.5783989926789678
-0.18614918990191184 0.5783989926789678
-0.18614918990191184 0.4714358737690432
-0.23601984859833255 0.17728729676675067
-0.23601984859833255 0.09706495758430725
-0.152902084104298 0.15054651703926952
-0.1196549783066842 0.23076885622171295
-0.1030314254078773 0.23076885622171295
-0.16952563700310494 0.2040280764942318
-0.18614918990191184 0.09706495758430725
-0.152902084104298 0.2040280764942318
-0.1196549783066842 0.3109911954041564
-0.05316076671145657 0.28425041567667525
-0.019913660913842755 0.23076885622171295
-0.019913660913842755 0.07032417785682611
-0.03653721381264966 -0.009898161325617313
-0.03653721381264966 0.04358339812934497
-0.0032901080150358445 0.07032417785682611
0.013333444883771065 0.07032417785682611
0.046580550681384884 -0.09012050050806074
0.013333444883771065 -0.17034283969050415
-0.0032901080150358445 -0.09012050050806074
0.0798276564789987 -0.11686128023554188
0.14632186807422634 -0.11686128023554188
0.21281607966945396 -0.17034283969050415
0.2793102912646816 -0.30404673832790985
0.2626867383658747 -0.4110098572378344
0.19619252677064705 -0.5981953153302024
0.17956897387184015 -0.5714545356027213
0.21281607966945396 -0.35752829778287215
0.2793102912646816 -0.1970836194179853
0.3125573970622954 -0.22382439914546642
0.2959338441634885 -0.4377506369653156
0.2793102912646816 -0.517972976147759
0.2460631854670678 -0.4377506369653156
0.2959338441634885 -0.517972976147759
0.3790516086575231 -0.4644914166927967
0.36242805575871617 -0.5447137558752401
0.3458045028599092 -0.5981953153302024
0.3458045028599092 -0.5981953153302024
0.3125573970622954 -0.4644914166927967
0.4122987144551369 -0.3842690775103533
0.4289222673539438 -0.33078751805539097
0.4289222673539438 -0.35752829778287215
0.4455458202527507 -0.3842690775103533
0.39567516155633 -0.4110098572378344
0.3790516086575231 -0.35752829778287215
0.3790516086575231 -0.3842690775103533
0.36242805575871617 -0.1970836194179853
0.3790516086575231 -0.17034283969050415
0.36242805575871617 -0.06337972078057959
0.3291809499611023 -0.03663894105309845
0.3458045028599092 -0.03663894105309845
0.3458045028599092 -0.06337972078057959
0.3458045028599092 0.016842618401863827
0.2460631854670678 0.04358339812934497
0.21281607966945396 0.15054651703926952
0.17956897387184015 0.15054651703926952
0.16294542097303324 0.2040280764942318
0.19619252677064705 0.23076885622171295
0.19619252677064705 0.3644727548591186
0.2294396325682609 0.3912135345865998
0.21281607966945396 0.3109911954041564
0.16294542097303324 0.15054651703926952
0.0798276564789987 0.07032417785682611
0.029956997782577974 0.23076885622171295
-0.0032901080150358445 0.28425041567667525
0.0798276564789987 0.28425041567667525
0.0632041035801918 0.3109911954041564
0.013333444883771065 0.3377319751316375
-0.0032901080150358445 0.4179543143140809
0.029956997782577974 0.4714358737690432
0.046580550681384884 0.4179543143140809
0.16294542097303324 0.23076885622171295
0.11307476227661252 0.15054651703926952
0.046580550681384884 0.15054651703926952
0.046580550681384884 0.3109911954041564
0.0964512093778056 0.4179543143140809
0.19619252677064705 0.4179543143140809
0.2793102912646816 0.3912135345865998
0.3125573970622954 0.28425041567667525
0.3291809499611023 0.25750963594919407
0.36242805575871617 0.4179543143140809
0.4122987144551369 0.5249174332240055
0.5452871376455921 0.5516582129514866
0.6450284550384336 0.5516582129514866
0.7447697724312751 0.44469509404156204
0.8777581956217303 0.3109911954041564
1.0772408304074133 0.17728729676675067
1.3432176767883237 0.016842618401863827
1.5759474173716204 -0.30404673832790985
1.8585478166513378 -0.7051584342401269
2.041406898538214 -1.0527885706973819
2.2408895333238967 -1.4004187071546366
2.4736192739071936 -1.7480488436118915
2.8559609905797525 -2.1224197597966272
3.121937836960663 -2.5502722354363256
3.40453823624038 -2.9781247110760236
3.653891529722484 -3.6466442042630525
3.919868376103395 -4.341904477177562
4.285586539877147 -4.743016173089779
4.551563386258057 -5.063905529819553
4.7676695739425465 -5.304572547366883
4.734422468144933 -5.46501722573177
4.634681150752091 -5.652202683824138
4.584810492055671 -5.812647362189025
4.435198515966409 -5.866128921643987
4.385327857269988 -5.759165802734063
4.285586539877147 -5.678943463551619
4.002986140597429 -5.678943463551619
3.5873973181272563 -5.652202683824138
3.105314284061856 -5.491758005459251
2.7229725673892973 -5.304572547366883
2.3406308507167384 -5.090646309547034
1.9749126869429863 -4.930201631182147
1.6091945231692344 -4.662793833907336
1.276723465193096 -4.395386036632524
1.0606172775086062 -4.047755900175269
0.9608759601157648 -3.405977186715722
0.9608759601157648 -2.9513839313485426
0.9442524072169579 -2.496790675981363
0.8278875369253096 -2.256123658434033
0.7447697724312751 -1.9887158611592217
0.7946404311276958 -1.7213080638844103
0.9442524072169579 -1.3469371476996743
1.276723465193096 -1.106270130152344
1.492829652877586 -0.9993070112424195
1.5925709702704274 -0.9993070112424195
1.2600999122942893 -0.9725662315149384
0.6948991137348544 -0.8121215531500515
0.14632186807422634 -0.517972976147759
-0.3191376130923671 -0.143602059963023
-0.6017380123720846 0.3109911954041564
-0.7347264355625398 0.6586213318614111
-0.8344677529553812 0.9795106885911848
-0.9342090703482228 1.2736592655934773
-1.050573940639871 1.4341039439583643
-1.1170681522350987 1.594548622323251
-1.1503152580327125 1.6480301817782133
-1.2168094696279401 1.594548622323251
-1.2999272341219748 1.6212894020507322
-1.3664214457172024 1.6747709615056945
-1.4661627631100438 1.781734080415619
-1.449539210211237 1.942178758780506
-1.4661627631100438 2.182845776327836
-1.5326569747052714 2.156104996600355
-1.615774739199306 2.0758826574179117
-1.6822689507945336 1.968919538507987
-1.7155160565921475 2.1293642168728737
-1.6822689507945336 2.343290454692723
-1.6490218449969198 2.4235127938751666
-1.6323982920981128 2.4235127938751666
-1.6656453978957266 2.2363273357827986
-1.7487631623897613 2.2363273357827986
-1.7487631623897613 2.343290454692723
-1.6988925036933404 2.4502535736026476
-1.6656453978957266 2.5037351330576096
-1.6656453978957266 2.4235127938751666
-1.7155160565921475 2.4769943533301286
-1.782010268187375 2.4502535736026476
-1.8152573739849889 2.530475912785091
-1.7155160565921475 2.6909205911499776
-1.7321396094909542 2.904846828969827
-1.6988925036933404 2.904846828969827
-1.7487631623897613 2.8246244897873836
-1.798633821086182 2.8246244897873836
-1.8152573739849889 2.958328388424789
-1.798633821086182 3.0652915073347136
-1.7155160565921475 3.118773066789676
-1.7487631623897613 3.0652915073347136
-1.7487631623897613 3.0652915073347136
-1.765386715288568 3.145513846517157
-1.7487631623897613 3.2257361856996005
-1.6988925036933404 3.3594400843370065
-1.6822689507945336 3.493143982974412
-1.6323982920981128 3.5733663221568555
-1.6490218449969198 3.5466255424293744
-1.7155160565921475 3.493143982974412
-1.7321396094909542 3.519884762701893
-1.6656453978957266 3.6001071018843365
-1.599151186300499 3.68032944106678
-1.5659040805028852 3.68032944106678
-1.5326569747052714 3.68032944106678
-1.5326569747052714 3.6268478816118175
-1.5326569747052714 3.8140333397041855
-1.4827863160088508 3.9477372383415914
-1.3497978928183954 3.9744780180690724
-1.2999272341219748 3.7605517802492234
-1.3331743399195886 3.6001071018843365
-1.3165507870207815 3.519884762701893
-1.266680128324361 3.493143982974412
-1.1669388109315195 3.6001071018843365
-1.067197493538678 3.5733663221568555
-1.067197493538678 3.493143982974412
-1.0007032819434503 3.2257361856996005
-0.9840797290446435 2.9850691681522705
-0.9342090703482228 2.8781060492423456
-0.8510913058541881 2.8513652695148646
-0.7513499884613467 2.8781060492423456
-0.6848557768661191 2.904846828969827
-0.6349851181696984 2.74440215060494
-0.6349851181696984 2.6641798114224966
-0.6183615652708915 2.5037351330576096
-0.5518673536756639 2.5037351330576096
-0.4687495891816293 2.2898088952377607
-0.4355024833840155 2.0758826574179117
-0.4521260362828224 1.781734080415619
-0.4853731420804362 1.56780784259577
-0.4687495891816293 1.56780784259577
-0.4521260362828224 1.6212894020507322
-0.4022553775864017 1.6212894020507322
-0.3523847188899809 1.5143262831408077
-0.3856318246875947 1.4341039439583643
-0.3523847188899809 1.2736592655934773
-0.3523847188899809 1.220177706138515
-0.335761165991174 1.220177706138515
-0.21939629569952565 1.0864738075011093
-0.20277274280071875 0.9260291291362226
-0.23601984859833255 0.7655844507713357
-0.2526434014971395 0.6051397724064489
-0.2692669543959464 0.5783989926789678
-0.21939629569952565 0.5249174332240055
-0.16952563700310494 0.6051397724064489
-0.20277274280071875 0.4714358737690432
-0.2526434014971395 0.3644727548591186
-0.23601984859833255 0.25750963594919407
-0.23601984859833255 0.28425041567667525
-0.152902084104298 0.3644727548591186
-0.152902084104298 0.49817665349652435
-0.1362785312054911 0.5516582129514866
-0.23601984859833255 0.49817665349652435
-0.2526434014971395 0.3644727548591186
-0.18614918990191184 0.3644727548591186
-0.18614918990191184 0.25750963594919407
-0.20277274280071875 0.25750963594919407
-0.23601984859833255 0.28425041567667525
-0.21939629569952565 0.25750963594919407
-0.2526434014971395 0.23076885622171295
-0.2858905072947533 0.3377319751316375
-0.18614918990191184 0.44469509404156204
-0.1362785312054911 0.5249174332240055
-0.1030314254078773 0.5516582129514866
-0.1196549783066842 0.5249174332240055
-0.152902084104298 0.3912135345865998
-0.16952563700310494 0.3377319751316375
-0.1196549783066842 0.3644727548591186
-0.06978431961026348 0.3109911954041564
-0.019913660913842755 0.3109911954041564
-0.06978431961026348 0.25750963594919407
-0.1196549783066842 0.25750963594919407
-0.0864078725090704 0.25750963594919407
-0.06978431961026348 0.3912135345865998
0.013333444883771065 0.4714358737690432
0.013333444883771065 0.3912135345865998
-0.03653721381264966 0.3377319751316375
-0.1362785312054911 0.28425041567667525
-0.1196549783066842 0.23076885622171295
-0.03653721381264966 0.2040280764942318
0.013333444883771065 0.23076885622171295
-0.019913660913842755 0.15054651703926952
-0.03653721381264966 0.12380573731178839
-0.0864078725090704 0.2040280764942318
-0.1196549783066842 0.3912135345865998
-0.05316076671145657 0.5249174332240055
-0.05316076671145657 0.6051397724064489
-0.0864078725090704 0.5249174332240055
-0.1196549783066842 0.3377319751316375
-0.1196549783066842 0.23076885622171295
-0.1362785312054911 0.25750963594919407
-0.03653721381264966 0.3377319751316375
-0.019913660913842755 0.4714358737690432
-0.03653721381264966 0.44469509404156204
-0.0864078725090704 0.3912135345865998
-0.1030314254078773 0.3644727548591186
-0.1362785312054911 0.4714358737690432
-0.0864078725090704 0.5783989926789678
-0.05316076671145657 0.6051397724064489
-0.05316076671145657 0.3912135345865998
-0.1030314254078773 0.3377319751316375
-0.152902084104298 0.23076885622171295
-0.18614918990191184 0.3377319751316375
-0.16952563700310494 0.3912135345865998
-0.0864078725090704 0.3644727548591186
-0.05316076671145657 0.28425041567667525
-0.1362785312054911 0.28425041567667525
-0.1362785312054911 0.15054651703926952
-0.16952563700310494 0.25750963594919407
-0.1196549783066842 0.3377319751316375
-0.1196549783066842 0.44469509404156204
-0.06978431961026348 0.4179543143140809
-0.1030314254078773 0.3377319751316375
-0.1362785312054911 0.23076885622171295
-0.1362785312054911 0.17728729676675067
-0.1030314254078773 0.17728729676675067
-0.05316076671145657 0.28425041567667525
-0.05316076671145657 0.25750963594919407
-0.0864078725090704 0.12380573731178839
-0.1362785312054911 -0.03663894105309845
-0.152902084104298 0.016842618401863827
-0.1030314254078773 0.2040280764942318
-0.03653721381264966 0.3109911954041564
-0.019913660913842755 0.23076885622171295
-0.019913660913842755 0.2040280764942318
-0.03653721381264966 0.09706495758430725
-0.1030314254078773 0.12380573731178839
-0.0864078725090704 0.3109911954041564
-0.019913660913842755 0.3109911954041564
-0.019913660913842755 0.3109911954041564
-0.019913660913842755 0.28425041567667525
-0.03653721381264966 0.23076885622171295
-0.03653721381264966 0.23076885622171295
-0.0032901080150358445 0.28425041567667525
0.013333444883771065 0.28425041567667525
-0.0032901080150358445 0.25750963594919407
-0.06978431961026348 0.2040280764942318
-0.1030314254078773 0.25750963594919407
-0.06978431961026348 0.3644727548591186
-0.06978431961026348 0.4714358737690432
-0.019913660913842755 0.49817665349652435
-0.019913660913842755 0.3912135345865998
-0.03653721381264966 0.28425041567667525
-0.0864078725090704 0.3377319751316375
-0.1196549783066842 0.3377319751316375
-0.0864078725090704 0.4179543143140809
-0.05316076671145657 0.4714358737690432
-0.06978431961026348 0.4714358737690432
-0.152902084104298 0.4714358737690432
-0.1362785312054911 0.4714358737690432
-0.1362785312054911 0.4714358737690432
-0.0864078725090704 0.4179543143140809
-0.06978431961026348 0.3644727548591186
-0.05316076671145657 0.25750963594919407
-0.05316076671145657 0.17728729676675067
-0.06978431961026348 0.07032417785682611
-0.06978431961026348 -0.009898161325617313
-0.03653721381264966 0.12380573731178839
-0.0032901080150358445 0.17728729676675067
-0.05316076671145657 0.17728729676675067
-0.06978431961026348 0.2040280764942318
-0.03653721381264966 0.17728729676675067
-0.05316076671145657 0.25750963594919407
-0.05316076671145657 0.28425041567667525
-0.019913660913842755 0.3109911954041564
0.013333444883771065 0.15054651703926952
-0.019913660913842755 0.07032417785682611
-0.0864078725090704 0.2040280764942318
-0.06978431961026348 0.28425041567667525
-0.0032901080150358445 0.3644727548591186
0.029956997782577974 0.4179543143140809
0.046580550681384884 0.3644727548591186
-0.0032901080150358445 0.28425041567667525
-0.05316076671145657 0.07032417785682611
-0.019913660913842755 0.07032417785682611
0.013333444883771065 0.09706495758430725
0.013333444883771065 0.28425041567667525
0.029956997782577974 0.28425041567667525
-0.06978431961026348 0.3377319751316375
-0.0864078725090704 0.3377319751316375
-0.05316076671145657 0.3644727548591186
-0.019913660913842755 0.49817665349652435
0.013333444883771065 0.6051397724064489
0.046580550681384884 0.5516582129514866
0.029956997782577974 0.4179543143140809
-0.1196549783066842 0.3644727548591186
-0.1030314254078773 0.3644727548591186
-0.05316076671145657 0.44469509404156204
0.029956997782577974 0.5516582129514866
0.0798276564789987 0.49817665349652435
-0.0032901080150358445 0.4179543143140809
-0.0032901080150358445 0.4179543143140809
-0.0032901080150358445 0.3644727548591186
-0.0032901080150358445 0.3912135345865998
0.029956997782577974 0.3912135345865998
0.013333444883771065 0.3109911954041564
-0.019913660913842755 0.28425041567667525
-0.06978431961026348 0.28425041567667525
-0.05316076671145657 0.3109911954041564
0.029956997782577974 0.3912135345865998
0.0798276564789987 0.28425041567667525
0.0632041035801918 0.2040280764942318
0.0964512093778056 0.09706495758430725
0.013333444883771065 0.07032417785682611
0.029956997782577974 0.15054651703926952
0.0798276564789987 0.3377319751316375
0.0798276564789987 0.3912135345865998
0.0964512093778056 0.3644727548591186
0.046580550681384884 0.3109911954041564
0.029956997782577974 0.28425041567667525
0.013333444883771065 0.3109911954041564
0.0632041035801918 0.28425041567667525
0.11307476227661252 0.23076885622171295
0.16294542097303324 0.12380573731178839
0.12969831517541944 0.07032417785682611
0.0798276564789987 0.07032417785682611
0.046580550681384884 0.23076885622171295
0.11307476227661252 0.28425041567667525
0.17956897387184015 0.3109911954041564
0.21281607966945396 0.12380573731178839
0.19619252677064705 0.016842618401863827
0.19619252677064705 0.016842618401863827
0.19619252677064705 -0.009898161325617313
0.2294396325682609 0.07032417785682611
0.2793102912646816 0.23076885622171295
0.2626867383658747 0.23076885622171295
0.21281607966945396 0.17728729676675067
0.21281607966945396 0.12380573731178839
0.2793102912646816 0.09706495758430725
0.39567516155633 0.12380573731178839
0.5286635847467852 0.016842618401863827
0.7115226666336613 -0.09012050050806074
0.8943817485205372 -0.17034283969050415
1.09386438330622 -0.25056517887294755
1.3764647825859375 -0.22382439914546642
1.7920536050561102 -0.22382439914546642
2.3073837449191243 -0.33078751805539097
2.8393374376809457 -0.7051584342401269
3.321420471746346 -1.1330109098798251
3.820127058710553 -1.4004187071546366
4.285586539877147 -1.507381826064561
4.734422468144933 -1.2667148085172308
5.033646420323458 -0.8656031126050138
4.900657997133002 -0.4110098572378344
4.368704304371181 -0.17034283969050415
3.7037621884189047 -0.03663894105309845
2.8060903318833317 0.09706495758430725
2.074654004335828 0.4714358737690432
1.3930883354847445 0.8992883494087415
0.7115226666336613 1.220177706138515
0.17956897387184015 1.220177706138515
-0.06978431961026348 1.1132145872285906
-0.0032901080150358445 1.032992248046147
0.21281607966945396 0.9795106885911848
0.3790516086575231 0.7655844507713357
0.4122987144551369 0.44469509404156204
0.2959338441634885 0.2040280764942318
0.19619252677064705 0.07032417785682611
0.0964512093778056 0.12380573731178839
0.0964512093778056 0.28425041567667525
0.0964512093778056 0.3644727548591186
0.0632041035801918 0.3109911954041564
0.013333444883771065 0.15054651703926952
-0.05316076671145657 0.07032417785682611
-0.06978431961026348 0.12380573731178839
-0.05316076671145657 0.12380573731178839
-0.0032901080150358445 0.28425041567667525
-0.0032901080150358445 0.3644727548591186
-0.05316076671145657 0.3912135345865998
-0.1362785312054911 0.3644727548591186
-0.152902084104298 0.28425041567667525
-0.1362785312054911 0.3109911954041564
-0.1196549783066842 0.3377319751316375
-0.03653721381264966 0.3109911954041564
-0.06978431961026348 0.4179543143140809
-0.16952563700310494 0.3377319751316375
-0.20277274280071875 0.3109911954041564
-0.1362785312054911 0.3377319751316375
-0.1030314254078773 0.44469509404156204
-0.1030314254078773 0.3644727548591186
-0.1196549783066842 0.4179543143140809
-0.16952563700310494 0.25750963594919407
-0.18614918990191184 0.3644727548591186
-0.1362785312054911 0.4714358737690432
-0.06978431961026348 0.5516582129514866
-0.06978431961026348 0.5516582129514866
-0.1362785312054911 0.4714358737690432
-0.18614918990191184 0.3644727548591186
-0.2526434014971395 0.4179543143140809
-0.16952563700310494 0.49817665349652435
-0.1196549783066842 0.5516582129514866
-0.1362785312054911 0.49817665349652435
-0.18614918990191184 0.3644727548591186
-0.21939629569952565 0.3377319751316375
-0.18614918990191184 0.3644727548591186
-0.16952563700310494 0.4179543143140809
-0.1196549783066842 0.63188055213393
-0.0864078725090704 0.63188055213393
-0.16952563700310494 0.5516582129514866
-0.152902084104298 0.49817665349652435
-0.16952563700310494 0.44469509404156204
-0.1196549783066842 0.5249174332240055
-0.06978431961026348 0.5516582129514866
-0.0032901080150358445 0.49817665349652435
0.013333444883771065 0.17728729676675067
-0.05316076671145657 0.04358339812934497
-0.05316076671145657 0.09706495758430725
-0.05316076671145657 0.15054651703926952
-0.03653721381264966 0.25750963594919407
-0.019913660913842755 0.2040280764942318
-0.06978431961026348 0.09706495758430725
-0.06978431961026348 -0.009898161325617313
-0.06978431961026348 -0.09012050050806074
0.013333444883771065 -0.06337972078057959
0.0798276564789987 -0.09012050050806074
0.0798276564789987 -0.17034283969050415
0.0632041035801918 -0.33078751805539097
0.0632041035801918 -0.4110098572378344
0.0798276564789987 -0.25056517887294755
0.0964512093778056 -0.17034283969050415
0.0964512093778056 -0.06337972078057959
0.14632186807422634 -0.11686128023554188
0.12969831517541944 -0.25056517887294755
0.0798276564789987 -0.1970836194179853
0.11307476227661252 -0.25056517887294755
0.17956897387184015 -0.17034283969050415
0.2626867383658747 -0.143602059963023
0.3125573970622954 -0.22382439914546642
0.2959338441634885 -0.25056517887294755
0.2294396325682609 -0.2773059586004287
0.2460631854670678 -0.30404673832790985
0.3291809499611023 -0.2773059586004287
0.36242805575871617 -0.2773059586004287
0.3790516086575231 -0.33078751805539097
0.2959338441634885 -0.4110098572378344
0.2793102912646816 -0.517972976147759
0.3458045028599092 -0.3842690775103533
0.36242805575871617 -0.35752829778287215
0.4787929260503645 -0.30404673832790985
0.5286635847467852 -0.4644914166927967
0.561910690544399 -0.517972976147759
0.5120400318479783 -0.4110098572378344
0.5120400318479783 -0.2773059586004287
0.5286635847467852 -0.143602059963023
0.6284049021396266 -0.1970836194179853
0.6616520079372405 -0.33078751805539097
0.6948991137348544 -0.4377506369653156
0.6616520079372405 -0.4644914166927967
0.6782755608360475 -0.5447137558752401
0.7447697724312751 -0.517972976147759
0.7780168782288889 -0.4912321964202778
0.7780168782288889 -0.5981953153302024
0.7281462195324682 -0.6249360950576835
0.6616520079372405 -0.7051584342401269
0.6782755608360475 -0.6516768747851647
0.7281462195324682 -0.5714545356027213
0.7946404311276958 -0.4644914166927967
0.7946404311276958 -0.4644914166927967
0.7281462195324682 -0.517972976147759
0.6782755608360475 -0.517972976147759
0.5785342434432059 -0.33078751805539097
0.6117813492408197 -0.2773059586004287
0.6117813492408197 -0.1970836194179853
0.561910690544399 -0.09012050050806074
0.5286635847467852 -0.143602059963023
0.4954164789491714 -0.17034283969050415
0.4787929260503645 -0.1970836194179853
0.4954164789491714 -0.06337972078057959
0.5286635847467852 0.07032417785682611
0.5120400318479783 0.17728729676675067
0.4122987144551369 0.2040280764942318
0.3458045028599092 0.2040280764942318
0.2959338441634885 0.23076885622171295
0.2959338441634885 0.25750963594919407
0.3125573970622954 0.3644727548591186
0.2793102912646816 0.3912135345865998
0.2626867383658747 0.3644727548591186
0.19619252677064705 0.17728729676675067
0.2793102912646816 0.15054651703926952
0.2793102912646816 0.23076885622171295
0.2959338441634885 0.3109911954041564
0.2959338441634885 0.3912135345865998
0.2294396325682609 0.4179543143140809
0.19619252677064705 0.44469509404156204
0.21281607966945396 0.5249174332240055
0.2460631854670678 0.44469509404156204
0.3291809499611023 0.44469509404156204
0.3291809499611023 0.44469509404156204
0.3125573970622954 0.4179543143140809
0.2626867383658747 0.4714358737690432
0.2460631854670678 0.44469509404156204
0.3125573970622954 0.5249174332240055
0.3790516086575231 0.5783989926789678
0.3291809499611023 0.5249174332240055
0.2793102912646816 0.4179543143140809
0.2793102912646816 0.28425041567667525
0.2626867383658747 0.3912135345865998
0.3125573970622954 0.44469509404156204
0.3125573970622954 0.49817665349652435
0.2626867383658747 0.4179543143140809
0.2294396325682609 0.3109911954041564
0.21281607966945396 0.23076885622171295
0.14632186807422634 0.3377319751316375
0.19619252677064705 0.3644727548591186
0.2294396325682609 0.3912135345865998
0.2626867383658747 0.25750963594919407
0.2460631854670678 0.25750963594919407
0.17956897387184015 0.15054651703926952
0.16294542097303324 0.04358339812934497
0.21281607966945396 0.07032417785682611
0.2626867383658747 0.04358339812934497
0.2460631854670678 0.07032417785682611
0.21281607966945396 -0.03663894105309845
0.17956897387184015 0.016842618401863827
0.2460631854670678 0.04358339812934497
0.2460631854670678 0.12380573731178839
0.3125573970622954 0.15054651703926952
0.3291809499611023 0.09706495758430725
0.2626867383658747 0.07032417785682611
0.16294542097303324 0.016842618401863827
0.14632186807422634 0.2040280764942318
0.17956897387184015 0.23076885622171295
0.2460631854670678 0.3109911954041564
0.21281607966945396 0.23076885622171295
0.12969831517541944 0.12380573731178839
0.12969831517541944 0.12380573731178839
0.0798276564789987 0.2040280764942318
0.12969831517541944 0.3377319751316375
0.16294542097303324 0.44469509404156204
0.21281607966945396 0.3377319751316375
0.17956897387184015 0.25750963594919407
0.11307476227661252 0.2040280764942318
0.16294542097303324 0.28425041567667525
0.17956897387184015 0.3377319751316375
0.2294396325682609 0.44469509404156204
0.2294396325682609 0.3912135345865998
0.17956897387184015 0.3377319751316375
0.16294542097303324 0.23076885622171295
0.14632186807422634 0.3377319751316375
0.17956897387184015 0.3377319751316375
0.19619252677064705 0.28425041567667525
0.19619252677064705 0.15054651703926952
0.16294542097303324 0.04358339812934497
0.0798276564789987 0.016842618401863827
0.0798276564789987 0.07032417785682611
0.0964512093778056 0.12380573731178839
0.16294542097303324 0.2040280764942318
0.17956897387184015 0.17728729676675067
0.16294542097303324 0.07032417785682611
0.0798276564789987 0.016842618401863827
0.0798276564789987 0.17728729676675067
0.12969831517541944 0.2040280764942318
0.16294542097303324 0.3109911954041564
0.12969831517541944 0.2040280764942318
0.0964512093778056 0.12380573731178839
0.029956997782577974 0.17728729676675067
0.029956997782577974 0.3377319751316375
0.12969831517541944 0.3644727548591186
0.12969831517541944 0.25750963594919407
0.12969831517541944 0.15054651703926952
0.0798276564789987 0.07032417785682611
0.013333444883771065 0.15054651703926952
0.013333444883771065 0.23076885622171295
0.0632041035801918 0.3644727548591186
0.14632186807422634 0.44469509404156204
0.0632041035801918 0.4179543143140809
0.0798276564789987 0.4179543143140809
-0.0032901080150358445 0.3377319751316375
0.013333444883771065 0.3109911954041564
0.0798276564789987 0.4179543143140809
0.12969831517541944 0.3912135345865998
0.11307476227661252 0.3644727548591186
0.0632041035801918 0.3377319751316375
0.013333444883771065 0.3644727548591186
0.046580550681384884 0.4179543143140809
0.046580550681384884 0.5249174332240055
0.0798276564789987 0.6051397724064489
0.046580550681384884 0.6051397724064489
0.0632041035801918 0.6051397724064489
-0.03653721381264966 0.6586213318614111
-0.05316076671145657 0.6853621115888923
0.013333444883771065 0.7388436710438546
0.0798276564789987 0.5516582129514866
0.0964512093778056 0.3644727548591186
0.0632041035801918 0.23076885622171295
-0.019913660913842755 0.17728729676675067
-0.0032901080150358445 0.23076885622171295
0.046580550681384884 0.3109911954041564
0.11307476227661252 0.3644727548591186
0.11307476227661252 0.3644727548591186
0.0632041035801918 0.3377319751316375
0.013333444883771065 0.3109911954041564
-0.0032901080150358445 0.3109911954041564
0.013333444883771065 0.4179543143140809
0.11307476227661252 0.44469509404156204
0.11307476227661252 0.3644727548591186
0.0798276564789987 0.23076885622171295
-0.019913660913842755 0.15054651703926952
-0.06978431961026348 0.23076885622171295
0.013333444883771065 0.28425041567667525
0.046580550681384884 0.3377319751316375
0.029956997782577974 0.3377319751316375
0.013333444883771065 0.28425041567667525
-0.05316076671145657 0.23076885622171295
-0.05316076671145657 0.28425041567667525
-0.0032901080150358445 0.3109911954041564
0.046580550681384884 0.4179543143140809
0.013333444883771065 0.4179543143140809
0.029956997782577974 0.3644727548591186
-0.019913660913842755 0.28425041567667525
0.013333444883771065 0.3109911954041564
0.0798276564789987 0.44469509404156204
0.0632041035801918 0.49817665349652435
0.046580550681384884 0.3912135345865998
-0.03653721381264966 0.25750963594919407
-0.05316076671145657 0.17728729676675067
-0.0032901080150358445 0.23076885622171295
0.013333444883771065 0.3912135345865998
0.046580550681384884 0.3377319751316375
0.013333444883771065 0.28425041567667525
-0.019913660913842755 0.12380573731178839
-0.0032901080150358445 0.016842618401863827
-0.03653721381264966 0.17728729676675067
0.046580550681384884 0.2040280764942318
0.0632041035801918 0.3377319751316375
0.046580550681384884 0.3377319751316375
0.0632041035801918 0.28425041567667525
0.013333444883771065 0.23076885622171295
0.013333444883771065 0.3109911954041564
0.046580550681384884 0.3912135345865998
0.0632041035801918 0.44469509404156204
0.11307476227661252 0.44469509404156204
0.0632041035801918 0.4179543143140809
0.046580550681384884 0.3912135345865998
0.0632041035801918 0.3912135345865998
0.0798276564789987 0.3912135345865998
0.11307476227661252 0.4714358737690432
0.0964512093778056 0.4179543143140809
0.046580550681384884 0.3377319751316375
-0.0032901080150358445 0.25750963594919407
0.013333444883771065 0.4714358737690432
0.046580550681384884 0.5516582129514866
0.0964512093778056 0.5783989926789678
0.0964512093778056 0.4714358737690432
-0.0032901080150358445 0.3644727548591186
-0.019913660913842755 0.3109911954041564
-0.0032901080150358445 0.3377319751316375
0.013333444883771065 0.28425041567667525
0.013333444883771065 0.3377319751316375
-0.0032901080150358445 0.3109911954041564
-0.019913660913842755 0.3377319751316375
-0.0864078725090704 0.3912135345865998
-0.0032901080150358445 0.3109911954041564
0.029956997782577974 0.3377319751316375
0.0798276564789987 0.25750963594919407
0.0964512093778056 0.17728729676675067
0.046580550681384884 0.12380573731178839
0.029956997782577974 0.12380573731178839
0.046580550681384884 0.23076885622171295
0.0632041035801918 0.23076885622171295
0.14632186807422634 0.3109911954041564
0.14632186807422634 0.2040280764942318
0.0964512093778056 0.25750963594919407
0.0632041035801918 0.25750963594919407
-0.0032901080150358445 0.3912135345865998
0.013333444883771065 0.3109911954041564
0.12969831517541944 0.25750963594919407
0.14632186807422634 0.2040280764942318
0.0964512093778056 0.15054651703926952
0.0632041035801918 0.2040280764942318
0.0798276564789987 0.25750963594919407
0.12969831517541944 0.3377319751316375
0.16294542097303324 0.3377319751316375
0.14632186807422634 0.28425041567667525
0.14632186807422634 0.28425041567667525
0.0632041035801918 0.28425041567667525
0.013333444883771065 0.28425041567667525
0.0798276564789987 0.3912135345865998
0.12969831517541944 0.3912135345865998
0.11307476227661252 0.4179543143140809
0.0964512093778056 0.4179543143140809
0.0964512093778056 0.3377319751316375
0.0798276564789987 0.4179543143140809
0.16294542097303324 0.3912135345865998
0.2294396325682609 0.4714358737690432
0.2460631854670678 0.3377319751316375
0.2793102912646816 0.23076885622171295
0.4122987144551369 0.07032417785682611
0.5785342434432059 -0.06337972078057959
0.8611346427229234 -0.17034283969050415
1.1271114891038339 -0.17034283969050415
1.4429589941811651 -0.3842690775103533
1.825300710853724 -0.517972976147759
2.2408895333238967 -0.731899213967608
2.756219673186911 -0.9458254517874572
3.3380440246451526 -1.2667148085172308
3.919868376103395 -1.4271594868821178
4.485069174662829 -1.5341226057920423
4.867410891335388 -1.507381826064561
5.000399314525843 -1.1597516896073063
4.734422468144933 -0.6516768747851647
4.285586539877147 -0.33078751805539097
3.5707737652284495 -0.11686128023554188
2.7063490144904905 0.09706495758430725
1.8917949224489516 0.3912135345865998
1.0772408304074133 0.5249174332240055
0.39567516155633 0.819066010226298
-0.019913660913842755 0.9527699088637037
-0.1030314254078773 1.1132145872285906
-0.05316076671145657 1.006251468318666
0.0964512093778056 0.7655844507713357
0.14632186807422634 0.49817665349652435
0.16294542097303324 0.3644727548591186
0.21281607966945396 0.3644727548591186
0.19619252677064705 0.44469509404156204
0.14632186807422634 0.44469509404156204
0.029956997782577974 0.3377319751316375
-0.0032901080150358445 0.15054651703926952
-0.0864078725090704 0.2040280764942318
-0.1196549783066842 0.3109911954041564
-0.0864078725090704 0.4179543143140809
-0.06978431961026348 0.3912135345865998
-0.06978431961026348 0.28425041567667525
-0.152902084104298 0.28425041567667525
-0.21939629569952565 0.2040280764942318
-0.23601984859833255 0.25750963594919407
-0.20277274280071875 0.3644727548591186
-0.18614918990191184 0.25750963594919407
-0.21939629569952565 0.12380573731178839
-0.3025140601935602 0.15054651703926952
-0.3025140601935602 0.15054651703926952
-0.2858905072947533 0.28425041567667525
-0.23601984859833255 0.4179543143140809
-0.23601984859833255 0.4179543143140809
-0.2858905072947533 0.3644727548591186
-0.3025140601935602 0.25750963594919407
-0.3191376130923671 0.3377319751316375
-0.335761165991174 0.3912135345865998
-0.3191376130923671 0.3644727548591186
-0.2858905072947533 0.3644727548591186
-0.2858905072947533 0.3109911954041564
-0.335761165991174 0.3644727548591186
-0.3025140601935602 0.3644727548591186
-0.2692669543959464 0.3912135345865998
-0.3025140601935602 0.44469509404156204
-0.3856318246875947 0.3109911954041564
-0.3690082717887878 0.3109911954041564
-0.4022553775864017 0.23076885622171295
-0.4022553775864017 0.3377319751316375
-0.3523847188899809 0.3912135345865998
-0.3025140601935602 0.5516582129514866
-0.2858905072947533 0.49817665349652435
-0.3191376130923671 0.44469509404156204
-0.3856318246875947 0.28425041567667525
-0.3690082717887878 0.17728729676675067
-0.335761165991174 0.25750963594919407
-0.2858905072947533 0.25750963594919407
-0.2526434014971395 0.12380573731178839
-0.2858905072947533 0.07032417785682611
-0.2692669543959464 -0.03663894105309845
-0.2858905072947533 0.12380573731178839
-0.23601984859833255 0.2040280764942318
-0.21939629569952565 0.07032417785682611
-0.20277274280071875 -0.11686128023554188
-0.23601984859833255 -0.1970836194179853
-0.2526434014971395 -0.1970836194179853
-0.2526434014971395 -0.03663894105309845
-0.20277274280071875 0.04358339812934497
-0.152902084104298 0.12380573731178839
-0.1030314254078773 0.04358339812934497
-0.152902084104298 -0.009898161325617313
-0.18614918990191184 -0.09012050050806074
-0.20277274280071875 -0.06337972078057959
-0.1196549783066842 -0.03663894105309845
-0.06978431961026348 -0.06337972078057959
-0.05316076671145657 -0.17034283969050415
-0.1030314254078773 -0.22382439914546642
-0.1196549783066842 -0.25056517887294755
-0.06978431961026348 -0.11686128023554188
-0.03653721381264966 -0.009898161325617313
0.013333444883771065 0.016842618401863827
0.046580550681384884 -0.11686128023554188
-0.03653721381264966 -0.25056517887294755
-0.03653721381264966 -0.4110098572378344
-0.019913660913842755 -0.4644914166927967
-0.019913660913842755 -0.4912321964202778
0.029956997782577974 -0.517972976147759
0.013333444883771065 -0.517972976147759
-0.019913660913842755 -0.4912321964202778
-0.03653721381264966 -0.517972976147759
0.029956997782577974 -0.4644914166927967
0.046580550681384884 -0.4377506369653156
0.12969831517541944 -0.4377506369653156
0.0964512093778056 -0.4912321964202778
0.0964512093778056 -0.5714545356027213
-0.0032901080150358445 -0.5981953153302024
0.046580550681384884 -0.5447137558752401
0.029956997782577974 -0.4110098572378344
0.0632041035801918 -0.35752829778287215
0.16294542097303324 -0.5981953153302024
0.14632186807422634 -0.7051584342401269
0.12969831517541944 -0.731899213967608
0.21281607966945396 -0.6784176545126458
0.2294396325682609 -0.6249360950576835
0.2626867383658747 -0.5981953153302024
0.21281607966945396 -0.7051584342401269
0.19619252677064705 -0.7853807734225704
0.2294396325682609 -0.8388623328775326
0.2626867383658747 -0.7051584342401269
0.2959338441634885 -0.6516768747851647
0.3291809499611023 -0.5981953153302024
0.2793102912646816 -0.7051584342401269
0.3125573970622954 -0.7586399936950893
0.2793102912646816 -0.7051584342401269
0.3125573970622954 -0.6516768747851647
0.3125573970622954 -0.5714545356027213
0.3458045028599092 -0.4644914166927967
0.3291809499611023 -0.517972976147759
0.3291809499611023 -0.4644914166927967
0.2793102912646816 -0.3842690775103533
0.2626867383658747 -0.17034283969050415
0.2959338441634885 0.09706495758430725
0.3125573970622954 0.28425041567667525
0.2793102912646816 0.2040280764942318
0.17956897387184015 0.2040280764942318
0.11307476227661252 0.09706495758430725
0.0798276564789987 0.12380573731178839
0.0632041035801918 0.17728729676675067
0.11307476227661252 0.2040280764942318
0.0964512093778056 0.2040280764942318
0.046580550681384884 0.2040280764942318
-0.03653721381264966 0.23076885622171295
-0.019913660913842755 0.3644727548591186
-0.0032901080150358445 0.3377319751316375
-0.019913660913842755 0.44469509404156204
-0.0864078725090704 0.3912135345865998
-0.1030314254078773 0.44469509404156204
-0.152902084104298 0.49817665349652435
-0.1362785312054911 0.6051397724064489
-0.0864078725090704 0.6051397724064489
-0.03653721381264966 0.4179543143140809
-0.03653721381264966 0.25750963594919407
-0.03653721381264966 0.12380573731178839
-0.0864078725090704 0.17728729676675067
-0.1362785312054911 0.3109911954041564
-0.1362785312054911 0.4179543143140809
-0.06978431961026348 0.44469509404156204
-0.03653721381264966 0.44469509404156204
-0.0032901080150358445 0.4179543143140809
-0.0864078725090704 0.3377319751316375
-0.0864078725090704 0.3644727548591186
-0.019913660913842755 0.3109911954041564
0.046580550681384884 0.3377319751316375
-0.0032901080150358445 0.25750963594919407
-0.05316076671145657 0.23076885622171295
-0.05316076671145657 0.3109911954041564
-0.03653721381264966 0.3109911954041564
0.013333444883771065 0.25750963594919407
0.0798276564789987 0.3109911954041564
0.046580550681384884 0.23076885622171295
0.013333444883771065 0.15054651703926952
0.029956997782577974 0.07032417785682611
0.0632041035801918 0.04358339812934497
0.0632041035801918 0.09706495758430725
0.0964512093778056 0.07032417785682611
0.12969831517541944 -0.06337972078057959
0.0632041035801918 -0.22382439914546642
0.046580550681384884 -0.17034283969050415
0.0798276564789987 -0.009898161325617313
0.0964512093778056 0.17728729676675067
0.12969831517541944 0.25750963594919407
0.11307476227661252 0.17728729676675067
0.0964512093778056 0.15054651703926952
0.0798276564789987 -0.03663894105309845
0.0798276564789987 0.016842618401863827
0.0964512093778056 0.09706495758430725
0.14632186807422634 0.17728729676675067
0.14632186807422634 0.17728729676675067
0.11307476227661252 0.09706495758430725
0.0798276564789987 -0.03663894105309845
0.0632041035801918 0.04358339812934497
0.029956997782577974 0.12380573731178839
0.0964512093778056 0.28425041567667525
0.0964512093778056 0.23076885622171295
0.0632041035801918 0.23076885622171295
-0.0032901080150358445 0.3109911954041564
-0.05316076671145657 0.3109911954041564
-0.019913660913842755 0.3109911954041564
0.013333444883771065 0.3644727548591186
0.046580550681384884 0.3377319751316375
-0.0032901080150358445 0.23076885622171295
-0.0864078725090704 0.17728729676675067
-0.1196549783066842 0.23076885622171295
-0.06978431961026348 0.28425041567667525
-0.019913660913842755 0.4714358737690432
-0.019913660913842755 0.4179543143140809
-0.06978431961026348 0.3109911954041564
-0.03653721381264966 0.2040280764942318
-0.0864078725090704 0.2040280764942318
-0.1030314254078773 0.25750963594919407
0.029956997782577974 0.3377319751316375
-0.03653721381264966 0.28425041567667525
-0.1030314254078773 0.2040280764942318
-0.0864078725090704 0.12380573731178839
-0.1196549783066842 0.12380573731178839
-0.0864078725090704 0.25750963594919407
-0.05316076671145657 0.4179543143140809
-0.06978431961026348 0.44469509404156204
-0.1030314254078773 0.4179543143140809
-0.1196549783066842 0.4179543143140809
-0.0864078725090704 0.44469509404156204
-0.03653721381264966 0.3912135345865998
0.0798276564789987 0.3377319751316375
0.029956997782577974 0.17728729676675067
-0.0032901080150358445 0.12380573731178839
-0.019913660913842755 0.15054651703926952
-0.06978431961026348 0.17728729676675067
0.013333444883771065 0.3109911954041564
0.0632041035801918 0.3109911954041564
0.12969831517541944 0.3109911954041564
0.0798276564789987 0.25750963594919407
0.013333444883771065 0.3377319751316375
0.013333444883771065 0.4179543143140809
0.029956997782577974 0.4179543143140809
0.11307476227661252 0.3912135345865998
0.14632186807422634 0.4714358737690432
0.0964512093778056 0.4179543143140809
0.0798276564789987 0.3109911954041564
0.0964512093778056 0.3109911954041564
0.14632186807422634 0.3377319751316375
0.2460631854670678 0.3109911954041564
0.19619252677064705 0.25750963594919407
0.17956897387184015 0.2040280764942318
0.14632186807422634 0.23076885622171295
0.11307476227661252 0.2040280764942318
0.2294396325682609 0.2040280764942318
0.2793102912646816 0.17728729676675067
0.3458045028599092 0.2040280764942318
0.39567516155633 0.17728729676675067
0.5286635847467852 0.15054651703926952
0.6782755608360475 0.07032417785682611
0.9608759601157648 -0.11686128023554188
1.2933470180919031 -0.25056517887294755
1.7588064992584964 -0.4377506369653156
2.2741366391215108 -0.7853807734225704
2.8060903318833317 -1.0795293504248629
3.40453823624038 -1.293455588244712
4.086103905091464 -1.2667148085172308
4.667928256549706 -1.1330109098798251
5.01702286742465 -0.9458254517874572
4.9172815500318094 -0.5981953153302024
4.451822068865216 -0.2773059586004287
3.687138635520098 -0.143602059963023
2.8060903318833317 0.016842618401863827
1.9250420282465655 0.28425041567667525
0.9442524072169579 0.6853621115888923
0.046580550681384884 1.0597330277736283
-0.4521260362828224 1.380622384503402
-0.6183615652708915 1.5143262831408077
-0.4355024833840155 1.4608447236858453
-0.18614918990191184 1.2736592655934773
-0.1030314254078773 0.9795106885911848
-0.0864078725090704 0.6586213318614111
0.013333444883771065 0.49817665349652435
-0.06978431961026348 0.4179543143140809
-0.03653721381264966 0.3912135345865998
-0.05316076671145657 0.4179543143140809
-0.0864078725090704 0.3912135345865998
-0.1196549783066842 0.3109911954041564
-0.18614918990191184 0.3377319751316375
-0.16952563700310494 0.44469509404156204
-0.1362785312054911 0.5249174332240055
-0.1030314254078773 0.4714358737690432
-0.1030314254078773 0.3644727548591186
-0.16952563700310494 0.25750963594919407
-0.16952563700310494 0.2040280764942318
-0.20277274280071875 0.2040280764942318
-0.18614918990191184 0.28425041567667525
-0.1196549783066842 0.3912135345865998
-0.1362785312054911 0.4714358737690432
-0.18614918990191184 0.44469509404156204
-0.23601984859833255 0.3377319751316375
-0.20277274280071875 0.3109911954041564
-0.21939629569952565 0.3377319751316375
-0.1196549783066842 0.28425041567667525
-0.1196549783066842 0.2040280764942318
-0.16952563700310494 0.17728729676675067
-0.21939629569952565 0.17728729676675067
-0.2526434014971395 0.23076885622171295
-0.21939629569952565 0.3109911954041564
-0.152902084104298 0.3644727548591186
-0.20277274280071875 0.3644727548591186
-0.21939629569952565 0.3109911954041564
-0.20277274280071875 0.3109911954041564
-0.20277274280071875 0.28425041567667525
-0.18614918990191184 0.23076885622171295
-0.1362785312054911 0.17728729676675067
-0.16952563700310494 0.15054651703926952
-0.18614918990191184 0.07032417785682611
-0.21939629569952565 0.07032417785682611
-0.2526434014971395 0.12380573731178839
-0.21939629569952565 0.23076885622171295
-0.16952563700310494 0.3644727548591186
-0.20277274280071875 0.28425041567667525
-0.18614918990191184 0.04358339812934497
-0.2692669543959464 -0.06337972078057959
-0.2526434014971395 -0.009898161325617313
-0.20277274280071875 0.12380573731178839
-0.16952563700310494 0.12380573731178839
-0.152902084104298 0.15054651703926952
-0.21939629569952565 0.07032417785682611
-0.2526434014971395 0.12380573731178839
-0.2858905072947533 0.15054651703926952
-0.21939629569952565 0.2040280764942318
-0.18614918990191184 0.17728729676675067
-0.152902084104298 0.07032417785682611
-0.16952563700310494 -0.09012050050806074
-0.18614918990191184 -0.11686128023554188
-0.1196549783066842 -0.09012050050806074
-0.06978431961026348 -0.009898161325617313
-0.03653721381264966 -0.11686128023554188
0.013333444883771065 -0.25056517887294755
-0.0032901080150358445 -0.4377506369653156
-0.03653721381264966 -0.4644914166927967
-0.0032901080150358445 -0.33078751805539097
0.029956997782577974 -0.33078751805539097
0.19619252677064705 -0.30404673832790985
0.21281607966945396 -0.4377506369653156
0.19619252677064705 -0.517972976147759
0.2294396325682609 -0.5981953153302024
0.21281607966945396 -0.5447137558752401
0.3125573970622954 -0.5714545356027213
0.3458045028599092 -0.6516768747851647
0.3291809499611023 -0.7586399936950893
0.3458045028599092 -0.8388623328775326
0.3291809499611023 -0.8388623328775326
0.3125573970622954 -0.8121215531500515
0.36242805575871617 -0.731899213967608
0.4455458202527507 -0.6784176545126458
0.4455458202527507 -0.6784176545126458
0.4455458202527507 -0.7853807734225704
0.4122987144551369 -0.919084672059976
0.4621693731515576 -0.9458254517874572
0.4621693731515576 -0.9993070112424195
0.561910690544399 -0.919084672059976
0.561910690544399 -0.9993070112424195
0.4787929260503645 -1.0795293504248629
0.4455458202527507 -0.9725662315149384
0.4289222673539438 -0.8656031126050138
0.4621693731515576 -0.8923438923324949
0.5785342434432059 -0.9725662315149384
0.561910690544399 -1.0795293504248629
0.4787929260503645 -1.0260477909699006
0.4455458202527507 -0.9993070112424195
0.4455458202527507 -0.8923438923324949
0.4787929260503645 -0.8923438923324949
0.5286635847467852 -0.8388623328775326
0.5120400318479783 -0.8121215531500515
0.4289222673539438 -0.731899213967608
0.36242805575871617 -0.5981953153302024
0.2793102912646816 -0.4644914166927967
0.3458045028599092 -0.3842690775103533
0.36242805575871617 -0.3842690775103533
0.3291809499611023 -0.4377506369653156
0.2626867383658747 -0.4377506369653156
0.17956897387184015 -0.33078751805539097
0.12969831517541944 -0.143602059963023
0.14632186807422634 0.04358339812934497
0.17956897387184015 0.09706495758430725
0.21281607966945396 0.09706495758430725
0.14632186807422634 0.04358339812934497
0.0632041035801918 0.016842618401863827
0.046580550681384884 0.15054651703926952
0.046580550681384884 0.23076885622171295
0.0798276564789987 0.4179543143140809
0.0798276564789987 0.28425041567667525
0.013333444883771065 0.3377319751316375
-0.019913660913842755 0.3377319751316375
-0.03653721381264966 0.3912135345865998
0.013333444883771065 0.5249174332240055
0.046580550681384884 0.6051397724064489
0.046580550681384884 0.6853621115888923
-0.0032901080150358445 0.63188055213393
-0.0032901080150358445 0.6853621115888923
0.029956997782577974 0.6853621115888923
0.0632041035801918 0.6051397724064489
0.11307476227661252 0.4179543143140809
0.0964512093778056 0.2040280764942318
0.029956997782577974 0.09706495758430725
-0.0032901080150358445 0.12380573731178839
0.0632041035801918 0.2040280764942318
0.14632186807422634 0.3109911954041564
0.12969831517541944 0.3644727548591186
0.12969831517541944 0.3644727548591186
0.0964512093778056 0.28425041567667525
0.0632041035801918 0.3644727548591186
0.046580550681384884 0.3109911954041564
0.0632041035801918 0.25750963594919407
0.0964512093778056 0.28425041567667525
0.12969831517541944 0.23076885622171295
0.0632041035801918 0.15054651703926952
0.0964512093778056 0.09706495758430725
0.046580550681384884 0.15054651703926952
0.11307476227661252 0.25750963594919407
0.21281607966945396 0.25750963594919407
0.17956897387184015 0.17728729676675067
0.11307476227661252 0.12380573731178839
0.0632041035801918 0.04358339812934497
0.0632041035801918 0.23076885622171295
0.0798276564789987 0.3377319751316375
0.12969831517541944 0.3912135345865998
0.12969831517541944 0.4179543143140809
0.0798276564789987 0.3644727548591186
0.0798276564789987 0.3377319751316375
0.0798276564789987 0.23076885622171295
0.0798276564789987 0.15054651703926952
0.0964512093778056 0.12380573731178839
0.0632041035801918 0.04358339812934497
-0.05316076671145657 0.016842618401863827
-0.0864078725090704 0.09706495758430725
-0.05316076671145657 0.12380573731178839
0.013333444883771065 0.2040280764942318
0.0798276564789987 0.17728729676675067
0.046580550681384884 0.2040280764942318
-0.0032901080150358445 0.15054651703926952
-0.0032901080150358445 0.15054651703926952
-0.03653721381264966 0.25750963594919407
0.029956997782577974 0.3377319751316375
0.0632041035801918 0.4179543143140809
0.029956997782577974 0.3377319751316375
0.029956997782577974 0.3377319751316375
-0.0032901080150358445 0.28425041567667525
0.046580550681384884 0.3377319751316375
0.0798276564789987 0.3644727548591186
0.12969831517541944 0.3109911954041564
0.12969831517541944 0.28425041567667525
0.0798276564789987 0.23076885622171295
0.046580550681384884 0.2040280764942318
0.029956997782577974 0.2040280764942318
0.0964512093778056 0.2040280764942318
0.046580550681384884 0.28425041567667525
0.0632041035801918 0.23076885622171295
0.029956997782577974 0.17728729676675067
0.013333444883771065 0.15054651703926952
0.046580550681384884 0.25750963594919407
0.0964512093778056 0.3109911954041564
0.0798276564789987 0.3109911954041564
0.0798276564789987 0.28425041567667525
0.046580550681384884 0.23076885622171295
0.029956997782577974 0.3109911954041564
0.046580550681384884 0.3377319751316375
0.0964512093778056 0.4179543143140809
0.16294542097303324 0.3377319751316375
0.14632186807422634 0.23076885622171295
0.029956997782577974 0.12380573731178839
0.029956997782577974 0.15054651703926952
0.013333444883771065 0.3109911954041564
0.046580550681384884 0.3644727548591186
0.0964512093778056 0.3644727548591186
0.0964512093778056 0.25750963594919407
0.013333444883771065 0.12380573731178839
-0.06978431961026348 0.17728729676675067
-0.019913660913842755 0.3377319751316375
-0.019913660913842755 0.28425041567667525
0.046580550681384884 0.2040280764942318
0.046580550681384884 0.17728729676675067
0.013333444883771065 0.15054651703926952
-0.06978431961026348 0.25750963594919407
-0.0864078725090704 0.3644727548591186
-0.0864078725090704 0.44469509404156204
-0.019913660913842755 0.3912135345865998
-0.019913660913842755 0.25750963594919407
-0.05316076671145657 0.17728729676675067
-0.05316076671145657 0.15054651703926952
-0.03653721381264966 0.23076885622171295
-0.019913660913842755 0.28425041567667525
0.0632041035801918 0.3377319751316375
0.0798276564789987 0.25750963594919407
-0.019913660913842755 0.17728729676675067
-0.0864078725090704 0.12380573731178839
-0.0032901080150358445 0.17728729676675067
0.046580550681384884 0.3109911954041564
0.11307476227661252 0.4179543143140809
0.11307476227661252 0.3644727548591186
0.029956997782577974 0.23076885622171295
0.0632041035801918 0.17728729676675067
0.046580550681384884 0.28425041567667525
0.0964512093778056 0.3109911954041564
0.17956897387184015 0.3644727548591186
0.14632186807422634 0.25750963594919407
0.12969831517541944 0.12380573731178839
0.0964512093778056 0.07032417785682611
0.16294542097303324 0.12380573731178839
0.17956897387184015 0.28425041567667525
0.19619252677064705 0.3377319751316375
0.2294396325682609 0.17728729676675067
0.21281607966945396 0.12380573731178839
0.3125573970622954 0.04358339812934497
0.4455458202527507 0.09706495758430725
0.7281462195324682 0.17728729676675067
1.0107466188121856 0.12380573731178839
1.3598412296871307 -0.06337972078057959
1.659065181865655 -0.25056517887294755
2.1245246630322483 -0.4912321964202778
2.772843226085718 -0.8121215531500515
3.3879146833415734 -1.0795293504248629
3.9863625876986224 -1.4004187071546366
4.5349398333592505 -1.4004187071546366
5.000399314525843 -1.2399740287897498
5.116764184817492 -1.0260477909699006
4.933905102930616 -0.5714545356027213
4.401951410168795 -0.30404673832790985
3.637267976823677 -0.11686128023554188
2.6232312499964556 -0.009898161325617313
1.6258180760680412 0.28425041567667525
0.6948991137348544 0.7388436710438546
-0.019913660913842755 1.1399553669560718
-0.3856318246875947 1.407363164230883
-0.2692669543959464 1.3538816047759208
-0.152902084104298 1.220177706138515
0.013333444883771065 0.8725475696812603
0.11307476227661252 0.5249174332240055
0.14632186807422634 0.3109911954041564
0.17956897387184015 0.3109911954041564
0.12969831517541944 0.28425041567667525
0.046580550681384884 0.2040280764942318
-0.03653721381264966 0.12380573731178839
-0.05316076671145657 0.07032417785682611
-0.1030314254078773 0.09706495758430725
-0.1030314254078773 0.28425041567667525
-0.0864078725090704 0.23076885622171295
-0.1196549783066842 0.09706495758430725
-0.20277274280071875 0.15054651703926952
-0.21939629569952565 0.17728729676675067
-0.2526434014971395 0.3377319751316375
-0.21939629569952565 0.49817665349652435
-0.20277274280071875 0.4179543143140809
-0.20277274280071875 0.3644727548591186
-0.23601984859833255 0.2040280764942318
-0.2526434014971395 0.23076885622171295
-0.23601984859833255 0.25750963594919407
-0.152902084104298 0.25750963594919407
-0.1030314254078773 0.12380573731178839
-0.1030314254078773 0.04358339812934497
-0.152902084104298 0.07032417785682611
-0.20277274280071875 0.12380573731178839
-0.18614918990191184 0.17728729676675067
-0.152902084104298 0.2040280764942318
-0.1196549783066842 0.23076885622171295
-0.1196549783066842 0.25750963594919407
-0.16952563700310494 0.17728729676675067
-0.1362785312054911 0.17728729676675067
-0.16952563700310494 0.2040280764942318
-0.1362785312054911 0.3644727548591186
-0.1196549783066842 0.5783989926789678
-0.1196549783066842 0.6051397724064489
-0.16952563700310494 0.3912135345865998
-0.16952563700310494 0.25750963594919407
-0.152902084104298 0.28425041567667525
-0.16952563700310494 0.3912135345865998
-0.1362785312054911 0.3644727548591186
-0.1362785312054911 0.3109911954041564
-0.1196549783066842 0.2040280764942318
-0.1030314254078773 0.15054651703926952
-0.1030314254078773 0.28425041567667525
-0.06978431961026348 0.28425041567667525
-0.019913660913842755 0.09706495758430725
-0.019913660913842755 -0.03663894105309845
-0.1362785312054911 -0.06337972078057959
-0.152902084104298 -0.009898161325617313
-0.152902084104298 0.04358339812934497
-0.0864078725090704 0.12380573731178839
-0.03653721381264966 0.07032417785682611
-0.06978431961026348 -0.06337972078057959
-0.05316076671145657 -0.17034283969050415
-0.0864078725090704 -0.25056517887294755
-0.1030314254078773 -0.30404673832790985
-0.0864078725090704 -0.17034283969050415
0.029956997782577974 -0.11686128023554188
0.013333444883771065 -0.17034283969050415
0.013333444883771065 -0.22382439914546642
-0.019913660913842755 -0.33078751805539097
-0.0032901080150358445 -0.33078751805539097
0.029956997782577974 -0.22382439914546642
0.16294542097303324 -0.30404673832790985
0.19619252677064705 -0.4110098572378344
0.0964512093778056 -0.5981953153302024
0.0798276564789987 -0.6784176545126458
0.11307476227661252 -0.6784176545126458
0.17956897387184015 -0.6516768747851647
0.2460631854670678 -0.6784176545126458
0.2460631854670678 -0.731899213967608
0.21281607966945396 -0.7051584342401269
0.17956897387184015 -0.7051584342401269
0.2294396325682609 -0.7051584342401269
0.2793102912646816 -0.5714545356027213
0.3458045028599092 -0.5714545356027213
0.36242805575871617 -0.5714545356027213
0.3790516086575231 -0.7853807734225704
0.3125573970622954 -0.8388623328775326
0.3125573970622954 -0.7051584342401269
0.39567516155633 -0.6784176545126458
0.4621693731515576 -0.6516768747851647
0.4621693731515576 -0.7853807734225704
0.4621693731515576 -0.919084672059976
0.4455458202527507 -0.9725662315149384
0.4455458202527507 -0.8388623328775326
0.4621693731515576 -0.6249360950576835
0.5120400318479783 -0.4644914166927967
0.5120400318479783 -0.5981953153302024
0.5452871376455921 -0.7051584342401269
0.4954164789491714 -0.731899213967608
0.5286635847467852 -0.7051584342401269
0.6117813492408197 -0.6516768747851647
0.6284049021396266 -0.517972976147759
0.6117813492408197 -0.4377506369653156
0.561910690544399 -0.4644914166927967
0.4787929260503645 -0.4644914166927967
0.4122987144551369 -0.3842690775103533
0.4289222673539438 -0.25056517887294755
0.4787929260503645 -0.03663894105309845
0.4455458202527507 -0.06337972078057959
0.4122987144551369 -0.11686128023554188
0.2959338441634885 -0.11686128023554188
0.3291809499611023 0.09706495758430725
0.3291809499611023 0.15054651703926952
0.3291809499611023 0.07032417785682611
0.2626867383658747 -0.03663894105309845
0.17956897387184015 -0.06337972078057959
0.0964512093778056 -0.03663894105309845
0.11307476227661252 0.09706495758430725
0.16294542097303324 0.016842618401863827
0.17956897387184015 -0.09012050050806074
0.16294542097303324 -0.06337972078057959
0.0964512093778056 -0.009898161325617313
0.029956997782577974 0.17728729676675067
-0.0032901080150358445 0.25750963594919407
0.046580550681384884 0.25750963594919407
0.12969831517541944 0.23076885622171295
0.0964512093778056 0.25750963594919407
0.013333444883771065 0.28425041567667525
0.029956997782577974 0.25750963594919407
0.013333444883771065 0.28425041567667525
0.0964512093778056 0.25750963594919407
0.14632186807422634 0.28425041567667525
0.16294542097303324 0.25750963594919407
0.16294542097303324 0.23076885622171295
0.11307476227661252 0.23076885622171295
0.12969831517541944 0.3377319751316375
0.14632186807422634 0.4179543143140809
0.2294396325682609 0.4179543143140809
0.21281607966945396 0.44469509404156204
0.3125573970622954 0.3912135345865998
0.3125573970622954 0.23076885622171295
0.4122987144551369 0.12380573731178839
0.4621693731515576 0.09706495758430725
0.5286635847467852 0.09706495758430725
0.5785342434432059 0.12380573731178839
0.561910690544399 0.2040280764942318
0.6284049021396266 0.3912135345865998
0.6782755608360475 0.49817665349652435
0.7780168782288889 0.5249174332240055
0.8943817485205372 0.4714358737690432
1.09386438330622 0.3644727548591186
1.2434763593954823 0.09706495758430725
1.4263354412823583 -0.11686128023554188
1.659065181865655 -0.4912321964202778
1.9084184753477587 -0.8388623328775326
2.1577717688298623 -1.1864924693347874
2.4403721681095796 -1.694567284156929
2.6564783557940697 -2.068938200341665
2.8725845434785593 -2.443309116526401
3.105314284061856 -2.7909392529836556
3.40453823624038 -3.218791728623354
3.7536328471153255 -3.914052001537864
4.086103905091464 -4.52908993526993
4.3188336456747605 -5.063905529819553
4.551563386258057 -5.545239564914214
4.667928256549706 -5.812647362189025
4.701175362347319 -5.91961048109895
4.684551809448513 -5.91961048109895
4.584810492055671 -5.812647362189025
4.368704304371181 -5.812647362189025
4.219092328281919 -5.946351260826431
4.002986140597429 -5.973092040553912
3.7037621884189047 -5.973092040553912
3.3879146833415734 -5.839388141916506
2.9889494137702077 -5.7056842432791
2.506866379704807 -5.384794886549327
2.041406898538214 -5.010423970364591
1.6258180760680412 -4.475608375814968
1.3432176767883237 -4.021015120447788
1.2102292535978685 -3.780348102900458
1.0772408304074133 -3.6733849839905335
0.9442524072169579 -3.3524956272607596
0.9442524072169579 -3.004865490803505
0.9110053014193441 -2.6037537948912877
0.8611346427229234 -2.2293828787065517
0.9110053014193441 -1.9887158611592217
1.0772408304074133 -1.8282711827943348
1.2102292535978685 -1.6410857247019668
1.4097118883835513 -1.4539002666095988
1.659065181865655 -1.2667148085172308
1.841924263752531 -1.1597516896073063
1.5759474173716204 -0.919084672059976
0.9941230659133786 -0.6784176545126458
0.3125573970622954 -0.4644914166927967
-0.2692669543959464 -0.11686128023554188
-0.535243800776857 0.25750963594919407
-0.6183615652708915 0.63188055213393
-0.6516086710685053 0.9260291291362226
-0.701479329764926 1.1399553669560718
-0.7679735413601536 1.193436926411034
-0.9342090703482228 1.3271408250484398
-1.0173268348422573 1.4875855034133265
-1.0007032819434503 1.7015117412331757
-1.033950387741064 1.781734080415619
-1.0007032819434503 1.754993300688138
-1.100444599336292 1.6480301817782133
-1.1170681522350987 1.6747709615056945
-1.1669388109315195 1.781734080415619
-1.1835623638303263 1.942178758780506
-1.1503152580327125 1.9956603182354682
-1.2334330225267471 1.9956603182354682
-1.3165507870207815 2.022401097962949
-1.3830449986160092 2.0491418776904307
-1.3664214457172024 2.0491418776904307
-1.3165507870207815 2.1026234371453927
-1.3497978928183954 2.2630681155102796
-1.416292104413623 2.4235127938751666
-1.4827863160088508 2.4502535736026476
-1.4994098689076576 2.343290454692723
-1.5825276334016922 2.343290454692723
-1.5659040805028852 2.4769943533301286
-1.5160334218064646 2.557216692512572
-1.5659040805028852 2.6374390316950156
-1.6323982920981128 2.583957472240053
-1.7155160565921475 2.6374390316950156
-1.7155160565921475 2.7978837100599026
-1.6988925036933404 2.931587608697308
-1.6490218449969198 3.092032287062195
-1.6822689507945336 2.958328388424789
-1.798633821086182 2.931587608697308
-1.8651280326814097 3.0118099478797515
-1.8651280326814097 3.332699304609525
-1.8152573739849889 3.493143982974412
-1.7321396094909542 3.466403203246931
-1.6988925036933404 3.2257361856996005
-1.782010268187375 3.092032287062195
-1.782010268187375 3.145513846517157
-1.765386715288568 3.3594400843370065
-1.7487631623897613 3.6001071018843365
-1.7155160565921475 3.7605517802492234
-1.7155160565921475 3.7338110005217424
-1.6988925036933404 3.707070220794261
-1.7487631623897613 3.68032944106678
-1.6988925036933404 3.7605517802492234
-1.615774739199306 3.9209964586141104
-1.599151186300499 4.027959577524035
-1.5659040805028852 4.054700357251516
-1.5659040805028852 3.9209964586141104
-1.5825276334016922 3.9477372383415914
-1.5326569747052714 3.9744780180690724
-1.5825276334016922 4.081441136978997
-1.4827863160088508 4.188404255888922
-1.3497978928183954 4.108181916706478
-1.3664214457172024 4.054700357251516
-1.43291565731243 4.134922696433959
-1.2999272341219748 4.268626595071365
-1.2168094696279401 4.215145035616403
-1.100444599336292 4.134922696433959
-1.083821046437485 3.867514899159148
-1.033950387741064 3.68032944106678
-1.050573940639871 3.707070220794261
-0.9508326232470297 3.6001071018843365
-0.8344677529553812 3.6001071018843365
-0.7181028826637329 3.332699304609525
-0.6516086710685053 3.0652915073347136
-0.6516086710685053 2.8781060492423456
-0.6682322239673122 2.8513652695148646
-0.701479329764926 2.8781060492423456
-0.6349851181696984 2.904846828969827
-0.535243800776857 2.8513652695148646
-0.4853731420804362 2.6641798114224966
-0.4521260362828224 2.4502535736026476
-0.4521260362828224 2.2898088952377607
-0.4521260362828224 2.2363273357827986
-0.4022553775864017 2.2363273357827986
-0.3856318246875947 2.182845776327836
-0.3523847188899809 1.9154379790530247
-0.3690082717887878 1.5143262831408077
-0.4355024833840155 1.3271408250484398
-0.3856318246875947 1.2736592655934773
-0.3523847188899809 1.407363164230883
-0.23601984859833255 1.2469184858659963
-0.2526434014971395 1.032992248046147
-0.3191376130923671 0.7923252304988169
-0.3690082717887878 0.63188055213393
-0.335761165991174 0.63188055213393
-0.2692669543959464 0.5783989926789678
-0.2692669543959464 0.5249174332240055
-0.2858905072947533 0.4179543143140809
-0.2692669543959464 0.28425041567667525
-0.2858905072947533 0.3377319751316375
-0.23601984859833255 0.44469509404156204
-0.21939629569952565 0.5249174332240055
-0.152902084104298 0.5783989926789678
-0.20277274280071875 0.44469509404156204
-0.21939629569952565 0.28425041567667525
-0.2858905072947533 0.3377319751316375
-0.2692669543959464 0.3109911954041564
-0.23601984859833255 0.3912135345865998
-0.152902084104298 0.4179543143140809
-0.16952563700310494 0.4714358737690432
-0.18614918990191184 0.49817665349652435
-0.21939629569952565 0.4179543143140809
-0.23601984859833255 0.44469509404156204
-0.2526434014971395 0.5783989926789678
-0.21939629569952565 0.63188055213393
-0.20277274280071875 0.5249174332240055
-0.21939629569952565 0.3377319751316375
-0.23601984859833255 0.3109911954041564
-0.20277274280071875 0.3644727548591186
-0.20277274280071875 0.3912135345865998
-0.1030314254078773 0.3912135345865998
-0.06978431961026348 0.3912135345865998
-0.1362785312054911 0.3912135345865998
-0.18614918990191184 0.28425041567667525
-0.1362785312054911 0.28425041567667525
-0.1362785312054911 0.3109911954041564
-0.1362785312054911 0.3644727548591186
-0.1362785312054911 0.3377319751316375
-0.20277274280071875 0.2040280764942318
-0.23601984859833255 0.2040280764942318
-0.18614918990191184 0.2040280764942318
-0.152902084104298 0.25750963594919407
-0.1196549783066842 0.25750963594919407
-0.152902084104298 0.17728729676675067
-0.1362785312054911 0.12380573731178839
-0.23601984859833255 0.12380573731178839
-0.21939629569952565 0.23076885622171295
-0.18614918990191184 0.3109911954041564
-0.1030314254078773 0.25750963594919407
-0.152902084104298 0.25750963594919407
-0.21939629569952565 0.2040280764942318
-0.2692669543959464 0.25750963594919407
-0.2526434014971395 0.4179543143140809
-0.20277274280071875 0.4714358737690432
-0.152902084104298 0.23076885622171295
-0.1362785312054911 -0.03663894105309845
-0.21939629569952565 -0.17034283969050415
-0.21939629569952565 -0.009898161325617313
-0.18614918990191184 0.23076885622171295
-0.1196549783066842 0.3644727548591186
-0.03653721381264966 0.2040280764942318
-0.0864078725090704 0.07032417785682611
-0.1362785312054911 -0.009898161325617313
-0.23601984859833255 0.016842618401863827
-0.2692669543959464 0.23076885622171295
-0.20277274280071875 0.4179543143140809
-0.1196549783066842 0.3644727548591186
-0.152902084104298 0.2040280764942318
-0.152902084104298 0.2040280764942318
-0.23601984859833255 0.25750963594919407
-0.23601984859833255 0.4179543143140809
-0.16952563700310494 0.44469509404156204
-0.152902084104298 0.3644727548591186
-0.1196549783066842 0.3109911954041564
-0.16952563700310494 0.2040280764942318
-0.20277274280071875 0.28425041567667525
-0.152902084104298 0.3912135345865998
-0.1196549783066842 0.4714358737690432
-0.05316076671145657 0.49817665349652435
-0.0864078725090704 0.28425041567667525
-0.152902084104298 0.12380573731178839
-0.16952563700310494 0.09706495758430725
-0.16952563700310494 0.17728729676675067
-0.152902084104298 0.3377319751316375
-0.1362785312054911 0.44469509404156204
-0.1030314254078773 0.28425041567667525
-0.1030314254078773 0.09706495758430725
-0.18614918990191184 0.09706495758430725
-0.18614918990191184 0.09706495758430725
-0.21939629569952565 0.25750963594919407
-0.21939629569952565 0.3912135345865998
-0.1362785312054911 0.3644727548591186
-0.1362785312054911 0.15054651703926952
-0.18614918990191184 0.04358339812934497
-0.16952563700310494 0.016842618401863827
-0.152902084104298 0.17728729676675067
-0.152902084104298 0.3109911954041564
-0.16952563700310494 0.28425041567667525
-0.152902084104298 0.3109911954041564
-0.20277274280071875 0.17728729676675067
-0.20277274280071875 0.12380573731178839
-0.1362785312054911 0.07032417785682611
-0.152902084104298 0.15054651703926952
-0.16952563700310494 0.09706495758430725
-0.20277274280071875 0.04358339812934497
-0.18614918990191184 0.04358339812934497
-0.20277274280071875 0.12380573731178839
-0.16952563700310494 0.23076885622171295
-0.1030314254078773 0.3377319751316375
-0.1362785312054911 0.3644727548591186
-0.20277274280071875 0.28425041567667525
-0.2858905072947533 0.3109911954041564
-0.16952563700310494 0.3644727548591186
-0.1196549783066842 0.3644727548591186
-0.0864078725090704 0.28425041567667525
-0.18614918990191184 0.3377319751316375
-0.20277274280071875 0.3109911954041564
-0.16952563700310494 0.3912135345865998
-0.152902084104298 0.44469509404156204
-0.0864078725090704 0.4179543143140809
-0.019913660913842755 0.3377319751316375
-0.05316076671145657 0.23076885622171295
-0.0864078725090704 0.2040280764942318
-0.152902084104298 0.3109911954041564
-0.1196549783066842 0.3377319751316375
-0.05316076671145657 0.3377319751316375
-0.019913660913842755 0.25750963594919407
-0.05316076671145657 0.09706495758430725
-0.0864078725090704 -0.06337972078057959
-0.152902084104298 0.016842618401863827
-0.1030314254078773 0.09706495758430725
-0.06978431961026348 0.23076885622171295
0.013333444883771065 0.12380573731178839
0.029956997782577974 -0.03663894105309845
-0.03653721381264966 -0.09012050050806074
-0.1030314254078773 0.016842618401863827
-0.152902084104298 0.25750963594919407
-0.0864078725090704 0.3377319751316375
-0.03653721381264966 0.4179543143140809
-0.06978431961026348 0.23076885622171295
-0.1030314254078773 -0.06337972078057959
-0.1196549783066842 -0.11686128023554188
-0.1362785312054911 -0.06337972078057959
-0.0864078725090704 0.12380573731178839
-0.05316076671145657 0.2040280764942318
-0.1030314254078773 0.15054651703926952
-0.1196549783066842 0.09706495758430725
-0.20277274280071875 0.12380573731178839
-0.20277274280071875 0.17728729676675067
-0.16952563700310494 0.23076885622171295
-0.1196549783066842 0.15054651703926952
-0.06978431961026348 0.04358339812934497
-0.0864078725090704 -0.17034283969050415
-0.152902084104298 -0.11686128023554188
-0.152902084104298 -0.09012050050806074
-0.1362785312054911 0.09706495758430725
-0.03653721381264966 0.23076885622171295
-0.06978431961026348 0.25750963594919407
-0.1030314254078773 0.25750963594919407
-0.1030314254078773 0.2040280764942318
-0.1196549783066842 0.23076885622171295
-0.05316076671145657 0.23076885622171295
-0.0032901080150358445 0.23076885622171295
0.029956997782577974 0.2040280764942318
-0.019913660913842755 0.23076885622171295
-0.0032901080150358445 0.25750963594919407
0.0632041035801918 0.25750963594919407
0.16294542097303324 0.23076885622171295
0.3291809499611023 0.17728729676675067
0.4954164789491714 0.04358339812934497
0.7281462195324682 -0.1970836194179853
0.9442524072169579 -0.4377506369653156
1.4263354412823583 -0.4644914166927967
1.9582891340441795 -0.7051584342401269
2.573360591300035 -0.9725662315149384
3.2050556014546974 -1.3469371476996743
3.786879952912939 -1.6143449449744858
4.352080751472374 -1.507381826064561
4.717798915246126 -1.0795293504248629
4.850787338436581 -0.4377506369653156
4.501692727561636 -0.17034283969050415
3.653891529722484 -0.06337972078057959
2.6232312499964556 -0.09012050050806074
1.5925709702704274 0.15054651703926952
0.6450284550384336 0.5516582129514866
-0.0032901080150358445 0.8725475696812603
-0.335761165991174 0.9260291291362226
-0.3690082717887878 1.006251468318666
-0.23601984859833255 0.8992883494087415
-0.1196549783066842 0.7655844507713357
-0.0032901080150358445 0.6051397724064489
0.013333444883771065 0.3644727548591186
0.013333444883771065 0.04358339812934497
-0.1030314254078773 -0.03663894105309845
-0.2526434014971395 -0.009898161325617313
-0.335761165991174 0.17728729676675067
-0.335761165991174 0.17728729676675067
-0.335761165991174 0.15054651703926952
-0.335761165991174 0.12380573731178839
-0.3523847188899809 0.09706495758430725
-0.4188789304852086 0.07032417785682611
-0.4022553775864017 0.12380573731178839
-0.4687495891816293 0.09706495758430725
-0.4022553775864017 0.15054651703926952
-0.3523847188899809 0.04358339812934497
-0.4355024833840155 0.07032417785682611
-0.4521260362828224 0.04358339812934497
-0.4521260362828224 0.09706495758430725
-0.4355024833840155 0.15054651703926952
-0.4355024833840155 0.25750963594919407
-0.3690082717887878 0.2040280764942318
-0.335761165991174 0.15054651703926952
-0.3856318246875947 0.016842618401863827
-0.4022553775864017 -0.009898161325617313
-0.4022553775864017 0.17728729676675067
-0.4022553775864017 0.23076885622171295
-0.3191376130923671 0.28425041567667525
-0.335761165991174 0.23076885622171295
-0.4188789304852086 0.2040280764942318
-0.4022553775864017 0.17728729676675067
-0.3690082717887878 0.17728729676675067
-0.3025140601935602 0.25750963594919407
-0.3191376130923671 0.3644727548591186
-0.3025140601935602 0.3109911954041564
-0.335761165991174 0.23076885622171295
-0.3523847188899809 0.17728729676675067
-0.3191376130923671 0.17728729676675067
-0.2858905072947533 0.15054651703926952
-0.2526434014971395 0.15054651703926952
-0.3025140601935602 0.12380573731178839
-0.2858905072947533 0.04358339812934497
-0.3191376130923671 0.07032417785682611
-0.3191376130923671 0.15054651703926952
-0.2858905072947533 0.2040280764942318
-0.23601984859833255 0.15054651703926952
-0.3025140601935602 0.23076885622171295
-0.335761165991174 0.15054651703926952
-0.335761165991174 0.12380573731178839
-0.3191376130923671 0.09706495758430725
-0.3191376130923671 0.07032417785682611
-0.2526434014971395 0.04358339812934497
-0.2526434014971395 -0.009898161325617313
-0.2858905072947533 -0.009898161325617313
-0.3191376130923671 -0.03663894105309845
-0.3191376130923671 -0.009898161325617313
-0.2692669543959464 -0.06337972078057959
-0.21939629569952565 -0.22382439914546642
-0.20277274280071875 -0.35752829778287215
-0.21939629569952565 -0.5714545356027213
-0.23601984859833255 -0.5981953153302024
-0.21939629569952565 -0.4912321964202778
-0.20277274280071875 -0.4110098572378344
-0.1362785312054911 -0.30404673832790985
-0.1196549783066842 -0.35752829778287215
-0.1362785312054911 -0.517972976147759
-0.16952563700310494 -0.5447137558752401
-0.06978431961026348 -0.4912321964202778
-0.0032901080150358445 -0.5714545356027213
0.046580550681384884 -0.7051584342401269
0.0964512093778056 -0.8388623328775326
0.029956997782577974 -0.919084672059976
0.046580550681384884 -0.8388623328775326
0.0964512093778056 -0.7586399936950893
0.14632186807422634 -0.731899213967608
0.21281607966945396 -0.7051584342401269
0.2294396325682609 -0.7853807734225704
0.21281607966945396 -0.8121215531500515
0.2294396325682609 -0.919084672059976
0.2959338441634885 -0.9725662315149384
0.3291809499611023 -0.8121215531500515
0.39567516155633 -0.8388623328775326
0.4122987144551369 -0.8121215531500515
0.4455458202527507 -0.9458254517874572
0.4455458202527507 -1.0260477909699006
0.4787929260503645 -0.9725662315149384
0.561910690544399 -0.8656031126050138
0.6117813492408197 -0.8388623328775326
0.6117813492408197 -0.8656031126050138
0.5951577963420128 -0.919084672059976
0.5951577963420128 -0.919084672059976
0.561910690544399 -0.7853807734225704
0.5951577963420128 -0.731899213967608
0.5951577963420128 -0.7586399936950893
0.5452871376455921 -0.7051584342401269
0.4954164789491714 -0.6784176545126458
0.4455458202527507 -0.6249360950576835
0.4954164789491714 -0.4110098572378344
0.4787929260503645 -0.3842690775103533
0.4787929260503645 -0.4377506369653156
0.4122987144551369 -0.4644914166927967
0.3291809499611023 -0.4912321964202778
0.21281607966945396 -0.5447137558752401
0.21281607966945396 -0.4912321964202778
0.12969831517541944 -0.4377506369653156
0.16294542097303324 -0.4377506369653156
0.19619252677064705 -0.33078751805539097
0.16294542097303324 -0.22382439914546642
0.0964512093778056 -0.11686128023554188
0.11307476227661252 -0.009898161325617313
0.0964512093778056 -0.06337972078057959
0.12969831517541944 -0.11686128023554188
0.0632041035801918 -0.11686128023554188
-0.019913660913842755 -0.143602059963023
-0.0032901080150358445 -0.09012050050806074
0.029956997782577974 -0.009898161325617313
0.0964512093778056 0.04358339812934497
0.11307476227661252 0.12380573731178839
0.0964512093778056 0.09706495758430725
0.046580550681384884 0.12380573731178839
0.013333444883771065 0.23076885622171295
-0.019913660913842755 0.3644727548591186
0.013333444883771065 0.5249174332240055
0.046580550681384884 0.4714358737690432
0.11307476227661252 0.25750963594919407
0.0798276564789987 0.016842618401863827
0.0798276564789987 -0.03663894105309845
0.0632041035801918 -0.09012050050806074
0.11307476227661252 0.07032417785682611
0.16294542097303324 0.12380573731178839
0.16294542097303324 0.12380573731178839
0.11307476227661252 0.2040280764942318
0.0798276564789987 0.23076885622171295
0.0964512093778056 0.28425041567667525
0.12969831517541944 0.25750963594919407
0.17956897387184015 0.12380573731178839
0.16294542097303324 0.12380573731178839
0.12969831517541944 0.04358339812934497
0.0964512093778056 0.04358339812934497
0.0798276564789987 -0.03663894105309845
0.11307476227661252 -0.03663894105309845
0.14632186807422634 -0.009898161325617313
0.11307476227661252 -0.009898161325617313
0.0632041035801918 -0.06337972078057959
0.013333444883771065 -0.143602059963023
0.013333444883771065 -0.11686128023554188
0.0798276564789987 0.04358339812934497
0.0798276564789987 -0.009898161325617313
0.0632041035801918 -0.11686128023554188
-0.03653721381264966 -0.22382439914546642
-0.0864078725090704 -0.22382439914546642
-0.03653721381264966 -0.09012050050806074
0.013333444883771065 -0.009898161325617313
0.013333444883771065 -0.06337972078057959
-0.05316076671145657 -0.1970836194179853
-0.03653721381264966 -0.17034283969050415
-0.1030314254078773 -0.1970836194179853
-0.06978431961026348 -0.1970836194179853
-0.03653721381264966 -0.11686128023554188
-0.05316076671145657 -0.22382439914546642
-0.019913660913842755 -0.2773059586004287
-0.0864078725090704 -0.22382439914546642
-0.0864078725090704 -0.17034283969050415
-0.05316076671145657 0.07032417785682611
-0.03653721381264966 0.15054651703926952
0.046580550681384884 0.12380573731178839
0.046580550681384884 -0.25056517887294755
0.029956997782577974 -0.4377506369653156
-0.05316076671145657 -0.4110098572378344
-0.0864078725090704 -0.2773059586004287
-0.019913660913842755 -0.09012050050806074
-0.0032901080150358445 -0.03663894105309845
0.013333444883771065 -0.009898161325617313
0.013333444883771065 -0.143602059963023
-0.019913660913842755 -0.17034283969050415
-0.019913660913842755 -0.009898161325617313
0.029956997782577974 0.2040280764942318
0.029956997782577974 0.17728729676675067
0.0632041035801918 0.04358339812934497
-0.019913660913842755 -0.06337972078057959
-0.0864078725090704 -0.03663894105309845
-0.05316076671145657 0.016842618401863827
0.013333444883771065 0.15054651703926952
0.029956997782577974 0.23076885622171295
0.029956997782577974 0.23076885622171295
0.046580550681384884 0.12380573731178839
-0.019913660913842755 -0.03663894105309845
0.029956997782577974 0.016842618401863827
0.0632041035801918 0.04358339812934497
0.046580550681384884 0.17728729676675067
0.0798276564789987 0.2040280764942318
0.0632041035801918 0.09706495758430725
0.013333444883771065 0.016842618401863827
0.029956997782577974 0.04358339812934497
0.17956897387184015 0.07032417785682611
0.3291809499611023 0.04358339812934497
0.4787929260503645 -0.17034283969050415
0.6616520079372405 -0.33078751805539097
0.8943817485205372 -0.4912321964202778
1.2268528064966755 -0.4912321964202778
1.675688734764462 -0.5714545356027213
2.2408895333238967 -0.8923438923324949
2.772843226085718 -1.1330109098798251
3.3380440246451526 -1.4004187071546366
3.9364919290022016 -1.2399740287897498
4.418574963067602 -0.9725662315149384
4.651304703650899 -0.4377506369653156
4.518316280460443 0.04358339812934497
3.969739034799815 0.15054651703926952
3.0886907311630494 0.09706495758430725
2.1079011101334415 0.2040280764942318
1.2268528064966755 0.7121028913163735
0.5120400318479783 1.1132145872285906
0.013333444883771065 1.1132145872285906
-0.18614918990191184 1.006251468318666
-0.23601984859833255 0.7121028913163735
-0.1030314254078773 0.44469509404156204
0.013333444883771065 0.3377319751316375
0.0632041035801918 0.23076885622171295
0.0798276564789987 0.17728729676675067
0.013333444883771065 0.07032417785682611
-0.1196549783066842 -0.009898161325617313
-0.2526434014971395 -0.009898161325617313
-0.20277274280071875 0.016842618401863827
-0.18614918990191184 0.04358339812934497
-0.21939629569952565 0.09706495758430725
-0.21939629569952565 0.016842618401863827
-0.3191376130923671 -0.11686128023554188
-0.3191376130923671 -0.1970836194179853
-0.335761165991174 -0.009898161325617313
-0.3025140601935602 0.016842618401863827
-0.2692669543959464 -0.06337972078057959
-0.2858905072947533 -0.06337972078057959
-0.3856318246875947 -0.06337972078057959
-0.4355024833840155 -0.009898161325617313
-0.4355024833840155 -0.009898161325617313
-0.4022553775864017 -0.03663894105309845
-0.4188789304852086 -0.06337972078057959
-0.3856318246875947 0.016842618401863827
-0.4521260362828224 0.09706495758430725
-0.4355024833840155 0.23076885622171295
-0.3856318246875947 0.25750963594919407
-0.3690082717887878 0.28425041567667525
-0.2692669543959464 0.28425041567667525
-0.2858905072947533 0.2040280764942318
-0.4188789304852086 0.04358339812934497
-0.3856318246875947 0.016842618401863827
-0.4188789304852086 0.17728729676675067
-0.3856318246875947 0.2040280764942318
-0.335761165991174 0.17728729676675067
-0.335761165991174 0.07032417785682611
-0.3523847188899809 -0.09012050050806074
-0.4687495891816293 -0.143602059963023
-0.4355024833840155 -0.06337972078057959
-0.3690082717887878 0.016842618401863827
-0.335761165991174 0.016842618401863827
-0.4022553775864017 0.07032417785682611
-0.4687495891816293 -0.06337972078057959
-0.5186202478780501 -0.17034283969050415
-0.4853731420804362 -0.143602059963023
-0.4355024833840155 -0.06337972078057959
-0.3856318246875947 -0.143602059963023
-0.4188789304852086 -0.17034283969050415
-0.4188789304852086 -0.143602059963023
-0.4355024833840155 -0.17034283969050415
-0.4521260362828224 -0.2773059586004287
-0.4022553775864017 -0.25056517887294755
-0.335761165991174 -0.22382439914546642
-0.335761165991174 -0.25056517887294755
-0.3690082717887878 -0.4644914166927967
-0.3690082717887878 -0.4912321964202778
-0.3191376130923671 -0.4912321964202778
-0.2692669543959464 -0.33078751805539097
-0.23601984859833255 -0.4110098572378344
-0.23601984859833255 -0.4644914166927967
-0.20277274280071875 -0.5714545356027213
-0.21939629569952565 -0.6249360950576835
-0.21939629569952565 -0.5447137558752401
-0.18614918990191184 -0.5981953153302024
-0.1362785312054911 -0.5981953153302024
-0.18614918990191184 -0.5447137558752401
-0.18614918990191184 -0.6516768747851647
-0.152902084104298 -0.7586399936950893
-0.1030314254078773 -0.7586399936950893
-0.05316076671145657 -0.8121215531500515
-0.0032901080150358445 -0.8121215531500515
-0.03653721381264966 -0.919084672059976
-0.03653721381264966 -0.9458254517874572
-0.0864078725090704 -0.9458254517874572
-0.03653721381264966 -0.8121215531500515
0.013333444883771065 -0.7051584342401269
0.013333444883771065 -0.7051584342401269
-0.0032901080150358445 -0.6784176545126458
-0.03653721381264966 -0.6784176545126458
-0.1030314254078773 -0.731899213967608
-0.019913660913842755 -0.8656031126050138
0.013333444883771065 -0.9725662315149384
0.046580550681384884 -0.9725662315149384
0.013333444883771065 -1.0260477909699006
-0.0032901080150358445 -1.106270130152344
-0.0032901080150358445 -1.1597516896073063
-0.019913660913842755 -1.0795293504248629
0.046580550681384884 -1.0795293504248629
0.0798276564789987 -1.0260477909699006
0.12969831517541944 -1.106270130152344
0.0632041035801918 -1.2132332490622686
-0.0032901080150358445 -1.0795293504248629
0.013333444883771065 -0.8923438923324949
0.0798276564789987 -0.6516768747851647
0.11307476227661252 -0.5981953153302024
0.0964512093778056 -0.6516768747851647
0.029956997782577974 -0.7051584342401269
-0.0032901080150358445 -0.6249360950576835
-0.019913660913842755 -0.4377506369653156
0.013333444883771065 -0.33078751805539097
0.013333444883771065 -0.33078751805539097
-0.019913660913842755 -0.35752829778287215
-0.1196549783066842 -0.4912321964202778
-0.1030314254078773 -0.4644914166927967
-0.1362785312054911 -0.35752829778287215
-0.1030314254078773 -0.09012050050806074
-0.019913660913842755 -0.03663894105309845
-0.05316076671145657 -0.009898161325617313
-0.1362785312054911 -0.03663894105309845
-0.152902084104298 0.04358339812934497
-0.16952563700310494 0.07032417785682611
-0.1196549783066842 0.15054651703926952
-0.05316076671145657 0.17728729676675067
-0.152902084104298 0.17728729676675067
-0.16952563700310494 0.15054651703926952
-0.152902084104298 0.23076885622171295
-0.1030314254078773 0.3109911954041564
-0.0864078725090704 0.3377319751316375
-0.0864078725090704 0.3109911954041564
-0.1030314254078773 0.17728729676675067
-0.1196549783066842 0.09706495758430725
-0.152902084104298 0.09706495758430725
-0.1362785312054911 0.15054651703926952
-0.1196549783066842 0.2040280764942318
-0.06978431961026348 0.23076885622171295
-0.1030314254078773 0.17728729676675067
-0.152902084104298 0.2040280764942318
-0.18614918990191184 0.28425041567667525
-0.152902084104298 0.3644727548591186
-0.1362785312054911 0.3377319751316375
-0.0864078725090704 0.2040280764942318
-0.0864078725090704 0.09706495758430725
-0.1030314254078773 -0.009898161325617313
-0.1196549783066842 0.04358339812934497
-0.1030314254078773 0.2040280764942318
-0.05316076671145657 0.3644727548591186
0.013333444883771065 0.25750963594919407
-0.05316076671145657 0.12380573731178839
-0.1362785312054911 0.016842618401863827
-0.152902084104298 -0.09012050050806074
-0.1030314254078773 -0.06337972078057959
-0.1030314254078773 -0.009898161325617313
-0.06978431961026348 0.04358339812934497
-0.0864078725090704 0.15054651703926952
-0.1196549783066842 0.15054651703926952
-0.152902084104298 0.09706495758430725
-0.152902084104298 0.09706495758430725
-0.1030314254078773 0.09706495758430725
-0.0864078725090704 0.12380573731178839
-0.1196549783066842 0.016842618401863827
-0.152902084104298 0.07032417785682611
-0.20277274280071875 0.12380573731178839
-0.20277274280071875 0.23076885622171295
-0.152902084104298 0.28425041567667525
-0.1196549783066842 0.15054651703926952
-0.0864078725090704 0.17728729676675067
-0.1362785312054911 0.09706495758430725
-0.18614918990191184 0.09706495758430725
-0.16952563700310494 0.04358339812934497
-0.152902084104298 0.016842618401863827
-0.1196549783066842 0.04358339812934497
-0.152902084104298 0.04358339812934497
-0.18614918990191184 0.09706495758430725
-0.2692669543959464 0.12380573731178839
-0.20277274280071875 0.25750963594919407
-0.16952563700310494 0.2040280764942318
-0.1196549783066842 0.12380573731178839
-0.1030314254078773 0.15054651703926952
-0.16952563700310494 0.12380573731178839
-0.21939629569952565 0.17728729676675067
-0.23601984859833255 0.15054651703926952
-0.20277274280071875 0.23076885622171295
-0.152902084104298 0.12380573731178839
-0.1362785312054911 0.07032417785682611
-0.16952563700310494 -0.009898161325617313
-0.23601984859833255 0.04358339812934497
-0.20277274280071875 0.15054651703926952
-0.18614918990191184 0.23076885622171295
-0.16952563700310494 0.28425041567667525
-0.152902084104298 0.23076885622171295
-0.20277274280071875 0.15054651703926952
-0.21939629569952565 0.17728729676675067
-0.20277274280071875 0.28425041567667525
-0.18614918990191184 0.3377319751316375
-0.16952563700310494 0.28425041567667525
-0.20277274280071875 0.28425041567667525
-0.20277274280071875 0.09706495758430725
-0.2526434014971395 0.12380573731178839
-0.20277274280071875 0.15054651703926952
-0.16952563700310494 0.2040280764942318
-0.0864078725090704 0.2040280764942318
-0.05316076671145657 0.15054651703926952
-0.06978431961026348 0.04358339812934497
-0.1030314254078773 0.07032417785682611
-0.1030314254078773 0.12380573731178839
-0.05316076671145657 0.23076885622171295
-0.05316076671145657 0.17728729676675067
-0.03653721381264966 0.2040280764942318
-0.0864078725090704 0.04358339812934497
-0.0864078725090704 0.07032417785682611
-0.152902084104298 0.17728729676675067
-0.05316076671145657 0.3377319751316375
-0.0032901080150358445 0.25750963594919407
-0.0032901080150358445 0.23076885622171295
-0.03653721381264966 0.15054651703926952
-0.06978431961026348 0.09706495758430725
-0.05316076671145657 0.07032417785682611
-0.05316076671145657 0.17728729676675067
0.029956997782577974 0.25750963594919407
-0.05316076671145657 0.25750963594919407
-0.0864078725090704 0.17728729676675067
-0.1196549783066842 0.23076885622171295
-0.0864078725090704 0.28425041567667525
-0.05316076671145657 0.3377319751316375
0.013333444883771065 0.28425041567667525
-0.019913660913842755 0.28425041567667525
-0.06978431961026348 0.28425041567667525
-0.06978431961026348 0.4179543143140809
-0.019913660913842755 0.44469509404156204
0.029956997782577974 0.3644727548591186
0.0798276564789987 0.15054651703926952
0.12969831517541944 -0.09012050050806074
-0.0032901080150358445 -0.2773059586004287
-0.019913660913842755 -0.2773059586004287
0.029956997782577974 -0.22382439914546642
0.16294542097303324 -0.22382439914546642
0.2959338441634885 -0.2773059586004287
0.4621693731515576 -0.2773059586004287
0.6450284550384336 -0.33078751805539097
0.8777581956217303 -0.3842690775103533
1.276723465193096 -0.3842690775103533
1.7255593934608826 -0.4912321964202778
2.22426598042509 -0.8656031126050138
2.6564783557940697 -1.1597516896073063
3.1385613898594698 -1.48064104633708
3.7037621884189047 -1.5876041652470045
4.119351010889077 -1.5876041652470045
4.418574963067602 -1.320196367972193
4.385327857269988 -0.9725662315149384
3.8866212703057808 -0.6249360950576835
3.1385613898594698 -0.5714545356027213
2.174395321728669 -0.30404673832790985
1.2600999122942893 0.17728729676675067
0.5120400318479783 0.8725475696812603
-0.05316076671145657 1.2736592655934773
-0.3191376130923671 1.4875855034133265
-0.335761165991174 1.3538816047759208
-0.21939629569952565 1.0864738075011093
-0.05316076671145657 0.7388436710438546
0.0798276564789987 0.3377319751316375
0.11307476227661252 0.17728729676675067
0.0632041035801918 0.016842618401863827
-0.05316076671145657 -0.009898161325617313
-0.1196549783066842 0.04358339812934497
-0.152902084104298 0.09706495758430725
-0.152902084104298 0.17728729676675067
-0.16952563700310494 0.17728729676675067
-0.16952563700310494 0.12380573731178839
-0.23601984859833255 0.09706495758430725
-0.3523847188899809 0.25750963594919407
-0.3025140601935602 0.3377319751316375
-0.2692669543959464 0.4179543143140809
-0.23601984859833255 0.44469509404156204
-0.3191376130923671 0.28425041567667525
-0.3523847188899809 0.2040280764942318
-0.4188789304852086 0.15054651703926952
-0.3690082717887878 0.2040280764942318
-0.3856318246875947 0.3109911954041564
-0.335761165991174 0.3644727548591186
-0.4022553775864017 0.3377319751316375
-0.3191376130923671 0.2040280764942318
-0.3856318246875947 0.17728729676675067
-0.4355024833840155 0.3377319751316375
-0.3856318246875947 0.44469509404156204
-0.3856318246875947 0.3912135345865998
-0.3523847188899809 0.28425041567667525
-0.3856318246875947 0.15054651703926952
-0.3856318246875947 0.28425041567667525
-0.3856318246875947 0.4179543143140809
-0.3523847188899809 0.3644727548591186
-0.3191376130923671 0.25750963594919407
-0.3523847188899809 0.07032417785682611
-0.4022553775864017 -0.009898161325617313
-0.3856318246875947 -0.11686128023554188
-0.3690082717887878 -0.06337972078057959
-0.2692669543959464 0.04358339812934497
-0.2858905072947533 0.07032417785682611
-0.2526434014971395 0.016842618401863827
-0.3025140601935602 -0.22382439914546642
-0.3025140601935602 -0.33078751805539097
-0.335761165991174 -0.22382439914546642
-0.2526434014971395 -0.06337972078057959
-0.23601984859833255 -0.03663894105309845
-0.23601984859833255 0.016842618401863827
-0.2526434014971395 -0.009898161325617313
-0.3025140601935602 0.04358339812934497
-0.23601984859833255 0.04358339812934497
-0.20277274280071875 0.09706495758430725
-0.152902084104298 0.04358339812934497
-0.20277274280071875 -0.09012050050806074
-0.16952563700310494 -0.11686128023554188
-0.18614918990191184 -0.09012050050806074
-0.1362785312054911 -0.03663894105309845
-0.03653721381264966 -0.09012050050806074
0.046580550681384884 -0.2773059586004287
0.046580550681384884 -0.35752829778287215
-0.019913660913842755 -0.3842690775103533
-0.03653721381264966 -0.33078751805539097
-0.019913660913842755 -0.25056517887294755
-0.019913660913842755 -0.17034283969050415
0.029956997782577974 -0.1970836194179853
0.0964512093778056 -0.35752829778287215
0.0798276564789987 -0.5714545356027213
0.0632041035801918 -0.5981953153302024
0.0632041035801918 -0.5447137558752401
0.11307476227661252 -0.517972976147759
0.16294542097303324 -0.517972976147759
0.12969831517541944 -0.5714545356027213
0.0632041035801918 -0.731899213967608
0.0964512093778056 -0.7853807734225704
0.0964512093778056 -0.7586399936950893
0.12969831517541944 -0.7051584342401269
0.16294542097303324 -0.7586399936950893
0.12969831517541944 -0.7586399936950893
0.0964512093778056 -0.7586399936950893
0.11307476227661252 -0.7853807734225704
0.12969831517541944 -0.7853807734225704
0.21281607966945396 -0.7586399936950893
0.2793102912646816 -0.7586399936950893
0.2294396325682609 -0.8121215531500515
0.2460631854670678 -0.9725662315149384
0.16294542097303324 -0.9993070112424195
0.21281607966945396 -0.8656031126050138
0.2626867383658747 -0.731899213967608
0.2793102912646816 -0.7586399936950893
0.2959338441634885 -0.9993070112424195
0.3291809499611023 -1.1597516896073063
0.3458045028599092 -1.0527885706973819
0.3458045028599092 -0.9458254517874572
0.4122987144551369 -0.7853807734225704
0.4122987144551369 -0.6516768747851647
0.39567516155633 -0.5714545356027213
0.3790516086575231 -0.5981953153302024
0.3458045028599092 -0.6249360950576835
0.3125573970622954 -0.5714545356027213
0.3291809499611023 -0.35752829778287215
0.39567516155633 -0.33078751805539097
0.3458045028599092 -0.1970836194179853
0.3125573970622954 -0.143602059963023
0.2793102912646816 -0.06337972078057959
0.2626867383658747 0.016842618401863827
0.2626867383658747 0.09706495758430725
0.2460631854670678 0.07032417785682611
0.19619252677064705 0.04358339812934497
0.16294542097303324 -0.03663894105309845
0.0964512093778056 -0.009898161325617313
0.0798276564789987 0.12380573731178839
0.14632186807422634 0.2040280764942318
0.19619252677064705 0.23076885622171295
0.14632186807422634 0.17728729676675067
0.0798276564789987 0.17728729676675067
0.013333444883771065 0.23076885622171295
-0.0032901080150358445 0.4179543143140809
0.029956997782577974 0.28425041567667525
0.11307476227661252 0.12380573731178839
0.11307476227661252 0.12380573731178839
0.12969831517541944 0.12380573731178839
0.11307476227661252 0.12380573731178839
0.12969831517541944 0.23076885622171295
0.16294542097303324 0.3109911954041564
0.21281607966945396 0.25750963594919407
0.17956897387184015 0.2040280764942318
0.14632186807422634 0.12380573731178839
0.046580550681384884 0.23076885622171295
0.029956997782577974 0.4179543143140809
0.0964512093778056 0.3377319751316375
0.16294542097303324 0.28425041567667525
0.14632186807422634 0.23076885622171295
0.14632186807422634 0.15054651703926952
0.12969831517541944 0.07032417785682611
0.17956897387184015 0.09706495758430725
0.21281607966945396 0.23076885622171295
0.2793102912646816 0.28425041567667525
0.2793102912646816 0.17728729676675067
0.3125573970622954 0.09706495758430725
0.3458045028599092 0.12380573731178839
0.4621693731515576 0.3377319751316375
0.5951577963420128 0.4179543143140809
0.6948991137348544 0.4179543143140809
0.7115226666336613 0.3912135345865998
0.7115226666336613 0.25750963594919407
0.8777581956217303 0.25750963594919407
1.09386438330622 0.25750963594919407
1.3764647825859375 -0.09012050050806074
1.6923122876632688 -0.6516768747851647
1.8751713695501449 -1.2667148085172308
2.041406898538214 -1.6410857247019668
2.2741366391215108 -1.9352343017042595
2.5234899326036144 -2.1759013192515897
2.789466778984525 -2.3898275570714387
3.072067178264242 -2.844420812438618
3.3879146833415734 -3.4861995258981655
3.637267976823677 -4.341904477177562
3.9032448232045875 -4.849979291999704
4.135974563787884 -5.197609428456959
4.4684456217640225 -5.438276446004289
