5.079195381221181 4.25760891492907
5.803834222281246 3.4479651857133984
5.907354056718398 1.423855862674221
5.1309552984397575 -0.8363995480528604
3.319358195789596 -1.9159245203404218
1.0678017967815383 -1.9159245203404218
-0.666155430040759 -1.5785729665005588
-1.5201940641472635 -1.5111026557325862
-1.7789936502401438 -1.4436323449646136
-1.6495938571937037 -1.241221412660696
-1.3649143124915355 -1.0388104803567781
-1.2096345608358074 -1.0725456357407646
-1.0802347677893673 -1.0388104803567781
-1.1061147263986553 -1.0388104803567781
-1.1837546022265193 -1.0725456357407646
-1.1578746436172314 -1.005075324972792
-1.1319946850079434 -0.8701347034368467
-1.1061147263986553 -0.9713401695888056
-1.1319946850079434 -1.0725456357407646
-1.2613944780543835 -1.1400159465087372
-1.2872744366636715 -1.1062807911247508
-1.2355145194450954 -1.0388104803567781
-1.1578746436172314 -0.903869858820833
-1.1061147263986553 -1.005075324972792
-1.0284748505707912 -1.005075324972792
-1.0802347677893673 -1.0388104803567781
-1.1837546022265193 -1.0388104803567781
-1.1061147263986553 -0.9713401695888056
-1.1578746436172314 -0.8701347034368467
-1.1061147263986553 -0.8363995480528604
-1.1578746436172314 -0.9713401695888056
-1.1837546022265193 -1.1062807911247508
-1.2355145194450954 -1.1062807911247508
-1.2355145194450954 -1.1062807911247508
-1.1837546022265193 -0.903869858820833
-1.0802347677893673 -0.8363995480528604
-1.1319946850079434 -0.9713401695888056
-1.2355145194450954 -1.0725456357407646
-1.3649143124915355 -1.1062807911247508
-1.3649143124915355 -1.0388104803567781
-1.3907942711008234 -0.9376050142048193
-1.2872744366636715 -0.8363995480528604
-1.2613944780543835 -0.8363995480528604
-1.2096345608358074 -0.9376050142048193
-1.2613944780543835 -0.9376050142048193
-1.2613944780543835 -1.005075324972792
-1.1837546022265193 -1.0388104803567781
-1.1837546022265193 -1.005075324972792
-1.1837546022265193 -1.1062807911247508
-1.2872744366636715 -1.241221412660696
-1.3649143124915355 -1.2074862572767096
-1.3131543952729594 -1.0388104803567781
-1.2355145194450954 -0.903869858820833
-1.2096345608358074 -0.9713401695888056
-1.1578746436172314 -0.9713401695888056
-1.2096345608358074 -1.005075324972792
-1.2872744366636715 -1.0725456357407646
-1.2872744366636715 -1.0388104803567781
-1.2872744366636715 -1.005075324972792
-1.2872744366636715 -1.0725456357407646
-1.2355145194450954 -1.0725456357407646
-1.2355145194450954 -1.1400159465087372
-1.3131543952729594 -1.1062807911247508
-1.2872744366636715 -1.005075324972792
-1.2613944780543835 -1.0388104803567781
-1.2096345608358074 -1.1400159465087372
-1.2872744366636715 -1.1400159465087372
-1.3390343538822476 -1.1737511018927234
-1.3907942711008234 -1.1400159465087372
-1.3390343538822476 -1.1737511018927234
-1.3131543952729594 -1.0725456357407646
-1.2355145194450954 -1.0725456357407646
-1.2355145194450954 -1.1400159465087372
-1.2613944780543835 -1.2749565680446822
-1.3649143124915355 -1.3086917234286686
-1.2872744366636715 -1.241221412660696
-1.3390343538822476 -1.241221412660696
-1.3390343538822476 -1.3086917234286686
-1.3390343538822476 -1.4436323449646136
-1.3649143124915355 -1.4773675003486
-1.4425541883193995 -1.5785729665005588
-1.4684341469286877 -1.4773675003486
-1.4425541883193995 -1.4098971895806274
-1.3907942711008234 -1.4098971895806274
-1.3649143124915355 -1.5785729665005588
-1.4166742297101116 -1.713513588036504
-1.4943141055379756 -1.7472487434204902
-1.5201940641472635 -1.6123081218845452
-1.4166742297101116 -1.5785729665005588
-1.4166742297101116 -1.6460432772685314
-1.4425541883193995 -1.7809838988044766
-1.4684341469286877 -1.9159245203404218
-1.5719539813658396 -1.949659675724408
-1.6237138985844157 -1.9159245203404218
-1.5460740227565517 -1.8821893649564354
-1.5719539813658396 -1.9833948311083942
-1.6237138985844157 -2.0171299864923804
-1.6495938571937037 -2.050865141876367
-1.7272337330215677 -2.050865141876367
-1.7531136916308558 -1.9833948311083942
-1.6495938571937037 -1.8484542095724492
-1.5460740227565517 -1.8147190541884628
-1.5201940641472635 -1.7472487434204902
-1.5719539813658396 -1.7809838988044766
-1.5201940641472635 -1.7809838988044766
-1.4166742297101116 -1.4773675003486
-1.3649143124915355 -1.4098971895806274
-1.2355145194450954 -1.3424268788126548
-1.2096345608358074 -1.241221412660696
-1.1578746436172314 -1.2074862572767096
-1.1061147263986553 -1.1062807911247508
-1.0543548091800792 -0.903869858820833
-0.8990750575243511 -0.8363995480528604
-0.7955552230871991 -0.7689292372848878
-0.7437953058686231 -0.7689292372848878
-0.717915347259335 -0.8026643926688741
-0.7437953058686231 -0.7351940819009016
-0.769675264477911 -0.5327831495969838
-0.692035388650047 -0.43157768344502495
-0.5626355956036069 -0.39784252806103865
-0.5367556369943188 -0.39784252806103865
-0.5108756783850309 -0.49904799421299756
-0.5108756783850309 -0.43157768344502495
-0.5108756783850309 -0.3303722172930661
-0.40735584394787877 -0.2629019065250935
-0.3297159681200147 -0.2629019065250935
-0.35559592672930274 -0.2966370619090798
-0.35559592672930274 -0.3641073726770524
-0.4591157611664548 -0.3641073726770524
-0.4332358025571668 -0.3303722172930661
-0.35559592672930274 -0.2291667511411072
-0.35559592672930274 -0.2629019065250935
-0.3038360095107267 -0.2291667511411072
-0.27795605090143866 -0.2629019065250935
-0.3814758853385908 -0.2629019065250935
-0.3038360095107267 -0.2291667511411072
-0.3297159681200147 -0.12796128498914836
-0.3038360095107267 -0.19543159575712094
-0.27795605090143866 -0.2629019065250935
-0.35559592672930274 -0.3641073726770524
-0.4332358025571668 -0.39784252806103865
-0.4332358025571668 -0.2966370619090798
-0.4332358025571668 -0.16169644037313463
-0.35559592672930274 -0.16169644037313463
-0.35559592672930274 -0.2291667511411072
-0.4332358025571668 -0.3641073726770524
-0.48499571977574285 -0.2629019065250935
-0.4591157611664548 -0.2629019065250935
-0.4332358025571668 -0.2629019065250935
-0.40735584394787877 -0.16169644037313463
-0.40735584394787877 -0.2966370619090798
-0.5108756783850309 -0.2966370619090798
-0.4591157611664548 -0.3303722172930661
-0.5108756783850309 -0.2629019065250935
-0.40735584394787877 -0.19543159575712094
-0.35559592672930274 -0.2291667511411072
-0.35559592672930274 -0.19543159575712094
-0.40735584394787877 -0.3303722172930661
-0.5108756783850309 -0.3303722172930661
-0.5108756783850309 -0.3641073726770524
-0.48499571977574285 -0.3303722172930661
-0.5108756783850309 -0.2966370619090798
-0.5108756783850309 -0.3641073726770524
-0.5626355956036069 -0.43157768344502495
-0.5885155542128949 -0.43157768344502495
-0.5626355956036069 -0.3303722172930661
-0.5108756783850309 -0.3303722172930661
-0.4332358025571668 -0.3641073726770524
-0.48499571977574285 -0.39784252806103865
-0.5108756783850309 -0.49904799421299756
-0.5626355956036069 -0.43157768344502495
-0.5885155542128949 -0.46531283882901125
-0.5626355956036069 -0.39784252806103865
-0.48499571977574285 -0.43157768344502495
-0.4591157611664548 -0.43157768344502495
-0.5108756783850309 -0.49904799421299756
-0.5626355956036069 -0.43157768344502495
-0.5108756783850309 -0.3641073726770524
-0.4591157611664548 -0.3303722172930661
-0.40735584394787877 -0.39784252806103865
-0.35559592672930274 -0.39784252806103865
-0.3814758853385908 -0.49904799421299756
-0.40735584394787877 -0.46531283882901125
-0.40735584394787877 -0.3641073726770524
-0.3297159681200147 -0.3303722172930661
-0.22619613368286265 -0.2966370619090798
-0.2003161750735746 -0.3641073726770524
-0.14855625785499857 -0.43157768344502495
-0.1744362164642866 -0.43157768344502495
-0.1744362164642866 -0.39784252806103865
-0.12267629924571055 -0.2629019065250935
-0.019156464808558475 -0.3641073726770524
0.03260345241001757 -0.2966370619090798
0.03260345241001757 -0.39784252806103865
-0.07091638202713452 -0.3303722172930661
-0.019156464808558475 -0.19543159575712094
0.058483411019305584 -0.19543159575712094
0.13612328684716965 -0.19543159575712094
0.2137631626750337 -0.19543159575712094
0.16200324545645767 -0.2966370619090798
0.11024332823788162 -0.2966370619090798
0.0843633696285936 -0.2629019065250935
0.13612328684716965 -0.16169644037313463
0.18788320406574568 -0.09422612960516207
0.11024332823788162 -0.06049097422117577
0.11024332823788162 -0.12796128498914836
0.13612328684716965 -0.19543159575712094
0.18788320406574568 -0.06049097422117577
0.23964312128432172 0.07444964731476938
0.26552307989360974 0.10818480269875567
0.31728299711218577 0.07444964731476938
0.42080283154933784 -0.09422612960516207
0.31728299711218577 -0.12796128498914836
0.18788320406574568 -0.2291667511411072
0.006723493800729544 -0.16169644037313463
-0.07091638202713452 -0.12796128498914836
-0.12267629924571055 -0.2291667511411072
-0.22619613368286265 -0.2966370619090798
-0.3297159681200147 -0.3641073726770524
-0.3297159681200147 -0.3303722172930661
-0.35559592672930274 -0.19543159575712094
-0.3814758853385908 -0.3303722172930661
-0.4332358025571668 -0.3303722172930661
-0.48499571977574285 -0.46531283882901125
-0.48499571977574285 -0.43157768344502495
-0.48499571977574285 -0.43157768344502495
-0.4591157611664548 -0.3641073726770524
-0.4332358025571668 -0.3303722172930661
-0.40735584394787877 -0.3303722172930661
-0.48499571977574285 -0.39784252806103865
-0.5367556369943188 -0.39784252806103865
-0.5108756783850309 -0.39784252806103865
-0.4591157611664548 -0.3641073726770524
-0.4332358025571668 -0.2966370619090798
-0.4591157611664548 -0.3641073726770524
-0.5367556369943188 -0.43157768344502495
-0.5626355956036069 -0.46531283882901125
-0.5626355956036069 -0.39784252806103865
-0.5108756783850309 -0.2966370619090798
-0.48499571977574285 -0.3641073726770524
-0.48499571977574285 -0.43157768344502495
-0.5367556369943188 -0.5665183049809701
-0.640275471431471 -0.6339886157489427
-0.7437953058686231 -0.7689292372848878
-0.8214351816964871 -0.8363995480528604
-0.9249550161336392 -1.0388104803567781
-1.0802347677893673 -1.1400159465087372
-1.1837546022265193 -1.3086917234286686
-1.3907942711008234 -1.2749565680446822
-1.6495938571937037 -0.8363995480528604
-1.6237138985844157 -0.2291667511411072
-1.3649143124915355 0.5130066673065912
-0.9508349747429272 1.2889152411382758
-0.3297159681200147 1.7274722611300977
0.31728299711218577 2.368440213425837
1.0936817553908265 2.9756730103375904
1.921840430888043 3.5829058072493436
3.241718319961732 4.223873759545083
4.716875960691149 4.763636245688864
5.855594139499822 4.729901090304877
6.424953228904158 3.852787050321234
6.3990732702948705 1.896148038050029
5.49327471896979 -0.12796128498914836
3.345238154398884 -1.241221412660696
0.8348821692979462 -1.3424268788126548
-0.9508349747429272 -1.1062807911247508
-1.6495938571937037 -0.9713401695888056
-1.4684341469286877 -0.8026643926688741
-1.0802347677893673 -0.7689292372848878
-0.8214351816964871 -0.7689292372848878
-0.7437953058686231 -0.8026643926688741
-0.8214351816964871 -0.9376050142048193
-0.8990750575243511 -0.903869858820833
-0.8473151403057751 -0.8363995480528604
-0.8214351816964871 -0.7689292372848878
-0.769675264477911 -0.7689292372848878
-0.769675264477911 -0.7351940819009016
-0.8214351816964871 -0.8363995480528604
-0.8473151403057751 -0.903869858820833
-0.8731950989150631 -0.8363995480528604
-0.8473151403057751 -0.7351940819009016
-0.769675264477911 -0.7014589265169153
-0.8214351816964871 -0.7014589265169153
-0.8473151403057751 -0.8026643926688741
-0.8990750575243511 -0.8701347034368467
-0.9508349747429272 -0.7351940819009016
-0.8731950989150631 -0.7014589265169153
-0.8473151403057751 -0.7351940819009016
-0.8214351816964871 -0.7351940819009016
-0.8731950989150631 -0.8026643926688741
-0.8990750575243511 -0.8363995480528604
-0.8990750575243511 -0.7014589265169153
-0.8731950989150631 -0.667723771132929
-0.8214351816964871 -0.667723771132929
-0.7955552230871991 -0.7014589265169153
-0.7955552230871991 -0.7351940819009016
-0.8473151403057751 -0.8026643926688741
-0.8214351816964871 -0.7014589265169153
-0.7955552230871991 -0.5665183049809701
-0.7955552230871991 -0.6339886157489427
-0.7437953058686231 -0.667723771132929
-0.692035388650047 -0.667723771132929
-0.7955552230871991 -0.7014589265169153
-0.769675264477911 -0.667723771132929
-0.7437953058686231 -0.6339886157489427
-0.692035388650047 -0.6002534603649564
-0.717915347259335 -0.667723771132929
-0.7437953058686231 -0.8026643926688741
-0.8473151403057751 -0.8026643926688741
-0.8214351816964871 -0.7014589265169153
-0.7955552230871991 -0.7351940819009016
-0.7437953058686231 -0.7351940819009016
-0.7955552230871991 -0.7689292372848878
-0.8214351816964871 -0.8363995480528604
-0.8473151403057751 -0.8701347034368467
-0.8473151403057751 -0.8363995480528604
-0.8731950989150631 -0.7014589265169153
-0.8214351816964871 -0.8026643926688741
-0.8731950989150631 -0.8026643926688741
-0.8731950989150631 -0.8363995480528604
-0.9249550161336392 -0.8701347034368467
-0.8731950989150631 -0.8701347034368467
-0.8473151403057751 -0.8026643926688741
-0.8214351816964871 -0.7689292372848878
-0.8731950989150631 -0.8363995480528604
-0.8990750575243511 -0.9713401695888056
-0.9767149333522153 -0.9376050142048193
-0.8473151403057751 -0.9376050142048193
-0.8473151403057751 -0.9713401695888056
-0.8214351816964871 -1.005075324972792
-0.8214351816964871 -1.0388104803567781
-0.8473151403057751 -1.1062807911247508
-0.8473151403057751 -1.1062807911247508
-0.8731950989150631 -1.1062807911247508
-0.8214351816964871 -1.0388104803567781
-0.7955552230871991 -1.005075324972792
-0.769675264477911 -1.1062807911247508
-0.8214351816964871 -1.3086917234286686
-0.8731950989150631 -1.3086917234286686
-0.9767149333522153 -1.3086917234286686
-0.9249550161336392 -1.3086917234286686
-0.9249550161336392 -1.241221412660696
-0.8473151403057751 -1.4098971895806274
-0.9508349747429272 -1.4098971895806274
-1.0025948919615033 -1.5111026557325862
-0.9767149333522153 -1.5448378111165726
-0.9767149333522153 -1.5448378111165726
-0.8990750575243511 -1.5111026557325862
-0.8990750575243511 -1.5448378111165726
-0.9508349747429272 -1.6123081218845452
-1.0025948919615033 -1.6123081218845452
-1.0284748505707912 -1.5785729665005588
-0.9249550161336392 -1.4098971895806274
-0.8473151403057751 -1.3761620341966412
-0.8214351816964871 -1.4098971895806274
-0.8731950989150631 -1.4098971895806274
-0.8990750575243511 -1.3424268788126548
-0.7955552230871991 -1.2074862572767096
-0.666155430040759 -1.0388104803567781
-0.614395512822183 -0.903869858820833
-0.5367556369943188 -0.8701347034368467
-0.5626355956036069 -0.8026643926688741
-0.5108756783850309 -0.7689292372848878
-0.4332358025571668 -0.667723771132929
-0.3297159681200147 -0.49904799421299756
-0.22619613368286265 -0.39784252806103865
-0.2003161750735746 -0.3641073726770524
-0.2003161750735746 -0.3303722172930661
-0.25207609229215067 -0.2966370619090798
-0.2003161750735746 -0.2629019065250935
-0.12267629924571055 -0.12796128498914836
-0.019156464808558475 -0.16169644037313463
-0.04503642341784649 -0.09422612960516207
-0.07091638202713452 -0.09422612960516207
-0.07091638202713452 -0.12796128498914836
-0.019156464808558475 -0.02675581883718948
0.006723493800729544 0.006979336546796809
0.006723493800729544 -0.06049097422117577
0.058483411019305584 -0.02675581883718948
-0.019156464808558475 -0.09422612960516207
-0.04503642341784649 -0.16169644037313463
0.03260345241001757 -0.09422612960516207
0.0843633696285936 -0.02675581883718948
0.13612328684716965 0.006979336546796809
0.13612328684716965 -0.06049097422117577
0.058483411019305584 -0.02675581883718948
0.03260345241001757 -0.09422612960516207
0.03260345241001757 -0.06049097422117577
0.03260345241001757 0.0407144919307831
0.006723493800729544 -0.02675581883718948
0.03260345241001757 -0.02675581883718948
0.0843633696285936 -0.06049097422117577
0.006723493800729544 -0.06049097422117577
0.006723493800729544 -0.06049097422117577
0.11024332823788162 0.0407144919307831
0.13612328684716965 0.006979336546796809
0.11024332823788162 0.0407144919307831
0.03260345241001757 -0.06049097422117577
0.006723493800729544 -0.09422612960516207
-0.019156464808558475 -0.02675581883718948
0.03260345241001757 0.0407144919307831
0.0843633696285936 -0.02675581883718948
0.058483411019305584 0.006979336546796809
-0.019156464808558475 -0.12796128498914836
-0.07091638202713452 -0.16169644037313463
-0.04503642341784649 -0.02675581883718948
-0.04503642341784649 0.0407144919307831
0.03260345241001757 -0.02675581883718948
0.03260345241001757 -0.06049097422117577
-0.04503642341784649 -0.12796128498914836
-0.09679634063642253 -0.06049097422117577
-0.07091638202713452 -0.12796128498914836
-0.019156464808558475 -0.06049097422117577
0.03260345241001757 -0.02675581883718948
-0.04503642341784649 -0.12796128498914836
-0.09679634063642253 -0.2291667511411072
-0.12267629924571055 -0.19543159575712094
-0.14855625785499857 -0.12796128498914836
-0.07091638202713452 -0.09422612960516207
-0.019156464808558475 -0.12796128498914836
-0.07091638202713452 -0.09422612960516207
-0.12267629924571055 -0.2291667511411072
-0.1744362164642866 -0.2966370619090798
-0.1744362164642866 -0.2291667511411072
-0.12267629924571055 -0.12796128498914836
-0.12267629924571055 -0.19543159575712094
-0.04503642341784649 -0.16169644037313463
-0.09679634063642253 -0.2966370619090798
-0.07091638202713452 -0.2966370619090798
-0.07091638202713452 -0.19543159575712094
0.0843633696285936 -0.2291667511411072
0.0843633696285936 -0.16169644037313463
0.11024332823788162 -0.2291667511411072
0.0843633696285936 -0.2629019065250935
0.058483411019305584 -0.2629019065250935
0.11024332823788162 -0.16169644037313463
0.18788320406574568 -0.12796128498914836
0.2914030385028978 -0.12796128498914836
0.31728299711218577 -0.19543159575712094
0.31728299711218577 -0.12796128498914836
0.2914030385028978 -0.16169644037313463
0.2914030385028978 -0.06049097422117577
0.42080283154933784 0.0407144919307831
0.4466827901586259 0.0407144919307831
0.4984427073772019 0.07444964731476938
0.31728299711218577 -0.06049097422117577
0.2914030385028978 -0.06049097422117577
0.26552307989360974 0.10818480269875567
0.31728299711218577 0.14191995808274196
0.39492287294004985 0.14191995808274196
0.39492287294004985 0.24312542423470085
0.3431629557214738 0.20939026885071454
0.3431629557214738 0.24312542423470085
0.42080283154933784 0.24312542423470085
0.550202624595778 0.24312542423470085
0.65372245903293 0.20939026885071454
0.4725627487679139 0.14191995808274196
0.26552307989360974 0.0407144919307831
0.11024332823788162 0.07444964731476938
0.006723493800729544 0.0407144919307831
0.03260345241001757 0.0407144919307831
0.03260345241001757 0.07444964731476938
-0.09679634063642253 -0.02675581883718948
-0.12267629924571055 -0.02675581883718948
-0.27795605090143866 -0.12796128498914836
-0.3038360095107267 -0.06049097422117577
-0.22619613368286265 0.0407144919307831
-0.14855625785499857 0.0407144919307831
-0.12267629924571055 -0.02675581883718948
-0.2003161750735746 -0.02675581883718948
-0.27795605090143866 -0.12796128498914836
-0.25207609229215067 -0.12796128498914836
-0.27795605090143866 -0.02675581883718948
-0.22619613368286265 0.006979336546796809
-0.25207609229215067 -0.06049097422117577
-0.3038360095107267 -0.19543159575712094
-0.3814758853385908 -0.06049097422117577
-0.35559592672930274 -0.12796128498914836
-0.27795605090143866 0.006979336546796809
-0.27795605090143866 0.006979336546796809
-0.35559592672930274 0.006979336546796809
-0.3297159681200147 -0.02675581883718948
-0.3814758853385908 -0.02675581883718948
-0.3297159681200147 -0.02675581883718948
-0.27795605090143866 0.07444964731476938
-0.25207609229215067 0.006979336546796809
-0.25207609229215067 0.07444964731476938
-0.27795605090143866 -0.12796128498914836
-0.3297159681200147 -0.16169644037313463
-0.3297159681200147 -0.19543159575712094
-0.3038360095107267 -0.19543159575712094
-0.3814758853385908 -0.2629019065250935
-0.5885155542128949 -0.39784252806103865
-0.7437953058686231 -0.46531283882901125
-0.9249550161336392 -0.5665183049809701
-0.8731950989150631 -0.6002534603649564
-0.8731950989150631 -0.5327831495969838
-1.0802347677893673 -0.16169644037313463
-1.2872744366636715 0.44553635653861856
-1.1837546022265193 1.1202394642183444
-0.692035388650047 1.7949425718980703
0.11024332823788162 2.5033808349617823
1.0160418795629622 3.245554253409481
1.999480306715907 3.8865222057052202
3.371118113008172 4.4937550026169735
4.716875960691149 4.864841711840823
5.75207430506267 4.5949604687689325
6.166153642811278 3.4479651857133984
5.855594139499822 1.7949425718980703
4.509836291816845 0.3105957350026734
2.1806400169809232 -0.2629019065250935
0.006723493800729544 -0.39784252806103865
-1.1837546022265193 -0.3303722172930661
-1.4166742297101116 -0.2966370619090798
-1.1061147263986553 -0.19543159575712094
-0.666155430040759 -0.16169644037313463
-0.5108756783850309 -0.2629019065250935
-0.5367556369943188 -0.2291667511411072
-0.5885155542128949 -0.3303722172930661
-0.614395512822183 -0.2629019065250935
-0.5626355956036069 -0.19543159575712094
-0.5367556369943188 -0.2629019065250935
-0.5367556369943188 -0.2629019065250935
-0.640275471431471 -0.3641073726770524
-0.666155430040759 -0.3303722172930661
-0.717915347259335 -0.2966370619090798
-0.5885155542128949 -0.2966370619090798
-0.614395512822183 -0.2629019065250935
-0.614395512822183 -0.3303722172930661
-0.692035388650047 -0.39784252806103865
-0.717915347259335 -0.43157768344502495
-0.692035388650047 -0.3303722172930661
-0.666155430040759 -0.19543159575712094
-0.5885155542128949 -0.2629019065250935
-0.5885155542128949 -0.2966370619090798
-0.640275471431471 -0.39784252806103865
-0.717915347259335 -0.39784252806103865
-0.692035388650047 -0.2966370619090798
-0.614395512822183 -0.2966370619090798
-0.5626355956036069 -0.2629019065250935
-0.614395512822183 -0.2291667511411072
-0.5626355956036069 -0.2966370619090798
-0.640275471431471 -0.3303722172930661
-0.5626355956036069 -0.3303722172930661
-0.614395512822183 -0.2291667511411072
-0.5626355956036069 -0.19543159575712094
-0.5626355956036069 -0.2966370619090798
-0.666155430040759 -0.3303722172930661
-0.666155430040759 -0.2966370619090798
-0.614395512822183 -0.2629019065250935
-0.5626355956036069 -0.16169644037313463
-0.5626355956036069 -0.2629019065250935
-0.5885155542128949 -0.2291667511411072
-0.614395512822183 -0.3303722172930661
-0.640275471431471 -0.3303722172930661
-0.666155430040759 -0.3303722172930661
-0.666155430040759 -0.16169644037313463
-0.640275471431471 -0.2291667511411072
-0.614395512822183 -0.2291667511411072
-0.614395512822183 -0.3641073726770524
-0.692035388650047 -0.39784252806103865
-0.666155430040759 -0.3641073726770524
-0.614395512822183 -0.3641073726770524
-0.5367556369943188 -0.3641073726770524
-0.5626355956036069 -0.39784252806103865
-0.640275471431471 -0.46531283882901125
-0.614395512822183 -0.43157768344502495
-0.5885155542128949 -0.46531283882901125
-0.640275471431471 -0.43157768344502495
-0.5626355956036069 -0.3641073726770524
-0.5626355956036069 -0.46531283882901125
-0.614395512822183 -0.5665183049809701
-0.666155430040759 -0.5665183049809701
-0.640275471431471 -0.5665183049809701
-0.5885155542128949 -0.5327831495969838
-0.5626355956036069 -0.5665183049809701
-0.5885155542128949 -0.6339886157489427
-0.5626355956036069 -0.7014589265169153
-0.614395512822183 -0.7689292372848878
-0.666155430040759 -0.8026643926688741
-0.5885155542128949 -0.8363995480528604
-0.5626355956036069 -0.7014589265169153
-0.5885155542128949 -0.7689292372848878
-0.640275471431471 -0.9713401695888056
-0.666155430040759 -0.9376050142048193
-0.640275471431471 -0.9713401695888056
-0.5885155542128949 -0.903869858820833
-0.5626355956036069 -0.8701347034368467
-0.5885155542128949 -1.005075324972792
-0.614395512822183 -1.1062807911247508
-0.640275471431471 -1.1400159465087372
-0.666155430040759 -1.0388104803567781
-0.5885155542128949 -1.0388104803567781
-0.5885155542128949 -1.0388104803567781
-0.614395512822183 -1.1400159465087372
-0.666155430040759 -1.241221412660696
-0.692035388650047 -1.2074862572767096
-0.640275471431471 -1.1737511018927234
-0.666155430040759 -1.0725456357407646
-0.614395512822183 -1.0388104803567781
-0.5885155542128949 -1.1400159465087372
-0.5885155542128949 -1.1062807911247508
-0.5626355956036069 -1.005075324972792
-0.614395512822183 -0.9713401695888056
-0.5108756783850309 -0.8026643926688741
-0.4591157611664548 -0.7351940819009016
-0.40735584394787877 -0.7014589265169153
-0.4332358025571668 -0.667723771132929
-0.4591157611664548 -0.6002534603649564
-0.40735584394787877 -0.39784252806103865
-0.3038360095107267 -0.2966370619090798
-0.1744362164642866 -0.2966370619090798
-0.14855625785499857 -0.2291667511411072
-0.14855625785499857 -0.19543159575712094
-0.2003161750735746 -0.16169644037313463
-0.12267629924571055 0.006979336546796809
-0.09679634063642253 0.07444964731476938
-0.019156464808558475 0.07444964731476938
0.058483411019305584 0.10818480269875567
0.03260345241001757 0.07444964731476938
-0.04503642341784649 0.006979336546796809
0.006723493800729544 0.07444964731476938
0.0843633696285936 0.14191995808274196
0.11024332823788162 0.10818480269875567
0.058483411019305584 0.14191995808274196
0.0843633696285936 0.14191995808274196
0.058483411019305584 0.10818480269875567
0.058483411019305584 0.10818480269875567
0.058483411019305584 0.27686057961868715
0.13612328684716965 0.20939026885071454
0.16200324545645767 0.20939026885071454
0.0843633696285936 0.14191995808274196
0.03260345241001757 0.10818480269875567
0.006723493800729544 0.17565511346672827
0.0843633696285936 0.20939026885071454
0.03260345241001757 0.20939026885071454
0.03260345241001757 0.17565511346672827
0.0843633696285936 0.10818480269875567
-0.04503642341784649 0.10818480269875567
-0.04503642341784649 0.10818480269875567
-0.019156464808558475 0.17565511346672827
0.0843633696285936 0.14191995808274196
0.03260345241001757 0.006979336546796809
0.006723493800729544 0.0407144919307831
-0.07091638202713452 -0.06049097422117577
-0.04503642341784649 0.0407144919307831
-0.019156464808558475 0.14191995808274196
0.03260345241001757 0.14191995808274196
0.058483411019305584 0.10818480269875567
0.006723493800729544 0.0407144919307831
-0.019156464808558475 0.0407144919307831
-0.04503642341784649 0.0407144919307831
-0.019156464808558475 0.10818480269875567
0.006723493800729544 0.07444964731476938
-0.04503642341784649 0.0407144919307831
-0.12267629924571055 0.0407144919307831
-0.07091638202713452 -0.06049097422117577
-0.09679634063642253 0.07444964731476938
-0.09679634063642253 0.0407144919307831
-0.09679634063642253 0.07444964731476938
-0.04503642341784649 0.0407144919307831
-0.09679634063642253 -0.02675581883718948
-0.12267629924571055 -0.19543159575712094
-0.14855625785499857 -0.06049097422117577
-0.14855625785499857 0.006979336546796809
-0.09679634063642253 0.0407144919307831
-0.12267629924571055 0.006979336546796809
-0.14855625785499857 -0.09422612960516207
-0.22619613368286265 -0.12796128498914836
-0.22619613368286265 -0.09422612960516207
-0.14855625785499857 -0.06049097422117577
-0.09679634063642253 -0.02675581883718948
-0.12267629924571055 -0.06049097422117577
-0.09679634063642253 -0.12796128498914836
-0.12267629924571055 -0.19543159575712094
-0.04503642341784649 -0.12796128498914836
0.03260345241001757 -0.06049097422117577
0.0843633696285936 -0.09422612960516207
0.11024332823788162 -0.09422612960516207
0.058483411019305584 -0.16169644037313463
0.03260345241001757 -0.12796128498914836
0.11024332823788162 -0.06049097422117577
0.18788320406574568 0.006979336546796809
0.2137631626750337 -0.02675581883718948
0.23964312128432172 0.0407144919307831
0.26552307989360974 -0.09422612960516207
0.2137631626750337 -0.12796128498914836
0.2137631626750337 0.006979336546796809
0.31728299711218577 0.07444964731476938
0.39492287294004985 0.17565511346672827
0.4466827901586259 0.17565511346672827
0.42080283154933784 0.10818480269875567
0.39492287294004985 0.14191995808274196
0.42080283154933784 0.10818480269875567
0.4725627487679139 0.24312542423470085
0.4984427073772019 0.24312542423470085
0.4466827901586259 0.24312542423470085
0.39492287294004985 0.14191995808274196
0.2914030385028978 0.20939026885071454
0.23964312128432172 0.27686057961868715
0.3690429143307618 0.3443308903866597
0.4984427073772019 0.44553635653861856
0.4984427073772019 0.5130066673065912
0.42080283154933784 0.44553635653861856
0.5243226659864899 0.4118012011546323
0.627842500423642 0.378066045770646
0.731362334860794 0.378066045770646
0.601962541814354 0.378066045770646
0.39492287294004985 0.27686057961868715
0.18788320406574568 0.24312542423470085
0.11024332823788162 0.14191995808274196
0.13612328684716965 0.14191995808274196
0.03260345241001757 0.17565511346672827
0.03260345241001757 0.20939026885071454
-0.14855625785499857 0.14191995808274196
-0.22619613368286265 0.006979336546796809
-0.3038360095107267 0.07444964731476938
-0.3038360095107267 0.07444964731476938
-0.1744362164642866 0.14191995808274196
-0.12267629924571055 0.17565511346672827
-0.09679634063642253 0.10818480269875567
-0.1744362164642866 0.07444964731476938
-0.2003161750735746 0.006979336546796809
-0.22619613368286265 0.07444964731476938
-0.1744362164642866 0.07444964731476938
-0.1744362164642866 0.10818480269875567
-0.2003161750735746 0.0407144919307831
-0.22619613368286265 0.07444964731476938
-0.3038360095107267 0.006979336546796809
-0.3297159681200147 0.0407144919307831
-0.27795605090143866 0.07444964731476938
-0.1744362164642866 0.07444964731476938
-0.2003161750735746 0.17565511346672827
-0.25207609229215067 0.07444964731476938
-0.25207609229215067 0.0407144919307831
-0.27795605090143866 0.10818480269875567
-0.22619613368286265 0.14191995808274196
-0.2003161750735746 0.07444964731476938
-0.2003161750735746 -0.06049097422117577
-0.35559592672930274 -0.19543159575712094
-0.5108756783850309 -0.3641073726770524
-0.692035388650047 -0.49904799421299756
-0.7437953058686231 -0.6339886157489427
-0.7955552230871991 -0.5327831495969838
-1.0025948919615033 -0.2629019065250935
-1.2355145194450954 0.17565511346672827
-1.2096345608358074 0.8166230657624678
-0.717915347259335 1.4575910180582072
-0.019156464808558475 2.0648238149699605
0.8090022106886582 2.5708511457297547
1.5854009689672988 3.178083942641508
2.801759023603836 3.751581584169275
4.225156747114677 4.325079225697042
5.36387492592335 4.79737140107285
6.088513766983414 4.966047177992781
6.4767131461227345 4.358814381081028
6.347313353076294 2.840732388801645
5.648554470625518 1.086504308834358
4.095756954068237 -0.3641073726770524
2.025360265325195 -1.0388104803567781
0.26552307989360974 -0.9713401695888056
-0.8731950989150631 -0.7689292372848878
-1.3649143124915355 -0.5665183049809701
-1.5201940641472635 -0.5665183049809701
-1.3649143124915355 -0.6002534603649564
-1.1061147263986553 -0.39784252806103865
-0.7955552230871991 -0.2291667511411072
-0.5367556369943188 -0.2291667511411072
-0.4332358025571668 -0.16169644037313463
-0.5626355956036069 -0.2629019065250935
-0.5626355956036069 -0.3303722172930661
-0.640275471431471 -0.3303722172930661
-0.5626355956036069 -0.2966370619090798
-0.48499571977574285 -0.2966370619090798
-0.5367556369943188 -0.2629019065250935
-0.5367556369943188 -0.3303722172930661
-0.640275471431471 -0.39784252806103865
-0.640275471431471 -0.3303722172930661
-0.5626355956036069 -0.2291667511411072
-0.614395512822183 -0.16169644037313463
-0.614395512822183 -0.2291667511411072
-0.640275471431471 -0.3641073726770524
-0.640275471431471 -0.2966370619090798
-0.640275471431471 -0.2629019065250935
-0.5108756783850309 -0.2629019065250935
-0.5626355956036069 -0.3303722172930661
-0.5367556369943188 -0.3641073726770524
-0.5885155542128949 -0.3641073726770524
-0.614395512822183 -0.3641073726770524
-0.5885155542128949 -0.3303722172930661
-0.5367556369943188 -0.2291667511411072
-0.4591157611664548 -0.19543159575712094
-0.5108756783850309 -0.2291667511411072
-0.5367556369943188 -0.3641073726770524
-0.692035388650047 -0.3303722172930661
-0.666155430040759 -0.3303722172930661
-0.666155430040759 -0.2629019065250935
-0.614395512822183 -0.2291667511411072
-0.640275471431471 -0.3303722172930661
-0.666155430040759 -0.3641073726770524
-0.692035388650047 -0.43157768344502495
-0.692035388650047 -0.3303722172930661
-0.666155430040759 -0.2966370619090798
-0.5626355956036069 -0.2966370619090798
-0.692035388650047 -0.39784252806103865
-0.717915347259335 -0.43157768344502495
-0.769675264477911 -0.5327831495969838
-0.7437953058686231 -0.43157768344502495
-0.692035388650047 -0.2966370619090798
-0.614395512822183 -0.3303722172930661
-0.717915347259335 -0.39784252806103865
-0.666155430040759 -0.46531283882901125
-0.7437953058686231 -0.46531283882901125
-0.717915347259335 -0.46531283882901125
-0.666155430040759 -0.2966370619090798
-0.614395512822183 -0.3641073726770524
-0.640275471431471 -0.3641073726770524
-0.717915347259335 -0.49904799421299756
-0.7437953058686231 -0.5327831495969838
-0.769675264477911 -0.49904799421299756
-0.666155430040759 -0.49904799421299756
-0.640275471431471 -0.49904799421299756
-0.666155430040759 -0.5665183049809701
-0.769675264477911 -0.6339886157489427
-0.769675264477911 -0.7014589265169153
-0.692035388650047 -0.7014589265169153
-0.640275471431471 -0.6339886157489427
-0.5626355956036069 -0.6339886157489427
-0.5885155542128949 -0.667723771132929
-0.5626355956036069 -0.7014589265169153
-0.614395512822183 -0.7014589265169153
-0.640275471431471 -0.7689292372848878
-0.640275471431471 -0.8026643926688741
-0.5885155542128949 -0.8701347034368467
-0.5885155542128949 -0.8363995480528604
-0.666155430040759 -0.903869858820833
-0.769675264477911 -0.903869858820833
-0.8214351816964871 -0.903869858820833
-0.7437953058686231 -0.7689292372848878
-0.666155430040759 -0.8026643926688741
-0.717915347259335 -0.8026643926688741
-0.717915347259335 -0.903869858820833
-0.692035388650047 -0.9713401695888056
-0.640275471431471 -0.9376050142048193
-0.5626355956036069 -0.9376050142048193
-0.614395512822183 -0.9376050142048193
-0.614395512822183 -1.1062807911247508
-0.7437953058686231 -1.1400159465087372
-0.8214351816964871 -1.1400159465087372
-0.8473151403057751 -1.0725456357407646
-0.8214351816964871 -0.9713401695888056
-0.717915347259335 -0.9713401695888056
-0.717915347259335 -0.9713401695888056
-0.7437953058686231 -0.9713401695888056
-0.7437953058686231 -0.9713401695888056
-0.717915347259335 -0.9376050142048193
-0.666155430040759 -0.7351940819009016
-0.5626355956036069 -0.6339886157489427
-0.5367556369943188 -0.667723771132929
-0.5626355956036069 -0.7014589265169153
-0.48499571977574285 -0.7351940819009016
-0.48499571977574285 -0.5665183049809701
-0.40735584394787877 -0.46531283882901125
-0.3038360095107267 -0.3641073726770524
-0.27795605090143866 -0.2291667511411072
-0.25207609229215067 -0.2291667511411072
-0.2003161750735746 -0.2966370619090798
-0.22619613368286265 -0.2291667511411072
-0.09679634063642253 -0.2291667511411072
-0.04503642341784649 -0.2291667511411072
-0.04503642341784649 -0.12796128498914836
-0.14855625785499857 -0.19543159575712094
-0.1744362164642866 -0.19543159575712094
-0.14855625785499857 -0.19543159575712094
-0.12267629924571055 -0.06049097422117577
-0.04503642341784649 -0.09422612960516207
-0.12267629924571055 -0.09422612960516207
-0.1744362164642866 -0.09422612960516207
-0.1744362164642866 -0.16169644037313463
-0.22619613368286265 -0.19543159575712094
-0.1744362164642866 -0.06049097422117577
-0.09679634063642253 0.006979336546796809
-0.04503642341784649 -0.09422612960516207
-0.07091638202713452 -0.12796128498914836
-0.14855625785499857 -0.19543159575712094
-0.12267629924571055 -0.19543159575712094
-0.2003161750735746 -0.16169644037313463
-0.12267629924571055 -0.12796128498914836
-0.12267629924571055 -0.16169644037313463
-0.12267629924571055 -0.16169644037313463
-0.22619613368286265 -0.19543159575712094
-0.1744362164642866 -0.16169644037313463
-0.1744362164642866 -0.12796128498914836
-0.1744362164642866 -0.12796128498914836
-0.2003161750735746 -0.16169644037313463
-0.27795605090143866 -0.19543159575712094
-0.3038360095107267 -0.2629019065250935
-0.3297159681200147 -0.2966370619090798
-0.3297159681200147 -0.16169644037313463
-0.27795605090143866 -0.16169644037313463
-0.3038360095107267 -0.2291667511411072
-0.25207609229215067 -0.2966370619090798
-0.3297159681200147 -0.3303722172930661
-0.35559592672930274 -0.2291667511411072
-0.27795605090143866 -0.06049097422117577
-0.2003161750735746 -0.09422612960516207
-0.1744362164642866 -0.19543159575712094
-0.22619613368286265 -0.2966370619090798
-0.3038360095107267 -0.2966370619090798
-0.40735584394787877 -0.2629019065250935
-0.35559592672930274 -0.19543159575712094
-0.3297159681200147 -0.2291667511411072
-0.40735584394787877 -0.2629019065250935
-0.4332358025571668 -0.3303722172930661
-0.4332358025571668 -0.43157768344502495
-0.4591157611664548 -0.39784252806103865
-0.40735584394787877 -0.39784252806103865
-0.3297159681200147 -0.3641073726770524
-0.3297159681200147 -0.43157768344502495
-0.3814758853385908 -0.49904799421299756
-0.4591157611664548 -0.5665183049809701
-0.5626355956036069 -0.39784252806103865
-0.48499571977574285 -0.3303722172930661
-0.4332358025571668 -0.3303722172930661
-0.40735584394787877 -0.3641073726770524
-0.40735584394787877 -0.46531283882901125
-0.48499571977574285 -0.5665183049809701
-0.5626355956036069 -0.6002534603649564
-0.48499571977574285 -0.43157768344502495
-0.35559592672930274 -0.46531283882901125
-0.35559592672930274 -0.5327831495969838
-0.3297159681200147 -0.5327831495969838
-0.35559592672930274 -0.5665183049809701
-0.3038360095107267 -0.43157768344502495
-0.22619613368286265 -0.3641073726770524
-0.09679634063642253 -0.43157768344502495
-0.04503642341784649 -0.46531283882901125
-0.07091638202713452 -0.43157768344502495
-0.07091638202713452 -0.43157768344502495
-0.07091638202713452 -0.3641073726770524
0.0843633696285936 -0.3641073726770524
0.11024332823788162 -0.3303722172930661
0.0843633696285936 -0.2291667511411072
0.03260345241001757 -0.3303722172930661
0.0843633696285936 -0.2629019065250935
0.058483411019305584 -0.2291667511411072
0.058483411019305584 -0.19543159575712094
-0.04503642341784649 -0.19543159575712094
-0.04503642341784649 -0.2291667511411072
-0.04503642341784649 -0.2966370619090798
0.03260345241001757 -0.19543159575712094
0.006723493800729544 -0.16169644037313463
-0.019156464808558475 0.07444964731476938
0.11024332823788162 0.10818480269875567
0.18788320406574568 -0.02675581883718948
0.23964312128432172 -0.2291667511411072
0.26552307989360974 -0.3303722172930661
0.0843633696285936 -0.2629019065250935
-0.09679634063642253 -0.2966370619090798
-0.14855625785499857 -0.2966370619090798
-0.27795605090143866 -0.2629019065250935
-0.3297159681200147 -0.2291667511411072
-0.3814758853385908 -0.2629019065250935
-0.40735584394787877 -0.2629019065250935
-0.40735584394787877 -0.2291667511411072
-0.4332358025571668 -0.19543159575712094
-0.5367556369943188 -0.3641073726770524
-0.666155430040759 -0.43157768344502495
-0.717915347259335 -0.49904799421299756
-0.717915347259335 -0.43157768344502495
-0.640275471431471 -0.3641073726770524
-0.5367556369943188 -0.3303722172930661
-0.640275471431471 -0.3303722172930661
-0.717915347259335 -0.39784252806103865
-0.717915347259335 -0.49904799421299756
-0.692035388650047 -0.49904799421299756
-0.640275471431471 -0.46531283882901125
-0.5626355956036069 -0.3303722172930661
-0.614395512822183 -0.2966370619090798
-0.640275471431471 -0.3641073726770524
-0.5885155542128949 -0.39784252806103865
-0.5885155542128949 -0.3641073726770524
-0.5367556369943188 -0.3303722172930661
-0.48499571977574285 -0.2291667511411072
-0.4591157611664548 -0.12796128498914836
-0.48499571977574285 -0.2291667511411072
-0.5626355956036069 -0.3303722172930661
-0.666155430040759 -0.39784252806103865
-0.7437953058686231 -0.5327831495969838
-0.8473151403057751 -0.7351940819009016
-1.0284748505707912 -0.8026643926688741
-1.1578746436172314 -0.8026643926688741
-1.2613944780543835 -1.005075324972792
-1.2613944780543835 -1.0725456357407646
-1.2872744366636715 -1.005075324972792
-1.4684341469286877 -0.667723771132929
-1.6495938571937037 -0.06049097422117577
-1.4684341469286877 0.6479472888425363
-0.8473151403057751 1.2551800857542896
-0.07091638202713452 1.7949425718980703
0.8607621279072342 2.3009699026578647
1.895960472278755 2.840732388801645
3.215838361352444 3.5491706518653574
4.535716250426133 4.021462827241165
5.441514801751214 3.852787050321234
5.959113973936974 2.6045863011137413
5.726194346453382 0.6142121334585501
4.354556540161117 -0.9713401695888056
1.921840430888043 -1.5111026557325862
-0.3814758853385908 -1.3086917234286686
-1.5201940641472635 -0.9713401695888056
-1.7531136916308558 -0.7351940819009016
-1.4943141055379756 -0.5665183049809701
-1.1578746436172314 -0.5665183049809701
-0.9249550161336392 -0.5665183049809701
-0.8990750575243511 -0.6339886157489427
-0.9249550161336392 -0.667723771132929
-1.0025948919615033 -0.6339886157489427
-0.9767149333522153 -0.5665183049809701
-0.9508349747429272 -0.6002534603649564
-0.9767149333522153 -0.46531283882901125
-1.0025948919615033 -0.5665183049809701
-1.0284748505707912 -0.6339886157489427
-1.0284748505707912 -0.5327831495969838
-0.9508349747429272 -0.43157768344502495
-0.9508349747429272 -0.46531283882901125
-0.9249550161336392 -0.46531283882901125
-1.0025948919615033 -0.6339886157489427
-1.0025948919615033 -0.6002534603649564
-1.0025948919615033 -0.5665183049809701
-0.9767149333522153 -0.5327831495969838
-0.9249550161336392 -0.46531283882901125
-0.8990750575243511 -0.46531283882901125
-0.9249550161336392 -0.5327831495969838
-1.0025948919615033 -0.667723771132929
-1.0284748505707912 -0.6002534603649564
-1.0025948919615033 -0.5665183049809701
-0.9249550161336392 -0.46531283882901125
-0.9767149333522153 -0.5327831495969838
-1.0543548091800792 -0.5327831495969838
-1.1319946850079434 -0.5665183049809701
-1.1578746436172314 -0.6002534603649564
-1.1837546022265193 -0.5665183049809701
-1.0802347677893673 -0.5327831495969838
-1.1061147263986553 -0.5665183049809701
-1.1578746436172314 -0.5665183049809701
-1.1578746436172314 -0.5665183049809701
-1.1578746436172314 -0.49904799421299756
-1.0543548091800792 -0.49904799421299756
-0.9508349747429272 -0.49904799421299756
-1.0025948919615033 -0.5665183049809701
-1.0543548091800792 -0.667723771132929
-1.0802347677893673 -0.7351940819009016
-1.1837546022265193 -0.6339886157489427
-1.1061147263986553 -0.5665183049809701
-1.0543548091800792 -0.46531283882901125
-1.0284748505707912 -0.49904799421299756
-1.0284748505707912 -0.5327831495969838
-1.0284748505707912 -0.5327831495969838
-1.0802347677893673 -0.6339886157489427
-1.0543548091800792 -0.6002534603649564
-1.0025948919615033 -0.5665183049809701
-1.0284748505707912 -0.5665183049809701
-1.0284748505707912 -0.6002534603649564
-1.0543548091800792 -0.7351940819009016
-1.2096345608358074 -0.5665183049809701
-1.0802347677893673 -0.5327831495969838
-0.9767149333522153 -0.49904799421299756
-1.0284748505707912 -0.46531283882901125
-1.0543548091800792 -0.5327831495969838
-1.1061147263986553 -0.667723771132929
-1.1319946850079434 -0.7014589265169153
-1.1578746436172314 -0.6002534603649564
-1.1061147263986553 -0.7014589265169153
-1.0284748505707912 -0.7351940819009016
-1.1061147263986553 -0.8026643926688741
-1.1061147263986553 -0.8363995480528604
-1.1319946850079434 -0.8026643926688741
-1.1061147263986553 -0.8701347034368467
-1.0543548091800792 -0.8701347034368467
-1.1578746436172314 -0.9713401695888056
-1.1837546022265193 -1.005075324972792
-1.1837546022265193 -1.0725456357407646
-1.2355145194450954 -1.0388104803567781
-1.1837546022265193 -1.005075324972792
-1.1578746436172314 -1.0725456357407646
-1.2355145194450954 -1.1737511018927234
-1.2613944780543835 -1.241221412660696
-1.3390343538822476 -1.3761620341966412
-1.3907942711008234 -1.3761620341966412
-1.3649143124915355 -1.2749565680446822
-1.2872744366636715 -1.3086917234286686
-1.2872744366636715 -1.3424268788126548
-1.3649143124915355 -1.3424268788126548
-1.3907942711008234 -1.4773675003486
-1.3649143124915355 -1.4098971895806274
-1.3649143124915355 -1.1737511018927234
-1.3390343538822476 -1.1062807911247508
-1.2872744366636715 -1.1400159465087372
-1.3131543952729594 -1.1400159465087372
-1.2613944780543835 -1.1062807911247508
-1.2096345608358074 -1.0388104803567781
-1.1061147263986553 -0.8026643926688741
-1.0025948919615033 -0.7689292372848878
-0.9249550161336392 -0.5665183049809701
-0.8990750575243511 -0.6339886157489427
-0.8473151403057751 -0.5665183049809701
-0.692035388650047 -0.39784252806103865
-0.5885155542128949 -0.2629019065250935
-0.4591157611664548 -0.12796128498914836
-0.40735584394787877 -0.12796128498914836
-0.3814758853385908 -0.16169644037313463
-0.40735584394787877 -0.06049097422117577
-0.35559592672930274 0.006979336546796809
-0.27795605090143866 0.07444964731476938
-0.14855625785499857 0.20939026885071454
-0.12267629924571055 0.14191995808274196
-0.14855625785499857 0.07444964731476938
-0.09679634063642253 0.07444964731476938
-0.1744362164642866 0.14191995808274196
-0.1744362164642866 0.14191995808274196
-0.04503642341784649 0.14191995808274196
-0.14855625785499857 0.20939026885071454
-0.12267629924571055 0.17565511346672827
-0.12267629924571055 0.17565511346672827
-0.1744362164642866 0.24312542423470085
-0.1744362164642866 0.27686057961868715
-0.04503642341784649 0.3105957350026734
-0.019156464808558475 0.27686057961868715
-0.019156464808558475 0.24312542423470085
-0.04503642341784649 0.14191995808274196
-0.07091638202713452 0.24312542423470085
-0.04503642341784649 0.3105957350026734
0.03260345241001757 0.4118012011546323
0.03260345241001757 0.3105957350026734
-0.04503642341784649 0.20939026885071454
-0.07091638202713452 0.20939026885071454
-0.07091638202713452 0.17565511346672827
-0.07091638202713452 0.24312542423470085
-0.019156464808558475 0.3105957350026734
0.006723493800729544 0.3443308903866597
-0.09679634063642253 0.27686057961868715
-0.12267629924571055 0.14191995808274196
-0.14855625785499857 0.20939026885071454
-0.07091638202713452 0.3105957350026734
-0.09679634063642253 0.27686057961868715
-0.07091638202713452 0.3105957350026734
-0.14855625785499857 0.24312542423470085
-0.1744362164642866 0.14191995808274196
-0.14855625785499857 0.14191995808274196
-0.09679634063642253 0.17565511346672827
-0.019156464808558475 0.24312542423470085
-0.04503642341784649 0.14191995808274196
-0.09679634063642253 0.14191995808274196
-0.09679634063642253 0.07444964731476938
-0.14855625785499857 0.17565511346672827
-0.14855625785499857 0.17565511346672827
-0.12267629924571055 0.10818480269875567
-0.12267629924571055 0.07444964731476938
-0.14855625785499857 -0.06049097422117577
-0.1744362164642866 -0.06049097422117577
-0.25207609229215067 -0.06049097422117577
-0.12267629924571055 -0.02675581883718948
-0.14855625785499857 0.07444964731476938
-0.14855625785499857 0.07444964731476938
-0.2003161750735746 -0.09422612960516207
-0.22619613368286265 -0.09422612960516207
-0.22619613368286265 -0.06049097422117577
-0.1744362164642866 0.0407144919307831
-0.2003161750735746 0.006979336546796809
-0.2003161750735746 0.0407144919307831
-0.27795605090143866 -0.12796128498914836
-0.22619613368286265 -0.16169644037313463
-0.22619613368286265 -0.12796128498914836
-0.22619613368286265 -0.09422612960516207
-0.12267629924571055 -0.09422612960516207
-0.04503642341784649 -0.06049097422117577
-0.07091638202713452 -0.12796128498914836
-0.04503642341784649 -0.19543159575712094
-0.07091638202713452 0.006979336546796809
-0.019156464808558475 0.0407144919307831
0.0843633696285936 0.0407144919307831
0.11024332823788162 -0.02675581883718948
0.11024332823788162 -0.12796128498914836
0.13612328684716965 -0.12796128498914836
0.13612328684716965 -0.09422612960516207
0.18788320406574568 -0.02675581883718948
0.2914030385028978 0.10818480269875567
0.3431629557214738 0.0407144919307831
0.3690429143307618 0.0407144919307831
0.3431629557214738 -0.02675581883718948
0.39492287294004985 0.07444964731476938
0.4466827901586259 0.10818480269875567
0.550202624595778 0.20939026885071454
0.550202624595778 0.20939026885071454
0.4466827901586259 0.14191995808274196
0.39492287294004985 0.10818480269875567
0.39492287294004985 0.17565511346672827
0.3690429143307618 0.20939026885071454
0.39492287294004985 0.17565511346672827
0.4984427073772019 0.3105957350026734
0.4984427073772019 0.27686057961868715
0.42080283154933784 0.3443308903866597
0.4466827901586259 0.5130066673065912
0.4984427073772019 0.5130066673065912
0.7054823762515061 0.4118012011546323
0.731362334860794 0.24312542423470085
0.5243226659864899 0.10818480269875567
0.23964312128432172 0.10818480269875567
0.11024332823788162 0.17565511346672827
0.16200324545645767 0.20939026885071454
0.16200324545645767 0.24312542423470085
0.11024332823788162 0.14191995808274196
0.006723493800729544 0.07444964731476938
-0.2003161750735746 -0.06049097422117577
-0.22619613368286265 0.0407144919307831
-0.1744362164642866 0.14191995808274196
-0.1744362164642866 0.14191995808274196
-0.07091638202713452 0.10818480269875567
-0.2003161750735746 0.006979336546796809
-0.3038360095107267 -0.06049097422117577
-0.3038360095107267 -0.02675581883718948
-0.25207609229215067 0.006979336546796809
-0.22619613368286265 0.0407144919307831
-0.25207609229215067 0.10818480269875567
-0.3038360095107267 -0.09422612960516207
-0.3038360095107267 -0.06049097422117577
-0.3297159681200147 -0.02675581883718948
-0.27795605090143866 0.006979336546796809
-0.2003161750735746 0.10818480269875567
-0.25207609229215067 0.0407144919307831
-0.27795605090143866 0.07444964731476938
-0.3038360095107267 0.006979336546796809
-0.3038360095107267 0.0407144919307831
-0.3297159681200147 -0.02675581883718948
-0.3038360095107267 -0.2291667511411072
-0.3814758853385908 -0.43157768344502495
-0.614395512822183 -0.6339886157489427
-0.8473151403057751 -0.7014589265169153
-0.9249550161336392 -0.8701347034368467
-0.9508349747429272 -0.9713401695888056
-1.0025948919615033 -1.005075324972792
-1.2872744366636715 -1.005075324972792
-1.4684341469286877 -0.8701347034368467
-1.5201940641472635 -0.46531283882901125
-1.4166742297101116 0.27686057961868715
-0.9767149333522153 1.1202394642183444
-0.40735584394787877 1.9636183488180017
0.31728299711218577 2.6383214564977275
1.0419218381722504 3.2118190980254946
1.792440637841603 3.8865222057052202
3.00879869247814 4.831106556456836
4.561596209035421 5.640750285672508
5.933234015327686 5.944366684128384
6.735512732215614 4.999782333376768
6.761392690824903 2.6383214564977275
5.62267451201623 0.27686057961868715
3.189958402743156 -0.7014589265169153
0.6796024176422181 -0.49904799421299756
-0.8990750575243511 -0.19543159575712094
-1.2872744366636715 -0.2629019065250935
-0.9767149333522153 -0.2291667511411072
-0.666155430040759 -0.19543159575712094
-0.4591157611664548 -0.19543159575712094
-0.5108756783850309 -0.19543159575712094
-0.4591157611664548 -0.12796128498914836
-0.48499571977574285 -0.12796128498914836
-0.48499571977574285 -0.2629019065250935
-0.48499571977574285 -0.3303722172930661
-0.5626355956036069 -0.2629019065250935
-0.5885155542128949 -0.2291667511411072
-0.5626355956036069 -0.19543159575712094
-0.48499571977574285 -0.2629019065250935
-0.5367556369943188 -0.2291667511411072
-0.5885155542128949 -0.3303722172930661
-0.666155430040759 -0.2966370619090798
-0.5885155542128949 -0.19543159575712094
-0.614395512822183 -0.19543159575712094
-0.5626355956036069 -0.2291667511411072
-0.5367556369943188 -0.2629019065250935
-0.5885155542128949 -0.2966370619090798
-0.614395512822183 -0.19543159575712094
-0.5885155542128949 -0.2291667511411072
-0.5367556369943188 -0.12796128498914836
-0.5367556369943188 -0.16169644037313463
-0.614395512822183 -0.2966370619090798
-0.5626355956036069 -0.2629019065250935
-0.5885155542128949 -0.2291667511411072
-0.5885155542128949 -0.12796128498914836
-0.48499571977574285 -0.09422612960516207
-0.5108756783850309 -0.12796128498914836
-0.5108756783850309 -0.19543159575712094
-0.5367556369943188 -0.2629019065250935
-0.5367556369943188 -0.2629019065250935
-0.5108756783850309 -0.16169644037313463
-0.5626355956036069 -0.09422612960516207
-0.5108756783850309 -0.12796128498914836
-0.5626355956036069 -0.12796128498914836
-0.5885155542128949 -0.12796128498914836
-0.5885155542128949 -0.19543159575712094
-0.5108756783850309 -0.16169644037313463
-0.5367556369943188 -0.09422612960516207
-0.5626355956036069 -0.02675581883718948
-0.5885155542128949 -0.16169644037313463
-0.5885155542128949 -0.12796128498914836
-0.666155430040759 -0.12796128498914836
-0.5626355956036069 -0.09422612960516207
-0.48499571977574285 -0.12796128498914836
-0.5626355956036069 -0.19543159575712094
-0.640275471431471 -0.2629019065250935
-0.5885155542128949 -0.3303722172930661
-0.5626355956036069 -0.2291667511411072
-0.5626355956036069 -0.2291667511411072
-0.5108756783850309 -0.2291667511411072
-0.48499571977574285 -0.2291667511411072
-0.5367556369943188 -0.3641073726770524
-0.5626355956036069 -0.39784252806103865
-0.5626355956036069 -0.3641073726770524
-0.5367556369943188 -0.3641073726770524
-0.4591157611664548 -0.3303722172930661
-0.4591157611664548 -0.3303722172930661
-0.5108756783850309 -0.43157768344502495
-0.5885155542128949 -0.5327831495969838
-0.5885155542128949 -0.5327831495969838
-0.5367556369943188 -0.43157768344502495
-0.5367556369943188 -0.5327831495969838
-0.48499571977574285 -0.6002534603649564
-0.5885155542128949 -0.6002534603649564
-0.614395512822183 -0.7351940819009016
-0.666155430040759 -0.7014589265169153
-0.5885155542128949 -0.7014589265169153
-0.5367556369943188 -0.7014589265169153
-0.614395512822183 -0.8363995480528604
-0.614395512822183 -0.9376050142048193
-0.666155430040759 -1.005075324972792
-0.640275471431471 -0.8701347034368467
-0.5626355956036069 -0.903869858820833
-0.5626355956036069 -0.8026643926688741
-0.614395512822183 -0.8026643926688741
-0.640275471431471 -0.903869858820833
-0.5626355956036069 -0.9713401695888056
-0.614395512822183 -0.8363995480528604
-0.5367556369943188 -0.667723771132929
-0.4332358025571668 -0.5665183049809701
-0.4591157611664548 -0.49904799421299756
-0.40735584394787877 -0.5327831495969838
-0.48499571977574285 -0.49904799421299756
-0.35559592672930274 -0.3641073726770524
-0.25207609229215067 -0.12796128498914836
-0.22619613368286265 0.006979336546796809
-0.09679634063642253 0.006979336546796809
-0.12267629924571055 0.006979336546796809
-0.04503642341784649 0.0407144919307831
-0.019156464808558475 0.14191995808274196
0.0843633696285936 0.27686057961868715
0.11024332823788162 0.3105957350026734
0.11024332823788162 0.3443308903866597
0.2137631626750337 0.378066045770646
0.16200324545645767 0.3105957350026734
0.16200324545645767 0.3105957350026734
0.26552307989360974 0.44553635653861856
0.3431629557214738 0.47927151192260486
0.3431629557214738 0.44553635653861856
0.2137631626750337 0.378066045770646
0.18788320406574568 0.3443308903866597
0.23964312128432172 0.47927151192260486
0.2914030385028978 0.5804769780745638
0.31728299711218577 0.5804769780745638
0.26552307989360974 0.5467418226905775
0.18788320406574568 0.44553635653861856
0.2137631626750337 0.3443308903866597
0.23964312128432172 0.378066045770646
0.2914030385028978 0.5467418226905775
0.31728299711218577 0.5130066673065912
0.31728299711218577 0.47927151192260486
0.31728299711218577 0.378066045770646
0.26552307989360974 0.4118012011546323
0.23964312128432172 0.5130066673065912
0.2914030385028978 0.5467418226905775
0.31728299711218577 0.5130066673065912
0.31728299711218577 0.47927151192260486
0.3431629557214738 0.44553635653861856
0.26552307989360974 0.27686057961868715
0.23964312128432172 0.4118012011546323
0.31728299711218577 0.4118012011546323
0.31728299711218577 0.47927151192260486
0.23964312128432172 0.44553635653861856
0.23964312128432172 0.378066045770646
0.2137631626750337 0.378066045770646
0.2137631626750337 0.378066045770646
0.23964312128432172 0.378066045770646
0.2914030385028978 0.4118012011546323
0.26552307989360974 0.378066045770646
0.18788320406574568 0.378066045770646
0.13612328684716965 0.3105957350026734
0.11024332823788162 0.3443308903866597
0.16200324545645767 0.4118012011546323
0.16200324545645767 0.378066045770646
0.18788320406574568 0.3105957350026734
0.2137631626750337 0.24312542423470085
0.11024332823788162 0.27686057961868715
0.11024332823788162 0.20939026885071454
0.13612328684716965 0.27686057961868715
0.16200324545645767 0.4118012011546323
0.13612328684716965 0.378066045770646
0.13612328684716965 0.27686057961868715
0.058483411019305584 0.17565511346672827
0.006723493800729544 0.24312542423470085
0.0843633696285936 0.3105957350026734
0.11024332823788162 0.378066045770646
0.058483411019305584 0.24312542423470085
0.058483411019305584 0.20939026885071454
0.058483411019305584 0.0407144919307831
0.0843633696285936 0.14191995808274196
0.11024332823788162 0.14191995808274196
0.11024332823788162 0.20939026885071454
0.0843633696285936 0.3105957350026734
0.11024332823788162 0.20939026885071454
0.0843633696285936 0.14191995808274196
0.058483411019305584 0.10818480269875567
0.11024332823788162 0.20939026885071454
0.2137631626750337 0.20939026885071454
0.2137631626750337 0.20939026885071454
0.16200324545645767 0.14191995808274196
0.18788320406574568 0.17565511346672827
0.23964312128432172 0.17565511346672827
0.31728299711218577 0.24312542423470085
0.39492287294004985 0.3105957350026734
0.42080283154933784 0.27686057961868715
0.42080283154933784 0.20939026885071454
0.4466827901586259 0.20939026885071454
0.4725627487679139 0.3105957350026734
0.576082583205066 0.4118012011546323
0.576082583205066 0.47927151192260486
0.576082583205066 0.47927151192260486
0.627842500423642 0.4118012011546323
0.65372245903293 0.378066045770646
0.601962541814354 0.4118012011546323
0.627842500423642 0.47927151192260486
0.65372245903293 0.47927151192260486
0.627842500423642 0.4118012011546323
0.576082583205066 0.4118012011546323
0.4984427073772019 0.5467418226905775
0.4984427073772019 0.5804769780745638
0.601962541814354 0.6816824442265226
0.65372245903293 0.7828879103784815
0.627842500423642 0.7491527549944952
0.627842500423642 0.6816824442265226
0.627842500423642 0.6816824442265226
0.7054823762515061 0.6142121334585501
0.8090022106886582 0.6479472888425363
0.731362334860794 0.6142121334585501
0.4984427073772019 0.6816824442265226
0.31728299711218577 0.44553635653861856
0.2137631626750337 0.44553635653861856
0.23964312128432172 0.4118012011546323
0.18788320406574568 0.5130066673065912
0.13612328684716965 0.5467418226905775
0.0843633696285936 0.5130066673065912
-0.019156464808558475 0.4118012011546323
-0.09679634063642253 0.378066045770646
-0.07091638202713452 0.4118012011546323
-0.019156464808558475 0.47927151192260486
-0.019156464808558475 0.44553635653861856
0.058483411019305584 0.47927151192260486
-0.04503642341784649 0.4118012011546323
-0.07091638202713452 0.3443308903866597
-0.09679634063642253 0.378066045770646
-0.14855625785499857 0.44553635653861856
-0.04503642341784649 0.5130066673065912
-0.14855625785499857 0.378066045770646
-0.12267629924571055 0.3443308903866597
-0.14855625785499857 0.3105957350026734
-0.1744362164642866 0.3105957350026734
-0.12267629924571055 0.47927151192260486
-0.07091638202713452 0.5467418226905775
-0.07091638202713452 0.47927151192260486
-0.14855625785499857 0.378066045770646
-0.1744362164642866 0.378066045770646
-0.2003161750735746 0.3105957350026734
-0.12267629924571055 0.3443308903866597
-0.14855625785499857 0.17565511346672827
-0.27795605090143866 -0.02675581883718948
-0.5108756783850309 -0.19543159575712094
-0.692035388650047 -0.43157768344502495
-0.7955552230871991 -0.39784252806103865
-1.0284748505707912 -0.12796128498914836
-1.1578746436172314 0.3443308903866597
-1.1319946850079434 1.0190339980663856
-0.769675264477911 1.5925316395941524
-0.2003161750735746 1.8624128826660429
0.2914030385028978 2.1997644365059057
0.7054823762515061 2.5033808349617823
1.0678017967815383 2.7732620780336728
1.4560011759208586 3.2118190980254946
1.947720389497331 3.5829058072493436
2.6982391891666837 4.055197982625152
3.8887172851939327 4.5949604687689325
5.10507533983047 5.303398731832645
6.088513766983414 5.70822059644048
6.631992897778463 5.269663576448658
6.761392690824903 3.717846428785289
6.140273684201991 1.660001950362125
4.483956333207557 0.10818480269875567
1.999480306715907 -0.2629019065250935
-0.07091638202713452 -0.06049097422117577
-1.0543548091800792 0.10818480269875567
-1.0543548091800792 0.0407144919307831
-0.8473151403057751 0.10818480269875567
-0.4591157611664548 0.14191995808274196
-0.27795605090143866 0.24312542423470085
-0.25207609229215067 0.17565511346672827
-0.3297159681200147 0.20939026885071454
-0.3814758853385908 0.0407144919307831
-0.4332358025571668 0.0407144919307831
-0.3814758853385908 0.0407144919307831
-0.3297159681200147 0.17565511346672827
-0.3038360095107267 0.17565511346672827
-0.35559592672930274 0.10818480269875567
-0.35559592672930274 0.07444964731476938
-0.4332358025571668 0.0407144919307831
-0.4332358025571668 0.0407144919307831
-0.35559592672930274 0.0407144919307831
-0.27795605090143866 0.10818480269875567
-0.27795605090143866 0.14191995808274196
-0.3038360095107267 -0.02675581883718948
-0.35559592672930274 -0.02675581883718948
-0.35559592672930274 0.006979336546796809
-0.40735584394787877 0.07444964731476938
-0.27795605090143866 0.07444964731476938
-0.3038360095107267 0.006979336546796809
-0.3297159681200147 0.0407144919307831
-0.40735584394787877 -0.02675581883718948
-0.48499571977574285 0.10818480269875567
-0.3814758853385908 0.14191995808274196
-0.3297159681200147 0.14191995808274196
-0.3814758853385908 0.07444964731476938
-0.3814758853385908 0.006979336546796809
-0.3814758853385908 0.006979336546796809
-0.4591157611664548 0.07444964731476938
-0.40735584394787877 0.07444964731476938
-0.3038360095107267 0.10818480269875567
-0.3814758853385908 0.07444964731476938
-0.35559592672930274 0.0407144919307831
-0.35559592672930274 -0.02675581883718948
-0.35559592672930274 0.006979336546796809
-0.3814758853385908 0.0407144919307831
-0.25207609229215067 0.10818480269875567
-0.25207609229215067 0.006979336546796809
-0.3038360095107267 0.0407144919307831
-0.35559592672930274 -0.06049097422117577
-0.3814758853385908 0.006979336546796809
-0.3297159681200147 0.07444964731476938
-0.3038360095107267 0.10818480269875567
-0.3038360095107267 0.006979336546796809
-0.3814758853385908 -0.06049097422117577
-0.4332358025571668 -0.12796128498914836
-0.48499571977574285 -0.06049097422117577
-0.4332358025571668 0.0407144919307831
-0.3814758853385908 0.0407144919307831
-0.40735584394787877 0.006979336546796809
-0.4591157611664548 -0.12796128498914836
-0.48499571977574285 -0.09422612960516207
-0.48499571977574285 -0.12796128498914836
-0.4332358025571668 -0.06049097422117577
-0.3814758853385908 -0.02675581883718948
-0.3814758853385908 -0.06049097422117577
-0.35559592672930274 -0.12796128498914836
-0.40735584394787877 -0.2291667511411072
-0.40735584394787877 -0.16169644037313463
-0.35559592672930274 -0.09422612960516207
-0.3297159681200147 -0.19543159575712094
-0.35559592672930274 -0.2291667511411072
-0.3297159681200147 -0.2291667511411072
-0.3297159681200147 -0.3303722172930661
-0.40735584394787877 -0.3303722172930661
-0.3297159681200147 -0.2629019065250935
-0.27795605090143866 -0.3303722172930661
-0.27795605090143866 -0.39784252806103865
-0.35559592672930274 -0.49904799421299756
-0.4591157611664548 -0.5665183049809701
-0.40735584394787877 -0.5665183049809701
-0.3814758853385908 -0.46531283882901125
-0.3814758853385908 -0.39784252806103865
-0.3297159681200147 -0.46531283882901125
-0.40735584394787877 -0.6002534603649564
-0.4332358025571668 -0.6002534603649564
-0.4332358025571668 -0.6002534603649564
-0.3814758853385908 -0.49904799421299756
-0.3297159681200147 -0.49904799421299756
-0.3038360095107267 -0.5327831495969838
-0.3297159681200147 -0.5665183049809701
-0.35559592672930274 -0.5665183049809701
-0.3038360095107267 -0.46531283882901125
-0.25207609229215067 -0.43157768344502495
-0.1744362164642866 -0.2629019065250935
-0.14855625785499857 -0.2629019065250935
-0.09679634063642253 -0.2629019065250935
-0.12267629924571055 -0.2291667511411072
-0.09679634063642253 -0.09422612960516207
-0.04503642341784649 0.07444964731476938
0.0843633696285936 0.14191995808274196
0.16200324545645767 0.17565511346672827
0.16200324545645767 0.20939026885071454
0.11024332823788162 0.17565511346672827
0.13612328684716965 0.20939026885071454
0.18788320406574568 0.4118012011546323
0.23964312128432172 0.378066045770646
0.3431629557214738 0.3443308903866597
0.31728299711218577 0.4118012011546323
0.26552307989360974 0.3105957350026734
0.2137631626750337 0.378066045770646
0.2914030385028978 0.44553635653861856
0.3431629557214738 0.47927151192260486
0.2914030385028978 0.44553635653861856
0.3690429143307618 0.3105957350026734
0.31728299711218577 0.3105957350026734
0.31728299711218577 0.4118012011546323
0.39492287294004985 0.5467418226905775
0.4466827901586259 0.5130066673065912
0.39492287294004985 0.5467418226905775
0.3690429143307618 0.44553635653861856
0.39492287294004985 0.44553635653861856
0.2914030385028978 0.5130066673065912
0.3690429143307618 0.47927151192260486
0.4466827901586259 0.5467418226905775
0.4984427073772019 0.5130066673065912
0.42080283154933784 0.44553635653861856
0.42080283154933784 0.4118012011546323
0.3431629557214738 0.47927151192260486
0.4466827901586259 0.5130066673065912
0.4466827901586259 0.6479472888425363
0.4466827901586259 0.5804769780745638
0.39492287294004985 0.44553635653861856
0.3431629557214738 0.378066045770646
0.26552307989360974 0.44553635653861856
0.42080283154933784 0.47927151192260486
0.42080283154933784 0.5130066673065912
0.3431629557214738 0.5467418226905775
0.31728299711218577 0.378066045770646
0.26552307989360974 0.378066045770646
0.23964312128432172 0.4118012011546323
0.31728299711218577 0.4118012011546323
0.31728299711218577 0.47927151192260486
0.26552307989360974 0.44553635653861856
0.26552307989360974 0.47927151192260486
0.2137631626750337 0.378066045770646
0.2137631626750337 0.3443308903866597
0.23964312128432172 0.3443308903866597
0.23964312128432172 0.3443308903866597
0.23964312128432172 0.378066045770646
0.23964312128432172 0.3105957350026734
0.16200324545645767 0.24312542423470085
0.18788320406574568 0.3443308903866597
0.16200324545645767 0.3443308903866597
0.18788320406574568 0.4118012011546323
0.16200324545645767 0.3443308903866597
0.11024332823788162 0.24312542423470085
0.11024332823788162 0.20939026885071454
0.058483411019305584 0.24312542423470085
0.11024332823788162 0.3105957350026734
0.16200324545645767 0.3443308903866597
0.03260345241001757 0.27686057961868715
0.03260345241001757 0.24312542423470085
0.006723493800729544 0.14191995808274196
0.006723493800729544 0.14191995808274196
0.03260345241001757 0.17565511346672827
0.058483411019305584 0.24312542423470085
0.0843633696285936 0.3443308903866597
0.006723493800729544 0.20939026885071454
-0.04503642341784649 0.14191995808274196
-0.07091638202713452 0.14191995808274196
0.006723493800729544 0.24312542423470085
0.058483411019305584 0.20939026885071454
0.058483411019305584 0.14191995808274196
0.058483411019305584 0.14191995808274196
0.03260345241001757 0.10818480269875567
0.03260345241001757 0.14191995808274196
0.03260345241001757 0.20939026885071454
0.13612328684716965 0.3105957350026734
0.16200324545645767 0.20939026885071454
0.18788320406574568 0.10818480269875567
0.18788320406574568 0.0407144919307831
0.2137631626750337 0.14191995808274196
0.2137631626750337 0.17565511346672827
0.31728299711218577 0.3105957350026734
0.3690429143307618 0.24312542423470085
0.39492287294004985 0.17565511346672827
0.3431629557214738 0.17565511346672827
0.3431629557214738 0.20939026885071454
0.4466827901586259 0.3443308903866597
0.5243226659864899 0.44553635653861856
0.4984427073772019 0.27686057961868715
0.4984427073772019 0.3105957350026734
0.550202624595778 0.27686057961868715
0.576082583205066 0.378066045770646
0.627842500423642 0.5130066673065912
0.6796024176422181 0.4118012011546323
0.7054823762515061 0.47927151192260486
0.65372245903293 0.378066045770646
0.601962541814354 0.3105957350026734
0.576082583205066 0.378066045770646
0.550202624595778 0.5467418226905775
0.601962541814354 0.6142121334585501
0.65372245903293 0.7154175996105089
0.65372245903293 0.6142121334585501
0.576082583205066 0.6142121334585501
0.627842500423642 0.7491527549944952
0.731362334860794 0.7491527549944952
0.8866420865165222 0.6816824442265226
0.8866420865165222 0.6479472888425363
0.7572422934700821 0.47927151192260486
0.5243226659864899 0.4118012011546323
0.42080283154933784 0.44553635653861856
0.39492287294004985 0.44553635653861856
0.31728299711218577 0.5804769780745638
0.2137631626750337 0.5130066673065912
0.13612328684716965 0.3443308903866597
0.058483411019305584 0.3443308903866597
-0.019156464808558475 0.378066045770646
0.006723493800729544 0.4118012011546323
-0.04503642341784649 0.378066045770646
0.03260345241001757 0.27686057961868715
-0.019156464808558475 0.3443308903866597
-0.04503642341784649 0.24312542423470085
-0.07091638202713452 0.20939026885071454
-0.04503642341784649 0.3105957350026734
-0.019156464808558475 0.378066045770646
-0.019156464808558475 0.3105957350026734
-0.04503642341784649 0.20939026885071454
-0.14855625785499857 0.20939026885071454
-0.1744362164642866 0.24312542423470085
-0.09679634063642253 0.27686057961868715
-0.04503642341784649 0.378066045770646
-0.07091638202713452 0.27686057961868715
-0.09679634063642253 0.20939026885071454
-0.12267629924571055 0.07444964731476938
-0.12267629924571055 0.17565511346672827
-0.09679634063642253 0.3105957350026734
-0.04503642341784649 0.3443308903866597
-0.09679634063642253 0.3105957350026734
-0.09679634063642253 0.27686057961868715
-0.14855625785499857 0.27686057961868715
-0.12267629924571055 0.24312542423470085
-0.07091638202713452 0.44553635653861856
-0.04503642341784649 0.378066045770646
-0.12267629924571055 0.3105957350026734
-0.09679634063642253 0.14191995808274196
-0.2003161750735746 0.0407144919307831
-0.3038360095107267 -0.12796128498914836
-0.4591157611664548 -0.09422612960516207
-0.5885155542128949 -0.2291667511411072
-0.640275471431471 -0.3641073726770524
-0.769675264477911 -0.46531283882901125
-0.9508349747429272 -0.2966370619090798
-1.2355145194450954 0.17565511346672827
-1.1578746436172314 0.8503582211464541
-0.692035388650047 1.5587964842101663
-0.04503642341784649 2.0648238149699605
0.5243226659864899 2.5033808349617823
1.2489615070465545 2.9756730103375904
2.2582798928087873 3.6841112734013026
3.7334375335382046 4.25760891492907
5.0533154226118935 4.628695624152918
5.855594139499822 4.460019847232987
6.166153642811278 3.313024564177453
5.726194346453382 1.5587964842101663
4.302796622942541 0.10818480269875567
2.2065199755902114 -0.5327831495969838
0.23964312128432172 -0.3641073726770524
-0.8990750575243511 -0.12796128498914836
-1.2355145194450954 -0.19543159575712094
-1.0025948919615033 -0.09422612960516207
-0.692035388650047 -0.12796128498914836
-0.5108756783850309 0.07444964731476938
-0.3038360095107267 0.07444964731476938
-0.35559592672930274 0.07444964731476938
-0.3814758853385908 -0.12796128498914836
-0.4591157611664548 -0.19543159575712094
-0.4332358025571668 -0.12796128498914836
-0.40735584394787877 -0.06049097422117577
-0.3297159681200147 -0.02675581883718948
-0.40735584394787877 0.0407144919307831
-0.4332358025571668 -0.16169644037313463
-0.48499571977574285 -0.12796128498914836
-0.48499571977574285 -0.06049097422117577
-0.5108756783850309 -0.06049097422117577
-0.4332358025571668 0.006979336546796809
-0.4332358025571668 0.0407144919307831
-0.4332358025571668 -0.06049097422117577
-0.48499571977574285 -0.09422612960516207
-0.48499571977574285 -0.02675581883718948
-0.4332358025571668 0.07444964731476938
-0.3814758853385908 0.07444964731476938
-0.40735584394787877 0.006979336546796809
-0.4332358025571668 -0.02675581883718948
-0.4591157611664548 -0.12796128498914836
-0.4332358025571668 -0.09422612960516207
-0.4332358025571668 0.006979336546796809
-0.40735584394787877 0.0407144919307831
-0.48499571977574285 0.006979336546796809
-0.48499571977574285 -0.06049097422117577
-0.5626355956036069 -0.12796128498914836
-0.5885155542128949 -0.09422612960516207
-0.5367556369943188 0.006979336546796809
-0.4591157611664548 0.006979336546796809
-0.4591157611664548 -0.06049097422117577
-0.40735584394787877 -0.06049097422117577
-0.48499571977574285 -0.09422612960516207
-0.48499571977574285 -0.02675581883718948
-0.48499571977574285 -0.02675581883718948
-0.40735584394787877 -0.09422612960516207
-0.4332358025571668 -0.06049097422117577
-0.4332358025571668 -0.06049097422117577
-0.4591157611664548 -0.16169644037313463
-0.48499571977574285 -0.06049097422117577
-0.5108756783850309 -0.02675581883718948
-0.40735584394787877 0.006979336546796809
-0.48499571977574285 0.006979336546796809
-0.48499571977574285 -0.12796128498914836
-0.4591157611664548 -0.19543159575712094
-0.5108756783850309 -0.16169644037313463
-0.5108756783850309 -0.09422612960516207
-0.48499571977574285 -0.06049097422117577
-0.4591157611664548 -0.06049097422117577
-0.4591157611664548 -0.06049097422117577
-0.4332358025571668 -0.16169644037313463
-0.48499571977574285 -0.16169644037313463
-0.4332358025571668 -0.16169644037313463
-0.40735584394787877 -0.12796128498914836
-0.40735584394787877 -0.19543159575712094
-0.4332358025571668 -0.2291667511411072
-0.48499571977574285 -0.2629019065250935
-0.48499571977574285 -0.16169644037313463
-0.4591157611664548 -0.06049097422117577
-0.4332358025571668 -0.12796128498914836
-0.4591157611664548 -0.09422612960516207
-0.4332358025571668 -0.2966370619090798
-0.5367556369943188 -0.2966370619090798
-0.614395512822183 -0.39784252806103865
-0.48499571977574285 -0.2966370619090798
-0.48499571977574285 -0.2966370619090798
-0.3814758853385908 -0.2629019065250935
-0.4591157611664548 -0.39784252806103865
-0.5626355956036069 -0.46531283882901125
-0.5367556369943188 -0.43157768344502495
-0.5367556369943188 -0.46531283882901125
-0.48499571977574285 -0.39784252806103865
-0.5108756783850309 -0.43157768344502495
-0.48499571977574285 -0.5327831495969838
-0.5367556369943188 -0.6339886157489427
-0.614395512822183 -0.6002534603649564
-0.5108756783850309 -0.5327831495969838
-0.48499571977574285 -0.46531283882901125
-0.48499571977574285 -0.5665183049809701
-0.5626355956036069 -0.6002534603649564
-0.614395512822183 -0.7014589265169153
-0.614395512822183 -0.6002534603649564
-0.5367556369943188 -0.49904799421299756
-0.5108756783850309 -0.49904799421299756
-0.48499571977574285 -0.49904799421299756
-0.5626355956036069 -0.5327831495969838
-0.5626355956036069 -0.5665183049809701
-0.5367556369943188 -0.46531283882901125
-0.5367556369943188 -0.3303722172930661
-0.4591157611664548 -0.19543159575712094
-0.4332358025571668 -0.19543159575712094
-0.27795605090143866 -0.16169644037313463
-0.3038360095107267 -0.19543159575712094
-0.25207609229215067 -0.06049097422117577
-0.1744362164642866 0.006979336546796809
-0.04503642341784649 0.0407144919307831
0.006723493800729544 0.10818480269875567
-0.019156464808558475 0.10818480269875567
-0.019156464808558475 0.07444964731476938
-0.019156464808558475 0.20939026885071454
0.006723493800729544 0.3105957350026734
0.03260345241001757 0.24312542423470085
0.058483411019305584 0.24312542423470085
-0.019156464808558475 0.20939026885071454
-0.07091638202713452 0.20939026885071454
0.006723493800729544 0.20939026885071454
0.058483411019305584 0.44553635653861856
0.13612328684716965 0.3443308903866597
0.13612328684716965 0.3443308903866597
0.11024332823788162 0.27686057961868715
0.03260345241001757 0.27686057961868715
0.0843633696285936 0.378066045770646
0.058483411019305584 0.3443308903866597
0.16200324545645767 0.378066045770646
0.13612328684716965 0.3443308903866597
0.058483411019305584 0.3443308903866597
0.03260345241001757 0.24312542423470085
0.058483411019305584 0.27686057961868715
0.058483411019305584 0.3105957350026734
0.11024332823788162 0.3443308903866597
0.11024332823788162 0.3443308903866597
0.0843633696285936 0.3443308903866597
0.03260345241001757 0.17565511346672827
0.03260345241001757 0.20939026885071454
0.058483411019305584 0.3105957350026734
0.03260345241001757 0.3105957350026734
0.0843633696285936 0.27686057961868715
0.006723493800729544 0.20939026885071454
0.006723493800729544 0.07444964731476938
0.006723493800729544 0.07444964731476938
0.058483411019305584 0.20939026885071454
0.03260345241001757 0.27686057961868715
0.006723493800729544 0.24312542423470085
-0.07091638202713452 0.17565511346672827
-0.14855625785499857 0.14191995808274196
-0.14855625785499857 0.17565511346672827
-0.07091638202713452 0.27686057961868715
-0.07091638202713452 0.20939026885071454
-0.09679634063642253 0.17565511346672827
-0.07091638202713452 0.14191995808274196
-0.12267629924571055 -0.06049097422117577
-0.09679634063642253 0.0407144919307831
-0.07091638202713452 0.10818480269875567
-0.019156464808558475 0.17565511346672827
-0.019156464808558475 0.17565511346672827
-0.12267629924571055 0.07444964731476938
-0.12267629924571055 -0.06049097422117577
-0.12267629924571055 0.0407144919307831
-0.1744362164642866 0.07444964731476938
-0.09679634063642253 0.0407144919307831
-0.09679634063642253 0.0407144919307831
-0.12267629924571055 -0.02675581883718948
-0.25207609229215067 -0.12796128498914836
-0.27795605090143866 -0.09422612960516207
-0.22619613368286265 -0.09422612960516207
-0.1744362164642866 -0.02675581883718948
-0.2003161750735746 -0.12796128498914836
-0.27795605090143866 -0.19543159575712094
-0.3038360095107267 -0.2291667511411072
-0.3297159681200147 -0.16169644037313463
-0.35559592672930274 -0.09422612960516207
-0.3038360095107267 -0.02675581883718948
-0.22619613368286265 -0.09422612960516207
-0.27795605090143866 -0.16169644037313463
-0.3297159681200147 -0.2629019065250935
-0.35559592672930274 -0.2291667511411072
-0.35559592672930274 -0.09422612960516207
-0.27795605090143866 -0.16169644037313463
-0.3038360095107267 -0.09422612960516207
-0.3297159681200147 -0.16169644037313463
-0.40735584394787877 -0.2291667511411072
-0.4332358025571668 -0.2291667511411072
-0.3297159681200147 -0.19543159575712094
-0.22619613368286265 -0.19543159575712094
-0.25207609229215067 -0.16169644037313463
-0.1744362164642866 -0.19543159575712094
-0.09679634063642253 -0.19543159575712094
-0.09679634063642253 -0.12796128498914836
-0.04503642341784649 -0.09422612960516207
0.03260345241001757 -0.06049097422117577
0.058483411019305584 -0.16169644037313463
0.058483411019305584 -0.2291667511411072
0.006723493800729544 -0.3641073726770524
0.03260345241001757 -0.2629019065250935
0.058483411019305584 -0.12796128498914836
0.0843633696285936 -0.12796128498914836
0.18788320406574568 -0.12796128498914836
0.13612328684716965 -0.09422612960516207
0.23964312128432172 -0.09422612960516207
0.26552307989360974 -0.09422612960516207
0.3431629557214738 -0.02675581883718948
0.3690429143307618 0.006979336546796809
0.3431629557214738 -0.06049097422117577
0.31728299711218577 -0.16169644037313463
0.18788320406574568 -0.19543159575712094
0.0843633696285936 -0.02675581883718948
0.16200324545645767 0.07444964731476938
0.31728299711218577 0.10818480269875567
0.3431629557214738 0.20939026885071454
0.39492287294004985 0.14191995808274196
0.31728299711218577 0.17565511346672827
0.26552307989360974 0.20939026885071454
0.3690429143307618 0.24312542423470085
0.4984427073772019 0.24312542423470085
0.4984427073772019 0.10818480269875567
0.2914030385028978 -0.06049097422117577
0.0843633696285936 -0.12796128498914836
-0.07091638202713452 -0.16169644037313463
-0.04503642341784649 -0.06049097422117577
-0.07091638202713452 0.006979336546796809
-0.04503642341784649 -0.02675581883718948
-0.1744362164642866 -0.12796128498914836
-0.3297159681200147 -0.2291667511411072
-0.35559592672930274 -0.2291667511411072
-0.3814758853385908 -0.09422612960516207
-0.3814758853385908 -0.06049097422117577
-0.3297159681200147 -0.12796128498914836
-0.3038360095107267 -0.2291667511411072
-0.35559592672930274 -0.2629019065250935
-0.4332358025571668 -0.2629019065250935
-0.40735584394787877 -0.16169644037313463
-0.40735584394787877 -0.06049097422117577
-0.35559592672930274 -0.09422612960516207
-0.35559592672930274 -0.19543159575712094
-0.40735584394787877 -0.3641073726770524
-0.40735584394787877 -0.3641073726770524
-0.4332358025571668 -0.3303722172930661
-0.4332358025571668 -0.2291667511411072
-0.40735584394787877 -0.2629019065250935
-0.4332358025571668 -0.2966370619090798
-0.4332358025571668 -0.3641073726770524
-0.48499571977574285 -0.3641073726770524
-0.5108756783850309 -0.3303722172930661
-0.5108756783850309 -0.19543159575712094
-0.5367556369943188 -0.19543159575712094
-0.614395512822183 -0.2629019065250935
-0.5367556369943188 -0.2966370619090798
-0.5108756783850309 -0.2291667511411072
-0.3814758853385908 -0.19543159575712094
-0.3814758853385908 -0.09422612960516207
-0.3297159681200147 -0.12796128498914836
-0.4332358025571668 -0.2629019065250935
-0.4591157611664548 -0.43157768344502495
-0.5626355956036069 -0.667723771132929
-0.717915347259335 -0.6339886157489427
-0.8731950989150631 -0.7014589265169153
-0.8990750575243511 -0.903869858820833
-1.0543548091800792 -0.9713401695888056
-1.2096345608358074 -0.903869858820833
-1.4166742297101116 -0.46531283882901125
-1.4425541883193995 0.20939026885071454
-1.1578746436172314 0.7828879103784815
-0.5626355956036069 1.2551800857542896
0.11024332823788162 1.5250613288261798
0.8090022106886582 1.9298831934340153
1.766560679232315 2.5033808349617823
3.034678651087428 3.0431433211055627
4.380436498770405 3.61664096263333
5.36387492592335 3.8190518949372474
5.855594139499822 3.1106136318735356
5.907354056718398 1.5250613288261798
5.1309552984397575 -0.16169644037313463
3.371118113008172 -1.1062807911247508
1.2748414656558424 -1.3086917234286686
-0.3297159681200147 -1.0725456357407646
-1.1061147263986553 -0.9713401695888056
-1.3131543952729594 -0.8701347034368467
-1.2355145194450954 -0.8026643926688741
-1.0025948919615033 -0.7014589265169153
-0.7955552230871991 -0.5665183049809701
-0.692035388650047 -0.667723771132929
-0.7955552230871991 -0.8026643926688741
-0.8214351816964871 -0.7689292372848878
-0.8473151403057751 -0.7014589265169153
-0.7437953058686231 -0.6339886157489427
-0.717915347259335 -0.5665183049809701
-0.717915347259335 -0.5327831495969838
-0.8214351816964871 -0.5327831495969838
-0.8473151403057751 -0.7014589265169153
-0.8214351816964871 -0.6339886157489427
-0.8473151403057751 -0.5327831495969838
-0.7955552230871991 -0.5327831495969838
-0.7437953058686231 -0.6339886157489427
-0.7437953058686231 -0.667723771132929
-0.7955552230871991 -0.6339886157489427
-0.7955552230871991 -0.667723771132929
-0.8473151403057751 -0.667723771132929
-0.7955552230871991 -0.49904799421299756
-0.7955552230871991 -0.46531283882901125
-0.8473151403057751 -0.5327831495969838
-0.7955552230871991 -0.667723771132929
-0.7955552230871991 -0.7014589265169153
-0.7955552230871991 -0.6339886157489427
-0.8731950989150631 -0.6339886157489427
-0.8990750575243511 -0.6339886157489427
-0.8473151403057751 -0.7689292372848878
-0.8731950989150631 -0.7689292372848878
-0.8990750575243511 -0.7014589265169153
-0.8473151403057751 -0.5665183049809701
-0.769675264477911 -0.6002534603649564
-0.769675264477911 -0.5665183049809701
-0.8473151403057751 -0.6339886157489427
-0.8731950989150631 -0.667723771132929
-0.8990750575243511 -0.667723771132929
-0.8473151403057751 -0.49904799421299756
-0.8731950989150631 -0.6339886157489427
-0.8990750575243511 -0.6339886157489427
-1.0284748505707912 -0.667723771132929
-1.0802347677893673 -0.7689292372848878
-1.0543548091800792 -0.7014589265169153
-1.0025948919615033 -0.5327831495969838
-0.9249550161336392 -0.5665183049809701
-0.8473151403057751 -0.5327831495969838
-0.8473151403057751 -0.5665183049809701
-0.9767149333522153 -0.6339886157489427
-0.9249550161336392 -0.6002534603649564
-0.8990750575243511 -0.6339886157489427
-0.8473151403057751 -0.5327831495969838
-0.8731950989150631 -0.667723771132929
-0.8473151403057751 -0.7014589265169153
-0.8731950989150631 -0.7689292372848878
-0.9508349747429272 -0.7351940819009016
-1.0025948919615033 -0.6002534603649564
-0.8473151403057751 -0.5665183049809701
-0.8731950989150631 -0.6339886157489427
-0.8731950989150631 -0.7014589265169153
-0.8990750575243511 -0.7689292372848878
-0.9767149333522153 -0.7689292372848878
-0.8731950989150631 -0.8026643926688741
-0.9249550161336392 -0.7689292372848878
-0.9249550161336392 -0.7014589265169153
-0.9508349747429272 -0.8026643926688741
-0.9767149333522153 -0.903869858820833
-1.0025948919615033 -0.8701347034368467
-0.9508349747429272 -0.8363995480528604
-0.8731950989150631 -0.8026643926688741
-0.9249550161336392 -0.8701347034368467
-0.9249550161336392 -0.903869858820833
-0.9508349747429272 -0.9713401695888056
-0.9249550161336392 -0.903869858820833
-0.8473151403057751 -0.903869858820833
-0.8214351816964871 -0.9713401695888056
-0.769675264477911 -1.005075324972792
-0.9508349747429272 -1.0725456357407646
-0.9767149333522153 -1.1062807911247508
-1.0802347677893673 -1.1062807911247508
-1.0543548091800792 -1.0725456357407646
-1.0284748505707912 -1.0388104803567781
-1.0284748505707912 -1.1400159465087372
-1.0802347677893673 -1.2074862572767096
-1.1319946850079434 -1.3086917234286686
-1.1319946850079434 -1.241221412660696
-1.1061147263986553 -1.3424268788126548
-1.1061147263986553 -1.241221412660696
-1.0802347677893673 -1.2749565680446822
-1.1578746436172314 -1.2749565680446822
-1.1578746436172314 -1.4436323449646136
-1.2096345608358074 -1.3424268788126548
-1.1319946850079434 -1.3086917234286686
-1.0543548091800792 -1.2074862572767096
-1.1061147263986553 -1.1737511018927234
-1.0802347677893673 -1.1400159465087372
-1.0284748505707912 -1.1400159465087372
-0.9508349747429272 -1.0388104803567781
-0.8731950989150631 -0.8363995480528604
-0.8214351816964871 -0.8026643926688741
-0.717915347259335 -0.667723771132929
-0.7437953058686231 -0.667723771132929
-0.614395512822183 -0.5665183049809701
-0.640275471431471 -0.49904799421299756
-0.4332358025571668 -0.3303722172930661
-0.35559592672930274 -0.2629019065250935
-0.1744362164642866 -0.3303722172930661
-0.22619613368286265 -0.2629019065250935
-0.14855625785499857 -0.3303722172930661
-0.1744362164642866 -0.19543159575712094
-0.07091638202713452 -0.12796128498914836
-0.019156464808558475 -0.06049097422117577
0.006723493800729544 -0.02675581883718948
-0.09679634063642253 -0.06049097422117577
-0.04503642341784649 -0.06049097422117577
-0.019156464808558475 -0.09422612960516207
0.006723493800729544 0.006979336546796809
0.0843633696285936 0.07444964731476938
0.11024332823788162 0.006979336546796809
0.0843633696285936 0.0407144919307831
0.006723493800729544 0.0407144919307831
0.058483411019305584 0.0407144919307831
0.0843633696285936 0.07444964731476938
0.0843633696285936 0.20939026885071454
0.0843633696285936 0.14191995808274196
0.058483411019305584 0.14191995808274196
-0.04503642341784649 -0.02675581883718948
-0.04503642341784649 0.0407144919307831
0.03260345241001757 0.10818480269875567
0.006723493800729544 0.20939026885071454
0.03260345241001757 0.20939026885071454
0.03260345241001757 0.07444964731476938
-0.019156464808558475 0.0407144919307831
-0.019156464808558475 0.07444964731476938
0.058483411019305584 0.10818480269875567
0.03260345241001757 0.20939026885071454
0.03260345241001757 0.17565511346672827
-0.019156464808558475 0.07444964731476938
-0.04503642341784649 -0.06049097422117577
-0.07091638202713452 0.006979336546796809
-0.04503642341784649 0.10818480269875567
0.058483411019305584 0.0407144919307831
0.006723493800729544 0.14191995808274196
-0.019156464808558475 0.07444964731476938
-0.07091638202713452 0.006979336546796809
-0.12267629924571055 0.0407144919307831
-0.04503642341784649 -0.02675581883718948
0.03260345241001757 0.0407144919307831
-0.04503642341784649 0.006979336546796809
-0.04503642341784649 -0.09422612960516207
-0.14855625785499857 -0.09422612960516207
-0.12267629924571055 -0.02675581883718948
-0.09679634063642253 -0.02675581883718948
-0.07091638202713452 0.0407144919307831
-0.07091638202713452 0.006979336546796809
-0.12267629924571055 -0.06049097422117577
-0.2003161750735746 -0.19543159575712094
-0.2003161750735746 -0.2291667511411072
-0.14855625785499857 -0.12796128498914836
-0.12267629924571055 0.0407144919307831
-0.12267629924571055 -0.02675581883718948
-0.1744362164642866 -0.12796128498914836
-0.22619613368286265 -0.19543159575712094
-0.25207609229215067 -0.2629019065250935
-0.25207609229215067 -0.16169644037313463
-0.1744362164642866 -0.09422612960516207
-0.1744362164642866 -0.06049097422117577
-0.2003161750735746 -0.19543159575712094
-0.1744362164642866 -0.19543159575712094
-0.2003161750735746 -0.2291667511411072
-0.12267629924571055 -0.12796128498914836
-0.09679634063642253 -0.06049097422117577
-0.14855625785499857 -0.16169644037313463
-0.09679634063642253 -0.16169644037313463
-0.12267629924571055 -0.16169644037313463
-0.2003161750735746 -0.19543159575712094
-0.1744362164642866 -0.12796128498914836
-0.14855625785499857 -0.02675581883718948
-0.1744362164642866 -0.09422612960516207
-0.2003161750735746 -0.2629019065250935
-0.2003161750735746 -0.2291667511411072
-0.25207609229215067 -0.12796128498914836
-0.14855625785499857 -0.12796128498914836
-0.1744362164642866 -0.06049097422117577
-0.14855625785499857 -0.16169644037313463
-0.12267629924571055 -0.12796128498914836
-0.09679634063642253 -0.2291667511411072
-0.07091638202713452 -0.2629019065250935
-0.019156464808558475 -0.19543159575712094
0.0843633696285936 -0.12796128498914836
0.16200324545645767 -0.06049097422117577
0.18788320406574568 -0.12796128498914836
0.11024332823788162 -0.2629019065250935
0.18788320406574568 -0.19543159575712094
0.23964312128432172 -0.16169644037313463
0.26552307989360974 -0.12796128498914836
0.3431629557214738 0.006979336546796809
0.3690429143307618 0.006979336546796809
0.39492287294004985 -0.12796128498914836
0.39492287294004985 -0.09422612960516207
0.42080283154933784 0.006979336546796809
0.4725627487679139 0.10818480269875567
0.550202624595778 0.0407144919307831
0.5243226659864899 -0.02675581883718948
0.4725627487679139 -0.06049097422117577
0.4466827901586259 0.006979336546796809
0.4725627487679139 0.14191995808274196
0.4984427073772019 0.17565511346672827
0.42080283154933784 0.14191995808274196
0.4466827901586259 0.10818480269875567
0.42080283154933784 0.006979336546796809
0.39492287294004985 0.10818480269875567
0.4984427073772019 0.3105957350026734
0.576082583205066 0.24312542423470085
0.6796024176422181 0.24312542423470085
0.7831222520793701 0.10818480269875567
0.576082583205066 -0.02675581883718948
0.3431629557214738 0.0407144919307831
0.23964312128432172 0.07444964731476938
0.26552307989360974 0.07444964731476938
0.2137631626750337 0.006979336546796809
0.11024332823788162 0.006979336546796809
0.03260345241001757 -0.12796128498914836
-0.09679634063642253 -0.09422612960516207
-0.07091638202713452 -0.02675581883718948
-0.14855625785499857 -0.06049097422117577
-0.2003161750735746 -0.06049097422117577
-0.2003161750735746 -0.16169644037313463
-0.2003161750735746 -0.16169644037313463
-0.25207609229215067 -0.12796128498914836
-0.22619613368286265 -0.06049097422117577
-0.14855625785499857 -0.09422612960516207
-0.14855625785499857 -0.06049097422117577
-0.2003161750735746 -0.09422612960516207
-0.22619613368286265 -0.19543159575712094
-0.22619613368286265 -0.19543159575712094
-0.14855625785499857 -0.09422612960516207
-0.14855625785499857 -0.06049097422117577
-0.2003161750735746 -0.12796128498914836
-0.2003161750735746 -0.12796128498914836
-0.3038360095107267 -0.2629019065250935
-0.27795605090143866 -0.19543159575712094
-0.22619613368286265 -0.12796128498914836
-0.27795605090143866 -0.09422612960516207
-0.25207609229215067 -0.09422612960516207
-0.2003161750735746 -0.19543159575712094
-0.27795605090143866 -0.2291667511411072
-0.35559592672930274 -0.16169644037313463
-0.3038360095107267 -0.12796128498914836
-0.25207609229215067 -0.12796128498914836
-0.3297159681200147 -0.2629019065250935
-0.3814758853385908 -0.46531283882901125
-0.5626355956036069 -0.667723771132929
-0.7437953058686231 -0.7689292372848878
-0.8214351816964871 -0.8026643926688741
-0.8990750575243511 -0.8363995480528604
-1.0802347677893673 -0.5665183049809701
-1.2355145194450954 -0.16169644037313463
-1.2096345608358074 0.47927151192260486
-0.769675264477911 1.2551800857542896
0.006723493800729544 1.9298831934340153
0.8866420865165222 2.5033808349617823
1.7406807206230268 3.1106136318735356
2.8535189408224118 3.61664096263333
4.225156747114677 4.190138604161096
5.49327471896979 4.79737140107285
6.450833187513447 4.79737140107285
6.813152608043479 3.8190518949372474
6.528473063341311 1.896148038050029
5.182715215658334 -0.02675581883718948
3.034678651087428 -1.005075324972792
0.8090022106886582 -1.0388104803567781
-0.692035388650047 -0.7351940819009016
-1.2613944780543835 -0.667723771132929
-1.2613944780543835 -0.6002534603649564
-1.0802347677893673 -0.5665183049809701
-0.8473151403057751 -0.5327831495969838
-0.640275471431471 -0.46531283882901125
-0.5367556369943188 -0.46531283882901125
-0.4591157611664548 -0.46531283882901125
-0.5367556369943188 -0.5327831495969838
-0.5885155542128949 -0.5665183049809701
-0.5626355956036069 -0.667723771132929
-0.614395512822183 -0.6002534603649564
-0.5367556369943188 -0.43157768344502495
-0.5626355956036069 -0.39784252806103865
-0.5367556369943188 -0.49904799421299756
-0.5885155542128949 -0.49904799421299756
-0.666155430040759 -0.5665183049809701
-0.717915347259335 -0.5665183049809701
-0.640275471431471 -0.5327831495969838
-0.666155430040759 -0.43157768344502495
-0.640275471431471 -0.46531283882901125
-0.640275471431471 -0.49904799421299756
-0.666155430040759 -0.6339886157489427
-0.717915347259335 -0.6002534603649564
-0.640275471431471 -0.49904799421299756
-0.5885155542128949 -0.39784252806103865
-0.5626355956036069 -0.43157768344502495
-0.640275471431471 -0.49904799421299756
-0.692035388650047 -0.5665183049809701
-0.692035388650047 -0.46531283882901125
-0.666155430040759 -0.5327831495969838
-0.640275471431471 -0.43157768344502495
-0.614395512822183 -0.39784252806103865
-0.666155430040759 -0.46531283882901125
-0.692035388650047 -0.5665183049809701
-0.7437953058686231 -0.5327831495969838
-0.717915347259335 -0.43157768344502495
-0.717915347259335 -0.43157768344502495
-0.692035388650047 -0.39784252806103865
-0.666155430040759 -0.46531283882901125
-0.666155430040759 -0.5327831495969838
-0.717915347259335 -0.49904799421299756
-0.666155430040759 -0.49904799421299756
-0.640275471431471 -0.3641073726770524
-0.614395512822183 -0.46531283882901125
-0.640275471431471 -0.5327831495969838
-0.692035388650047 -0.5665183049809701
-0.717915347259335 -0.43157768344502495
-0.692035388650047 -0.3641073726770524
-0.640275471431471 -0.3641073726770524
-0.640275471431471 -0.43157768344502495
-0.5885155542128949 -0.49904799421299756
-0.692035388650047 -0.5665183049809701
-0.692035388650047 -0.49904799421299756
-0.640275471431471 -0.46531283882901125
-0.5885155542128949 -0.3641073726770524
-0.5885155542128949 -0.43157768344502495
-0.666155430040759 -0.43157768344502495
-0.692035388650047 -0.5665183049809701
-0.717915347259335 -0.49904799421299756
-0.692035388650047 -0.46531283882901125
-0.640275471431471 -0.46531283882901125
-0.614395512822183 -0.49904799421299756
-0.666155430040759 -0.5327831495969838
-0.692035388650047 -0.6339886157489427
-0.692035388650047 -0.6339886157489427
-0.640275471431471 -0.5327831495969838
-0.5885155542128949 -0.5327831495969838
-0.614395512822183 -0.5327831495969838
-0.614395512822183 -0.7014589265169153
-0.640275471431471 -0.7351940819009016
-0.666155430040759 -0.8026643926688741
-0.640275471431471 -0.7351940819009016
-0.5626355956036069 -0.667723771132929
-0.5885155542128949 -0.6339886157489427
-0.614395512822183 -0.8363995480528604
-0.692035388650047 -0.903869858820833
-0.692035388650047 -0.8363995480528604
-0.640275471431471 -0.8701347034368467
-0.5626355956036069 -0.8363995480528604
-0.640275471431471 -0.8363995480528604
-0.5626355956036069 -0.9376050142048193
-0.614395512822183 -1.0388104803567781
-0.692035388650047 -0.9376050142048193
-0.614395512822183 -0.903869858820833
-0.640275471431471 -0.8701347034368467
-0.5626355956036069 -0.8363995480528604
-0.717915347259335 -1.005075324972792
-0.717915347259335 -1.0725456357407646
-0.769675264477911 -1.1062807911247508
-0.692035388650047 -1.0388104803567781
-0.666155430040759 -0.9713401695888056
-0.5885155542128949 -0.9713401695888056
-0.692035388650047 -1.1062807911247508
-0.666155430040759 -1.1400159465087372
-0.666155430040759 -1.0388104803567781
-0.640275471431471 -0.9713401695888056
-0.5885155542128949 -0.9713401695888056
-0.5626355956036069 -0.9376050142048193
-0.5367556369943188 -0.9376050142048193
-0.614395512822183 -0.9713401695888056
-0.48499571977574285 -0.7689292372848878
-0.4332358025571668 -0.6339886157489427
-0.3038360095107267 -0.49904799421299756
-0.2003161750735746 -0.49904799421299756
-0.22619613368286265 -0.46531283882901125
-0.2003161750735746 -0.43157768344502495
-0.14855625785499857 -0.3303722172930661
-0.09679634063642253 -0.19543159575712094
0.006723493800729544 -0.09422612960516207
0.058483411019305584 -0.06049097422117577
0.0843633696285936 -0.06049097422117577
0.058483411019305584 -0.12796128498914836
0.058483411019305584 -0.06049097422117577
0.16200324545645767 0.10818480269875567
0.16200324545645767 0.17565511346672827
0.26552307989360974 0.20939026885071454
0.23964312128432172 0.24312542423470085
0.2137631626750337 0.07444964731476938
0.23964312128432172 0.14191995808274196
0.18788320406574568 0.24312542423470085
0.3431629557214738 0.27686057961868715
0.3431629557214738 0.24312542423470085
0.3690429143307618 0.20939026885071454
0.31728299711218577 0.17565511346672827
0.26552307989360974 0.24312542423470085
0.31728299711218577 0.3105957350026734
0.3431629557214738 0.378066045770646
0.3431629557214738 0.3443308903866597
0.3690429143307618 0.27686057961868715
0.31728299711218577 0.24312542423470085
0.3431629557214738 0.24312542423470085
0.2914030385028978 0.3105957350026734
0.3431629557214738 0.378066045770646
0.3690429143307618 0.4118012011546323
0.31728299711218577 0.3105957350026734
0.31728299711218577 0.24312542423470085
0.26552307989360974 0.3105957350026734
0.2914030385028978 0.378066045770646
0.3690429143307618 0.378066045770646
0.31728299711218577 0.4118012011546323
0.26552307989360974 0.3105957350026734
0.26552307989360974 0.27686057961868715
0.23964312128432172 0.20939026885071454
0.23964312128432172 0.378066045770646
0.26552307989360974 0.3105957350026734
0.23964312128432172 0.27686057961868715
0.26552307989360974 0.24312542423470085
0.18788320406574568 0.17565511346672827
0.18788320406574568 0.14191995808274196
0.23964312128432172 0.27686057961868715
0.26552307989360974 0.24312542423470085
0.23964312128432172 0.17565511346672827
0.26552307989360974 0.17565511346672827
0.2137631626750337 0.10818480269875567
0.11024332823788162 0.20939026885071454
0.13612328684716965 0.14191995808274196
0.13612328684716965 0.14191995808274196
0.16200324545645767 0.14191995808274196
0.2137631626750337 0.14191995808274196
0.13612328684716965 0.07444964731476938
0.058483411019305584 0.0407144919307831
0.16200324545645767 0.0407144919307831
0.16200324545645767 0.10818480269875567
0.13612328684716965 0.0407144919307831
0.058483411019305584 -0.06049097422117577
-0.019156464808558475 -0.06049097422117577
-0.04503642341784649 -0.02675581883718948
0.006723493800729544 0.0407144919307831
0.0843633696285936 0.14191995808274196
0.058483411019305584 0.17565511346672827
0.006723493800729544 0.0407144919307831
-0.019156464808558475 -0.02675581883718948
-0.07091638202713452 -0.06049097422117577
-0.04503642341784649 0.0407144919307831
0.03260345241001757 0.10818480269875567
-0.04503642341784649 0.17565511346672827
0.006723493800729544 -0.06049097422117577
-0.04503642341784649 -0.06049097422117577
-0.04503642341784649 -0.06049097422117577
0.0843633696285936 0.006979336546796809
0.16200324545645767 0.07444964731476938
0.2914030385028978 0.006979336546796809
0.26552307989360974 -0.06049097422117577
0.26552307989360974 -0.09422612960516207
0.3431629557214738 -0.02675581883718948
0.3690429143307618 0.006979336546796809
0.4466827901586259 0.0407144919307831
0.5243226659864899 -0.02675581883718948
0.4984427073772019 0.006979336546796809
0.4725627487679139 -0.06049097422117577
0.4984427073772019 0.0407144919307831
0.5243226659864899 0.07444964731476938
0.601962541814354 0.14191995808274196
0.6796024176422181 0.27686057961868715
0.6796024176422181 0.17565511346672827
0.627842500423642 0.10818480269875567
0.576082583205066 0.10818480269875567
0.550202624595778 0.17565511346672827
0.601962541814354 0.24312542423470085
0.550202624595778 0.24312542423470085
0.5243226659864899 0.27686057961868715
0.550202624595778 0.24312542423470085
0.5243226659864899 0.24312542423470085
0.601962541814354 0.44553635653861856
0.627842500423642 0.5130066673065912
0.65372245903293 0.4118012011546323
0.7572422934700821 0.5130066673065912
0.8090022106886582 0.3105957350026734
0.8090022106886582 0.3105957350026734
0.7054823762515061 0.3443308903866597
0.550202624595778 0.378066045770646
0.39492287294004985 0.27686057961868715
0.3690429143307618 0.20939026885071454
0.26552307989360974 0.10818480269875567
0.11024332823788162 0.17565511346672827
0.03260345241001757 0.20939026885071454
0.058483411019305584 0.20939026885071454
-0.019156464808558475 0.24312542423470085
-0.04503642341784649 0.14191995808274196
-0.12267629924571055 0.07444964731476938
-0.2003161750735746 0.07444964731476938
-0.09679634063642253 0.10818480269875567
-0.12267629924571055 0.17565511346672827
-0.04503642341784649 0.14191995808274196
-0.09679634063642253 0.17565511346672827
-0.12267629924571055 0.0407144919307831
-0.1744362164642866 0.07444964731476938
-0.12267629924571055 0.14191995808274196
-0.09679634063642253 0.17565511346672827
-0.07091638202713452 0.17565511346672827
-0.07091638202713452 0.10818480269875567
-0.14855625785499857 0.0407144919307831
-0.14855625785499857 0.0407144919307831
-0.12267629924571055 0.10818480269875567
-0.12267629924571055 0.14191995808274196
-0.12267629924571055 0.17565511346672827
-0.12267629924571055 0.07444964731476938
-0.22619613368286265 0.006979336546796809
-0.22619613368286265 0.0407144919307831
-0.1744362164642866 0.07444964731476938
-0.12267629924571055 0.006979336546796809
-0.1744362164642866 -0.02675581883718948
-0.1744362164642866 -0.2966370619090798
-0.4591157611664548 -0.3641073726770524
-0.614395512822183 -0.46531283882901125
-0.717915347259335 -0.46531283882901125
-0.692035388650047 -0.6002534603649564
-0.7955552230871991 -0.667723771132929
-1.0802347677893673 -0.5327831495969838
-1.2096345608358074 -0.09422612960516207
-1.2355145194450954 0.5467418226905775
-0.769675264477911 1.3226503965222622
-0.14855625785499857 1.9973535042019879
0.65372245903293 2.5371159903457685
1.5077610931394347 3.1443487872575218
2.5947193547295315 3.650376118017316
4.018117078240373 4.358814381081028
5.467394760360501 4.729901090304877
6.3214333944670065 4.325079225697042
6.502593104732022 2.7732620780336728
5.62267451201623 0.7491527549944952
3.6299176991010524 -0.2966370619090798
1.1713216312186905 -0.49904799421299756
-0.5885155542128949 -0.3303722172930661
-1.2096345608358074 -0.16169644037313463
-1.0543548091800792 -0.16169644037313463
-0.692035388650047 -0.19543159575712094
-0.5367556369943188 -0.2629019065250935
-0.48499571977574285 -0.2629019065250935
-0.4332358025571668 -0.19543159575712094
-0.4332358025571668 -0.19543159575712094
-0.3814758853385908 -0.16169644037313463
-0.4332358025571668 -0.2629019065250935
-0.3814758853385908 -0.2629019065250935
-0.48499571977574285 -0.2629019065250935
-0.48499571977574285 -0.19543159575712094
-0.4332358025571668 -0.12796128498914836
-0.3814758853385908 -0.2291667511411072
-0.40735584394787877 -0.2966370619090798
-0.4332358025571668 -0.3641073726770524
-0.4332358025571668 -0.3303722172930661
-0.4332358025571668 -0.2629019065250935
-0.3814758853385908 -0.19543159575712094
-0.3814758853385908 -0.19543159575712094
-0.3038360095107267 -0.2629019065250935
-0.4591157611664548 -0.2966370619090798
-0.4591157611664548 -0.3641073726770524
-0.4332358025571668 -0.2629019065250935
-0.40735584394787877 -0.19543159575712094
-0.4332358025571668 -0.2291667511411072
-0.48499571977574285 -0.2966370619090798
-0.48499571977574285 -0.2966370619090798
-0.5626355956036069 -0.2966370619090798
-0.5367556369943188 -0.2629019065250935
-0.4332358025571668 -0.2291667511411072
-0.40735584394787877 -0.16169644037313463
-0.4332358025571668 -0.2629019065250935
-0.48499571977574285 -0.2291667511411072
-0.5108756783850309 -0.2629019065250935
-0.5108756783850309 -0.2291667511411072
-0.4332358025571668 -0.19543159575712094
-0.40735584394787877 -0.19543159575712094
-0.4332358025571668 -0.2629019065250935
-0.4591157611664548 -0.3641073726770524
-0.48499571977574285 -0.3641073726770524
-0.4332358025571668 -0.2629019065250935
-0.40735584394787877 -0.19543159575712094
-0.3814758853385908 -0.2629019065250935
-0.4332358025571668 -0.2291667511411072
-0.4332358025571668 -0.3303722172930661
-0.4591157611664548 -0.3303722172930661
-0.40735584394787877 -0.2629019065250935
-0.40735584394787877 -0.2291667511411072
-0.3814758853385908 -0.2629019065250935
-0.4332358025571668 -0.2966370619090798
-0.4332358025571668 -0.3641073726770524
-0.4591157611664548 -0.3641073726770524
-0.4332358025571668 -0.2629019065250935
-0.4332358025571668 -0.2629019065250935
-0.4332358025571668 -0.3303722172930661
-0.4591157611664548 -0.3303722172930661
-0.40735584394787877 -0.39784252806103865
-0.48499571977574285 -0.3641073726770524
-0.4591157611664548 -0.3641073726770524
-0.4332358025571668 -0.2966370619090798
-0.3814758853385908 -0.3641073726770524
-0.40735584394787877 -0.46531283882901125
-0.4332358025571668 -0.49904799421299756
-0.40735584394787877 -0.5665183049809701
-0.35559592672930274 -0.43157768344502495
-0.35559592672930274 -0.46531283882901125
-0.3038360095107267 -0.39784252806103865
-0.3038360095107267 -0.5665183049809701
-0.40735584394787877 -0.6339886157489427
-0.4591157611664548 -0.5665183049809701
-0.40735584394787877 -0.5327831495969838
-0.35559592672930274 -0.5327831495969838
-0.35559592672930274 -0.6002534603649564
-0.3814758853385908 -0.7014589265169153
-0.40735584394787877 -0.7689292372848878
-0.4591157611664548 -0.7351940819009016
-0.4332358025571668 -0.667723771132929
-0.35559592672930274 -0.667723771132929
-0.3814758853385908 -0.667723771132929
-0.35559592672930274 -0.8026643926688741
-0.4591157611664548 -0.8363995480528604
-0.4591157611664548 -0.8026643926688741
-0.40735584394787877 -0.7014589265169153
-0.40735584394787877 -0.667723771132929
-0.35559592672930274 -0.667723771132929
-0.35559592672930274 -0.667723771132929
-0.40735584394787877 -0.7351940819009016
-0.40735584394787877 -0.7014589265169153
-0.40735584394787877 -0.6002534603649564
-0.3038360095107267 -0.46531283882901125
-0.25207609229215067 -0.46531283882901125
-0.2003161750735746 -0.39784252806103865
-0.22619613368286265 -0.3641073726770524
-0.22619613368286265 -0.2629019065250935
-0.04503642341784649 -0.19543159575712094
-0.019156464808558475 -0.09422612960516207
0.058483411019305584 -0.12796128498914836
0.0843633696285936 -0.06049097422117577
0.0843633696285936 0.0407144919307831
0.058483411019305584 0.0407144919307831
0.18788320406574568 0.14191995808274196
0.23964312128432172 0.24312542423470085
0.2137631626750337 0.17565511346672827
0.2137631626750337 0.14191995808274196
0.2137631626750337 0.10818480269875567
0.18788320406574568 0.20939026885071454
0.26552307989360974 0.24312542423470085
0.3690429143307618 0.4118012011546323
0.2914030385028978 0.378066045770646
0.26552307989360974 0.24312542423470085
0.23964312128432172 0.24312542423470085
0.2137631626750337 0.24312542423470085
0.26552307989360974 0.27686057961868715
0.2914030385028978 0.378066045770646
0.2914030385028978 0.378066045770646
0.26552307989360974 0.27686057961868715
0.23964312128432172 0.20939026885071454
0.16200324545645767 0.24312542423470085
0.23964312128432172 0.378066045770646
0.31728299711218577 0.3443308903866597
0.31728299711218577 0.20939026885071454
0.23964312128432172 0.20939026885071454
0.26552307989360974 0.17565511346672827
0.23964312128432172 0.27686057961868715
0.31728299711218577 0.3105957350026734
0.26552307989360974 0.378066045770646
0.2914030385028978 0.3443308903866597
0.26552307989360974 0.3105957350026734
0.18788320406574568 0.27686057961868715
0.16200324545645767 0.24312542423470085
0.18788320406574568 0.3105957350026734
0.23964312128432172 0.378066045770646
0.2914030385028978 0.3443308903866597
0.2137631626750337 0.3105957350026734
0.18788320406574568 0.24312542423470085
0.16200324545645767 0.3105957350026734
0.18788320406574568 0.3443308903866597
0.16200324545645767 0.3443308903866597
0.18788320406574568 0.3105957350026734
0.18788320406574568 0.3443308903866597
0.0843633696285936 0.10818480269875567
0.058483411019305584 0.17565511346672827
0.0843633696285936 0.24312542423470085
0.0843633696285936 0.27686057961868715
0.11024332823788162 0.24312542423470085
0.058483411019305584 0.20939026885071454
-0.019156464808558475 0.10818480269875567
-0.04503642341784649 0.0407144919307831
-0.019156464808558475 0.17565511346672827
0.03260345241001757 0.20939026885071454
0.03260345241001757 0.17565511346672827
0.006723493800729544 0.14191995808274196
0.006723493800729544 0.07444964731476938
-0.04503642341784649 0.07444964731476938
-0.019156464808558475 0.0407144919307831
-0.019156464808558475 0.14191995808274196
0.006723493800729544 0.006979336546796809
-0.019156464808558475 0.07444964731476938
-0.07091638202713452 0.006979336546796809
-0.09679634063642253 -0.06049097422117577
-0.09679634063642253 0.0407144919307831
-0.07091638202713452 0.07444964731476938
-0.04503642341784649 0.006979336546796809
-0.07091638202713452 -0.06049097422117577
-0.12267629924571055 -0.02675581883718948
-0.09679634063642253 -0.02675581883718948
-0.07091638202713452 0.07444964731476938
-0.07091638202713452 0.006979336546796809
-0.07091638202713452 0.006979336546796809
-0.07091638202713452 -0.02675581883718948
-0.12267629924571055 -0.09422612960516207
-0.1744362164642866 -0.12796128498914836
-0.12267629924571055 -0.02675581883718948
-0.04503642341784649 -0.02675581883718948
-0.04503642341784649 -0.02675581883718948
-0.09679634063642253 -0.09422612960516207
-0.04503642341784649 -0.12796128498914836
-0.07091638202713452 -0.09422612960516207
-0.019156464808558475 0.0407144919307831
0.006723493800729544 -0.02675581883718948
0.0843633696285936 0.006979336546796809
0.13612328684716965 -0.16169644037313463
0.0843633696285936 -0.09422612960516207
0.13612328684716965 -0.09422612960516207
0.16200324545645767 -0.02675581883718948
0.23964312128432172 0.006979336546796809
0.31728299711218577 0.006979336546796809
0.31728299711218577 -0.06049097422117577
0.2914030385028978 -0.12796128498914836
0.2137631626750337 -0.06049097422117577
0.31728299711218577 0.006979336546796809
0.4466827901586259 0.14191995808274196
0.550202624595778 0.10818480269875567
0.550202624595778 0.10818480269875567
0.550202624595778 0.07444964731476938
0.5243226659864899 0.10818480269875567
0.576082583205066 0.14191995808274196
0.576082583205066 0.20939026885071454
0.550202624595778 0.20939026885071454
0.4984427073772019 0.20939026885071454
0.39492287294004985 0.17565511346672827
0.4466827901586259 0.24312542423470085
0.4725627487679139 0.3443308903866597
0.5243226659864899 0.44553635653861856
0.601962541814354 0.47927151192260486
0.576082583205066 0.378066045770646
0.6796024176422181 0.3105957350026734
0.65372245903293 0.24312542423470085
0.65372245903293 0.24312542423470085
0.5243226659864899 0.3105957350026734
0.3431629557214738 0.20939026885071454
0.2914030385028978 0.07444964731476938
0.16200324545645767 0.10818480269875567
0.058483411019305584 0.0407144919307831
0.03260345241001757 0.14191995808274196
0.006723493800729544 0.20939026885071454
-0.07091638202713452 0.0407144919307831
-0.09679634063642253 0.006979336546796809
-0.12267629924571055 -0.06049097422117577
-0.14855625785499857 -0.12796128498914836
-0.14855625785499857 -0.02675581883718948
-0.07091638202713452 0.14191995808274196
-0.09679634063642253 0.006979336546796809
-0.2003161750735746 -0.09422612960516207
-0.2003161750735746 -0.09422612960516207
-0.25207609229215067 -0.16169644037313463
-0.27795605090143866 -0.09422612960516207
-0.22619613368286265 -0.06049097422117577
-0.2003161750735746 -0.16169644037313463
-0.22619613368286265 -0.12796128498914836
-0.2003161750735746 -0.09422612960516207
-0.25207609229215067 -0.16169644037313463
-0.2003161750735746 -0.19543159575712094
-0.2003161750735746 -0.09422612960516207
-0.2003161750735746 -0.12796128498914836
-0.2003161750735746 -0.16169644037313463
-0.25207609229215067 -0.19543159575712094
-0.3038360095107267 -0.19543159575712094
-0.22619613368286265 -0.16169644037313463
-0.1744362164642866 -0.16169644037313463
-0.22619613368286265 -0.2291667511411072
-0.27795605090143866 -0.43157768344502495
-0.4332358025571668 -0.5665183049809701
-0.717915347259335 -0.8363995480528604
-0.7955552230871991 -0.8363995480528604
-0.9249550161336392 -0.8026643926688741
-1.0284748505707912 -0.5665183049809701
-1.2355145194450954 -0.06049097422117577
-1.1837546022265193 0.6479472888425363
-0.7437953058686231 1.187709774986317
0.03260345241001757 1.7949425718980703
0.8866420865165222 2.368440213425837
1.973600348106619 3.0094081657215765
3.4746379474453244 3.5829058072493436
4.923915629565453 3.9202573610892064
5.700314387844094 3.4817003410973846
5.933234015327686 2.0985589703539467
5.2085951742676215 0.3443308903866597
3.241718319961732 -0.7351940819009016
0.7572422934700821 -0.8363995480528604
-0.9508349747429272 -0.6339886157489427
-1.5201940641472635 -0.667723771132929
-1.2355145194450954 -0.5327831495969838
-0.8214351816964871 -0.39784252806103865
-0.5626355956036069 -0.49904799421299756
-0.5626355956036069 -0.5665183049809701
-0.614395512822183 -0.6002534603649564
-0.692035388650047 -0.667723771132929
-0.5367556369943188 -0.49904799421299756
-0.48499571977574285 -0.49904799421299756
-0.5108756783850309 -0.5327831495969838
-0.5626355956036069 -0.5327831495969838
-0.5626355956036069 -0.6002534603649564
-0.692035388650047 -0.6339886157489427
-0.614395512822183 -0.6002534603649564
-0.5367556369943188 -0.5327831495969838
-0.5626355956036069 -0.5665183049809701
-0.5885155542128949 -0.667723771132929
-0.640275471431471 -0.5665183049809701
-0.717915347259335 -0.6002534603649564
-0.640275471431471 -0.6002534603649564
-0.614395512822183 -0.46531283882901125
-0.614395512822183 -0.5665183049809701
-0.5626355956036069 -0.5665183049809701
-0.614395512822183 -0.667723771132929
-0.717915347259335 -0.6339886157489427
-0.614395512822183 -0.5665183049809701
-0.5626355956036069 -0.46531283882901125
-0.614395512822183 -0.5665183049809701
-0.614395512822183 -0.5665183049809701
-0.640275471431471 -0.6002534603649564
-0.666155430040759 -0.6002534603649564
-0.640275471431471 -0.5665183049809701
-0.614395512822183 -0.5327831495969838
-0.5626355956036069 -0.5327831495969838
-0.5885155542128949 -0.6002534603649564
-0.640275471431471 -0.6002534603649564
-0.666155430040759 -0.6002534603649564
-0.640275471431471 -0.6002534603649564
-0.5367556369943188 -0.5665183049809701
-0.5108756783850309 -0.5665183049809701
-0.5626355956036069 -0.6002534603649564
-0.614395512822183 -0.667723771132929
-0.692035388650047 -0.6339886157489427
-0.666155430040759 -0.5665183049809701
-0.614395512822183 -0.5665183049809701
-0.5885155542128949 -0.6002534603649564
-0.5626355956036069 -0.667723771132929
-0.614395512822183 -0.7014589265169153
-0.692035388650047 -0.667723771132929
-0.692035388650047 -0.667723771132929
-0.614395512822183 -0.6339886157489427
-0.5626355956036069 -0.667723771132929
-0.5885155542128949 -0.7689292372848878
-0.666155430040759 -0.7689292372848878
-0.666155430040759 -0.7014589265169153
-0.666155430040759 -0.667723771132929
-0.614395512822183 -0.6339886157489427
-0.5885155542128949 -0.7014589265169153
-0.5626355956036069 -0.8026643926688741
-0.5885155542128949 -0.8363995480528604
-0.5885155542128949 -0.8363995480528604
-0.5885155542128949 -0.8026643926688741
-0.48499571977574285 -0.7689292372848878
-0.5367556369943188 -0.8026643926688741
-0.5367556369943188 -0.9376050142048193
-0.5367556369943188 -1.005075324972792
-0.5885155542128949 -0.9713401695888056
-0.5626355956036069 -0.9713401695888056
-0.5626355956036069 -0.9376050142048193
-0.5626355956036069 -1.0388104803567781
-0.5885155542128949 -1.0725456357407646
-0.666155430040759 -1.0725456357407646
-0.692035388650047 -1.1062807911247508
-0.614395512822183 -1.0725456357407646
-0.692035388650047 -1.0388104803567781
-0.614395512822183 -1.005075324972792
-0.5626355956036069 -1.0725456357407646
-0.5885155542128949 -1.1737511018927234
-0.5885155542128949 -1.1737511018927234
-0.5108756783850309 -1.1400159465087372
-0.48499571977574285 -1.0725456357407646
-0.48499571977574285 -1.0388104803567781
-0.5367556369943188 -1.1400159465087372
-0.5626355956036069 -1.1062807911247508
-0.5626355956036069 -1.1400159465087372
-0.5108756783850309 -0.9376050142048193
-0.4591157611664548 -0.903869858820833
-0.3814758853385908 -0.8363995480528604
-0.3814758853385908 -0.8363995480528604
-0.35559592672930274 -0.7689292372848878
-0.27795605090143866 -0.7351940819009016
-0.1744362164642866 -0.6002534603649564
-0.07091638202713452 -0.39784252806103865
-0.07091638202713452 -0.3641073726770524
-0.019156464808558475 -0.39784252806103865
-0.04503642341784649 -0.43157768344502495
-0.07091638202713452 -0.39784252806103865
0.006723493800729544 -0.2629019065250935
0.058483411019305584 -0.16169644037313463
0.0843633696285936 -0.2291667511411072
0.0843633696285936 -0.16169644037313463
0.0843633696285936 -0.2966370619090798
0.11024332823788162 -0.19543159575712094
0.11024332823788162 -0.16169644037313463
0.16200324545645767 -0.16169644037313463
0.13612328684716965 -0.12796128498914836
0.16200324545645767 -0.19543159575712094
0.13612328684716965 -0.2291667511411072
0.058483411019305584 -0.16169644037313463
0.16200324545645767 -0.06049097422117577
0.23964312128432172 0.07444964731476938
0.23964312128432172 -0.02675581883718948
0.18788320406574568 -0.06049097422117577
0.058483411019305584 -0.16169644037313463
0.03260345241001757 -0.09422612960516207
0.0843633696285936 -0.12796128498914836
0.13612328684716965 -0.02675581883718948
0.16200324545645767 -0.02675581883718948
0.11024332823788162 -0.06049097422117577
0.058483411019305584 -0.16169644037313463
0.006723493800729544 -0.12796128498914836
0.0843633696285936 -0.09422612960516207
0.0843633696285936 -0.02675581883718948
0.16200324545645767 -0.06049097422117577
0.0843633696285936 -0.09422612960516207
0.0843633696285936 -0.16169644037313463
0.03260345241001757 -0.16169644037313463
0.0843633696285936 -0.12796128498914836
0.13612328684716965 -0.06049097422117577
0.11024332823788162 -0.16169644037313463
0.058483411019305584 -0.2629019065250935
-0.04503642341784649 -0.2629019065250935
-0.019156464808558475 -0.2629019065250935
0.03260345241001757 -0.19543159575712094
-0.04503642341784649 -0.12796128498914836
0.006723493800729544 -0.19543159575712094
0.006723493800729544 -0.2629019065250935
-0.04503642341784649 -0.39784252806103865
-0.1744362164642866 -0.43157768344502495
-0.14855625785499857 -0.3641073726770524
-0.1744362164642866 -0.2629019065250935
-0.09679634063642253 -0.2291667511411072
-0.07091638202713452 -0.2966370619090798
-0.14855625785499857 -0.39784252806103865
-0.14855625785499857 -0.46531283882901125
-0.12267629924571055 -0.49904799421299756
-0.1744362164642866 -0.39784252806103865
-0.12267629924571055 -0.46531283882901125
-0.2003161750735746 -0.43157768344502495
-0.27795605090143866 -0.49904799421299756
-0.3297159681200147 -0.5327831495969838
-0.27795605090143866 -0.49904799421299756
-0.25207609229215067 -0.46531283882901125
-0.2003161750735746 -0.5327831495969838
