-0.5299388447042959 0.7449110124668719
-0.47912055381253144 0.839727148645466
-0.3774839720290025 0.792319080556169
-0.40289311747488477 0.792319080556169
-0.3520748265831203 0.792319080556169
-0.40289311747488477 0.6975029443775748
-0.428302262920767 0.6975029443775748
-0.428302262920767 0.5552787401096834
-0.428302262920767 0.5552787401096834
-0.5045296992584136 0.41305453584179197
-0.5553479901501781 0.41305453584179197
-0.6315754264878248 0.2708303315739006
-0.6569845719337071 0.5552787401096834
-0.7332120082713538 0.5552787401096834
-0.6823937173795893 0.6500948762882776
-0.7078028628254716 0.6500948762882776
-0.7078028628254716 0.6975029443775748
-0.6569845719337071 0.7449110124668719
-0.6569845719337071 0.6500948762882776
-0.6315754264878248 0.6500948762882776
-0.7078028628254716 0.6975029443775748
-0.8348485900548827 0.7449110124668719
-0.8602577355007649 0.6026868081989805
-0.8856668809466471 0.6026868081989805
-0.9618943172842939 0.6500948762882776
-0.9873034627301761 0.6500948762882776
-0.9618943172842939 0.7449110124668719
-0.9618943172842939 0.7449110124668719
-0.8856668809466471 0.7449110124668719
-0.9110760263925294 0.9345432848240603
-0.8094394446090004 0.792319080556169
-0.8094394446090004 0.839727148645466
-0.8094394446090004 0.792319080556169
-0.8602577355007649 0.5552787401096834
-0.9110760263925294 0.5078706720203862
-0.9110760263925294 0.46046260393108907
-0.9618943172842939 0.5552787401096834
-0.9873034627301761 0.6500948762882776
-0.9110760263925294 0.6500948762882776
-0.8856668809466471 0.792319080556169
-0.9364851718384116 0.792319080556169
-0.9618943172842939 0.839727148645466
-1.0635308990678227 0.9819513529133574
-1.088940044513705 0.9345432848240603
-0.9873034627301761 0.8871352167347633
-0.6823937173795893 0.792319080556169
-0.25043824479959137 0.5078706720203862
0.3593812459015822 0.1760141953953063
1.1216556092780492 -0.3454745535869621
2.0363848453298097 -0.7721471663906363
3.052750663165099 -1.1988197791943105
4.0437073355545055 -1.5780843239086875
4.780572553485091 -1.5780843239086875
4.983845717052148 -1.2936359153729047
4.4248445172427395 -0.6299229621227449
3.2306146812862746 0.03378999112741492
1.7060659545333405 0.6500948762882776
0.18151722778040658 1.218991693359843
-0.8602577355007649 1.7404804423421116
-1.4446680807560563 1.8827046466100028
-1.5208955170937029 1.8352965785207058
-1.2668040626348807 1.5982562380742202
-0.9110760263925294 1.171583625270546
-0.7078028628254716 0.7449110124668719
-0.4537114083666492 0.3656464677524948
-0.428302262920767 0.22342226348460342
-0.40289311747488477 0.12860612730600918
-0.40289311747488477 0.12860612730600918
-0.428302262920767 0.2708303315739006
-0.5553479901501781 0.41305453584179197
-0.5553479901501781 0.46046260393108907
-0.7078028628254716 0.3656464677524948
-0.7332120082713538 0.41305453584179197
-0.8094394446090004 0.41305453584179197
-0.7840302991631182 0.46046260393108907
-0.7078028628254716 0.6500948762882776
-0.6569845719337071 0.6975029443775748
-0.6315754264878248 0.6975029443775748
-0.5807571355960603 0.7449110124668719
-0.6315754264878248 0.6975029443775748
-0.6315754264878248 0.5078706720203862
-0.6569845719337071 0.6975029443775748
-0.6823937173795893 0.5552787401096834
-0.7078028628254716 0.46046260393108907
-0.758621153717236 0.41305453584179197
-0.7332120082713538 0.41305453584179197
-0.6823937173795893 0.5552787401096834
-0.6823937173795893 0.5552787401096834
-0.6823937173795893 0.6500948762882776
-0.6823937173795893 0.7449110124668719
-0.6061662810419426 0.6500948762882776
-0.5807571355960603 0.6500948762882776
-0.6061662810419426 0.6500948762882776
-0.6061662810419426 0.5078706720203862
-0.6569845719337071 0.31823839966319767
-0.6061662810419426 0.31823839966319767
-0.6315754264878248 0.3656464677524948
-0.6823937173795893 0.3656464677524948
-0.6315754264878248 0.41305453584179197
-0.5807571355960603 0.46046260393108907
-0.5553479901501781 0.5078706720203862
-0.5553479901501781 0.6026868081989805
-0.5553479901501781 0.5552787401096834
-0.47912055381253144 0.5078706720203862
-0.47912055381253144 0.3656464677524948
-0.5045296992584136 0.41305453584179197
-0.5807571355960603 0.22342226348460342
-0.5807571355960603 0.1760141953953063
-0.5807571355960603 0.2708303315739006
-0.6061662810419426 0.31823839966319767
-0.5807571355960603 0.31823839966319767
-0.5807571355960603 0.3656464677524948
-0.5045296992584136 0.46046260393108907
-0.47912055381253144 0.41305453584179197
-0.47912055381253144 0.3656464677524948
-0.428302262920767 0.31823839966319767
-0.4537114083666492 0.22342226348460342
-0.47912055381253144 0.1760141953953063
-0.47912055381253144 0.03378999112741492
-0.5807571355960603 -0.01361807696188221
-0.5045296992584136 0.03378999112741492
-0.5299388447042959 -0.01361807696188221
-0.5299388447042959 0.03378999112741492
-0.4537114083666492 0.22342226348460342
-0.4537114083666492 0.1760141953953063
-0.3774839720290025 0.08119805921671204
-0.40289311747488477 0.1760141953953063
-0.3520748265831203 0.03378999112741492
-0.3520748265831203 -0.01361807696188221
-0.4537114083666492 -0.1558422812297736
-0.4537114083666492 -0.10843421314047647
-0.47912055381253144 -0.10843421314047647
-0.4537114083666492 -0.25065841740836786
-0.47912055381253144 -0.2032503493190707
-0.5045296992584136 -0.061026145051179335
-0.47912055381253144 -0.10843421314047647
-0.428302262920767 -0.01361807696188221
-0.3520748265831203 -0.061026145051179335
-0.3520748265831203 -0.061026145051179335
-0.32666568113723804 -0.061026145051179335
-0.3774839720290025 -0.1558422812297736
-0.3520748265831203 -0.2032503493190707
-0.40289311747488477 -0.3454745535869621
-0.4537114083666492 -0.5351068259441506
-0.40289311747488477 -0.5351068259441506
-0.428302262920767 -0.44029068976555635
-0.40289311747488477 -0.3454745535869621
-0.40289311747488477 -0.3454745535869621
-0.2758473902454736 -0.25065841740836786
-0.25043824479959137 -0.2032503493190707
-0.17421080846194467 -0.29806648549766496
-0.17421080846194467 -0.29806648549766496
-0.14880166301606243 -0.3454745535869621
-0.1233925175701802 -0.44029068976555635
-0.09798337212429797 -0.44029068976555635
-0.14880166301606243 -0.5825148940334477
-0.1233925175701802 -0.5825148940334477
-0.17421080846194467 -0.4876987578548535
-0.1233925175701802 -0.5351068259441506
-0.07257422667841573 -0.29806648549766496
-0.021755935786651272 -0.29806648549766496
0.00365320965923096 -0.25065841740836786
0.00365320965923096 -0.2032503493190707
-0.021755935786651272 -0.25065841740836786
-0.021755935786651272 -0.2032503493190707
-0.09798337212429797 -0.2032503493190707
-0.17421080846194467 -0.29806648549766496
-0.19961995390782689 -0.25065841740836786
-0.25043824479959137 -0.2032503493190707
-0.32666568113723804 -0.061026145051179335
-0.32666568113723804 0.03378999112741492
-0.3774839720290025 0.08119805921671204
-0.32666568113723804 0.1760141953953063
-0.3774839720290025 0.2708303315739006
-0.3520748265831203 0.3656464677524948
-0.32666568113723804 0.31823839966319767
-0.428302262920767 0.31823839966319767
-0.428302262920767 0.2708303315739006
-0.4537114083666492 0.22342226348460342
-0.47912055381253144 0.22342226348460342
-0.47912055381253144 0.2708303315739006
-0.5553479901501781 0.22342226348460342
-0.5553479901501781 0.3656464677524948
-0.5045296992584136 0.46046260393108907
-0.47912055381253144 0.6026868081989805
-0.40289311747488477 0.6975029443775748
-0.4537114083666492 0.6026868081989805
-0.428302262920767 0.5552787401096834
-0.428302262920767 0.5552787401096834
-0.47912055381253144 0.5552787401096834
-0.5299388447042959 0.31823839966319767
-0.5299388447042959 0.3656464677524948
-0.6061662810419426 0.31823839966319767
-0.5807571355960603 0.41305453584179197
-0.5807571355960603 0.5552787401096834
-0.5299388447042959 0.6975029443775748
-0.5299388447042959 0.6500948762882776
-0.47912055381253144 0.6026868081989805
-0.428302262920767 0.6500948762882776
-0.4537114083666492 0.5552787401096834
-0.5299388447042959 0.5552787401096834
-0.5045296992584136 0.46046260393108907
-0.47912055381253144 0.41305453584179197
-0.5553479901501781 0.41305453584179197
-0.5807571355960603 0.3656464677524948
-0.5807571355960603 0.31823839966319767
-0.5807571355960603 0.5078706720203862
-0.5553479901501781 0.5078706720203862
-0.5299388447042959 0.6026868081989805
-0.47912055381253144 0.6975029443775748
-0.47912055381253144 0.6975029443775748
-0.5045296992584136 0.6026868081989805
-0.5045296992584136 0.5078706720203862
-0.5045296992584136 0.5078706720203862
-0.47912055381253144 0.46046260393108907
-0.5553479901501781 0.3656464677524948
-0.6061662810419426 0.46046260393108907
-0.6315754264878248 0.3656464677524948
-0.6061662810419426 0.5078706720203862
-0.5553479901501781 0.6026868081989805
-0.5553479901501781 0.6975029443775748
-0.5299388447042959 0.6026868081989805
-0.5299388447042959 0.5552787401096834
-0.47912055381253144 0.6026868081989805
-0.5299388447042959 0.5552787401096834
-0.5299388447042959 0.41305453584179197
-0.5807571355960603 0.3656464677524948
-0.5807571355960603 0.46046260393108907
-0.6569845719337071 0.41305453584179197
-0.6315754264878248 0.46046260393108907
-0.6061662810419426 0.5552787401096834
-0.6061662810419426 0.7449110124668719
-0.5045296992584136 0.5078706720203862
-0.5299388447042959 0.6500948762882776
-0.5299388447042959 0.6500948762882776
-0.4537114083666492 0.6026868081989805
-0.5045296992584136 0.5552787401096834
-0.47912055381253144 0.46046260393108907
-0.47912055381253144 0.46046260393108907
-0.4537114083666492 0.3656464677524948
-0.428302262920767 0.41305453584179197
-0.3774839720290025 0.5552787401096834
-0.3774839720290025 0.6500948762882776
-0.2758473902454736 0.7449110124668719
-0.25043824479959137 0.792319080556169
-0.2758473902454736 0.9819513529133574
-0.19961995390782689 0.9819513529133574
-0.19961995390782689 0.9819513529133574
-0.17421080846194467 0.839727148645466
-0.14880166301606243 0.792319080556169
-0.09798337212429797 0.6026868081989805
-0.1233925175701802 0.3656464677524948
-0.14880166301606243 0.31823839966319767
-0.14880166301606243 0.31823839966319767
-0.14880166301606243 0.22342226348460342
-0.19961995390782689 0.2708303315739006
-0.2758473902454736 0.2708303315739006
-0.25043824479959137 0.3656464677524948
-0.2758473902454736 0.31823839966319767
-0.25043824479959137 0.41305453584179197
-0.2758473902454736 0.41305453584179197
-0.32666568113723804 0.3656464677524948
-0.40289311747488477 0.2708303315739006
-0.40289311747488477 0.22342226348460342
-0.47912055381253144 0.2708303315739006
-0.4537114083666492 0.31823839966319767
-0.5045296992584136 0.46046260393108907
-0.47912055381253144 0.5552787401096834
-0.5045296992584136 0.5078706720203862
-0.5045296992584136 0.6975029443775748
-0.5553479901501781 0.6975029443775748
-0.5299388447042959 0.6500948762882776
-0.5299388447042959 0.5552787401096834
-0.6061662810419426 0.6026868081989805
-0.6061662810419426 0.5078706720203862
-0.6061662810419426 0.5078706720203862
-0.6315754264878248 0.46046260393108907
-0.6569845719337071 0.46046260393108907
-0.6315754264878248 0.5078706720203862
-0.5553479901501781 0.6500948762882776
-0.5299388447042959 0.6500948762882776
-0.5045296992584136 0.6975029443775748
-0.5045296992584136 0.6500948762882776
-0.5045296992584136 0.6026868081989805
-0.5553479901501781 0.6500948762882776
-0.5299388447042959 0.5552787401096834
-0.5299388447042959 0.46046260393108907
-0.6061662810419426 0.41305453584179197
-0.6569845719337071 0.46046260393108907
-0.7840302991631182 0.5078706720203862
-0.8094394446090004 0.6500948762882776
-0.8602577355007649 0.8871352167347633
-0.7840302991631182 0.9345432848240603
-0.5045296992584136 0.9819513529133574
-0.09798337212429797 0.839727148645466
0.4610178276851111 0.3656464677524948
1.1724739001698137 -0.1558422812297736
1.985566554438045 -0.7247390983013391
2.9002957904898055 -1.4832681877300933
3.7896158810956835 -1.815124664355173
4.55189024447215 -1.8625327324444703
4.933027426160384 -1.7203085281765789
4.678935971701562 -1.2462278472836075
3.840434171987448 -0.677331030212042
2.5699768996933363 0.03378999112741492
1.1470647547239314 0.792319080556169
0.00365320965923096 1.218991693359843
-0.7332120082713538 1.3612158976277344
-0.9364851718384116 1.3138078295384374
-0.8094394446090004 0.792319080556169
-0.5299388447042959 0.2708303315739006
-0.25043824479959137 -0.1558422812297736
-0.09798337212429797 -0.44029068976555635
-0.047165081232533504 -0.5351068259441506
-0.047165081232533504 -0.29806648549766496
-0.07257422667841573 -0.061026145051179335
-0.14880166301606243 0.22342226348460342
-0.17421080846194467 0.41305453584179197
-0.25043824479959137 0.41305453584179197
-0.25043824479959137 0.41305453584179197
-0.2758473902454736 0.46046260393108907
-0.3012565356913558 0.41305453584179197
-0.40289311747488477 0.31823839966319767
-0.3774839720290025 0.3656464677524948
-0.47912055381253144 0.3656464677524948
-0.47912055381253144 0.41305453584179197
-0.4537114083666492 0.46046260393108907
-0.428302262920767 0.6026868081989805
-0.40289311747488477 0.6026868081989805
-0.3774839720290025 0.6500948762882776
-0.3520748265831203 0.6026868081989805
-0.32666568113723804 0.5078706720203862
-0.3520748265831203 0.6026868081989805
-0.428302262920767 0.5078706720203862
-0.40289311747488477 0.3656464677524948
-0.40289311747488477 0.22342226348460342
-0.40289311747488477 0.2708303315739006
-0.47912055381253144 0.31823839966319767
-0.47912055381253144 0.3656464677524948
-0.40289311747488477 0.41305453584179197
-0.32666568113723804 0.5078706720203862
-0.32666568113723804 0.6500948762882776
-0.3520748265831203 0.5552787401096834
-0.32666568113723804 0.5078706720203862
-0.32666568113723804 0.46046260393108907
-0.3520748265831203 0.5078706720203862
-0.3520748265831203 0.31823839966319767
-0.32666568113723804 0.31823839966319767
-0.3520748265831203 0.31823839966319767
-0.3520748265831203 0.2708303315739006
-0.3520748265831203 0.46046260393108907
-0.2758473902454736 0.46046260393108907
-0.2758473902454736 0.41305453584179197
-0.22502909935370913 0.5552787401096834
-0.22502909935370913 0.6026868081989805
-0.17421080846194467 0.5078706720203862
-0.17421080846194467 0.3656464677524948
-0.17421080846194467 0.3656464677524948
-0.17421080846194467 0.22342226348460342
-0.22502909935370913 0.22342226348460342
-0.22502909935370913 0.12860612730600918
-0.2758473902454736 0.2708303315739006
-0.25043824479959137 0.22342226348460342
-0.22502909935370913 0.22342226348460342
-0.19961995390782689 0.31823839966319767
-0.1233925175701802 0.3656464677524948
-0.07257422667841573 0.3656464677524948
-0.09798337212429797 0.31823839966319767
-0.09798337212429797 0.2708303315739006
-0.1233925175701802 0.1760141953953063
-0.09798337212429797 0.03378999112741492
-0.19961995390782689 0.03378999112741492
-0.17421080846194467 0.03378999112741492
-0.17421080846194467 0.03378999112741492
-0.17421080846194467 0.12860612730600918
-0.14880166301606243 0.1760141953953063
-0.09798337212429797 0.12860612730600918
-0.07257422667841573 0.12860612730600918
-0.021755935786651272 0.12860612730600918
-0.047165081232533504 0.03378999112741492
-0.021755935786651272 -0.061026145051179335
-0.021755935786651272 -0.1558422812297736
-0.09798337212429797 -0.061026145051179335
-0.07257422667841573 -0.1558422812297736
-0.1233925175701802 -0.1558422812297736
-0.07257422667841573 -0.10843421314047647
-0.09798337212429797 -0.1558422812297736
-0.07257422667841573 -0.061026145051179335
-0.021755935786651272 0.03378999112741492
-0.021755935786651272 -0.01361807696188221
-0.047165081232533504 -0.01361807696188221
0.00365320965923096 -0.01361807696188221
0.02906235510511319 -0.1558422812297736
0.00365320965923096 -0.25065841740836786
-0.021755935786651272 -0.25065841740836786
-0.021755935786651272 -0.29806648549766496
-0.021755935786651272 -0.3454745535869621
-0.021755935786651272 -0.2032503493190707
0.02906235510511319 -0.2032503493190707
0.05447150055099542 -0.25065841740836786
0.07988064599687765 -0.10843421314047647
0.18151722778040658 -0.1558422812297736
0.23233551867217106 -0.2032503493190707
0.2831538095639355 -0.1558422812297736
0.2831538095639355 -0.1558422812297736
0.23233551867217106 -0.29806648549766496
0.2577446641180533 -0.39288262167625926
0.2577446641180533 -0.5825148940334477
0.2577446641180533 -0.44029068976555635
0.20692637322628882 -0.29806648549766496
0.23233551867217106 -0.29806648549766496
0.23233551867217106 -0.2032503493190707
0.2831538095639355 -0.1558422812297736
0.2831538095639355 -0.10843421314047647
0.2577446641180533 -0.01361807696188221
0.2577446641180533 -0.01361807696188221
0.23233551867217106 -0.01361807696188221
0.15610808233452436 -0.10843421314047647
0.10528979144275989 -0.061026145051179335
0.02906235510511319 0.03378999112741492
0.05447150055099542 -0.10843421314047647
-0.047165081232533504 -0.061026145051179335
0.00365320965923096 0.12860612730600918
0.00365320965923096 0.1760141953953063
0.00365320965923096 0.3656464677524948
0.00365320965923096 0.41305453584179197
0.02906235510511319 0.41305453584179197
0.00365320965923096 0.3656464677524948
-0.021755935786651272 0.2708303315739006
-0.07257422667841573 0.31823839966319767
-0.09798337212429797 0.22342226348460342
-0.1233925175701802 0.31823839966319767
-0.14880166301606243 0.31823839966319767
-0.19961995390782689 0.41305453584179197
-0.17421080846194467 0.41305453584179197
-0.1233925175701802 0.46046260393108907
-0.1233925175701802 0.5078706720203862
-0.09798337212429797 0.6026868081989805
-0.09798337212429797 0.6026868081989805
-0.07257422667841573 0.6500948762882776
-0.1233925175701802 0.5552787401096834
-0.19961995390782689 0.5078706720203862
-0.17421080846194467 0.46046260393108907
-0.22502909935370913 0.3656464677524948
-0.25043824479959137 0.41305453584179197
-0.25043824479959137 0.46046260393108907
-0.2758473902454736 0.5078706720203862
-0.25043824479959137 0.5552787401096834
-0.22502909935370913 0.6026868081989805
-0.19961995390782689 0.7449110124668719
-0.17421080846194467 0.6975029443775748
-0.19961995390782689 0.5552787401096834
-0.17421080846194467 0.5552787401096834
-0.2758473902454736 0.5552787401096834
-0.25043824479959137 0.46046260393108907
-0.2758473902454736 0.46046260393108907
-0.2758473902454736 0.41305453584179197
-0.32666568113723804 0.5552787401096834
-0.25043824479959137 0.5552787401096834
-0.2758473902454736 0.5552787401096834
-0.19961995390782689 0.6500948762882776
-0.22502909935370913 0.792319080556169
-0.22502909935370913 0.6500948762882776
-0.22502909935370913 0.6975029443775748
-0.22502909935370913 0.6500948762882776
-0.22502909935370913 0.5552787401096834
-0.25043824479959137 0.5078706720203862
-0.3012565356913558 0.41305453584179197
-0.3012565356913558 0.46046260393108907
-0.3774839720290025 0.5552787401096834
-0.32666568113723804 0.5552787401096834
-0.2758473902454736 0.6975029443775748
-0.25043824479959137 0.7449110124668719
-0.22502909935370913 0.792319080556169
-0.3012565356913558 0.792319080556169
-0.25043824479959137 0.7449110124668719
-0.2758473902454736 0.6500948762882776
-0.3520748265831203 0.6500948762882776
-0.3774839720290025 0.6500948762882776
-0.3774839720290025 0.5552787401096834
-0.3774839720290025 0.5552787401096834
-0.3774839720290025 0.5078706720203862
-0.3774839720290025 0.5552787401096834
-0.3774839720290025 0.6500948762882776
-0.3520748265831203 0.7449110124668719
-0.3012565356913558 0.7449110124668719
-0.3012565356913558 0.792319080556169
-0.2758473902454736 0.7449110124668719
-0.2758473902454736 0.792319080556169
-0.3012565356913558 0.6500948762882776
-0.3520748265831203 0.6026868081989805
-0.3774839720290025 0.6500948762882776
-0.32666568113723804 0.5552787401096834
-0.32666568113723804 0.46046260393108907
-0.25043824479959137 0.6975029443775748
-0.22502909935370913 0.7449110124668719
-0.14880166301606243 0.8871352167347633
-0.047165081232533504 0.9345432848240603
-0.07257422667841573 0.9819513529133574
-0.021755935786651272 0.8871352167347633
-0.047165081232533504 0.8871352167347633
-0.047165081232533504 0.8871352167347633
-0.09798337212429797 0.8871352167347633
-0.09798337212429797 0.792319080556169
-0.047165081232533504 0.7449110124668719
0.02906235510511319 0.6500948762882776
0.00365320965923096 0.5552787401096834
0.07988064599687765 0.46046260393108907
0.02906235510511319 0.46046260393108907
0.05447150055099542 0.5078706720203862
0.02906235510511319 0.41305453584179197
-0.047165081232533504 0.3656464677524948
-0.07257422667841573 0.41305453584179197
-0.09798337212429797 0.41305453584179197
-0.17421080846194467 0.46046260393108907
-0.25043824479959137 0.31823839966319767
-0.22502909935370913 0.3656464677524948
-0.2758473902454736 0.31823839966319767
-0.25043824479959137 0.41305453584179197
-0.2758473902454736 0.5078706720203862
-0.25043824479959137 0.5552787401096834
-0.25043824479959137 0.7449110124668719
-0.3012565356913558 0.6500948762882776
-0.2758473902454736 0.7449110124668719
-0.40289311747488477 0.6975029443775748
-0.428302262920767 0.6026868081989805
-0.5045296992584136 0.46046260393108907
-0.47912055381253144 0.5078706720203862
-0.47912055381253144 0.5552787401096834
-0.47912055381253144 0.6026868081989805
-0.5045296992584136 0.6026868081989805
-0.4537114083666492 0.6975029443775748
-0.40289311747488477 0.6975029443775748
-0.3774839720290025 0.8871352167347633
-0.3520748265831203 0.792319080556169
-0.3774839720290025 0.792319080556169
-0.3520748265831203 0.6975029443775748
-0.3520748265831203 0.6500948762882776
-0.428302262920767 0.6975029443775748
-0.428302262920767 0.5552787401096834
-0.47912055381253144 0.6500948762882776
-0.428302262920767 0.5552787401096834
-0.5299388447042959 0.6975029443775748
-0.5807571355960603 0.7449110124668719
-0.6061662810419426 0.8871352167347633
-0.6315754264878248 1.0767674890919516
-0.5045296992584136 0.9345432848240603
-0.17421080846194467 0.839727148645466
0.2577446641180533 0.5552787401096834
0.9183824457109913 0.08119805921671204
1.756884245425105 -0.677331030212042
2.646204336030983 -1.2936359153729047
3.6625701538662723 -1.7203085281765789
4.55189024447215 -1.9099408005337672
5.060073153389795 -1.6254923919979847
4.983845717052148 -1.2462278472836075
4.196162208229799 -0.677331030212042
2.9002957904898055 0.22342226348460342
1.4519745000745181 0.792319080556169
0.18151722778040658 1.5034401018956258
-0.6569845719337071 1.6456643061635172
-0.9618943172842939 1.5034401018956258
-0.8094394446090004 0.9345432848240603
-0.47912055381253144 0.41305453584179197
-0.1233925175701802 -0.061026145051179335
-0.021755935786651272 -0.3454745535869621
0.05447150055099542 -0.29806648549766496
0.07988064599687765 -0.1558422812297736
0.07988064599687765 0.1760141953953063
0.00365320965923096 0.41305453584179197
-0.07257422667841573 0.6026868081989805
-0.09798337212429797 0.6026868081989805
-0.22502909935370913 0.5552787401096834
-0.25043824479959137 0.5078706720203862
-0.2758473902454736 0.41305453584179197
-0.32666568113723804 0.41305453584179197
-0.3012565356913558 0.46046260393108907
-0.3012565356913558 0.5078706720203862
-0.3012565356913558 0.6026868081989805
-0.3520748265831203 0.5552787401096834
-0.2758473902454736 0.6975029443775748
-0.2758473902454736 0.6500948762882776
-0.19961995390782689 0.6026868081989805
-0.17421080846194467 0.6500948762882776
-0.19961995390782689 0.6500948762882776
-0.19961995390782689 0.5078706720203862
-0.25043824479959137 0.5552787401096834
-0.2758473902454736 0.46046260393108907
-0.25043824479959137 0.3656464677524948
-0.3774839720290025 0.5078706720203862
-0.3012565356913558 0.5552787401096834
-0.2758473902454736 0.6026868081989805
-0.2758473902454736 0.6026868081989805
-0.19961995390782689 0.6026868081989805
-0.22502909935370913 0.6026868081989805
-0.17421080846194467 0.5552787401096834
-0.1233925175701802 0.5552787401096834
-0.17421080846194467 0.5078706720203862
-0.22502909935370913 0.46046260393108907
-0.25043824479959137 0.2708303315739006
-0.25043824479959137 0.31823839966319767
-0.2758473902454736 0.41305453584179197
-0.14880166301606243 0.46046260393108907
-0.1233925175701802 0.5078706720203862
-0.14880166301606243 0.5078706720203862
-0.09798337212429797 0.6500948762882776
-0.09798337212429797 0.6026868081989805
-0.021755935786651272 0.5078706720203862
-0.021755935786651272 0.41305453584179197
-0.07257422667841573 0.3656464677524948
-0.09798337212429797 0.2708303315739006
-0.1233925175701802 0.22342226348460342
-0.09798337212429797 0.31823839966319767
-0.14880166301606243 0.22342226348460342
-0.19961995390782689 0.31823839966319767
-0.14880166301606243 0.41305453584179197
-0.047165081232533504 0.46046260393108907
-0.021755935786651272 0.5552787401096834
-0.021755935786651272 0.5552787401096834
0.00365320965923096 0.31823839966319767
0.00365320965923096 0.3656464677524948
-0.047165081232533504 0.1760141953953063
-0.047165081232533504 0.12860612730600918
-0.09798337212429797 0.08119805921671204
-0.07257422667841573 0.03378999112741492
-0.09798337212429797 0.03378999112741492
-0.09798337212429797 0.08119805921671204
-0.021755935786651272 0.2708303315739006
-0.021755935786651272 0.1760141953953063
-0.021755935786651272 0.1760141953953063
0.05447150055099542 0.1760141953953063
0.02906235510511319 0.12860612730600918
0.02906235510511319 0.22342226348460342
0.00365320965923096 0.08119805921671204
0.00365320965923096 0.03378999112741492
-0.047165081232533504 -0.061026145051179335
-0.047165081232533504 -0.01361807696188221
-0.07257422667841573 -0.01361807696188221
-0.047165081232533504 -0.01361807696188221
0.00365320965923096 0.08119805921671204
0.00365320965923096 0.12860612730600918
0.05447150055099542 0.08119805921671204
0.02906235510511319 0.03378999112741492
0.07988064599687765 0.08119805921671204
0.07988064599687765 0.08119805921671204
0.07988064599687765 -0.061026145051179335
0.00365320965923096 -0.2032503493190707
0.00365320965923096 -0.29806648549766496
0.02906235510511319 -0.2032503493190707
0.02906235510511319 -0.1558422812297736
0.07988064599687765 -0.1558422812297736
0.10528979144275989 -0.061026145051179335
0.15610808233452436 -0.01361807696188221
0.23233551867217106 0.03378999112741492
0.30856295500981773 -0.061026145051179335
0.30856295500981773 -0.01361807696188221
0.3593812459015822 -0.061026145051179335
0.38479039134746446 -0.1558422812297736
0.33397210045569997 -0.2032503493190707
0.2831538095639355 -0.3454745535869621
0.30856295500981773 -0.25065841740836786
0.30856295500981773 -0.2032503493190707
0.33397210045569997 -0.1558422812297736
0.33397210045569997 -0.1558422812297736
0.3593812459015822 -0.061026145051179335
0.33397210045569997 0.08119805921671204
0.3593812459015822 0.03378999112741492
0.2831538095639355 -0.01361807696188221
0.2831538095639355 0.12860612730600918
0.23233551867217106 0.08119805921671204
0.20692637322628882 -0.01361807696188221
0.13069893688864212 0.03378999112741492
0.02906235510511319 0.12860612730600918
0.05447150055099542 0.1760141953953063
0.02906235510511319 0.22342226348460342
0.05447150055099542 0.31823839966319767
0.02906235510511319 0.41305453584179197
0.05447150055099542 0.5078706720203862
-0.021755935786651272 0.46046260393108907
-0.047165081232533504 0.6026868081989805
0.00365320965923096 0.5078706720203862
-0.047165081232533504 0.5552787401096834
-0.07257422667841573 0.5078706720203862
-0.1233925175701802 0.3656464677524948
-0.17421080846194467 0.3656464677524948
-0.19961995390782689 0.5078706720203862
-0.17421080846194467 0.6026868081989805
-0.19961995390782689 0.6026868081989805
-0.19961995390782689 0.7449110124668719
-0.17421080846194467 0.839727148645466
-0.17421080846194467 0.7449110124668719
-0.19961995390782689 0.6500948762882776
-0.17421080846194467 0.6500948762882776
-0.17421080846194467 0.6026868081989805
-0.25043824479959137 0.5552787401096834
-0.3012565356913558 0.5078706720203862
-0.32666568113723804 0.5078706720203862
-0.32666568113723804 0.5552787401096834
-0.32666568113723804 0.6500948762882776
-0.2758473902454736 0.7449110124668719
-0.25043824479959137 0.8871352167347633
-0.19961995390782689 0.839727148645466
-0.19961995390782689 0.8871352167347633
-0.19961995390782689 0.7449110124668719
-0.2758473902454736 0.6975029443775748
-0.2758473902454736 0.6975029443775748
-0.3774839720290025 0.6500948762882776
-0.40289311747488477 0.5552787401096834
-0.3774839720290025 0.6500948762882776
-0.40289311747488477 0.5552787401096834
-0.3774839720290025 0.6026868081989805
-0.428302262920767 0.6500948762882776
-0.40289311747488477 0.6975029443775748
-0.3012565356913558 0.9345432848240603
-0.2758473902454736 0.7449110124668719
-0.32666568113723804 0.7449110124668719
-0.32666568113723804 0.792319080556169
-0.3520748265831203 0.792319080556169
-0.3520748265831203 0.5552787401096834
-0.3520748265831203 0.5552787401096834
-0.4537114083666492 0.5552787401096834
-0.428302262920767 0.5552787401096834
-0.428302262920767 0.6026868081989805
-0.3774839720290025 0.7449110124668719
-0.40289311747488477 0.839727148645466
-0.3520748265831203 0.839727148645466
-0.3774839720290025 0.8871352167347633
-0.3012565356913558 0.7449110124668719
-0.3520748265831203 0.839727148645466
-0.40289311747488477 0.792319080556169
-0.47912055381253144 0.6975029443775748
-0.47912055381253144 0.6026868081989805
-0.5045296992584136 0.6026868081989805
-0.5553479901501781 0.6500948762882776
-0.47912055381253144 0.6975029443775748
-0.4537114083666492 0.792319080556169
-0.428302262920767 0.839727148645466
-0.428302262920767 0.8871352167347633
-0.40289311747488477 0.839727148645466
-0.3520748265831203 0.839727148645466
-0.40289311747488477 0.8871352167347633
-0.3520748265831203 0.7449110124668719
-0.4537114083666492 0.7449110124668719
-0.428302262920767 0.6975029443775748
-0.5045296992584136 0.6026868081989805
-0.5299388447042959 0.6975029443775748
-0.47912055381253144 0.6975029443775748
-0.40289311747488477 0.792319080556169
-0.3520748265831203 0.839727148645466
-0.3012565356913558 0.9819513529133574
-0.22502909935370913 1.0293594210026547
-0.17421080846194467 0.9819513529133574
-0.17421080846194467 0.9819513529133574
-0.14880166301606243 0.9819513529133574
-0.22502909935370913 0.9819513529133574
-0.25043824479959137 0.9345432848240603
-0.2758473902454736 1.0293594210026547
-0.25043824479959137 1.0767674890919516
-0.22502909935370913 1.1241755571812488
-0.14880166301606243 1.171583625270546
-0.047165081232533504 1.171583625270546
0.00365320965923096 1.0767674890919516
0.10528979144275989 0.792319080556169
0.07988064599687765 0.792319080556169
0.07988064599687765 0.6500948762882776
-0.07257422667841573 0.5078706720203862
-0.17421080846194467 0.46046260393108907
-0.25043824479959137 0.3656464677524948
-0.2758473902454736 0.41305453584179197
-0.32666568113723804 0.5552787401096834
-0.32666568113723804 0.6500948762882776
-0.3012565356913558 0.6500948762882776
-0.3012565356913558 0.7449110124668719
-0.3012565356913558 0.839727148645466
-0.25043824479959137 0.6975029443775748
-0.3012565356913558 0.6975029443775748
-0.3012565356913558 0.6975029443775748
-0.3520748265831203 0.6975029443775748
-0.428302262920767 0.6975029443775748
-0.47912055381253144 0.6500948762882776
-0.5553479901501781 0.6975029443775748
-0.6061662810419426 0.839727148645466
-0.5807571355960603 0.839727148645466
-0.6061662810419426 0.839727148645466
-0.5807571355960603 0.9819513529133574
-0.5299388447042959 0.9345432848240603
-0.5045296992584136 1.0767674890919516
-0.5045296992584136 0.9345432848240603
-0.5045296992584136 0.8871352167347633
-0.5299388447042959 0.839727148645466
-0.5299388447042959 0.839727148645466
-0.6061662810419426 0.792319080556169
-0.6061662810419426 0.7449110124668719
-0.6569845719337071 0.7449110124668719
-0.5807571355960603 0.792319080556169
-0.5807571355960603 0.8871352167347633
-0.5553479901501781 0.8871352167347633
-0.47912055381253144 0.9819513529133574
-0.5045296992584136 0.9345432848240603
-0.5299388447042959 0.9345432848240603
-0.5553479901501781 1.0293594210026547
-0.6569845719337071 0.8871352167347633
-0.8348485900548827 0.9345432848240603
-0.8348485900548827 0.9345432848240603
-0.758621153717236 1.0293594210026547
-0.47912055381253144 0.839727148645466
0.00365320965923096 0.6500948762882776
0.6134727003604046 0.22342226348460342
1.3757470637368714 -0.25065841740836786
2.2904762997886317 -0.8669633025692305
3.306842117623921 -1.3410439834622019
4.297798790013328 -1.6254923919979847
5.009254862498031 -1.5306762558193903
5.212528026065089 -1.435860119640796
4.704345117147444 -0.7721471663906363
3.5863427175286255 -0.2032503493190707
2.1888397180051027 0.41305453584179197
0.7405184275898157 1.1241755571812488
-0.3520748265831203 1.6456643061635172
-0.9618943172842939 1.7878885104314086
-1.0127126081760582 1.5982562380742202
-0.7078028628254716 1.0293594210026547
-0.40289311747488477 0.6500948762882776
-0.07257422667841573 0.12860612730600918
0.07988064599687765 -0.10843421314047647
0.07988064599687765 -0.01361807696188221
-0.021755935786651272 0.12860612730600918
-0.14880166301606243 0.31823839966319767
-0.25043824479959137 0.5078706720203862
-0.3774839720290025 0.6026868081989805
-0.4537114083666492 0.6026868081989805
-0.3774839720290025 0.7449110124668719
-0.40289311747488477 0.839727148645466
-0.3774839720290025 0.8871352167347633
-0.3012565356913558 0.839727148645466
-0.3520748265831203 0.8871352167347633
-0.32666568113723804 0.839727148645466
-0.3774839720290025 0.792319080556169
-0.428302262920767 0.6975029443775748
-0.4537114083666492 0.6500948762882776
-0.47912055381253144 0.5552787401096834
-0.47912055381253144 0.6975029443775748
-0.47912055381253144 0.6975029443775748
-0.4537114083666492 0.792319080556169
-0.428302262920767 0.839727148645466
-0.3774839720290025 0.8871352167347633
-0.3520748265831203 0.9345432848240603
-0.3012565356913558 0.8871352167347633
-0.32666568113723804 0.792319080556169
-0.3012565356913558 0.6975029443775748
-0.3774839720290025 0.7449110124668719
-0.3520748265831203 0.7449110124668719
-0.40289311747488477 0.6500948762882776
-0.40289311747488477 0.6500948762882776
-0.3774839720290025 0.6975029443775748
-0.3012565356913558 0.7449110124668719
-0.32666568113723804 0.6975029443775748
-0.2758473902454736 0.792319080556169
-0.25043824479959137 0.6975029443775748
-0.22502909935370913 0.6026868081989805
-0.19961995390782689 0.6500948762882776
-0.19961995390782689 0.6026868081989805
-0.22502909935370913 0.46046260393108907
-0.32666568113723804 0.5078706720203862
-0.3012565356913558 0.5078706720203862
-0.3520748265831203 0.46046260393108907
-0.3012565356913558 0.5552787401096834
-0.25043824479959137 0.5078706720203862
-0.22502909935370913 0.6500948762882776
-0.19961995390782689 0.7449110124668719
-0.17421080846194467 0.6500948762882776
-0.17421080846194467 0.7449110124668719
-0.1233925175701802 0.6026868081989805
-0.14880166301606243 0.5078706720203862
-0.19961995390782689 0.3656464677524948
-0.19961995390782689 0.31823839966319767
-0.19961995390782689 0.31823839966319767
-0.22502909935370913 0.31823839966319767
-0.22502909935370913 0.41305453584179197
-0.19961995390782689 0.41305453584179197
-0.19961995390782689 0.41305453584179197
-0.19961995390782689 0.5078706720203862
-0.07257422667841573 0.5078706720203862
-0.07257422667841573 0.31823839966319767
-0.09798337212429797 0.41305453584179197
-0.07257422667841573 0.2708303315739006
-0.09798337212429797 0.1760141953953063
-0.14880166301606243 0.12860612730600918
-0.1233925175701802 0.03378999112741492
-0.17421080846194467 0.12860612730600918
-0.22502909935370913 0.12860612730600918
-0.14880166301606243 0.1760141953953063
-0.14880166301606243 0.12860612730600918
-0.1233925175701802 0.22342226348460342
-0.047165081232533504 0.2708303315739006
-0.09798337212429797 0.12860612730600918
-0.07257422667841573 0.1760141953953063
-0.047165081232533504 0.03378999112741492
-0.1233925175701802 0.03378999112741492
-0.17421080846194467 -0.061026145051179335
-0.14880166301606243 -0.1558422812297736
-0.25043824479959137 -0.1558422812297736
-0.22502909935370913 -0.01361807696188221
-0.17421080846194467 -0.061026145051179335
-0.047165081232533504 -0.01361807696188221
-0.021755935786651272 0.1760141953953063
0.05447150055099542 0.08119805921671204
0.15610808233452436 -0.01361807696188221
0.18151722778040658 -0.01361807696188221
0.18151722778040658 -0.1558422812297736
0.20692637322628882 -0.25065841740836786
0.18151722778040658 -0.39288262167625926
0.15610808233452436 -0.25065841740836786
0.15610808233452436 -0.2032503493190707
0.20692637322628882 -0.2032503493190707
0.20692637322628882 -0.10843421314047647
0.23233551867217106 0.03378999112741492
0.23233551867217106 -0.01361807696188221
0.2831538095639355 0.03378999112741492
0.30856295500981773 0.12860612730600918
0.2831538095639355 0.08119805921671204
0.2577446641180533 0.12860612730600918
0.23233551867217106 0.12860612730600918
0.13069893688864212 0.03378999112741492
0.10528979144275989 0.03378999112741492
0.02906235510511319 0.08119805921671204
0.00365320965923096 0.1760141953953063
0.00365320965923096 0.1760141953953063
-0.021755935786651272 0.3656464677524948
0.00365320965923096 0.46046260393108907
-0.021755935786651272 0.5552787401096834
-0.07257422667841573 0.5552787401096834
-0.047165081232533504 0.5078706720203862
-0.14880166301606243 0.46046260393108907
-0.17421080846194467 0.31823839966319767
-0.19961995390782689 0.41305453584179197
-0.3012565356913558 0.41305453584179197
-0.3012565356913558 0.46046260393108907
-0.32666568113723804 0.5552787401096834
-0.3012565356913558 0.5552787401096834
-0.3012565356913558 0.7449110124668719
-0.25043824479959137 0.792319080556169
-0.25043824479959137 0.7449110124668719
-0.2758473902454736 0.7449110124668719
-0.2758473902454736 0.6975029443775748
-0.3774839720290025 0.6026868081989805
-0.40289311747488477 0.6026868081989805
-0.40289311747488477 0.5552787401096834
-0.4537114083666492 0.6975029443775748
-0.3774839720290025 0.6026868081989805
-0.3774839720290025 0.6026868081989805
-0.40289311747488477 0.792319080556169
-0.32666568113723804 0.839727148645466
-0.3520748265831203 0.792319080556169
-0.3012565356913558 0.792319080556169
-0.32666568113723804 0.7449110124668719
-0.32666568113723804 0.792319080556169
-0.3520748265831203 0.6975029443775748
-0.428302262920767 0.6026868081989805
-0.47912055381253144 0.5552787401096834
-0.5299388447042959 0.6026868081989805
-0.5553479901501781 0.6026868081989805
-0.5553479901501781 0.6026868081989805
-0.5299388447042959 0.6500948762882776
-0.5299388447042959 0.6975029443775748
-0.4537114083666492 0.6500948762882776
-0.4537114083666492 0.792319080556169
-0.4537114083666492 0.6975029443775748
-0.5045296992584136 0.6975029443775748
-0.5045296992584136 0.6500948762882776
-0.47912055381253144 0.5552787401096834
-0.6061662810419426 0.5552787401096834
-0.6061662810419426 0.5552787401096834
-0.6061662810419426 0.5552787401096834
-0.5299388447042959 0.6500948762882776
-0.5045296992584136 0.7449110124668719
-0.5045296992584136 0.7449110124668719
-0.5045296992584136 0.792319080556169
-0.4537114083666492 0.792319080556169
-0.47912055381253144 0.792319080556169
-0.47912055381253144 0.792319080556169
-0.5045296992584136 0.792319080556169
-0.5045296992584136 0.6026868081989805
-0.5553479901501781 0.6026868081989805
-0.5553479901501781 0.5078706720203862
-0.6315754264878248 0.6500948762882776
-0.5807571355960603 0.5552787401096834
-0.5807571355960603 0.6500948762882776
-0.5553479901501781 0.7449110124668719
-0.5299388447042959 0.792319080556169
-0.5299388447042959 0.8871352167347633
-0.47912055381253144 0.7449110124668719
-0.4537114083666492 0.792319080556169
-0.5299388447042959 0.6975029443775748
-0.5807571355960603 0.6026868081989805
-0.6315754264878248 0.6026868081989805
-0.5807571355960603 0.46046260393108907
-0.6061662810419426 0.6026868081989805
-0.5553479901501781 0.6026868081989805
-0.5045296992584136 0.7449110124668719
-0.47912055381253144 0.7449110124668719
-0.3774839720290025 0.8871352167347633
-0.3774839720290025 0.9345432848240603
-0.3520748265831203 0.9345432848240603
-0.3774839720290025 0.8871352167347633
-0.3520748265831203 0.839727148645466
-0.428302262920767 0.8871352167347633
-0.4537114083666492 0.792319080556169
-0.3774839720290025 0.839727148645466
-0.3520748265831203 0.9345432848240603
-0.25043824479959137 0.792319080556169
-0.09798337212429797 0.839727148645466
-0.07257422667841573 0.792319080556169
-0.021755935786651272 0.6975029443775748
-0.047165081232533504 0.6026868081989805
-0.17421080846194467 0.5552787401096834
-0.3012565356913558 0.6026868081989805
-0.3520748265831203 0.46046260393108907
-0.40289311747488477 0.3656464677524948
-0.4537114083666492 0.31823839966319767
-0.428302262920767 0.41305453584179197
-0.40289311747488477 0.3656464677524948
-0.428302262920767 0.46046260393108907
-0.3774839720290025 0.46046260393108907
-0.3520748265831203 0.6026868081989805
-0.3774839720290025 0.6500948762882776
-0.32666568113723804 0.6026868081989805
-0.40289311747488477 0.6500948762882776
-0.4537114083666492 0.7449110124668719
-0.5299388447042959 0.6500948762882776
-0.5045296992584136 0.6975029443775748
-0.6315754264878248 0.6500948762882776
-0.6569845719337071 0.6500948762882776
-0.6823937173795893 0.7449110124668719
-0.6569845719337071 0.7449110124668719
-0.6823937173795893 0.6975029443775748
-0.6315754264878248 0.839727148645466
-0.6061662810419426 0.839727148645466
-0.5553479901501781 0.9819513529133574
-0.6061662810419426 0.8871352167347633
-0.6061662810419426 0.792319080556169
-0.6061662810419426 0.6500948762882776
-0.6315754264878248 0.5552787401096834
-0.6569845719337071 0.5552787401096834
-0.6823937173795893 0.5552787401096834
-0.7332120082713538 0.6500948762882776
-0.6315754264878248 0.6975029443775748
-0.6569845719337071 0.792319080556169
-0.6569845719337071 0.792319080556169
-0.6823937173795893 0.792319080556169
-0.7332120082713538 0.9345432848240603
-0.8602577355007649 0.8871352167347633
-0.8856668809466471 1.0293594210026547
-0.8348485900548827 0.9345432848240603
-0.6061662810419426 0.7449110124668719
-0.25043824479959137 0.46046260393108907
0.33397210045569997 0.08119805921671204
1.0200190274945202 -0.29806648549766496
1.883929972654516 -1.0091875068371219
2.874886645043923 -1.5306762558193903
3.86584331743333 -1.9099408005337672
4.704345117147444 -2.0047569367123614
5.161709735173324 -1.6729004600872817
5.085482298835677 -1.2936359153729047
4.323207935459211 -0.5351068259441506
3.052750663165099 0.1760141953953063
1.553611081858047 0.7449110124668719
0.2831538095639355 1.3138078295384374
-0.7078028628254716 1.6930723742528144
-1.088940044513705 1.9301127146993
-1.088940044513705 1.6456643061635172
-0.8602577355007649 1.3138078295384374
-0.5299388447042959 0.8871352167347633
-0.2758473902454736 0.5552787401096834
-0.17421080846194467 0.22342226348460342
-0.22502909935370913 0.08119805921671204
-0.2758473902454736 0.03378999112741492
-0.2758473902454736 0.2708303315739006
-0.3012565356913558 0.31823839966319767
-0.3520748265831203 0.41305453584179197
-0.40289311747488477 0.41305453584179197
-0.47912055381253144 0.41305453584179197
-0.5807571355960603 0.46046260393108907
-0.5045296992584136 0.5552787401096834
-0.5045296992584136 0.6026868081989805
-0.428302262920767 0.6975029443775748
-0.4537114083666492 0.6500948762882776
-0.4537114083666492 0.6975029443775748
-0.4537114083666492 0.6500948762882776
-0.47912055381253144 0.6026868081989805
-0.5299388447042959 0.5552787401096834
-0.5553479901501781 0.46046260393108907
-0.5807571355960603 0.5552787401096834
-0.5299388447042959 0.5552787401096834
-0.5553479901501781 0.5078706720203862
-0.5299388447042959 0.6026868081989805
-0.5045296992584136 0.6500948762882776
-0.428302262920767 0.839727148645466
-0.428302262920767 0.792319080556169
-0.40289311747488477 0.6975029443775748
-0.40289311747488477 0.7449110124668719
-0.4537114083666492 0.6500948762882776
-0.4537114083666492 0.5552787401096834
-0.47912055381253144 0.5078706720203862
-0.5045296992584136 0.6026868081989805
-0.5553479901501781 0.5078706720203862
-0.5299388447042959 0.6500948762882776
-0.47912055381253144 0.6026868081989805
-0.428302262920767 0.6500948762882776
-0.3774839720290025 0.6500948762882776
-0.2758473902454736 0.7449110124668719
-0.3012565356913558 0.6026868081989805
-0.22502909935370913 0.6975029443775748
-0.2758473902454736 0.5078706720203862
-0.3012565356913558 0.46046260393108907
-0.3520748265831203 0.41305453584179197
-0.3520748265831203 0.31823839966319767
-0.3520748265831203 0.31823839966319767
-0.2758473902454736 0.41305453584179197
-0.3012565356913558 0.41305453584179197
-0.25043824479959137 0.5078706720203862
-0.22502909935370913 0.46046260393108907
-0.22502909935370913 0.5078706720203862
-0.22502909935370913 0.46046260393108907
-0.25043824479959137 0.5078706720203862
-0.2758473902454736 0.41305453584179197
-0.2758473902454736 0.31823839966319767
-0.3012565356913558 0.22342226348460342
-0.32666568113723804 0.1760141953953063
-0.2758473902454736 0.12860612730600918
-0.3012565356913558 0.08119805921671204
-0.2758473902454736 0.1760141953953063
-0.25043824479959137 0.22342226348460342
-0.19961995390782689 0.22342226348460342
-0.1233925175701802 0.2708303315739006
-0.14880166301606243 0.08119805921671204
-0.17421080846194467 0.1760141953953063
-0.14880166301606243 0.03378999112741492
-0.17421080846194467 -0.01361807696188221
-0.22502909935370913 -0.1558422812297736
-0.2758473902454736 -0.10843421314047647
-0.25043824479959137 -0.1558422812297736
-0.25043824479959137 -0.2032503493190707
-0.22502909935370913 -0.01361807696188221
-0.17421080846194467 -0.1558422812297736
-0.17421080846194467 -0.061026145051179335
-0.17421080846194467 -0.1558422812297736
-0.14880166301606243 -0.2032503493190707
-0.14880166301606243 -0.1558422812297736
-0.1233925175701802 -0.25065841740836786
-0.17421080846194467 -0.39288262167625926
-0.2758473902454736 -0.4876987578548535
-0.25043824479959137 -0.4876987578548535
-0.19961995390782689 -0.39288262167625926
-0.14880166301606243 -0.3454745535869621
-0.1233925175701802 -0.29806648549766496
-0.047165081232533504 -0.25065841740836786
0.02906235510511319 -0.2032503493190707
0.13069893688864212 -0.2032503493190707
0.15610808233452436 -0.44029068976555635
0.15610808233452436 -0.39288262167625926
0.10528979144275989 -0.44029068976555635
0.05447150055099542 -0.44029068976555635
0.05447150055099542 -0.5351068259441506
0.02906235510511319 -0.4876987578548535
0.05447150055099542 -0.3454745535869621
0.05447150055099542 -0.3454745535869621
0.07988064599687765 -0.3454745535869621
0.18151722778040658 -0.2032503493190707
0.13069893688864212 -0.1558422812297736
0.13069893688864212 -0.1558422812297736
0.07988064599687765 -0.01361807696188221
0.07988064599687765 -0.061026145051179335
0.02906235510511319 0.03378999112741492
-0.07257422667841573 -0.10843421314047647
-0.09798337212429797 -0.10843421314047647
-0.1233925175701802 -0.061026145051179335
-0.14880166301606243 0.03378999112741492
-0.22502909935370913 0.08119805921671204
-0.22502909935370913 0.1760141953953063
-0.22502909935370913 0.22342226348460342
-0.25043824479959137 0.41305453584179197
-0.22502909935370913 0.41305453584179197
-0.22502909935370913 0.41305453584179197
-0.2758473902454736 0.5078706720203862
-0.3012565356913558 0.5078706720203862
-0.3774839720290025 0.46046260393108907
-0.3774839720290025 0.3656464677524948
-0.4537114083666492 0.3656464677524948
-0.5045296992584136 0.41305453584179197
-0.5045296992584136 0.5078706720203862
-0.47912055381253144 0.6975029443775748
-0.428302262920767 0.6975029443775748
-0.40289311747488477 0.6975029443775748
-0.40289311747488477 0.839727148645466
-0.32666568113723804 0.6975029443775748
-0.40289311747488477 0.6026868081989805
-0.3520748265831203 0.6026868081989805
-0.428302262920767 0.5552787401096834
-0.47912055381253144 0.5552787401096834
-0.5045296992584136 0.6026868081989805
-0.5553479901501781 0.5552787401096834
-0.5553479901501781 0.6026868081989805
-0.5807571355960603 0.6975029443775748
-0.5045296992584136 0.6500948762882776
-0.5045296992584136 0.7449110124668719
-0.4537114083666492 0.792319080556169
-0.428302262920767 0.792319080556169
-0.428302262920767 0.6500948762882776
-0.428302262920767 0.6975029443775748
-0.5045296992584136 0.5078706720203862
-0.5045296992584136 0.46046260393108907
-0.5299388447042959 0.46046260393108907
-0.5807571355960603 0.6500948762882776
-0.6061662810419426 0.6026868081989805
-0.5553479901501781 0.792319080556169
-0.5299388447042959 0.792319080556169
-0.5553479901501781 0.792319080556169
-0.5299388447042959 0.9345432848240603
-0.5299388447042959 0.792319080556169
-0.5045296992584136 0.839727148645466
-0.5299388447042959 0.6500948762882776
-0.5299388447042959 0.6500948762882776
-0.5553479901501781 0.5078706720203862
-0.6061662810419426 0.5078706720203862
-0.6569845719337071 0.5552787401096834
-0.6823937173795893 0.5552787401096834
-0.6823937173795893 0.6500948762882776
-0.6315754264878248 0.7449110124668719
-0.6061662810419426 0.839727148645466
-0.6061662810419426 0.839727148645466
-0.5299388447042959 0.792319080556169
-0.5807571355960603 0.6975029443775748
-0.6569845719337071 0.6500948762882776
-0.6569845719337071 0.6026868081989805
-0.7332120082713538 0.6500948762882776
-0.7078028628254716 0.6500948762882776
-0.7078028628254716 0.6975029443775748
-0.7332120082713538 0.6026868081989805
-0.7332120082713538 0.7449110124668719
-0.7078028628254716 0.792319080556169
-0.7332120082713538 0.9819513529133574
-0.6569845719337071 0.9819513529133574
-0.6061662810419426 0.839727148645466
-0.5553479901501781 0.9345432848240603
-0.5553479901501781 0.8871352167347633
-0.5553479901501781 0.7449110124668719
-0.5553479901501781 0.792319080556169
-0.47912055381253144 0.839727148645466
-0.47912055381253144 0.8871352167347633
-0.5045296992584136 0.839727148645466
-0.47912055381253144 1.0293594210026547
-0.47912055381253144 1.1241755571812488
-0.4537114083666492 1.218991693359843
-0.40289311747488477 1.2663997614491402
-0.40289311747488477 1.218991693359843
-0.2758473902454736 1.1241755571812488
-0.25043824479959137 1.0767674890919516
-0.25043824479959137 0.6975029443775748
-0.2758473902454736 0.6026868081989805
-0.3012565356913558 0.5078706720203862
-0.3774839720290025 0.41305453584179197
-0.4537114083666492 0.41305453584179197
-0.47912055381253144 0.5078706720203862
-0.47912055381253144 0.6026868081989805
-0.47912055381253144 0.6975029443775748
-0.3774839720290025 0.7449110124668719
-0.428302262920767 0.792319080556169
-0.4537114083666492 0.6975029443775748
-0.5299388447042959 0.6975029443775748
-0.5553479901501781 0.6500948762882776
-0.6315754264878248 0.6500948762882776
-0.6569845719337071 0.6026868081989805
-0.7078028628254716 0.6975029443775748
-0.7332120082713538 0.6975029443775748
-0.758621153717236 0.792319080556169
-0.758621153717236 0.8871352167347633
-0.7332120082713538 0.9345432848240603
-0.7332120082713538 1.0293594210026547
-0.7078028628254716 0.9345432848240603
-0.7332120082713538 0.839727148645466
-0.6823937173795893 0.7449110124668719
-0.7332120082713538 0.7449110124668719
-0.7840302991631182 0.792319080556169
-0.8094394446090004 0.6975029443775748
-0.8602577355007649 0.7449110124668719
-0.8094394446090004 0.839727148645466
-0.8094394446090004 0.839727148645466
-0.7332120082713538 0.8871352167347633
-0.7332120082713538 0.9345432848240603
-0.7078028628254716 0.9345432848240603
-0.7078028628254716 0.8871352167347633
-0.7078028628254716 0.7449110124668719
-0.8094394446090004 0.8871352167347633
-0.8856668809466471 0.792319080556169
-1.0381217536219405 0.6975029443775748
-1.088940044513705 0.6500948762882776
-0.9618943172842939 0.6975029443775748
-0.6569845719337071 0.6975029443775748
-0.09798337212429797 0.5078706720203862
0.6897001366980512 0.1760141953953063
1.5790202273039293 -0.25065841740836786
2.5953860451392186 -0.8669633025692305
3.63716100842039 -1.2936359153729047
4.55189024447215 -1.2936359153729047
4.983845717052148 -1.104003643015716
4.831390844376855 -0.8195552344799334
3.9166616083250947 -0.2032503493190707
2.4937494633556896 0.6975029443775748
0.9692007366027557 1.3612158976277344
-0.40289311747488477 1.8827046466100028
-1.1651674808513517 2.1671530551457856
-1.419258935310174 2.1671530551457856
-1.2413949171889984 1.8352965785207058
-0.8602577355007649 1.4560320338063288
-0.5553479901501781 0.9819513529133574
-0.3012565356913558 0.46046260393108907
-0.2758473902454736 0.1760141953953063
-0.2758473902454736 0.08119805921671204
-0.3520748265831203 0.2708303315739006
-0.40289311747488477 0.3656464677524948
-0.47912055381253144 0.5552787401096834
-0.5807571355960603 0.6500948762882776
-0.5807571355960603 0.7449110124668719
-0.5807571355960603 0.6975029443775748
-0.5807571355960603 0.839727148645466
-0.5553479901501781 0.8871352167347633
-0.5299388447042959 0.839727148645466
-0.5299388447042959 0.792319080556169
-0.5553479901501781 0.7449110124668719
-0.6061662810419426 0.6975029443775748
-0.6061662810419426 0.6500948762882776
-0.6569845719337071 0.6026868081989805
-0.6315754264878248 0.5552787401096834
-0.6569845719337071 0.7449110124668719
-0.6315754264878248 0.7449110124668719
-0.5553479901501781 0.7449110124668719
-0.5299388447042959 0.8871352167347633
-0.4537114083666492 0.839727148645466
-0.47912055381253144 0.839727148645466
-0.47912055381253144 0.7449110124668719
-0.5045296992584136 0.6975029443775748
-0.4537114083666492 0.6500948762882776
-0.47912055381253144 0.5552787401096834
-0.5045296992584136 0.5552787401096834
-0.5553479901501781 0.5552787401096834
-0.47912055381253144 0.5552787401096834
-0.4537114083666492 0.5552787401096834
-0.5045296992584136 0.6975029443775748
-0.40289311747488477 0.6026868081989805
-0.40289311747488477 0.7449110124668719
-0.428302262920767 0.6500948762882776
-0.3774839720290025 0.6975029443775748
-0.3774839720290025 0.6026868081989805
-0.40289311747488477 0.3656464677524948
-0.428302262920767 0.3656464677524948
-0.428302262920767 0.41305453584179197
-0.4537114083666492 0.41305453584179197
-0.40289311747488477 0.41305453584179197
-0.40289311747488477 0.5078706720203862
-0.3520748265831203 0.46046260393108907
-0.3012565356913558 0.5552787401096834
-0.3012565356913558 0.5552787401096834
-0.25043824479959137 0.5078706720203862
-0.25043824479959137 0.5552787401096834
-0.2758473902454736 0.46046260393108907
-0.3012565356913558 0.3656464677524948
-0.32666568113723804 0.3656464677524948
-0.32666568113723804 0.1760141953953063
-0.3774839720290025 0.31823839966319767
-0.3520748265831203 0.3656464677524948
-0.32666568113723804 0.3656464677524948
-0.3012565356913558 0.41305453584179197
-0.22502909935370913 0.41305453584179197
-0.25043824479959137 0.46046260393108907
-0.25043824479959137 0.3656464677524948
-0.25043824479959137 0.41305453584179197
-0.22502909935370913 0.22342226348460342
-0.25043824479959137 0.1760141953953063
-0.2758473902454736 0.12860612730600918
-0.32666568113723804 -0.01361807696188221
-0.3012565356913558 0.03378999112741492
-0.3012565356913558 0.08119805921671204
-0.25043824479959137 0.22342226348460342
-0.25043824479959137 0.12860612730600918
-0.19961995390782689 0.22342226348460342
-0.17421080846194467 0.1760141953953063
-0.22502909935370913 0.12860612730600918
-0.22502909935370913 0.08119805921671204
-0.19961995390782689 -0.061026145051179335
-0.25043824479959137 -0.1558422812297736
-0.2758473902454736 -0.1558422812297736
-0.3012565356913558 -0.2032503493190707
-0.2758473902454736 -0.1558422812297736
-0.3012565356913558 -0.25065841740836786
-0.25043824479959137 -0.10843421314047647
-0.17421080846194467 -0.10843421314047647
-0.09798337212429797 -0.061026145051179335
-0.07257422667841573 -0.10843421314047647
-0.07257422667841573 -0.061026145051179335
0.00365320965923096 -0.25065841740836786
-0.047165081232533504 -0.2032503493190707
0.02906235510511319 -0.29806648549766496
0.02906235510511319 -0.3454745535869621
0.00365320965923096 -0.3454745535869621
0.00365320965923096 -0.29806648549766496
-0.021755935786651272 -0.29806648549766496
0.00365320965923096 -0.2032503493190707
0.07988064599687765 -0.061026145051179335
0.07988064599687765 0.08119805921671204
0.10528979144275989 0.03378999112741492
0.10528979144275989 0.03378999112741492
0.05447150055099542 0.03378999112741492
0.07988064599687765 -0.061026145051179335
0.02906235510511319 -0.061026145051179335
-0.047165081232533504 -0.1558422812297736
-0.09798337212429797 -0.10843421314047647
-0.1233925175701802 -0.01361807696188221
-0.19961995390782689 -0.01361807696188221
-0.14880166301606243 0.1760141953953063
-0.19961995390782689 0.2708303315739006
-0.14880166301606243 0.3656464677524948
-0.14880166301606243 0.41305453584179197
-0.17421080846194467 0.3656464677524948
-0.17421080846194467 0.46046260393108907
-0.2758473902454736 0.41305453584179197
-0.3012565356913558 0.31823839966319767
-0.3012565356913558 0.22342226348460342
-0.3774839720290025 0.31823839966319767
-0.40289311747488477 0.41305453584179197
-0.3774839720290025 0.46046260393108907
-0.40289311747488477 0.5552787401096834
-0.3774839720290025 0.6500948762882776
-0.3520748265831203 0.6500948762882776
-0.32666568113723804 0.792319080556169
-0.3520748265831203 0.6500948762882776
-0.3520748265831203 0.839727148645466
-0.3774839720290025 0.6026868081989805
-0.40289311747488477 0.5078706720203862
-0.3774839720290025 0.5078706720203862
-0.3774839720290025 0.3656464677524948
-0.428302262920767 0.46046260393108907
-0.47912055381253144 0.5552787401096834
-0.4537114083666492 0.5552787401096834
-0.40289311747488477 0.6975029443775748
-0.3774839720290025 0.792319080556169
-0.3520748265831203 0.792319080556169
-0.32666568113723804 0.7449110124668719
-0.3774839720290025 0.6975029443775748
-0.3774839720290025 0.6026868081989805
-0.428302262920767 0.7449110124668719
-0.5045296992584136 0.5552787401096834
-0.4537114083666492 0.46046260393108907
-0.4537114083666492 0.46046260393108907
-0.5299388447042959 0.5552787401096834
-0.47912055381253144 0.6975029443775748
-0.40289311747488477 0.792319080556169
-0.428302262920767 0.7449110124668719
-0.40289311747488477 0.7449110124668719
-0.3774839720290025 0.6975029443775748
-0.3774839720290025 0.6975029443775748
-0.40289311747488477 0.6975029443775748
-0.428302262920767 0.6500948762882776
-0.428302262920767 0.6500948762882776
-0.47912055381253144 0.5552787401096834
-0.5045296992584136 0.5552787401096834
-0.5299388447042959 0.6500948762882776
-0.47912055381253144 0.792319080556169
-0.428302262920767 0.6975029443775748
-0.428302262920767 0.792319080556169
-0.40289311747488477 0.9345432848240603
-0.40289311747488477 0.8871352167347633
-0.4537114083666492 0.792319080556169
-0.428302262920767 0.839727148645466
-0.5045296992584136 0.6975029443775748
-0.5045296992584136 0.6500948762882776
-0.5045296992584136 0.6500948762882776
-0.5299388447042959 0.6500948762882776
-0.5299388447042959 0.6500948762882776
-0.47912055381253144 0.6500948762882776
-0.4537114083666492 0.839727148645466
-0.4537114083666492 0.839727148645466
-0.40289311747488477 0.8871352167347633
-0.3774839720290025 0.839727148645466
-0.3774839720290025 0.9345432848240603
-0.4537114083666492 0.7449110124668719
-0.5045296992584136 0.6975029443775748
-0.5553479901501781 0.5552787401096834
-0.6061662810419426 0.6500948762882776
-0.6061662810419426 0.7449110124668719
-0.5807571355960603 0.7449110124668719
-0.5299388447042959 0.839727148645466
-0.47912055381253144 0.839727148645466
-0.3774839720290025 0.9819513529133574
-0.2758473902454736 1.0767674890919516
-0.25043824479959137 1.0293594210026547
-0.22502909935370913 1.0767674890919516
-0.2758473902454736 1.0293594210026547
-0.22502909935370913 0.9345432848240603
-0.25043824479959137 0.9345432848240603
-0.32666568113723804 1.0767674890919516
-0.32666568113723804 1.0293594210026547
-0.2758473902454736 1.0293594210026547
-0.17421080846194467 1.0767674890919516
-0.1233925175701802 1.0293594210026547
-0.07257422667841573 0.9819513529133574
0.00365320965923096 0.839727148645466
-0.021755935786651272 0.792319080556169
-0.09798337212429797 0.6975029443775748
-0.22502909935370913 0.6975029443775748
-0.25043824479959137 0.5552787401096834
-0.32666568113723804 0.46046260393108907
-0.32666568113723804 0.41305453584179197
-0.3774839720290025 0.6026868081989805
-0.3520748265831203 0.6975029443775748
-0.4537114083666492 0.6500948762882776
-0.40289311747488477 0.7449110124668719
-0.4537114083666492 0.792319080556169
-0.428302262920767 0.792319080556169
-0.47912055381253144 0.792319080556169
-0.4537114083666492 0.8871352167347633
-0.47912055381253144 0.792319080556169
-0.5045296992584136 0.6975029443775748
-0.6061662810419426 0.6975029443775748
-0.7078028628254716 0.7449110124668719
-0.6823937173795893 0.792319080556169
-0.7078028628254716 0.839727148645466
-0.7078028628254716 0.8871352167347633
-0.6569845719337071 0.9345432848240603
-0.6061662810419426 1.0293594210026547
-0.5299388447042959 1.0293594210026547
-0.5045296992584136 1.0767674890919516
-0.5299388447042959 1.0293594210026547
-0.5299388447042959 0.9819513529133574
-0.6061662810419426 0.839727148645466
-0.5807571355960603 0.8871352167347633
-0.6061662810419426 0.839727148645466
-0.6061662810419426 0.839727148645466
-0.6061662810419426 0.839727148645466
-0.5553479901501781 0.9345432848240603
-0.5299388447042959 0.9345432848240603
-0.5299388447042959 1.0293594210026547
-0.5553479901501781 1.0767674890919516
-0.6315754264878248 1.1241755571812488
-0.7078028628254716 1.1241755571812488
-0.8094394446090004 1.171583625270546
-0.7332120082713538 1.218991693359843
-0.5299388447042959 0.9819513529133574
-0.14880166301606243 0.6975029443775748
0.3593812459015822 0.41305453584179197
1.0454281729404025 -0.01361807696188221
1.858520827208634 -0.5351068259441506
2.8240683541521587 -0.8669633025692305
3.7133884447580368 -1.1514117111050133
4.501071953580386 -1.1988197791943105
4.907618280714502 -1.0091875068371219
4.856799989822737 -0.5351068259441506
4.119934771892153 -0.061026145051179335
2.874886645043923 0.2708303315739006
1.4519745000745181 0.9819513529133574
0.20692637322628882 1.171583625270546
-0.6315754264878248 1.6930723742528144
-1.0381217536219405 1.6456643061635172
-0.9618943172842939 1.3612158976277344
-0.6569845719337071 0.9345432848240603
-0.32666568113723804 0.6026868081989805
-0.07257422667841573 0.22342226348460342
0.05447150055099542 0.22342226348460342
0.05447150055099542 0.22342226348460342
-0.021755935786651272 0.3656464677524948
-0.07257422667841573 0.46046260393108907
-0.19961995390782689 0.6500948762882776
-0.32666568113723804 0.6026868081989805
-0.3520748265831203 0.6975029443775748
-0.3520748265831203 0.6975029443775748
-0.40289311747488477 0.792319080556169
-0.3520748265831203 0.8871352167347633
-0.3012565356913558 0.8871352167347633
-0.2758473902454736 1.0767674890919516
-0.32666568113723804 1.0293594210026547
-0.32666568113723804 1.0293594210026547
-0.3774839720290025 0.9345432848240603
-0.3520748265831203 0.7449110124668719
-0.47912055381253144 0.7449110124668719
-0.5045296992584136 0.6975029443775748
-0.47912055381253144 0.792319080556169
-0.47912055381253144 0.6975029443775748
-0.47912055381253144 0.8871352167347633
-0.3774839720290025 0.8871352167347633
-0.3520748265831203 1.0293594210026547
-0.2758473902454736 1.0767674890919516
-0.2758473902454736 0.9819513529133574
-0.2758473902454736 0.9819513529133574
-0.2758473902454736 0.8871352167347633
-0.2758473902454736 0.8871352167347633
-0.32666568113723804 0.792319080556169
-0.32666568113723804 0.7449110124668719
-0.3774839720290025 0.792319080556169
-0.3520748265831203 0.839727148645466
-0.32666568113723804 0.792319080556169
-0.3012565356913558 0.8871352167347633
-0.19961995390782689 0.9345432848240603
-0.22502909935370913 1.0293594210026547
-0.25043824479959137 0.9345432848240603
-0.17421080846194467 0.839727148645466
-0.17421080846194467 0.9345432848240603
-0.17421080846194467 0.7449110124668719
-0.25043824479959137 0.6975029443775748
-0.25043824479959137 0.5552787401096834
-0.2758473902454736 0.6500948762882776
-0.2758473902454736 0.6975029443775748
-0.25043824479959137 0.792319080556169
-0.22502909935370913 0.7449110124668719
-0.17421080846194467 0.792319080556169
-0.17421080846194467 0.792319080556169
-0.1233925175701802 0.792319080556169
-0.047165081232533504 0.7449110124668719
-0.09798337212429797 0.6026868081989805
-0.09798337212429797 0.5078706720203862
-0.14880166301606243 0.41305453584179197
-0.17421080846194467 0.41305453584179197
-0.19961995390782689 0.46046260393108907
-0.17421080846194467 0.41305453584179197
-0.14880166301606243 0.6026868081989805
-0.17421080846194467 0.5552787401096834
-0.07257422667841573 0.7449110124668719
-0.07257422667841573 0.792319080556169
0.00365320965923096 0.6500948762882776
-0.021755935786651272 0.6026868081989805
0.00365320965923096 0.5552787401096834
-0.07257422667841573 0.46046260393108907
-0.07257422667841573 0.3656464677524948
-0.1233925175701802 0.22342226348460342
-0.17421080846194467 0.31823839966319767
-0.17421080846194467 0.2708303315739006
-0.1233925175701802 0.31823839966319767
-0.09798337212429797 0.31823839966319767
-0.07257422667841573 0.3656464677524948
0.00365320965923096 0.46046260393108907
0.00365320965923096 0.3656464677524948
0.05447150055099542 0.3656464677524948
0.02906235510511319 0.31823839966319767
0.00365320965923096 0.22342226348460342
-0.047165081232533504 0.2708303315739006
-0.047165081232533504 0.08119805921671204
-0.047165081232533504 0.08119805921671204
-0.047165081232533504 0.22342226348460342
-0.021755935786651272 0.2708303315739006
0.00365320965923096 0.3656464677524948
0.00365320965923096 0.2708303315739006
0.07988064599687765 0.3656464677524948
0.07988064599687765 0.31823839966319767
0.15610808233452436 0.3656464677524948
0.13069893688864212 0.2708303315739006
0.15610808233452436 0.08119805921671204
0.13069893688864212 0.03378999112741492
0.13069893688864212 -0.061026145051179335
0.13069893688864212 0.03378999112741492
0.13069893688864212 0.12860612730600918
0.15610808233452436 0.1760141953953063
0.23233551867217106 0.2708303315739006
0.2831538095639355 0.1760141953953063
0.33397210045569997 0.31823839966319767
0.33397210045569997 0.22342226348460342
0.38479039134746446 0.1760141953953063
0.3593812459015822 0.22342226348460342
0.33397210045569997 0.22342226348460342
0.2831538095639355 0.1760141953953063
0.20692637322628882 0.12860612730600918
0.15610808233452436 0.1760141953953063
0.13069893688864212 0.31823839966319767
0.15610808233452436 0.3656464677524948
0.13069893688864212 0.41305453584179197
0.10528979144275989 0.5078706720203862
0.15610808233452436 0.6026868081989805
0.13069893688864212 0.6026868081989805
0.13069893688864212 0.6026868081989805
0.07988064599687765 0.6026868081989805
0.02906235510511319 0.6026868081989805
-0.021755935786651272 0.5552787401096834
-0.09798337212429797 0.5078706720203862
-0.17421080846194467 0.6975029443775748
-0.17421080846194467 0.6026868081989805
-0.14880166301606243 0.7449110124668719
-0.19961995390782689 0.839727148645466
-0.1233925175701802 0.9345432848240603
-0.09798337212429797 1.0293594210026547
-0.1233925175701802 1.0293594210026547
-0.09798337212429797 0.9819513529133574
-0.1233925175701802 0.9345432848240603
-0.17421080846194467 0.8871352167347633
-0.17421080846194467 0.8871352167347633
-0.19961995390782689 0.839727148645466
-0.22502909935370913 0.8871352167347633
-0.2758473902454736 0.839727148645466
-0.2758473902454736 0.9345432848240603
-0.22502909935370913 0.9345432848240603
-0.22502909935370913 1.1241755571812488
-0.19961995390782689 1.1241755571812488
-0.17421080846194467 1.171583625270546
-0.19961995390782689 1.1241755571812488
-0.25043824479959137 0.9819513529133574
-0.19961995390782689 1.0767674890919516
-0.3012565356913558 0.9819513529133574
-0.32666568113723804 0.9345432848240603
-0.3520748265831203 0.9345432848240603
-0.3520748265831203 0.9819513529133574
-0.32666568113723804 0.9345432848240603
-0.3012565356913558 1.0293594210026547
-0.2758473902454736 1.0767674890919516
-0.3012565356913558 1.1241755571812488
-0.25043824479959137 1.171583625270546
-0.22502909935370913 1.218991693359843
-0.2758473902454736 1.0293594210026547
-0.3012565356913558 1.0767674890919516
-0.3774839720290025 1.0293594210026547
-0.40289311747488477 0.9345432848240603
-0.428302262920767 0.9345432848240603
-0.428302262920767 1.0293594210026547
-0.3774839720290025 1.171583625270546
-0.3520748265831203 1.0767674890919516
-0.32666568113723804 1.2663997614491402
-0.32666568113723804 1.171583625270546
-0.2758473902454736 1.2663997614491402
-0.2758473902454736 1.1241755571812488
-0.32666568113723804 1.171583625270546
-0.3774839720290025 1.0293594210026547
-0.3774839720290025 1.0293594210026547
-0.40289311747488477 0.9819513529133574
-0.4537114083666492 0.8871352167347633
-0.428302262920767 0.9345432848240603
-0.40289311747488477 1.0293594210026547
-0.3774839720290025 1.171583625270546
-0.3520748265831203 1.1241755571812488
-0.32666568113723804 1.171583625270546
-0.3774839720290025 1.2663997614491402
-0.32666568113723804 1.218991693359843
-0.3520748265831203 1.1241755571812488
-0.3774839720290025 1.171583625270546
-0.428302262920767 0.9345432848240603
-0.428302262920767 0.8871352167347633
-0.428302262920767 0.9819513529133574
-0.4537114083666492 0.9819513529133574
-0.428302262920767 1.1241755571812488
-0.3774839720290025 1.171583625270546
-0.40289311747488477 1.1241755571812488
-0.32666568113723804 1.3138078295384374
-0.3012565356913558 1.218991693359843
-0.22502909935370913 1.2663997614491402
-0.22502909935370913 1.1241755571812488
-0.25043824479959137 1.1241755571812488
-0.25043824479959137 1.0767674890919516
-0.22502909935370913 1.0767674890919516
-0.22502909935370913 1.171583625270546
-0.22502909935370913 1.218991693359843
-0.1233925175701802 1.3612158976277344
-0.17421080846194467 1.4086239657170316
-0.17421080846194467 1.5034401018956258
-0.14880166301606243 1.5982562380742202
-0.09798337212429797 1.4560320338063288
0.00365320965923096 1.3612158976277344
0.02906235510511319 1.3612158976277344
0.02906235510511319 1.171583625270546
0.05447150055099542 0.9819513529133574
0.00365320965923096 0.839727148645466
-0.047165081232533504 0.792319080556169
-0.1233925175701802 0.6975029443775748
-0.22502909935370913 0.839727148645466
-0.19961995390782689 0.792319080556169
-0.19961995390782689 0.9345432848240603
-0.19961995390782689 0.9819513529133574
-0.14880166301606243 1.0293594210026547
-0.17421080846194467 0.9819513529133574
-0.22502909935370913 1.0293594210026547
-0.25043824479959137 0.8871352167347633
-0.32666568113723804 0.839727148645466
-0.3774839720290025 0.8871352167347633
-0.40289311747488477 0.8871352167347633
-0.4537114083666492 0.9819513529133574
-0.40289311747488477 1.0293594210026547
-0.428302262920767 1.1241755571812488
-0.4537114083666492 1.218991693359843
-0.4537114083666492 1.3612158976277344
-0.4537114083666492 1.3138078295384374
-0.4537114083666492 1.3138078295384374
-0.47912055381253144 1.218991693359843
-0.5045296992584136 1.171583625270546
-0.5299388447042959 1.0767674890919516
-0.5553479901501781 1.0293594210026547
-0.5807571355960603 1.171583625270546
-0.5299388447042959 1.1241755571812488
-0.5553479901501781 1.171583625270546
-0.5553479901501781 1.3138078295384374
-0.5045296992584136 1.4086239657170316
-0.47912055381253144 1.4560320338063288
-0.4537114083666492 1.5034401018956258
-0.40289311747488477 1.4086239657170316
-0.40289311747488477 1.3138078295384374
-0.40289311747488477 1.3612158976277344
-0.4537114083666492 1.218991693359843
-0.5045296992584136 1.218991693359843
-0.6061662810419426 1.2663997614491402
-0.758621153717236 1.4086239657170316
-0.8348485900548827 1.5034401018956258
-0.7332120082713538 1.5982562380742202
-0.5553479901501781 1.6456643061635172
-0.22502909935370913 1.5034401018956258
0.23233551867217106 1.171583625270546
0.8675641548192269 0.6975029443775748
1.6044293727498116 0.08119805921671204
2.417522027018043 -0.5825148940334477
3.2306146812862746 -1.104003643015716
4.069116481000388 -1.2462278472836075
4.755163408039208 -1.1988197791943105
5.0346640079439124 -0.8669633025692305
4.729754262593326 -0.39288262167625926
3.86584331743333 0.2708303315739006
2.620795190585101 0.9819513529133574
1.2741104819533426 1.5982562380742202
0.13069893688864212 1.9775207827885972
-0.6061662810419426 2.26196919132438
-0.8602577355007649 2.0723369189671916
-0.8094394446090004 1.6456643061635172
-0.5045296992584136 1.0767674890919516
-0.25043824479959137 0.6026868081989805
-0.14880166301606243 0.46046260393108907
-0.047165081232533504 0.31823839966319767
0.00365320965923096 0.5552787401096834
0.00365320965923096 0.7449110124668719
-0.021755935786651272 0.9345432848240603
-0.07257422667841573 1.218991693359843
-0.1233925175701802 1.171583625270546
-0.19961995390782689 1.218991693359843
-0.25043824479959137 1.171583625270546
-0.2758473902454736 1.171583625270546
-0.3520748265831203 1.0767674890919516
-0.40289311747488477 1.0767674890919516
-0.428302262920767 1.0293594210026547
-0.428302262920767 1.0767674890919516
-0.3774839720290025 1.2663997614491402
-0.2758473902454736 1.2663997614491402
-0.3012565356913558 1.3612158976277344
-0.3012565356913558 1.4086239657170316
-0.3012565356913558 1.3138078295384374
-0.2758473902454736 1.3138078295384374
-0.2758473902454736 1.171583625270546
-0.3012565356913558 1.171583625270546
-0.32666568113723804 1.0767674890919516
-0.32666568113723804 1.0767674890919516
-0.3520748265831203 1.1241755571812488
-0.40289311747488477 1.218991693359843
-0.32666568113723804 1.171583625270546
-0.3520748265831203 1.2663997614491402
-0.25043824479959137 1.3138078295384374
-0.25043824479959137 1.3612158976277344
-0.22502909935370913 1.2663997614491402
-0.19961995390782689 1.171583625270546
-0.19961995390782689 1.171583625270546
-0.19961995390782689 1.1241755571812488
-0.22502909935370913 1.171583625270546
-0.19961995390782689 1.0293594210026547
-0.22502909935370913 1.1241755571812488
-0.19961995390782689 1.0767674890919516
-0.22502909935370913 1.0767674890919516
-0.19961995390782689 1.171583625270546
-0.1233925175701802 1.218991693359843
-0.07257422667841573 1.171583625270546
-0.07257422667841573 1.1241755571812488
-0.07257422667841573 1.1241755571812488
-0.07257422667841573 1.0293594210026547
-0.14880166301606243 1.0293594210026547
-0.07257422667841573 0.839727148645466
-0.17421080846194467 0.8871352167347633
-0.17421080846194467 0.839727148645466
-0.17421080846194467 0.839727148645466
-0.14880166301606243 0.9345432848240603
-0.09798337212429797 0.9819513529133574
-0.07257422667841573 1.0767674890919516
0.02906235510511319 1.0767674890919516
0.02906235510511319 0.9819513529133574
0.00365320965923096 0.9345432848240603
0.00365320965923096 0.8871352167347633
0.00365320965923096 0.6975029443775748
-0.047165081232533504 0.6026868081989805
-0.047165081232533504 0.6500948762882776
-0.07257422667841573 0.5552787401096834
-0.047165081232533504 0.5552787401096834
-0.047165081232533504 0.6500948762882776
-0.021755935786651272 0.792319080556169
0.00365320965923096 0.792319080556169
0.05447150055099542 0.792319080556169
0.05447150055099542 0.7449110124668719
0.05447150055099542 0.6975029443775748
0.02906235510511319 0.6500948762882776
0.00365320965923096 0.5078706720203862
0.00365320965923096 0.5078706720203862
-0.021755935786651272 0.5078706720203862
-0.021755935786651272 0.3656464677524948
-0.047165081232533504 0.41305453584179197
-0.021755935786651272 0.46046260393108907
0.05447150055099542 0.6500948762882776
0.10528979144275989 0.6026868081989805
0.07988064599687765 0.6500948762882776
0.18151722778040658 0.6026868081989805
0.18151722778040658 0.6500948762882776
0.20692637322628882 0.5552787401096834
0.18151722778040658 0.41305453584179197
0.15610808233452436 0.31823839966319767
0.18151722778040658 0.22342226348460342
0.10528979144275989 0.22342226348460342
0.20692637322628882 0.2708303315739006
0.23233551867217106 0.2708303315739006
0.30856295500981773 0.3656464677524948
0.33397210045569997 0.41305453584179197
0.41019953679334664 0.5552787401096834
0.41019953679334664 0.5552787401096834
0.4356086822392289 0.41305453584179197
0.4356086822392289 0.46046260393108907
0.3593812459015822 0.41305453584179197
0.38479039134746446 0.2708303315739006
0.3593812459015822 0.31823839966319767
0.30856295500981773 0.31823839966319767
0.2577446641180533 0.5078706720203862
0.2831538095639355 0.5078706720203862
0.2831538095639355 0.5078706720203862
0.2577446641180533 0.6975029443775748
0.23233551867217106 0.7449110124668719
0.23233551867217106 0.7449110124668719
0.23233551867217106 0.7449110124668719
0.20692637322628882 0.839727148645466
0.13069893688864212 0.6975029443775748
0.05447150055099542 0.6975029443775748
-0.021755935786651272 0.7449110124668719
-0.021755935786651272 0.7449110124668719
-0.07257422667841573 0.792319080556169
-0.047165081232533504 0.839727148645466
-0.021755935786651272 1.0767674890919516
-0.021755935786651272 0.9819513529133574
0.00365320965923096 1.1241755571812488
-0.021755935786651272 1.1241755571812488
-0.021755935786651272 1.1241755571812488
-0.047165081232533504 1.218991693359843
-0.07257422667841573 1.0767674890919516
-0.14880166301606243 1.0293594210026547
-0.1233925175701802 0.9819513529133574
-0.19961995390782689 0.9819513529133574
-0.22502909935370913 0.9345432848240603
-0.19961995390782689 1.171583625270546
-0.19961995390782689 1.1241755571812488
-0.14880166301606243 1.1241755571812488
-0.09798337212429797 1.2663997614491402
-0.1233925175701802 1.3138078295384374
-0.09798337212429797 1.2663997614491402
-0.09798337212429797 1.2663997614491402
-0.17421080846194467 1.218991693359843
-0.19961995390782689 1.171583625270546
-0.25043824479959137 1.1241755571812488
-0.25043824479959137 1.1241755571812488
-0.3012565356913558 1.0767674890919516
-0.2758473902454736 1.171583625270546
-0.22502909935370913 1.218991693359843
-0.17421080846194467 1.3138078295384374
-0.14880166301606243 1.4086239657170316
-0.17421080846194467 1.3612158976277344
-0.17421080846194467 1.2663997614491402
-0.14880166301606243 1.2663997614491402
-0.22502909935370913 1.171583625270546
-0.25043824479959137 1.0293594210026547
-0.3012565356913558 1.1241755571812488
-0.3012565356913558 1.0767674890919516
-0.32666568113723804 1.171583625270546
-0.3012565356913558 1.171583625270546
-0.2758473902454736 1.3138078295384374
-0.2758473902454736 1.3138078295384374
-0.25043824479959137 1.3138078295384374
-0.2758473902454736 1.3138078295384374
-0.25043824479959137 1.218991693359843
-0.2758473902454736 1.2663997614491402
-0.3012565356913558 1.218991693359843
-0.40289311747488477 1.1241755571812488
-0.3774839720290025 1.0767674890919516
-0.428302262920767 1.0767674890919516
-0.3774839720290025 1.0767674890919516
-0.3774839720290025 1.171583625270546
-0.3520748265831203 1.2663997614491402
-0.32666568113723804 1.2663997614491402
-0.3012565356913558 1.4086239657170316
-0.3012565356913558 1.4086239657170316
-0.25043824479959137 1.3612158976277344
-0.3520748265831203 1.3612158976277344
-0.3520748265831203 1.1241755571812488
-0.3774839720290025 1.218991693359843
-0.3774839720290025 1.171583625270546
-0.40289311747488477 1.171583625270546
-0.4537114083666492 1.2663997614491402
-0.40289311747488477 1.2663997614491402
-0.40289311747488477 1.3138078295384374
-0.3774839720290025 1.3612158976277344
-0.32666568113723804 1.5034401018956258
-0.2758473902454736 1.5034401018956258
-0.25043824479959137 1.4560320338063288
-0.25043824479959137 1.5034401018956258
-0.25043824479959137 1.4560320338063288
-0.25043824479959137 1.4086239657170316
-0.22502909935370913 1.3612158976277344
-0.22502909935370913 1.3612158976277344
-0.22502909935370913 1.4560320338063288
-0.17421080846194467 1.4560320338063288
-0.14880166301606243 1.6456643061635172
-0.14880166301606243 1.7404804423421116
-0.07257422667841573 1.7404804423421116
-0.021755935786651272 1.6930723742528144
0.07988064599687765 1.5034401018956258
0.15610808233452436 1.4086239657170316
0.10528979144275989 1.171583625270546
0.05447150055099542 1.0767674890919516
-0.047165081232533504 0.9819513529133574
-0.14880166301606243 0.9345432848240603
-0.2758473902454736 0.9819513529133574
-0.25043824479959137 0.9345432848240603
-0.25043824479959137 1.0293594210026547
-0.17421080846194467 1.0767674890919516
-0.14880166301606243 1.2663997614491402
-0.17421080846194467 1.2663997614491402
-0.17421080846194467 1.218991693359843
-0.19961995390782689 1.171583625270546
-0.2758473902454736 1.1241755571812488
-0.3012565356913558 1.0767674890919516
-0.3520748265831203 1.0293594210026547
-0.3774839720290025 1.1241755571812488
-0.4537114083666492 1.1241755571812488
-0.4537114083666492 1.218991693359843
-0.47912055381253144 1.4086239657170316
-0.5045296992584136 1.4560320338063288
-0.47912055381253144 1.4560320338063288
-0.47912055381253144 1.4086239657170316
-0.47912055381253144 1.5034401018956258
-0.4537114083666492 1.4560320338063288
-0.47912055381253144 1.2663997614491402
-0.47912055381253144 1.218991693359843
-0.5553479901501781 1.218991693359843
-0.6315754264878248 1.218991693359843
-0.5553479901501781 1.2663997614491402
-0.5553479901501781 1.3138078295384374
-0.5299388447042959 1.3138078295384374
-0.47912055381253144 1.3138078295384374
-0.428302262920767 1.4086239657170316
-0.40289311747488477 1.3612158976277344
-0.40289311747488477 1.3612158976277344
-0.40289311747488477 1.3138078295384374
-0.47912055381253144 1.2663997614491402
-0.5553479901501781 1.218991693359843
-0.6061662810419426 1.3138078295384374
-0.7332120082713538 1.3612158976277344
-0.758621153717236 1.4560320338063288
-0.6823937173795893 1.5034401018956258
-0.40289311747488477 1.4560320338063288
-0.021755935786651272 1.218991693359843
0.48642697313099337 0.9345432848240603
1.1470647547239314 0.46046260393108907
1.9601574089921627 -0.1558422812297736
2.7986592087062765 -0.5351068259441506
3.6625701538662723 -1.056595574926419
4.348617080905092 -1.1514117111050133
4.780572553485091 -1.056595574926419
4.729754262593326 -0.6299229621227449
4.0437073355545055 -0.01361807696188221
2.874886645043923 0.6500948762882776
1.6044293727498116 1.2663997614491402
0.41019953679334664 1.8352965785207058
-0.40289311747488477 2.1197449870564884
-0.7840302991631182 2.26196919132438
-0.758621153717236 1.9775207827885972
-0.5299388447042959 1.550848169984923
-0.2758473902454736 1.0293594210026547
-0.047165081232533504 0.5078706720203862
0.00365320965923096 0.46046260393108907
0.00365320965923096 0.46046260393108907
-0.09798337212429797 0.5552787401096834
-0.14880166301606243 0.8871352167347633
-0.19961995390782689 1.0293594210026547
-0.22502909935370913 1.171583625270546
-0.32666568113723804 1.2663997614491402
-0.2758473902454736 1.3612158976277344
-0.2758473902454736 1.171583625270546
-0.2758473902454736 1.171583625270546
-0.3012565356913558 1.2663997614491402
-0.32666568113723804 1.2663997614491402
-0.3774839720290025 1.0767674890919516
-0.40289311747488477 1.218991693359843
-0.40289311747488477 1.171583625270546
-0.40289311747488477 1.218991693359843
-0.40289311747488477 1.2663997614491402
-0.32666568113723804 1.3138078295384374
-0.32666568113723804 1.3138078295384374
-0.3520748265831203 1.4086239657170316
-0.2758473902454736 1.2663997614491402
-0.2758473902454736 1.4086239657170316
-0.2758473902454736 1.2663997614491402
-0.32666568113723804 1.171583625270546
-0.3520748265831203 1.171583625270546
-0.3520748265831203 1.171583625270546
-0.3520748265831203 1.2663997614491402
-0.32666568113723804 1.171583625270546
-0.3012565356913558 1.218991693359843
-0.22502909935370913 1.3138078295384374
-0.17421080846194467 1.3138078295384374
-0.17421080846194467 1.2663997614491402
-0.17421080846194467 1.218991693359843
-0.14880166301606243 1.1241755571812488
-0.14880166301606243 1.1241755571812488
-0.19961995390782689 1.0293594210026547
-0.22502909935370913 1.0767674890919516
-0.25043824479959137 0.9819513529133574
-0.25043824479959137 1.0767674890919516
-0.22502909935370913 1.1241755571812488
-0.19961995390782689 1.1241755571812488
-0.19961995390782689 1.2663997614491402
-0.1233925175701802 1.3138078295384374
-0.09798337212429797 1.3138078295384374
-0.1233925175701802 1.171583625270546
-0.07257422667841573 1.1241755571812488
-0.07257422667841573 1.0767674890919516
-0.1233925175701802 0.9819513529133574
-0.1233925175701802 0.9345432848240603
-0.17421080846194467 0.8871352167347633
-0.17421080846194467 0.8871352167347633
-0.09798337212429797 0.9345432848240603
-0.14880166301606243 0.9345432848240603
-0.09798337212429797 1.1241755571812488
-0.07257422667841573 1.0767674890919516
-0.047165081232533504 1.0767674890919516
-0.047165081232533504 0.9819513529133574
-0.047165081232533504 1.0293594210026547
-0.047165081232533504 0.8871352167347633
-0.09798337212429797 0.839727148645466
-0.14880166301606243 0.6975029443775748
-0.1233925175701802 0.6500948762882776
-0.14880166301606243 0.6975029443775748
-0.07257422667841573 0.6975029443775748
-0.09798337212429797 0.7449110124668719
-0.047165081232533504 0.7449110124668719
0.00365320965923096 0.8871352167347633
0.02906235510511319 0.839727148645466
0.00365320965923096 0.792319080556169
0.00365320965923096 0.7449110124668719
0.02906235510511319 0.6026868081989805
0.00365320965923096 0.5552787401096834
-0.047165081232533504 0.46046260393108907
-0.09798337212429797 0.3656464677524948
-0.1233925175701802 0.5552787401096834
-0.1233925175701802 0.5552787401096834
-0.047165081232533504 0.6026868081989805
-0.047165081232533504 0.6026868081989805
0.02906235510511319 0.6026868081989805
0.10528979144275989 0.5552787401096834
0.02906235510511319 0.6026868081989805
0.10528979144275989 0.41305453584179197
0.10528979144275989 0.3656464677524948
0.07988064599687765 0.22342226348460342
0.13069893688864212 0.1760141953953063
0.10528979144275989 0.22342226348460342
0.13069893688864212 0.2708303315739006
0.18151722778040658 0.2708303315739006
0.23233551867217106 0.2708303315739006
0.30856295500981773 0.3656464677524948
0.33397210045569997 0.46046260393108907
0.3593812459015822 0.31823839966319767
0.3593812459015822 0.3656464677524948
0.38479039134746446 0.41305453584179197
0.3593812459015822 0.2708303315739006
0.2831538095639355 0.22342226348460342
0.2577446641180533 0.22342226348460342
0.2577446641180533 0.22342226348460342
0.23233551867217106 0.3656464677524948
0.20692637322628882 0.46046260393108907
0.20692637322628882 0.5078706720203862
0.20692637322628882 0.6500948762882776
0.20692637322628882 0.792319080556169
0.23233551867217106 0.839727148645466
0.23233551867217106 0.792319080556169
0.13069893688864212 0.7449110124668719
0.10528979144275989 0.6975029443775748
0.00365320965923096 0.7449110124668719
-0.07257422667841573 0.6500948762882776
-0.09798337212429797 0.6500948762882776
-0.1233925175701802 0.6975029443775748
-0.14880166301606243 0.792319080556169
-0.14880166301606243 0.8871352167347633
-0.17421080846194467 1.0293594210026547
-0.19961995390782689 1.1241755571812488
-0.09798337212429797 0.9345432848240603
-0.1233925175701802 0.9819513529133574
-0.14880166301606243 1.0293594210026547
-0.14880166301606243 0.9819513529133574
-0.19961995390782689 0.9345432848240603
-0.25043824479959137 0.792319080556169
-0.3012565356913558 0.9345432848240603
-0.3520748265831203 1.0293594210026547
-0.3012565356913558 1.0293594210026547
-0.2758473902454736 1.0293594210026547
-0.25043824479959137 1.171583625270546
-0.2758473902454736 1.171583625270546
-0.25043824479959137 1.2663997614491402
-0.22502909935370913 1.171583625270546
-0.25043824479959137 1.171583625270546
-0.3012565356913558 1.171583625270546
-0.3520748265831203 1.1241755571812488
-0.40289311747488477 0.9345432848240603
-0.428302262920767 0.9345432848240603
-0.428302262920767 0.9345432848240603
-0.40289311747488477 1.0293594210026547
-0.40289311747488477 1.1241755571812488
-0.40289311747488477 1.171583625270546
-0.3774839720290025 1.171583625270546
-0.32666568113723804 1.218991693359843
-0.3520748265831203 1.218991693359843
-0.32666568113723804 1.1241755571812488
-0.3520748265831203 1.171583625270546
-0.3774839720290025 1.0767674890919516
-0.4537114083666492 1.0293594210026547
-0.47912055381253144 0.839727148645466
-0.5299388447042959 0.9819513529133574
-0.5045296992584136 1.0293594210026547
-0.47912055381253144 1.0293594210026547
-0.47912055381253144 1.171583625270546
-0.47912055381253144 1.218991693359843
-0.40289311747488477 1.2663997614491402
-0.40289311747488477 1.0767674890919516
-0.40289311747488477 1.1241755571812488
-0.4537114083666492 1.0293594210026547
-0.5045296992584136 1.0293594210026547
-0.5553479901501781 0.8871352167347633
-0.5553479901501781 0.9345432848240603
-0.5553479901501781 1.0293594210026547
-0.5807571355960603 1.0293594210026547
-0.5553479901501781 1.0767674890919516
-0.5299388447042959 1.171583625270546
-0.5045296992584136 1.2663997614491402
-0.5553479901501781 1.3612158976277344
-0.5045296992584136 1.218991693359843
-0.47912055381253144 1.218991693359843
-0.5299388447042959 1.1241755571812488
-0.5553479901501781 0.9345432848240603
-0.6061662810419426 1.0293594210026547
-0.6061662810419426 1.0767674890919516
-0.6061662810419426 1.0293594210026547
-0.6061662810419426 1.0767674890919516
-0.6061662810419426 1.171583625270546
-0.5299388447042959 1.171583625270546
-0.5299388447042959 1.171583625270546
-0.47912055381253144 1.218991693359843
-0.428302262920767 1.3138078295384374
-0.32666568113723804 1.3138078295384374
-0.3012565356913558 1.3612158976277344
-0.32666568113723804 1.3138078295384374
-0.3774839720290025 1.2663997614491402
-0.428302262920767 1.2663997614491402
-0.428302262920767 1.2663997614491402
-0.32666568113723804 1.4086239657170316
-0.32666568113723804 1.4086239657170316
-0.2758473902454736 1.4086239657170316
-0.19961995390782689 1.3612158976277344
-0.1233925175701802 1.2663997614491402
-0.047165081232533504 1.0767674890919516
-0.09798337212429797 1.0293594210026547
-0.14880166301606243 0.9819513529133574
-0.19961995390782689 0.792319080556169
-0.2758473902454736 0.6500948762882776
-0.32666568113723804 0.6500948762882776
-0.40289311747488477 0.792319080556169
-0.3774839720290025 0.8871352167347633
-0.3520748265831203 0.9819513529133574
-0.3774839720290025 1.0293594210026547
-0.3520748265831203 1.1241755571812488
-0.3774839720290025 1.1241755571812488
-0.428302262920767 1.0293594210026547
-0.4537114083666492 1.1241755571812488
-0.47912055381253144 0.9345432848240603
-0.5299388447042959 0.9819513529133574
-0.6315754264878248 0.9345432848240603
-0.7332120082713538 0.9819513529133574
-0.7332120082713538 0.9345432848240603
-0.758621153717236 1.0767674890919516
-0.6823937173795893 1.0767674890919516
-0.7078028628254716 1.171583625270546
-0.6061662810419426 1.218991693359843
-0.6315754264878248 1.2663997614491402
-0.6315754264878248 1.171583625270546
-0.5807571355960603 1.1241755571812488
-0.6569845719337071 1.0293594210026547
-0.7078028628254716 0.9819513529133574
-0.6823937173795893 0.9345432848240603
-0.7332120082713538 0.8871352167347633
-0.7078028628254716 0.8871352167347633
-0.6823937173795893 1.0293594210026547
-0.6823937173795893 1.0293594210026547
-0.6569845719337071 1.0293594210026547
-0.6569845719337071 1.218991693359843
-0.6823937173795893 1.1241755571812488
-0.7078028628254716 1.0767674890919516
-0.8094394446090004 1.171583625270546
-0.9364851718384116 1.218991693359843
-0.8856668809466471 1.0767674890919516
-0.7078028628254716 1.0293594210026547
-0.3520748265831203 0.7449110124668719
0.23233551867217106 0.46046260393108907
0.9437915911568735 0.08119805921671204
1.8331116817627517 -0.4876987578548535
2.7986592087062765 -1.104003643015716
3.7896158810956835 -1.3410439834622019
4.602708535363915 -1.435860119640796
5.0346640079439124 -1.3410439834622019
4.831390844376855 -0.8195552344799334
3.9928890446627414 -0.061026145051179335
2.6970226269227475 0.5078706720203862
1.2741104819533426 1.171583625270546
0.02906235510511319 1.6456643061635172
-0.758621153717236 2.1197449870564884
-1.1143491899595872 2.0723369189671916
-1.0381217536219405 1.8352965785207058
-0.7840302991631182 1.4560320338063288
-0.40289311747488477 0.9819513529133574
-0.2758473902454736 0.6500948762882776
-0.1233925175701802 0.2708303315739006
-0.19961995390782689 0.31823839966319767
-0.25043824479959137 0.41305453584179197
-0.3012565356913558 0.5078706720203862
-0.3774839720290025 0.5552787401096834
-0.4537114083666492 0.6500948762882776
-0.5045296992584136 0.6975029443775748
-0.5299388447042959 0.9345432848240603
-0.5299388447042959 0.839727148645466
-0.5553479901501781 0.9345432848240603
-0.47912055381253144 0.9819513529133574
-0.47912055381253144 1.0767674890919516
-0.47912055381253144 0.8871352167347633
-0.4537114083666492 0.9345432848240603
-0.47912055381253144 0.792319080556169
-0.5553479901501781 0.6975029443775748
-0.5553479901501781 0.6975029443775748
-0.6061662810419426 0.7449110124668719
-0.6061662810419426 0.792319080556169
-0.6315754264878248 0.8871352167347633
-0.5553479901501781 0.9345432848240603
-0.5299388447042959 0.8871352167347633
-0.5045296992584136 0.9819513529133574
-0.47912055381253144 1.0293594210026547
-0.40289311747488477 1.0293594210026547
-0.40289311747488477 1.0293594210026547
-0.428302262920767 0.8871352167347633
-0.47912055381253144 0.839727148645466
-0.5299388447042959 0.792319080556169
-0.5553479901501781 0.792319080556169
-0.5299388447042959 0.792319080556169
-0.5299388447042959 0.839727148645466
-0.5045296992584136 0.839727148645466
-0.40289311747488477 0.839727148645466
-0.40289311747488477 0.9819513529133574
-0.32666568113723804 0.9345432848240603
-0.32666568113723804 0.8871352167347633
-0.3520748265831203 0.839727148645466
-0.2758473902454736 0.6975029443775748
-0.3520748265831203 0.6026868081989805
-0.40289311747488477 0.5552787401096834
-0.40289311747488477 0.5552787401096834
-0.428302262920767 0.6026868081989805
-0.428302262920767 0.6975029443775748
-0.40289311747488477 0.6975029443775748
-0.3774839720290025 0.7449110124668719
-0.3520748265831203 0.7449110124668719
-0.32666568113723804 0.6975029443775748
-0.2758473902454736 0.7449110124668719
-0.2758473902454736 0.5552787401096834
-0.3012565356913558 0.46046260393108907
-0.3012565356913558 0.41305453584179197
-0.3012565356913558 0.3656464677524948
-0.3520748265831203 0.3656464677524948
-0.32666568113723804 0.41305453584179197
-0.3520748265831203 0.46046260393108907
-0.32666568113723804 0.41305453584179197
-0.32666568113723804 0.46046260393108907
-0.3012565356913558 0.46046260393108907
-0.25043824479959137 0.46046260393108907
-0.22502909935370913 0.41305453584179197
-0.22502909935370913 0.41305453584179197
-0.19961995390782689 0.3656464677524948
-0.25043824479959137 0.12860612730600918
-0.25043824479959137 0.08119805921671204
-0.25043824479959137 -0.01361807696188221
-0.2758473902454736 0.08119805921671204
-0.25043824479959137 0.12860612730600918
-0.22502909935370913 0.22342226348460342
-0.22502909935370913 0.31823839966319767
-0.17421080846194467 0.22342226348460342
-0.19961995390782689 0.31823839966319767
-0.14880166301606243 0.2708303315739006
-0.17421080846194467 0.22342226348460342
-0.19961995390782689 0.12860612730600918
-0.19961995390782689 -0.01361807696188221
-0.25043824479959137 -0.061026145051179335
-0.19961995390782689 -0.1558422812297736
-0.22502909935370913 -0.1558422812297736
-0.17421080846194467 -0.10843421314047647
-0.17421080846194467 0.03378999112741492
-0.1233925175701802 -0.01361807696188221
-0.047165081232533504 0.08119805921671204
0.00365320965923096 0.08119805921671204
0.00365320965923096 -0.01361807696188221
0.00365320965923096 -0.061026145051179335
0.02906235510511319 -0.061026145051179335
-0.021755935786651272 -0.29806648549766496
-0.021755935786651272 -0.29806648549766496
0.00365320965923096 -0.29806648549766496
0.07988064599687765 -0.25065841740836786
0.10528979144275989 -0.1558422812297736
0.10528979144275989 -0.061026145051179335
0.13069893688864212 -0.061026145051179335
0.15610808233452436 -0.01361807696188221
0.18151722778040658 0.03378999112741492
0.10528979144275989 -0.10843421314047647
0.05447150055099542 -0.01361807696188221
0.00365320965923096 -0.01361807696188221
0.00365320965923096 0.03378999112741492
-0.021755935786651272 -0.01361807696188221
-0.07257422667841573 -0.01361807696188221
-0.14880166301606243 0.08119805921671204
-0.19961995390782689 0.22342226348460342
-0.17421080846194467 0.2708303315739006
-0.14880166301606243 0.41305453584179197
-0.17421080846194467 0.46046260393108907
-0.14880166301606243 0.5078706720203862
-0.19961995390782689 0.6500948762882776
-0.22502909935370913 0.6500948762882776
-0.25043824479959137 0.5078706720203862
-0.32666568113723804 0.46046260393108907
-0.3774839720290025 0.41305453584179197
-0.428302262920767 0.5078706720203862
-0.4537114083666492 0.5552787401096834
-0.47912055381253144 0.6500948762882776
-0.47912055381253144 0.839727148645466
-0.40289311747488477 0.8871352167347633
-0.428302262920767 0.8871352167347633
-0.40289311747488477 0.9345432848240603
-0.40289311747488477 0.792319080556169
-0.3774839720290025 0.7449110124668719
-0.3520748265831203 0.6500948762882776
-0.5045296992584136 0.6975029443775748
-0.5045296992584136 0.6500948762882776
-0.5553479901501781 0.6500948762882776
-0.5299388447042959 0.792319080556169
-0.5299388447042959 0.792319080556169
-0.5299388447042959 0.839727148645466
-0.5553479901501781 0.9345432848240603
-0.5807571355960603 0.792319080556169
-0.5299388447042959 0.839727148645466
-0.4537114083666492 0.9345432848240603
-0.5045296992584136 0.8871352167347633
-0.47912055381253144 0.792319080556169
-0.5299388447042959 0.7449110124668719
-0.5553479901501781 0.6500948762882776
-0.5299388447042959 0.6026868081989805
-0.5807571355960603 0.7449110124668719
-0.5807571355960603 0.792319080556169
-0.5807571355960603 0.8871352167347633
-0.5553479901501781 0.9345432848240603
-0.5045296992584136 1.0293594210026547
-0.5553479901501781 1.0293594210026547
-0.5299388447042959 0.8871352167347633
-0.5045296992584136 0.8871352167347633
-0.5807571355960603 0.7449110124668719
-0.5807571355960603 0.6975029443775748
-0.5807571355960603 0.6026868081989805
-0.6315754264878248 0.6975029443775748
-0.6315754264878248 0.792319080556169
-0.6569845719337071 0.839727148645466
-0.6315754264878248 0.9345432848240603
-0.6061662810419426 0.839727148645466
-0.6315754264878248 0.9819513529133574
-0.5807571355960603 0.9819513529133574
-0.5807571355960603 0.8871352167347633
-0.5299388447042959 0.839727148645466
-0.5553479901501781 0.8871352167347633
-0.6569845719337071 0.6975029443775748
-0.6569845719337071 0.6975029443775748
-0.6823937173795893 0.7449110124668719
-0.6823937173795893 0.7449110124668719
-0.6569845719337071 0.7449110124668719
-0.5807571355960603 0.8871352167347633
-0.5807571355960603 0.9345432848240603
-0.5299388447042959 0.9819513529133574
-0.5299388447042959 1.1241755571812488
-0.5807571355960603 0.9819513529133574
-0.5807571355960603 0.8871352167347633
-0.6569845719337071 0.839727148645466
-0.6823937173795893 0.7449110124668719
-0.6823937173795893 0.5552787401096834
-0.6569845719337071 0.6975029443775748
-0.6569845719337071 0.792319080556169
-0.6061662810419426 0.9819513529133574
-0.47912055381253144 0.9819513529133574
-0.428302262920767 1.171583625270546
-0.3774839720290025 1.218991693359843
-0.3520748265831203 1.218991693359843
-0.32666568113723804 1.3138078295384374
-0.32666568113723804 1.218991693359843
-0.3520748265831203 1.1241755571812488
-0.40289311747488477 1.0293594210026547
-0.40289311747488477 0.8871352167347633
-0.32666568113723804 0.839727148645466
-0.3012565356913558 0.792319080556169
-0.3012565356913558 0.839727148645466
-0.3012565356913558 0.792319080556169
-0.2758473902454736 0.792319080556169
-0.3012565356913558 0.7449110124668719
-0.3774839720290025 0.6500948762882776
-0.3520748265831203 0.6975029443775748
-0.40289311747488477 0.6026868081989805
-0.428302262920767 0.5552787401096834
-0.5299388447042959 0.5078706720203862
-0.5553479901501781 0.46046260393108907
-0.5807571355960603 0.5078706720203862
-0.5807571355960603 0.5552787401096834
-0.6315754264878248 0.6026868081989805
-0.5553479901501781 0.6026868081989805
-0.5553479901501781 0.839727148645466
-0.5553479901501781 0.8871352167347633
-0.6061662810419426 0.8871352167347633
-0.6823937173795893 0.8871352167347633
-0.7332120082713538 0.839727148645466
-0.8094394446090004 0.7449110124668719
-0.8094394446090004 0.792319080556169
-0.8856668809466471 0.6975029443775748
-0.9364851718384116 0.6500948762882776
-0.9364851718384116 0.6500948762882776
-0.8602577355007649 0.6975029443775748
-0.8348485900548827 0.792319080556169
-0.7840302991631182 0.9345432848240603
-0.758621153717236 0.9819513529133574
-0.7332120082713538 0.9345432848240603
-0.6823937173795893 0.8871352167347633
-0.7078028628254716 0.792319080556169
-0.7078028628254716 0.8871352167347633
-0.7840302991631182 0.792319080556169
-0.8094394446090004 0.7449110124668719
-0.8348485900548827 0.7449110124668719
-0.8602577355007649 0.6026868081989805
-0.9873034627301761 0.6975029443775748
-1.0381217536219405 0.792319080556169
-1.088940044513705 0.839727148645466
-1.0127126081760582 0.8871352167347633
-0.758621153717236 0.7449110124668719
-0.32666568113723804 0.6500948762882776
0.2831538095639355 0.2708303315739006
0.994609882048638 -0.25065841740836786
1.883929972654516 -0.8195552344799334
2.849477499598041 -1.3884520515514989
3.8150250265415657 -1.6729004600872817
4.577299389918033 -1.6254923919979847
4.907618280714502 -1.3410439834622019
4.5264810990262685 -0.4876987578548535
3.433887844853332 0.22342226348460342
1.985566554438045 1.1241755571812488
0.5118361185768756 1.6456643061635172
-0.6315754264878248 2.1197449870564884
-1.2413949171889984 2.214561123235083
-1.3430314989725274 1.8827046466100028
-1.1651674808513517 1.4086239657170316
-0.8348485900548827 0.8871352167347633
-0.6061662810419426 0.2708303315739006
-0.47912055381253144 0.03378999112741492
-0.4537114083666492 -0.10843421314047647
-0.428302262920767 0.08119805921671204
-0.428302262920767 0.31823839966319767
-0.4537114083666492 0.41305453584179197
-0.47912055381253144 0.6975029443775748
-0.5045296992584136 0.6026868081989805
-0.5807571355960603 0.5552787401096834
-0.6315754264878248 0.46046260393108907
-0.6315754264878248 0.3656464677524948
-0.6823937173795893 0.3656464677524948
-0.6823937173795893 0.5078706720203862
-0.6823937173795893 0.46046260393108907
-0.6823937173795893 0.5078706720203862
-0.6823937173795893 0.6500948762882776
-0.6823937173795893 0.5552787401096834
-0.6315754264878248 0.7449110124668719
-0.5807571355960603 0.6500948762882776
-0.6061662810419426 0.6975029443775748
-0.6061662810419426 0.7449110124668719
-0.6315754264878248 0.5552787401096834
-0.6823937173795893 0.5552787401096834
-0.6823937173795893 0.41305453584179197
-0.6823937173795893 0.3656464677524948
-0.6823937173795893 0.3656464677524948
-0.6569845719337071 0.46046260393108907
-0.6569845719337071 0.46046260393108907
-0.6315754264878248 0.6026868081989805
-0.5553479901501781 0.5552787401096834
-0.5045296992584136 0.6500948762882776
-0.5807571355960603 0.5552787401096834
-0.5299388447042959 0.6026868081989805
-0.6061662810419426 0.41305453584179197
-0.6315754264878248 0.41305453584179197
-0.6569845719337071 0.31823839966319767
-0.7078028628254716 0.31823839966319767
-0.6569845719337071 0.2708303315739006
-0.6569845719337071 0.31823839966319767
-0.6061662810419426 0.3656464677524948
-0.5299388447042959 0.46046260393108907
-0.4537114083666492 0.41305453584179197
-0.428302262920767 0.41305453584179197
-0.3520748265831203 0.41305453584179197
-0.3774839720290025 0.2708303315739006
-0.3774839720290025 0.22342226348460342
-0.47912055381253144 0.1760141953953063
-0.47912055381253144 0.03378999112741492
-0.5045296992584136 0.03378999112741492
-0.5299388447042959 -0.01361807696188221
-0.47912055381253144 0.12860612730600918
-0.4537114083666492 0.12860612730600918
-0.4537114083666492 0.2708303315739006
-0.428302262920767 0.2708303315739006
-0.3520748265831203 0.22342226348460342
-0.3520748265831203 0.2708303315739006
-0.32666568113723804 0.1760141953953063
-0.32666568113723804 0.08119805921671204
-0.3774839720290025 -0.061026145051179335
-0.40289311747488477 -0.1558422812297736
-0.428302262920767 -0.1558422812297736
-0.40289311747488477 -0.10843421314047647
-0.428302262920767 -0.061026145051179335
-0.3774839720290025 -0.061026145051179335
-0.3520748265831203 -0.061026145051179335
-0.32666568113723804 0.03378999112741492
-0.2758473902454736 0.03378999112741492
-0.3012565356913558 -0.10843421314047647
-0.2758473902454736 -0.1558422812297736
-0.2758473902454736 -0.1558422812297736
-0.3012565356913558 -0.25065841740836786
-0.3520748265831203 -0.3454745535869621
-0.3520748265831203 -0.25065841740836786
-0.3520748265831203 -0.3454745535869621
-0.3774839720290025 -0.2032503493190707
-0.32666568113723804 -0.25065841740836786
-0.3012565356913558 -0.1558422812297736
-0.25043824479959137 -0.25065841740836786
-0.25043824479959137 -0.2032503493190707
-0.19961995390782689 -0.25065841740836786
-0.17421080846194467 -0.1558422812297736
-0.19961995390782689 -0.3454745535869621
-0.14880166301606243 -0.44029068976555635
-0.17421080846194467 -0.5351068259441506
-0.19961995390782689 -0.4876987578548535
-0.17421080846194467 -0.4876987578548535
-0.14880166301606243 -0.5351068259441506
-0.09798337212429797 -0.44029068976555635
-0.047165081232533504 -0.39288262167625926
0.00365320965923096 -0.39288262167625926
0.05447150055099542 -0.3454745535869621
0.07988064599687765 -0.4876987578548535
0.13069893688864212 -0.3454745535869621
0.05447150055099542 -0.5351068259441506
0.05447150055099542 -0.5351068259441506
-0.021755935786651272 -0.677331030212042
-0.021755935786651272 -0.5351068259441506
-0.047165081232533504 -0.44029068976555635
-0.047165081232533504 -0.3454745535869621
-0.021755935786651272 -0.25065841740836786
-0.021755935786651272 -0.1558422812297736
0.00365320965923096 -0.061026145051179335
-0.047165081232533504 0.03378999112741492
-0.047165081232533504 -0.061026145051179335
-0.07257422667841573 0.03378999112741492
-0.17421080846194467 -0.01361807696188221
-0.17421080846194467 -0.061026145051179335
-0.2758473902454736 -0.10843421314047647
-0.3012565356913558 -0.01361807696188221
-0.3012565356913558 0.12860612730600918
-0.3012565356913558 0.12860612730600918
-0.32666568113723804 0.2708303315739006
-0.2758473902454736 0.2708303315739006
-0.3012565356913558 0.3656464677524948
-0.32666568113723804 0.46046260393108907
-0.3012565356913558 0.3656464677524948
-0.3012565356913558 0.41305453584179197
-0.32666568113723804 0.31823839966319767
-0.428302262920767 0.31823839966319767
-0.428302262920767 0.31823839966319767
-0.428302262920767 0.2708303315739006
-0.428302262920767 0.41305453584179197
-0.4537114083666492 0.41305453584179197
-0.47912055381253144 0.5552787401096834
-0.4537114083666492 0.5078706720203862
-0.3520748265831203 0.5552787401096834
-0.3520748265831203 0.6026868081989805
-0.3520748265831203 0.5078706720203862
-0.3520748265831203 0.5552787401096834
-0.40289311747488477 0.46046260393108907
-0.40289311747488477 0.3656464677524948
-0.4537114083666492 0.3656464677524948
-0.4537114083666492 0.41305453584179197
-0.4537114083666492 0.41305453584179197
-0.428302262920767 0.3656464677524948
-0.428302262920767 0.5552787401096834
-0.4537114083666492 0.6026868081989805
-0.47912055381253144 0.6026868081989805
-0.428302262920767 0.6500948762882776
-0.40289311747488477 0.6500948762882776
-0.47912055381253144 0.6500948762882776
-0.3774839720290025 0.6026868081989805
-0.4537114083666492 0.41305453584179197
-0.47912055381253144 0.3656464677524948
-0.47912055381253144 0.41305453584179197
-0.5299388447042959 0.5078706720203862
-0.47912055381253144 0.46046260393108907
-0.47912055381253144 0.6026868081989805
-0.47912055381253144 0.6500948762882776
-0.428302262920767 0.6026868081989805
-0.40289311747488477 0.6975029443775748
-0.40289311747488477 0.6500948762882776
-0.3774839720290025 0.7449110124668719
-0.40289311747488477 0.6026868081989805
-0.428302262920767 0.46046260393108907
-0.428302262920767 0.46046260393108907
-0.5045296992584136 0.5078706720203862
-0.47912055381253144 0.5078706720203862
-0.5045296992584136 0.5552787401096834
-0.47912055381253144 0.6500948762882776
-0.47912055381253144 0.7449110124668719
-0.428302262920767 0.6975029443775748
-0.428302262920767 0.7449110124668719
-0.428302262920767 0.7449110124668719
-0.40289311747488477 0.6975029443775748
-0.40289311747488477 0.5552787401096834
-0.47912055381253144 0.6026868081989805
-0.47912055381253144 0.46046260393108907
-0.5553479901501781 0.41305453584179197
-0.5299388447042959 0.5078706720203862
-0.5299388447042959 0.6026868081989805
-0.5299388447042959 0.5552787401096834
-0.428302262920767 0.6026868081989805
-0.428302262920767 0.6026868081989805
-0.3774839720290025 0.6975029443775748
-0.428302262920767 0.6500948762882776
-0.40289311747488477 0.6975029443775748
-0.47912055381253144 0.6026868081989805
-0.5045296992584136 0.5552787401096834
-0.47912055381253144 0.5078706720203862
-0.5299388447042959 0.46046260393108907
-0.5045296992584136 0.41305453584179197
-0.47912055381253144 0.5552787401096834
-0.40289311747488477 0.7449110124668719
-0.40289311747488477 0.792319080556169
-0.32666568113723804 0.8871352167347633
-0.3012565356913558 1.0293594210026547
-0.25043824479959137 0.9345432848240603
-0.25043824479959137 0.9345432848240603
-0.25043824479959137 0.8871352167347633
-0.3012565356913558 0.839727148645466
-0.25043824479959137 0.7449110124668719
-0.2758473902454736 0.6975029443775748
-0.2758473902454736 0.6026868081989805
-0.19961995390782689 0.6026868081989805
-0.07257422667841573 0.5078706720203862
-0.09798337212429797 0.46046260393108907
-0.14880166301606243 0.5552787401096834
-0.14880166301606243 0.46046260393108907
-0.25043824479959137 0.2708303315739006
-0.19961995390782689 0.3656464677524948
-0.25043824479959137 0.3656464677524948
-0.3012565356913558 0.3656464677524948
-0.3774839720290025 0.3656464677524948
-0.3520748265831203 0.22342226348460342
-0.40289311747488477 0.31823839966319767
-0.4537114083666492 0.22342226348460342
-0.428302262920767 0.3656464677524948
-0.428302262920767 0.5552787401096834
-0.40289311747488477 0.5552787401096834
-0.40289311747488477 0.6500948762882776
-0.4537114083666492 0.7449110124668719
-0.4537114083666492 0.7449110124668719
-0.5299388447042959 0.792319080556169
-0.6061662810419426 0.5078706720203862
-0.6061662810419426 0.46046260393108907
-0.6315754264878248 0.41305453584179197
-0.6315754264878248 0.46046260393108907
-0.6315754264878248 0.46046260393108907
-0.6061662810419426 0.5078706720203862
-0.5807571355960603 0.6026868081989805
-0.5553479901501781 0.6500948762882776
-0.47912055381253144 0.6500948762882776
-0.47912055381253144 0.6975029443775748
-0.5045296992584136 0.6500948762882776
-0.5045296992584136 0.5078706720203862
-0.5553479901501781 0.46046260393108907
-0.5807571355960603 0.3656464677524948
-0.5807571355960603 0.3656464677524948
-0.6569845719337071 0.46046260393108907
-0.7078028628254716 0.46046260393108907
-0.7840302991631182 0.6500948762882776
-0.7840302991631182 0.6975029443775748
-0.7332120082713538 0.839727148645466
-0.40289311747488477 0.792319080556169
-0.021755935786651272 0.5078706720203862
0.5880635549145223 -0.01361807696188221
1.3503379182909891 -0.677331030212042
2.2904762997886317 -1.3410439834622019
3.2814329721780386 -1.7203085281765789
4.272389644567446 -2.0521650048016586
4.780572553485091 -1.7203085281765789
4.856799989822737 -1.2936359153729047
4.196162208229799 -0.677331030212042
2.9257049359356877 0.08119805921671204
1.4773836455204004 0.792319080556169
0.20692637322628882 1.2663997614491402
-0.6569845719337071 1.4086239657170316
-1.0381217536219405 1.1241755571812488
-0.8856668809466471 0.6500948762882776
-0.5299388447042959 0.03378999112741492
-0.22502909935370913 -0.3454745535869621
-0.07257422667841573 -0.5351068259441506
0.00365320965923096 -0.5351068259441506
0.00365320965923096 -0.29806648549766496
-0.021755935786651272 0.03378999112741492
-0.07257422667841573 0.2708303315739006
-0.17421080846194467 0.3656464677524948
-0.25043824479959137 0.41305453584179197
-0.22502909935370913 0.41305453584179197
-0.2758473902454736 0.46046260393108907
-0.2758473902454736 0.31823839966319767
-0.3520748265831203 0.2708303315739006
-0.3520748265831203 0.2708303315739006
-0.3520748265831203 0.31823839966319767
-0.4537114083666492 0.2708303315739006
-0.4537114083666492 0.41305453584179197
-0.40289311747488477 0.3656464677524948
-0.3520748265831203 0.41305453584179197
-0.3520748265831203 0.5552787401096834
-0.32666568113723804 0.5078706720203862
-0.3012565356913558 0.5078706720203862
-0.2758473902454736 0.5552787401096834
-0.3520748265831203 0.46046260393108907
-0.3520748265831203 0.31823839966319767
-0.40289311747488477 0.31823839966319767
-0.428302262920767 0.22342226348460342
-0.40289311747488477 0.41305453584179197
-0.40289311747488477 0.46046260393108907
-0.40289311747488477 0.46046260393108907
-0.3520748265831203 0.46046260393108907
-0.3012565356913558 0.6026868081989805
-0.22502909935370913 0.46046260393108907
-0.25043824479959137 0.5552787401096834
-0.22502909935370913 0.3656464677524948
-0.25043824479959137 0.3656464677524948
-0.25043824479959137 0.2708303315739006
-0.3012565356913558 0.22342226348460342
-0.3012565356913558 0.1760141953953063
-0.2758473902454736 0.12860612730600918
-0.32666568113723804 0.22342226348460342
-0.25043824479959137 0.31823839966319767
-0.19961995390782689 0.2708303315739006
-0.1233925175701802 0.41305453584179197
-0.14880166301606243 0.3656464677524948
-0.09798337212429797 0.31823839966319767
-0.07257422667841573 0.31823839966319767
-0.1233925175701802 0.22342226348460342
-0.17421080846194467 0.22342226348460342
-0.14880166301606243 0.08119805921671204
-0.17421080846194467 0.08119805921671204
-0.22502909935370913 0.03378999112741492
-0.22502909935370913 0.12860612730600918
-0.19961995390782689 0.12860612730600918
-0.14880166301606243 0.1760141953953063
-0.1233925175701802 0.2708303315739006
-0.021755935786651272 0.2708303315739006
-0.047165081232533504 0.12860612730600918
-0.047165081232533504 0.12860612730600918
-0.07257422667841573 0.08119805921671204
-0.07257422667841573 -0.10843421314047647
-0.09798337212429797 -0.10843421314047647
-0.09798337212429797 -0.1558422812297736
-0.1233925175701802 -0.2032503493190707
-0.1233925175701802 -0.061026145051179335
-0.09798337212429797 -0.01361807696188221
-0.021755935786651272 -0.061026145051179335
0.00365320965923096 -0.061026145051179335
0.00365320965923096 0.03378999112741492
0.05447150055099542 -0.061026145051179335
-0.021755935786651272 -0.1558422812297736
0.00365320965923096 -0.2032503493190707
-0.047165081232533504 -0.25065841740836786
-0.07257422667841573 -0.29806648549766496
-0.07257422667841573 -0.44029068976555635
-0.1233925175701802 -0.39288262167625926
-0.09798337212429797 -0.29806648549766496
-0.07257422667841573 -0.25065841740836786
-0.047165081232533504 -0.2032503493190707
0.00365320965923096 -0.2032503493190707
0.07988064599687765 -0.2032503493190707
0.07988064599687765 -0.29806648549766496
0.10528979144275989 -0.29806648549766496
0.07988064599687765 -0.29806648549766496
0.05447150055099542 -0.5351068259441506
0.05447150055099542 -0.5351068259441506
0.15610808233452436 -0.677331030212042
0.15610808233452436 -0.677331030212042
0.18151722778040658 -0.6299229621227449
0.20692637322628882 -0.4876987578548535
0.2831538095639355 -0.3454745535869621
0.3593812459015822 -0.3454745535869621
0.3593812459015822 -0.29806648549766496
0.41019953679334664 -0.2032503493190707
0.41019953679334664 -0.3454745535869621
0.41019953679334664 -0.44029068976555635
0.3593812459015822 -0.44029068976555635
0.30856295500981773 -0.44029068976555635
0.23233551867217106 -0.4876987578548535
0.20692637322628882 -0.39288262167625926
0.23233551867217106 -0.25065841740836786
0.20692637322628882 -0.25065841740836786
0.18151722778040658 -0.2032503493190707
0.18151722778040658 -0.061026145051179335
0.20692637322628882 -0.061026145051179335
0.15610808233452436 -0.01361807696188221
0.18151722778040658 0.08119805921671204
0.15610808233452436 0.03378999112741492
0.05447150055099542 -0.01361807696188221
-0.021755935786651272 -0.01361807696188221
-0.021755935786651272 -0.061026145051179335
-0.047165081232533504 0.08119805921671204
-0.07257422667841573 0.12860612730600918
-0.09798337212429797 0.1760141953953063
-0.047165081232533504 0.3656464677524948
-0.07257422667841573 0.41305453584179197
-0.021755935786651272 0.46046260393108907
-0.021755935786651272 0.5078706720203862
-0.021755935786651272 0.46046260393108907
-0.047165081232533504 0.3656464677524948
-0.09798337212429797 0.31823839966319767
-0.17421080846194467 0.22342226348460342
-0.19961995390782689 0.31823839966319767
-0.17421080846194467 0.31823839966319767
-0.19961995390782689 0.3656464677524948
-0.19961995390782689 0.46046260393108907
-0.17421080846194467 0.5552787401096834
-0.14880166301606243 0.6026868081989805
-0.14880166301606243 0.6026868081989805
-0.09798337212429797 0.6500948762882776
-0.1233925175701802 0.5078706720203862
-0.14880166301606243 0.5078706720203862
-0.22502909935370913 0.46046260393108907
-0.22502909935370913 0.3656464677524948
-0.25043824479959137 0.41305453584179197
-0.25043824479959137 0.3656464677524948
-0.25043824479959137 0.3656464677524948
-0.25043824479959137 0.5552787401096834
-0.2758473902454736 0.46046260393108907
-0.25043824479959137 0.5552787401096834
-0.19961995390782689 0.6026868081989805
-0.17421080846194467 0.6026868081989805
-0.19961995390782689 0.6026868081989805
-0.25043824479959137 0.5552787401096834
-0.25043824479959137 0.46046260393108907
-0.3012565356913558 0.31823839966319767
-0.32666568113723804 0.22342226348460342
-0.40289311747488477 0.2708303315739006
-0.3774839720290025 0.3656464677524948
-0.3520748265831203 0.5552787401096834
-0.3012565356913558 0.5552787401096834
-0.25043824479959137 0.5552787401096834
-0.2758473902454736 0.5552787401096834
-0.19961995390782689 0.5552787401096834
-0.2758473902454736 0.5078706720203862
-0.2758473902454736 0.46046260393108907
-0.3012565356913558 0.3656464677524948
-0.3520748265831203 0.41305453584179197
-0.32666568113723804 0.3656464677524948
-0.3520748265831203 0.46046260393108907
-0.3774839720290025 0.41305453584179197
-0.3520748265831203 0.5552787401096834
-0.32666568113723804 0.6026868081989805
-0.3012565356913558 0.6500948762882776
-0.2758473902454736 0.6026868081989805
-0.2758473902454736 0.5552787401096834
-0.3012565356913558 0.6500948762882776
-0.3012565356913558 0.6026868081989805
-0.32666568113723804 0.3656464677524948
-0.3520748265831203 0.41305453584179197
-0.40289311747488477 0.46046260393108907
-0.40289311747488477 0.5078706720203862
-0.428302262920767 0.5552787401096834
-0.3520748265831203 0.5552787401096834
-0.32666568113723804 0.7449110124668719
-0.3012565356913558 0.6500948762882776
-0.2758473902454736 0.6975029443775748
-0.3012565356913558 0.6026868081989805
-0.25043824479959137 0.6500948762882776
-0.2758473902454736 0.5552787401096834
-0.3012565356913558 0.46046260393108907
-0.25043824479959137 0.5552787401096834
-0.22502909935370913 0.5552787401096834
-0.19961995390782689 0.6026868081989805
-0.17421080846194467 0.6975029443775748
-0.14880166301606243 0.7449110124668719
-0.07257422667841573 0.839727148645466
-0.07257422667841573 0.9345432848240603
-0.07257422667841573 0.9819513529133574
-0.021755935786651272 0.839727148645466
0.00365320965923096 0.839727148645466
0.02906235510511319 0.792319080556169
0.05447150055099542 0.5078706720203862
0.07988064599687765 0.41305453584179197
0.07988064599687765 0.31823839966319767
0.02906235510511319 0.1760141953953063
-0.047165081232533504 0.1760141953953063
-0.047165081232533504 0.08119805921671204
-0.1233925175701802 0.1760141953953063
-0.1233925175701802 0.2708303315739006
-0.1233925175701802 0.46046260393108907
-0.07257422667841573 0.41305453584179197
-0.07257422667841573 0.5078706720203862
-0.1233925175701802 0.46046260393108907
-0.17421080846194467 0.41305453584179197
-0.25043824479959137 0.22342226348460342
-0.2758473902454736 0.08119805921671204
-0.3012565356913558 0.1760141953953063
-0.3520748265831203 0.31823839966319767
-0.32666568113723804 0.46046260393108907
-0.3012565356913558 0.5552787401096834
-0.3520748265831203 0.6500948762882776
-0.32666568113723804 0.7449110124668719
