-0.5192912654948264 0.3259333985578329
-0.5517613422804148 0.35594690230314624
-0.5679963806732091 0.35594690230314624
-0.5517613422804148 0.38596040604845955
-0.5517613422804148 0.34094015043048953
-0.559878861476812 0.31092664668517617
-0.5842314190660033 0.28091314293986286
-0.6085839766551946 0.28091314293986286
-0.6085839766551946 0.31092664668517617
-0.5842314190660033 0.31092664668517617
-0.5842314190660033 0.34094015043048953
-0.5923489382624004 0.26590639106720615
-0.6491715726371802 0.28091314293986286
-0.6654066110299744 0.2358928873218928
-0.6897591686191658 0.26590639106720615
-0.7059942070119599 0.31092664668517617
-0.6978766878155629 0.28091314293986286
-0.6735241302263715 0.2508996391945495
-0.6897591686191658 0.1908726317039228
-0.6654066110299744 0.1908726317039228
-0.6735241302263715 0.17586587983126611
-0.6572890918335773 0.17586587983126611
-0.6248190150479889 0.14585237608595275
-0.6491715726371802 0.1158388723406394
-0.6491715726371802 0.05581186485001271
-0.6816416494227686 0.05581186485001271
-0.6654066110299744 0.08582536859532605
-0.6491715726371802 0.1158388723406394
-0.6248190150479889 0.10083212046798273
-0.6572890918335773 0.040805112977356034
-0.6735241302263715 -0.01922189451327067
-0.6897591686191658 0.01079160923204268
-0.7059942070119599 0.05581186485001271
-0.6897591686191658 0.10083212046798273
-0.7141117262083571 0.05581186485001271
-0.7059942070119599 0.05581186485001271
-0.7303467646011513 -0.01922189451327067
-0.7465818029939455 0.025798361104699356
-0.7384642837975484 0.05581186485001271
-0.7059942070119599 0.10083212046798273
-0.6897591686191658 0.10083212046798273
-0.7222292454047542 0.07081861672266938
-0.7303467646011513 0.07081861672266938
-0.7546993221903426 0.10083212046798273
-0.7628168413867398 0.1158388723406394
-0.7384642837975484 0.16085912795860943
-0.7222292454047542 0.16085912795860943
-0.7141117262083571 0.16085912795860943
-0.7384642837975484 0.10083212046798273
-0.7628168413867398 0.1158388723406394
-0.7871693989759311 0.20587938357657945
-0.7709343605831368 0.2358928873218928
-0.7384642837975484 0.28091314293986286
-0.7709343605831368 0.26590639106720615
-0.7790518797795339 0.22088613544923613
-0.7871693989759311 0.2508996391945495
-0.7952869181723281 0.3259333985578329
-0.7709343605831368 0.31092664668517617
-0.7871693989759311 0.31092664668517617
-0.7871693989759311 0.26590639106720615
-0.8277569949579165 0.20587938357657945
-0.860227071743505 0.22088613544923613
-0.860227071743505 0.28091314293986286
-0.8439920333507108 0.2959198948125195
-0.8439920333507108 0.2959198948125195
-0.8683445909399021 0.2508996391945495
-0.9008146677254906 0.1908726317039228
-0.9170497061182848 0.20587938357657945
-0.9089321869218877 0.2508996391945495
-0.8926971485290934 0.26590639106720615
-0.8764621101362993 0.26590639106720615
-0.8764621101362993 0.20587938357657945
-0.9170497061182848 0.1308456242132961
-0.9089321869218877 0.1308456242132961
-0.9008146677254906 0.14585237608595275
-0.8845796293326964 0.16085912795860943
-0.8439920333507108 0.14585237608595275
-0.8683445909399021 0.1158388723406394
-0.9251672253146819 0.040805112977356034
-0.9495197829038733 0.025798361104699356
-0.9495197829038733 0.01079160923204268
-0.933284744511079 0.040805112977356034
-0.9089321869218877 0.040805112977356034
-0.9089321869218877 -0.004215142640613995
-0.933284744511079 -0.01922189451327067
-0.9657548212966675 -0.01922189451327067
-0.9901073788858588 -0.01922189451327067
-0.9576373021002703 0.025798361104699356
-0.9657548212966675 -0.004215142640613995
-0.9738723404930646 -0.04923539825858402
-0.9819898596894617 -0.09425565387655405
-1.006342417278653 -0.04923539825858402
-1.006342417278653 -0.04923539825858402
-0.9657548212966675 -0.01922189451327067
-0.9089321869218877 0.025798361104699356
-0.9089321869218877 -0.004215142640613995
-0.9251672253146819 -0.04923539825858402
-0.9576373021002703 -0.03422864638592735
-0.9576373021002703 0.01079160923204268
-0.9738723404930646 0.05581186485001271
-0.9495197829038733 0.07081861672266938
-0.9657548212966675 0.07081861672266938
-0.9738723404930646 0.07081861672266938
-0.9738723404930646 0.07081861672266938
-0.9738723404930646 0.1308456242132961
-0.9576373021002703 0.16085912795860943
-0.933284744511079 0.17586587983126611
-0.9576373021002703 0.14585237608595275
-0.9901073788858588 0.1308456242132961
-0.9901073788858588 0.1158388723406394
-1.006342417278653 0.1308456242132961
-0.9819898596894617 0.17586587983126611
-0.9819898596894617 0.14585237608595275
-0.9819898596894617 0.1308456242132961
-1.006342417278653 0.1158388723406394
-1.006342417278653 0.05581186485001271
-1.0306949748678444 0.1308456242132961
-1.0144599364750502 0.14585237608595275
-1.0306949748678444 0.10083212046798273
-1.006342417278653 0.08582536859532605
-1.0306949748678444 0.040805112977356034
-1.0469300132606385 0.08582536859532605
-1.0225774556714473 0.08582536859532605
-1.006342417278653 0.10083212046798273
-0.9819898596894617 0.08582536859532605
-0.9819898596894617 0.08582536859532605
-0.9901073788858588 -0.004215142640613995
-0.9901073788858588 -0.03422864638592735
-0.9982248980822559 -0.03422864638592735
-0.9414022637074762 -0.01922189451327067
-0.9414022637074762 -0.04923539825858402
-0.933284744511079 -0.09425565387655405
-0.9495197829038733 -0.15428266136718075
-0.9414022637074762 -0.16928941323983743
-0.8926971485290934 -0.13927590949452406
-0.8196394757615195 -0.15428266136718075
-0.7141117262083571 -0.22931642073046413
-0.559878861476812 -0.3043501800937475
-0.22706057442453045 -0.34937043571171755
0.3736358461088557 -0.33436368383906084
1.1042125737845956 -0.39439069132968757
1.5344410911936424 -0.37938393945703086
1.4695009376224655 -0.49943795443828426
1.1042125737845956 -0.6795189769101644
0.763276767535917 -0.9796540143632979
0.6252789411971661 -1.4448633224156548
0.544103749233195 -2.075146901067235
0.4629285572692239 -2.6153899684828756
0.3736358461088557 -2.780464239082099
0.2194029813773106 -2.6604102241008456
0.03270003986017706 -2.495335953501622
-0.16212042085335357 -2.3902886903930254
-0.34070584317409 -2.285241427284429
-0.5192912654948264 -2.2252144197938017
-0.7141117262083571 -2.165187412303175
-0.933284744511079 -2.1501806604305185
-1.2092803971885808 -2.165187412303175
-1.4122183770985086 -2.1501806604305185
-1.6476264337940247 -2.120167156685205
-1.8505644137039525 -2.120167156685205
-2.0697374320066744 -2.120167156685205
-2.345733084684176 -2.2402211716664584
-2.597376179772487 -2.3002481791570855
-2.857136794057194 -2.315254931029742
-3.068192293163519 -2.285241427284429
-3.2061901195022697 -2.315254931029742
-3.3279529074482266 -2.3302616829023988
-3.4740682529833746 -2.405295442265682
-3.6364186369113165 -2.450315697883652
-3.717593828875288 -2.450315697883652
-3.798769020839259 -2.360275186647712
-3.8312390976248474 -2.3302616829023988
-3.863709174410436 -2.3902886903930254
-3.9042967703924214 -2.3752819385203687
-3.961119404767201 -2.4653224497563087
-3.953001885570804 -2.4803292016289653
-3.9205318087852157 -2.4203021941383387
-3.8312390976248474 -2.3902886903930254
-3.733828867268082 -2.405295442265682
-3.6851237520896993 -2.495335953501622
-3.6039485601257284 -2.540356209119592
-3.4740682529833746 -2.6153899684828756
-3.287365311466241 -2.6153899684828756
-3.076309812359916 -2.6153899684828756
-2.857136794057194 -2.5853764647375623
-2.6136112181652806 -2.600383216610219
-2.41879075745175 -2.600383216610219
-2.272675411916602 -2.5553629609922486
-2.1590301431670427 -2.495335953501622
-2.029149836024689 -2.4353089460109953
-1.9723272016499092 -2.3452684347750554
-1.891152009685938 -2.3452684347750554
-1.8424468945075554 -2.2402211716664584
-1.74503666415079 -2.165187412303175
-1.6476264337940247 -2.0151198935766086
-1.5420986842408624 -1.8650523748500418
-1.4203358962949055 -1.714984856123475
-1.3148081467417432 -1.6399510967601916
-1.2011628779921837 -1.5349038336515948
-1.0875176092426242 -1.3698295630523714
-0.9901073788858588 -1.1897485405804913
-0.8764621101362993 -0.9796540143632979
-0.7709343605831368 -0.8746067512547011
-0.7303467646011513 -0.7545527362734478
-0.6816416494227686 -0.6495054731648511
-0.6491715726371802 -0.46942445069297095
-0.6167014958515917 -0.25932992447577746
-0.5761138998696061 -0.1242691576218674
-0.5517613422804148 -0.03422864638592735
-0.5111737462984293 0.025798361104699356
-0.5111737462984293 0.07081861672266938
-0.5111737462984293 0.1308456242132961
-0.46246863112004666 0.22088613544923613
-0.4543511119236495 0.3259333985578329
-0.4218810351380611 0.3709536541758029
-0.4218810351380611 0.35594690230314624
-0.413763515941664 0.4159739097937729
-0.4299985543344582 0.43098066166642957
-0.40564599674526686 0.47600091728439964
-0.38129343915607555 0.551034676647683
-0.3569408815668842 0.5660414285203397
-0.31635328558489867 0.5660414285203397
-0.3569408815668842 0.551034676647683
-0.3731759199596784 0.551034676647683
-0.34070584317409 0.6260684360109664
-0.30011824719210445 0.686095443501593
-0.2595306512101189 0.6710886916289364
-0.24329561281732467 0.6710886916289364
-0.2595306512101189 0.641075187883623
-0.22706057442453045 0.6710886916289364
-0.1783554592461478 0.686095443501593
-0.13776786326416224 0.7161089472469064
-0.10529778647857381 0.7311156991195631
-0.10529778647857381 0.6710886916289364
-0.10529778647857381 0.6710886916289364
-0.0971802672821767 0.6560819397562797
-0.048475152103794036 0.7011021953742498
0.016465001467382844 0.7311156991195631
0.04893507825297128 0.7161089472469064
0.07328763584216262 0.6560819397562797
0.08140515503855972 0.6710886916289364
0.09764019343135394 0.641075187883623
0.13011027021694238 0.686095443501593
0.16258034700253082 0.7161089472469064
0.2194029813773106 0.7311156991195631
0.23563801977010482 0.7311156991195631
0.23563801977010482 0.7011021953742498
0.25999057735929615 0.7611292028648764
0.2924606541448846 0.7611292028648764
0.3330482501268701 0.8511697141008165
0.3736358461088557 0.8361629622281598
0.397988403698047 0.8661764659734732
0.4142234420908412 0.8811832178461299
0.44669351887642966 0.8961899697187865
0.5035161532512095 0.9712237290820699
0.5359862300367979 0.9712237290820699
0.6009263836079748 1.06126424031801
0.6252789411971661 1.01624398470004
0.6577490179827545 1.01624398470004
0.6739840563755488 1.06126424031801
0.7145716523575343 1.1212912478086368
0.771394286732314 1.1663115034266067
0.8119818827142996 1.2113317590445767
0.8363344403034909 1.1813182552992634
0.8606869978926823 1.2113317590445767
0.8363344403034909 1.24134526278989
0.8606869978926823 1.2863655184078602
0.9012745938746678 1.3914127815164568
0.9175096322674621 1.4064195333891134
0.9337446706602562 1.3764060296438
0.9256271514638592 1.3613992777711434
0.9337446706602562 1.4064195333891134
0.9337446706602562 1.4664465408797402
0.9337446706602562 1.5264735483703669
0.9337446706602562 1.5414803002430235
0.8931570746782708 1.5114667964977102
0.8525694786962852 1.4964600446250536
0.8200994019106967 1.5114667964977102
0.7876293251251083 1.5564870521156802
0.7876293251251083 1.6015073077336504
0.763276767535917 1.5714938039883368
0.6983366139647401 1.5264735483703669
0.6333964603935632 1.4964600446250536
0.5846913452151805 1.4514397890070836
0.5359862300367979 1.4664465408797402
0.4953986340548123 1.4964600446250536
0.42234096128723836 1.42142628526177
0.3574008077160615 1.3764060296438
0.26810809655569323 1.2863655184078602
0.17069786619892793 1.2563520146625466
0.10575771262775105 1.24134526278989
0.03270003986017706 1.2263385109172333
-0.016005075318205594 1.1663115034266067
-0.0971802672821767 1.1212912478086368
-0.21894305522813334 1.0012372328273833
-0.30011824719210445 0.9712237290820699
-0.36505840076328133 0.9412102253367566
-0.413763515941664 0.9562169772094132
-0.44623359272725244 0.8961899697187865
-0.5192912654948264 0.8361629622281598
-0.5923489382624004 0.7461224509922197
-0.632936534244386 0.7011021953742498
-0.6735241302263715 0.7011021953742498
-0.6735241302263715 0.7011021953742498
-0.6978766878155629 0.7311156991195631
-0.7059942070119599 0.6710886916289364
-0.7709343605831368 0.6110616841383097
-0.7952869181723281 0.6110616841383097
-0.8196394757615195 0.6560819397562797
-0.8034044373687252 0.641075187883623
-0.7871693989759311 0.6110616841383097
-0.8277569949579165 0.596054932265653
-0.8845796293326964 0.551034676647683
-0.9089321869218877 0.5210211729023696
-0.9089321869218877 0.596054932265653
-0.8845796293326964 0.5660414285203397
-0.8683445909399021 0.5810481803929963
-0.8926971485290934 0.551034676647683
-0.9008146677254906 0.5210211729023696
-0.9170497061182848 0.4910076691570563
-0.9089321869218877 0.5360279247750264
-0.8926971485290934 0.5810481803929963
-0.8845796293326964 0.551034676647683
-0.9008146677254906 0.5360279247750264
-0.933284744511079 0.4910076691570563
-0.9251672253146819 0.47600091728439964
-0.9251672253146819 0.5360279247750264
-0.9170497061182848 0.551034676647683
-0.8926971485290934 0.5210211729023696
-0.8764621101362993 0.4910076691570563
-0.9170497061182848 0.46099416541174293
-0.9170497061182848 0.4459874135390863
-0.933284744511079 0.43098066166642957
-0.933284744511079 0.43098066166642957
-0.9008146677254906 0.43098066166642957
-0.9251672253146819 0.34094015043048953
-0.9251672253146819 0.28091314293986286
-0.9657548212966675 0.2959198948125195
-0.9251672253146819 0.3259333985578329
-0.9089321869218877 0.31092664668517617
-0.9008146677254906 0.28091314293986286
-0.933284744511079 0.2508996391945495
-0.9819898596894617 0.20587938357657945
-0.9901073788858588 0.22088613544923613
-0.9901073788858588 0.28091314293986286
-0.9576373021002703 0.31092664668517617
-0.9495197829038733 0.3259333985578329
-0.9414022637074762 0.26590639106720615
-0.9657548212966675 0.2508996391945495
-0.9657548212966675 0.28091314293986286
-0.9576373021002703 0.31092664668517617
-0.9495197829038733 0.34094015043048953
-0.9251672253146819 0.34094015043048953
-0.933284744511079 0.3259333985578329
-0.9495197829038733 0.31092664668517617
-0.9738723404930646 0.3259333985578329
-0.9576373021002703 0.3709536541758029
-0.9414022637074762 0.38596040604845955
-0.933284744511079 0.4159739097937729
-0.9576373021002703 0.38596040604845955
-0.9738723404930646 0.3709536541758029
-0.9901073788858588 0.38596040604845955
-0.9901073788858588 0.46099416541174293
-0.9819898596894617 0.46099416541174293
-0.9495197829038733 0.4459874135390863
-0.9738723404930646 0.4159739097937729
-0.9901073788858588 0.38596040604845955
-1.0388124940642414 0.4159739097937729
-1.0144599364750502 0.4159739097937729
-0.9901073788858588 0.4459874135390863
-0.9982248980822559 0.43098066166642957
-1.006342417278653 0.40096715792111626
-1.0388124940642414 0.3709536541758029
-1.0550475324570356 0.38596040604845955
-1.0469300132606385 0.46099416541174293
-1.0388124940642414 0.43098066166642957
-1.0225774556714473 0.46099416541174293
-1.0388124940642414 0.4459874135390863
-1.0875176092426242 0.43098066166642957
-1.0956351284390213 0.46099416541174293
-1.07128257084983 0.46099416541174293
-1.0469300132606385 0.4159739097937729
-1.0306949748678444 0.35594690230314624
-1.0388124940642414 0.2508996391945495
-1.079400090046227 0.16085912795860943
-1.07128257084983 0.16085912795860943
-1.0875176092426242 0.20587938357657945
-1.0469300132606385 0.26590639106720615
-1.0306949748678444 0.2508996391945495
-1.0306949748678444 0.14585237608595275
-1.0631650516534328 0.1308456242132961
-1.07128257084983 0.10083212046798273
-1.07128257084983 0.14585237608595275
-1.0469300132606385 0.1908726317039228
-1.0388124940642414 0.17586587983126611
-1.07128257084983 0.14585237608595275
-1.07128257084983 0.10083212046798273
-1.079400090046227 0.1308456242132961
-1.0550475324570356 0.16085912795860943
-1.0144599364750502 0.1908726317039228
-0.9982248980822559 0.20587938357657945
-1.006342417278653 0.1908726317039228
-1.0306949748678444 0.16085912795860943
-1.0306949748678444 0.1908726317039228
-1.0306949748678444 0.1908726317039228
-1.0306949748678444 0.2358928873218928
-0.9982248980822559 0.2508996391945495
-0.9982248980822559 0.22088613544923613
-1.0225774556714473 0.20587938357657945
-1.0550475324570356 0.2358928873218928
-1.0388124940642414 0.26590639106720615
-1.006342417278653 0.28091314293986286
-0.9982248980822559 0.28091314293986286
-1.0225774556714473 0.2358928873218928
-1.0225774556714473 0.17586587983126611
-1.0388124940642414 0.1908726317039228
-1.006342417278653 0.22088613544923613
-0.9982248980822559 0.28091314293986286
-0.9738723404930646 0.2508996391945495
-0.9901073788858588 0.22088613544923613
-1.0306949748678444 0.1908726317039228
-1.0144599364750502 0.17586587983126611
-1.006342417278653 0.22088613544923613
-1.006342417278653 0.26590639106720615
-0.9982248980822559 0.2358928873218928
-1.0144599364750502 0.17586587983126611
-1.0306949748678444 0.1308456242132961
-1.0550475324570356 0.1308456242132961
-1.0225774556714473 0.14585237608595275
-1.006342417278653 0.1908726317039228
-0.9819898596894617 0.17586587983126611
-0.9738723404930646 0.1308456242132961
-0.9819898596894617 0.08582536859532605
-0.9738723404930646 0.07081861672266938
-0.9251672253146819 0.040805112977356034
-0.8683445909399021 0.025798361104699356
-0.8115219565651224 -0.004215142640613995
-0.6897591686191658 -0.07924890200389736
-0.4299985543344582 -0.15428266136718075
0.1382277894133395 -0.16928941323983743
0.9175096322674621 -0.16928941323983743
1.591263725568422 -0.15428266136718075
1.7860841862819528 -0.25932992447577746
1.4695009376224655 -0.39439069132968757
1.0392724202134187 -0.5894784656742244
0.7551592483395199 -0.8445932475093878
0.617161422000769 -1.339816059307058
0.5684563068223863 -1.9700996379586384
0.4385759996800326 -2.5103427053742786
0.3005781733412817 -2.6754169759735023
0.11387523182414816 -2.495335953501622
-0.040357632907396926 -2.3752819385203687
-0.20270801683533912 -2.2402211716664584
-0.38129343915607555 -2.210207667921145
-0.5842314190660033 -2.180194164175832
-0.7952869181723281 -2.135173908557862
-1.0225774556714473 -2.165187412303175
-1.225515435581375 -2.135173908557862
-1.4203358962949055 -2.120167156685205
-1.6151563570084362 -2.1051604048125485
-1.8424468945075554 -2.135173908557862
-2.0697374320066744 -2.210207667921145
-2.2970279695057934 -2.270234675411772
-2.5324360262013097 -2.270234675411772
-2.7110214485220463 -2.2402211716664584
-2.8327842364680027 -2.2252144197938017
-2.930194466824768 -2.2252144197938017
-3.068192293163519 -2.285241427284429
-3.198072600305873 -2.3452684347750554
-3.3279529074482266 -2.405295442265682
-3.376658022626609 -2.360275186647712
-3.3928930610194032 -2.3302616829023988
-3.417245618608595 -2.3752819385203687
-3.4334806570013887 -2.4653224497563087
-3.4659507337869773 -2.495335953501622
-3.4659507337869773 -2.5553629609922486
-3.4091280994121975 -2.5253494572469353
-3.3117178690554323 -2.5703697128649057
-3.2305426770914614 -2.6153899684828756
-3.1574850043238873 -2.690423727846159
-3.068192293163519 -2.765457487209442
-2.8814893516463855 -2.7954709909547555
-2.6866688909328547 -2.765457487209442
-2.4593783534337357 -2.7054304797188156
-2.272675411916602 -2.765457487209442
-2.0940899895958656 -2.735443983464129
-2.021032316828292 -2.690423727846159
-1.9885622400427034 -2.645403472228189
-1.9560921632571149 -2.5103427053742786
-1.8667994520967466 -2.4353089460109953
-1.8099768177219668 -2.3752819385203687
-1.736919144954393 -2.360275186647712
-1.663861472186819 -2.3302616829023988
-1.5826862802228479 -2.180194164175832
-1.4771585306696855 -2.0301266454492652
-1.3391607043309346 -1.850045622977385
-1.2092803971885808 -1.760005111741445
-1.1605752820101982 -1.6099375930148783
-1.0550475324570356 -1.5349038336515948
-0.9738723404930646 -1.3698295630523714
-0.8764621101362993 -1.159735036835178
-0.7465818029939455 -0.9796540143632979
-0.6735241302263715 -0.7995729918914178
-0.6248190150479889 -0.6495054731648511
-0.6167014958515917 -0.5594649619289109
-0.5842314190660033 -0.3643771875843742
-0.5355263038876207 -0.21430966885780744
-0.4787036695128409 -0.0642421501312407
-0.4543511119236495 0.05581186485001271
-0.4299985543344582 0.1158388723406394
-0.44623359272725244 0.16085912795860943
-0.44623359272725244 0.20587938357657945
-0.413763515941664 0.28091314293986286
-0.38129343915607555 0.40096715792111626
-0.3569408815668842 0.4159739097937729
-0.3325883239776929 0.4159739097937729
-0.32447080478129575 0.43098066166642957
-0.3325883239776929 0.46099416541174293
-0.31635328558489867 0.5210211729023696
-0.2920007279957073 0.641075187883623
-0.267648170406516 0.596054932265653
-0.2595306512101189 0.5660414285203397
-0.2595306512101189 0.551034676647683
-0.267648170406516 0.5810481803929963
-0.24329561281732467 0.641075187883623
-0.194590497638942 0.686095443501593
-0.17023794004975068 0.7011021953742498
-0.17023794004975068 0.7161089472469064
-0.17023794004975068 0.686095443501593
-0.194590497638942 0.6710886916289364
-0.15400290165695646 0.7311156991195631
-0.11341530567497092 0.8061494584828465
-0.06471019049658826 0.7761359547375332
-0.048475152103794036 0.7461224509922197
-0.032240113710999815 0.7011021953742498
-0.05659267130019115 0.7311156991195631
-0.007887556121808486 0.7461224509922197
0.06517011664576551 0.7761359547375332
0.10575771262775105 0.7761359547375332
0.1382277894133395 0.7311156991195631
0.16258034700253082 0.686095443501593
0.17069786619892793 0.7011021953742498
0.21128546218091349 0.7611292028648764
0.251873058162899 0.7761359547375332
0.27622561575209037 0.8061494584828465
0.3086956925376788 0.7911427066101898
0.2924606541448846 0.7611292028648764
0.3330482501268701 0.7461224509922197
0.3817533653052528 0.7611292028648764
0.4385759996800326 0.8661764659734732
0.4953986340548123 0.8961899697187865
0.5359862300367979 0.8961899697187865
0.5684563068223863 0.8961899697187865
0.5928088644115777 0.9412102253367566
0.6090439028043719 1.0312507365726966
0.6739840563755488 1.0462574884453533
0.7389242099467256 1.0762709921906666
0.763276767535917 1.06126424031801
0.7876293251251083 1.0912777440633232
0.7876293251251083 1.15130475155395
0.7957468443215054 1.2113317590445767
0.844451959499888 1.3013722702805168
0.8850395554818736 1.3313857740258301
0.8688045170890794 1.3613992777711434
0.8850395554818736 1.3313857740258301
0.8606869978926823 1.4064195333891134
0.9012745938746678 1.4664465408797402
0.9418621898566534 1.5264735483703669
0.9337446706602562 1.5564870521156802
0.9093921130710649 1.5114667964977102
0.9175096322674621 1.5114667964977102
0.8688045170890794 1.5414803002430235
0.8363344403034909 1.6015073077336504
0.8769220362854765 1.661534315224277
0.8606869978926823 1.6315208114789637
0.8038643635179025 1.6465275633516203
0.771394286732314 1.5865005558609935
0.7145716523575343 1.616514059606307
0.6658665371791517 1.661534315224277
0.6252789411971661 1.6915478189695903
0.5846913452151805 1.6765410670969336
0.5197511916440036 1.6315208114789637
0.4142234420908412 1.6015073077336504
0.34116576932326725 1.5564870521156802
0.28434313494848745 1.5414803002430235
0.23563801977010482 1.5414803002430235
0.18693290459172215 1.4964600446250536
0.10575771262775105 1.3764060296438
0.008347482270985734 1.3013722702805168
-0.07282770969298537 1.2263385109172333
-0.12153282487136803 1.1663115034266067
-0.15400290165695646 1.1663115034266067
-0.1783554592461478 1.0912777440633232
-0.2514131320137218 1.0012372328273833
-0.32447080478129575 0.8661764659734732
-0.3975284775488698 0.8211562103555031
-0.4381160735308553 0.7761359547375332
-0.4543511119236495 0.7761359547375332
-0.47058615031644374 0.7011021953742498
-0.5111737462984293 0.6260684360109664
-0.559878861476812 0.551034676647683
-0.6167014958515917 0.5360279247750264
-0.632936534244386 0.5360279247750264
-0.6491715726371802 0.551034676647683
-0.6167014958515917 0.506014421029713
-0.6248190150479889 0.46099416541174293
-0.6735241302263715 0.3709536541758029
-0.6978766878155629 0.35594690230314624
-0.7303467646011513 0.3709536541758029
-0.7141117262083571 0.43098066166642957
-0.6978766878155629 0.4159739097937729
-0.7141117262083571 0.4159739097937729
-0.7222292454047542 0.35594690230314624
-0.7303467646011513 0.38596040604845955
-0.7384642837975484 0.40096715792111626
-0.7303467646011513 0.43098066166642957
-0.7303467646011513 0.4159739097937729
-0.7141117262083571 0.35594690230314624
-0.7303467646011513 0.35594690230314624
-0.7546993221903426 0.3709536541758029
-0.7709343605831368 0.40096715792111626
-0.7546993221903426 0.4159739097937729
-0.7384642837975484 0.43098066166642957
-0.7628168413867398 0.3709536541758029
-0.7871693989759311 0.3709536541758029
-0.8034044373687252 0.3709536541758029
-0.8034044373687252 0.40096715792111626
-0.7871693989759311 0.43098066166642957
-0.7628168413867398 0.40096715792111626
-0.7546993221903426 0.38596040604845955
-0.8034044373687252 0.38596040604845955
-0.7952869181723281 0.34094015043048953
-0.7871693989759311 0.4159739097937729
-0.7628168413867398 0.40096715792111626
-0.7465818029939455 0.38596040604845955
-0.7465818029939455 0.34094015043048953
-0.7546993221903426 0.2959198948125195
-0.7384642837975484 0.28091314293986286
-0.7141117262083571 0.31092664668517617
-0.6978766878155629 0.3709536541758029
-0.6978766878155629 0.34094015043048953
-0.7303467646011513 0.3259333985578329
-0.7709343605831368 0.1908726317039228
-0.7790518797795339 0.08582536859532605
-0.7709343605831368 0.05581186485001271
-0.7709343605831368 -0.01922189451327067
-0.7465818029939455 -0.004215142640613995
-0.7871693989759311 0.01079160923204268
-0.8034044373687252 0.01079160923204268
-0.8358745141543137 0.01079160923204268
-0.8034044373687252 0.08582536859532605
-0.7871693989759311 0.1158388723406394
-0.7709343605831368 0.14585237608595275
-0.7790518797795339 0.10083212046798273
-0.7952869181723281 0.07081861672266938
-0.8196394757615195 0.14585237608595275
-0.8277569949579165 0.14585237608595275
-0.8034044373687252 0.1908726317039228
-0.8034044373687252 0.22088613544923613
-0.8196394757615195 0.17586587983126611
-0.8439920333507108 0.16085912795860943
-0.8683445909399021 0.16085912795860943
-0.8358745141543137 0.2358928873218928
-0.8196394757615195 0.31092664668517617
-0.7952869181723281 0.2508996391945495
-0.7952869181723281 0.26590639106720615
-0.852109552547108 0.2358928873218928
-0.852109552547108 0.22088613544923613
-0.860227071743505 0.28091314293986286
-0.8683445909399021 0.26590639106720615
-0.8358745141543137 0.28091314293986286
-0.852109552547108 0.26590639106720615
-0.8845796293326964 0.20587938357657945
-0.8926971485290934 0.1908726317039228
-0.9251672253146819 0.2358928873218928
-0.8845796293326964 0.2508996391945495
-0.8764621101362993 0.2508996391945495
-0.8845796293326964 0.22088613544923613
-0.9008146677254906 0.17586587983126611
-0.8926971485290934 0.14585237608595275
-0.8926971485290934 0.20587938357657945
-0.8439920333507108 0.2358928873218928
-0.8196394757615195 0.20587938357657945
-0.8277569949579165 0.1908726317039228
-0.8358745141543137 0.14585237608595275
-0.852109552547108 0.1308456242132961
-0.8277569949579165 0.10083212046798273
-0.8196394757615195 0.1158388723406394
-0.8115219565651224 0.025798361104699356
-0.8115219565651224 0.025798361104699356
-0.8196394757615195 -0.03422864638592735
-0.860227071743505 -0.03422864638592735
-0.8764621101362993 0.01079160923204268
-0.860227071743505 0.040805112977356034
-0.852109552547108 0.01079160923204268
-0.8439920333507108 -0.004215142640613995
-0.852109552547108 -0.04923539825858402
-0.8845796293326964 -0.01922189451327067
-0.8926971485290934 -0.004215142640613995
-0.852109552547108 0.025798361104699356
-0.8115219565651224 -0.01922189451327067
-0.8115219565651224 -0.004215142640613995
-0.8358745141543137 -0.01922189451327067
-0.8277569949579165 0.01079160923204268
-0.8439920333507108 0.05581186485001271
-0.8196394757615195 0.14585237608595275
-0.7952869181723281 0.14585237608595275
-0.8115219565651224 0.1158388723406394
-0.8358745141543137 0.1158388723406394
-0.860227071743505 0.10083212046798273
-0.8358745141543137 0.16085912795860943
-0.8034044373687252 0.17586587983126611
-0.7628168413867398 0.16085912795860943
-0.7709343605831368 0.1308456242132961
-0.8115219565651224 0.07081861672266938
-0.8034044373687252 0.1158388723406394
-0.8196394757615195 0.1158388723406394
-0.8034044373687252 0.17586587983126611
-0.8196394757615195 0.14585237608595275
-0.8034044373687252 0.1158388723406394
-0.8196394757615195 0.07081861672266938
-0.8358745141543137 0.05581186485001271
-0.8196394757615195 0.08582536859532605
-0.7952869181723281 0.07081861672266938
-0.7384642837975484 0.05581186485001271
-0.7303467646011513 0.025798361104699356
-0.7222292454047542 -0.01922189451327067
-0.7141117262083571 -0.0642421501312407
-0.6572890918335773 -0.03422864638592735
-0.5192912654948264 -0.03422864638592735
-0.24329561281732467 -0.04923539825858402
0.251873058162899 -0.09425565387655405
1.0149198626242273 -0.16928941323983743
1.7130265135143787 -0.21430966885780744
1.9727871277990863 -0.33436368383906084
1.729261551907173 -0.46942445069297095
1.3071505536945234 -0.7395459844007911
0.9986848242314331 -1.1897485405804913
0.8688045170890794 -1.8350388711047283
0.7226891715539314 -2.6303967203555323
0.5765738260187835 -3.200653291516486
0.4385759996800326 -3.200653291516486
0.27622561575209037 -2.9905587652992924
0.06517011664576551 -2.8705047503180388
-0.16212042085335357 -2.825484494700069
-0.3488233623704871 -2.765457487209442
-0.5517613422804148 -2.7054304797188156
-0.6978766878155629 -2.5553629609922486
-0.8845796293326964 -2.5853764647375623
-1.1362227244210068 -2.5703697128649057
-1.37974830031292 -2.6153899684828756
-1.6232738762048333 -2.6153899684828756
-1.8343293753111583 -2.5703697128649057
-2.05350239361388 -2.5703697128649057
-2.248322854327411 -2.5703697128649057
-2.4350257958445445 -2.6153899684828756
-2.5892586605760894 -2.600383216610219
-2.7272564869148406 -2.6303967203555323
-2.8327842364680027 -2.6153899684828756
-2.9383119860211653 -2.6153899684828756
-2.995134620395945 -2.6303967203555323
-3.0600747739671217 -2.720437231591472
-3.1168974083419014 -2.720437231591472
-3.1737200427166816 -2.720437231591472
-3.141249965931093 -2.720437231591472
-3.1006623699491076 -2.6754169759735023
-3.0276046971815336 -2.7054304797188156
-3.019487177985136 -2.780464239082099
-2.9383119860211653 -2.855497998445382
-2.8652543132535913 -2.915525005936009
-2.6785513717364577 -2.885511502190696
-2.4918484302193242 -2.9455385096813225
-2.2645578927202052 -2.9905587652992924
-2.037267355221086 -3.0205722690446057
-1.891152009685938 -3.0655925246625757
-1.7612717025435842 -3.0355790209172624
-1.6882140297760102 -2.885511502190696
-1.6313913954012305 -2.7954709909547555
-1.5826862802228479 -2.7054304797188156
-1.5096286074552738 -2.645403472228189
-1.4122183770985086 -2.5703697128649057
-1.298573108348949 -2.4803292016289653
-1.1930453587957865 -2.3002481791570855
-1.0631650516534328 -2.120167156685205
-0.9414022637074762 -2.0301266454492652
-0.860227071743505 -1.9250793823406684
-0.7790518797795339 -1.7900186154867583
-0.7059942070119599 -1.579924089269565
-0.6248190150479889 -1.384836314925028
-0.5192912654948264 -1.1297215330898647
-0.4543511119236495 -0.9796540143632979
-0.38941095835247264 -0.7545527362734478
-0.3569408815668842 -0.6495054731648511
-0.3325883239776929 -0.45441769882031424
-0.267648170406516 -0.25932992447577746
-0.20270801683533912 -0.1242691576218674
-0.16212042085335357 -0.03422864638592735
-0.17023794004975068 -0.004215142640613995
-0.1783554592461478 0.07081861672266938
-0.1783554592461478 0.17586587983126611
-0.16212042085335357 0.26590639106720615
-0.12153282487136803 0.3259333985578329
-0.0971802672821767 0.3709536541758029
-0.0971802672821767 0.4159739097937729
-0.08906274808577959 0.43098066166642957
-0.08094522888938248 0.4459874135390863
-0.06471019049658826 0.5210211729023696
-0.007887556121808486 0.6260684360109664
0.00022996307458862428 0.6110616841383097
0.008347482270985734 0.5660414285203397
-0.024122594514602705 0.5360279247750264
-0.016005075318205594 0.551034676647683
0.016465001467382844 0.6260684360109664
0.05705259744936839 0.6710886916289364
0.09764019343135394 0.6710886916289364
0.10575771262775105 0.6560819397562797
0.10575771262775105 0.6110616841383097
0.13011027021694238 0.6560819397562797
0.1463453086097366 0.7311156991195631
0.17881538539532504 0.7761359547375332
0.21128546218091349 0.7761359547375332
0.23563801977010482 0.7461224509922197
0.20316794298451638 0.7161089472469064
0.23563801977010482 0.7461224509922197
0.28434313494848745 0.7911427066101898
0.34928328851966434 0.8211562103555031
0.40610592289444414 0.8211562103555031
0.43045848048363544 0.7761359547375332
0.4629285572692239 0.7311156991195631
0.4791635956620181 0.7761359547375332
0.5359862300367979 0.7761359547375332
0.617161422000769 0.8511697141008165
0.6496314987863574 0.8361629622281598
0.7064541331611371 0.8361629622281598
0.7226891715539314 0.8211562103555031
0.7389242099467256 0.8811832178461299
0.8119818827142996 0.8961899697187865
0.8606869978926823 0.9562169772094132
0.9093921130710649 1.01624398470004
0.9418621898566534 1.0012372328273833
0.9662147474458447 0.9862304809547265
0.9499797090530505 1.01624398470004
1.0230373818206244 1.1212912478086368
1.0473899394098158 1.1813182552992634
1.0798600161954042 1.1813182552992634
1.0879775353918013 1.2263385109172333
1.1042125737845956 1.2263385109172333
1.0798600161954042 1.3013722702805168
1.1123300929809927 1.3613992777711434
1.1366826505701841 1.4514397890070836
1.144800169766581 1.5114667964977102
1.1366826505701841 1.4964600446250536
1.128565131373787 1.5414803002430235
1.0960950545881984 1.5714938039883368
1.1123300929809927 1.6315208114789637
1.0879775353918013 1.7215613227149036
1.0960950545881984 1.7215613227149036
1.0392724202134187 1.6915478189695903
0.9662147474458447 1.661534315224277
0.9418621898566534 1.661534315224277
0.9093921130710649 1.7515748264602171
0.8769220362854765 1.7665815783328738
0.8363344403034909 1.7515748264602171
0.763276767535917 1.7215613227149036
0.6821015755719458 1.6765410670969336
0.6090439028043719 1.6765410670969336
0.544103749233195 1.661534315224277
0.48728111485841524 1.6765410670969336
0.43045848048363544 1.616514059606307
0.3817533653052528 1.5564870521156802
0.2924606541448846 1.436433037134427
0.20316794298451638 1.4064195333891134
0.1544628278061337 1.3463925258984868
0.09764019343135394 1.3163790221531735
0.05705259744936839 1.2263385109172333
-0.024122594514602705 1.1062844959359799
-0.06471019049658826 0.9862304809547265
-0.11341530567497092 0.9111967215914432
-0.15400290165695646 0.8361629622281598
-0.1783554592461478 0.8061494584828465
-0.22706057442453045 0.7461224509922197
-0.24329561281732467 0.6710886916289364
-0.2920007279957073 0.596054932265653
-0.30823576638850153 0.5360279247750264
-0.3325883239776929 0.506014421029713
-0.34070584317409 0.4910076691570563
-0.3488233623704871 0.4459874135390863
-0.38941095835247264 0.38596040604845955
-0.4218810351380611 0.3259333985578329
-0.4381160735308553 0.28091314293986286
-0.47058615031644374 0.2959198948125195
-0.47058615031644374 0.2959198948125195
-0.4787036695128409 0.26590639106720615
-0.4787036695128409 0.22088613544923613
-0.5111737462984293 0.28091314293986286
-0.5517613422804148 0.2959198948125195
-0.5517613422804148 0.31092664668517617
-0.5192912654948264 0.3709536541758029
-0.5111737462984293 0.3259333985578329
-0.5274087846912235 0.2959198948125195
-0.5355263038876207 0.28091314293986286
-0.559878861476812 0.2959198948125195
-0.5761138998696061 0.3259333985578329
-0.5436438230840177 0.34094015043048953
-0.5274087846912235 0.3709536541758029
-0.5192912654948264 0.35594690230314624
-0.5679963806732091 0.31092664668517617
-0.5761138998696061 0.31092664668517617
-0.5842314190660033 0.34094015043048953
-0.5679963806732091 0.38596040604845955
-0.5436438230840177 0.35594690230314624
-0.5517613422804148 0.34094015043048953
-0.5761138998696061 0.2959198948125195
-0.5842314190660033 0.34094015043048953
-0.5923489382624004 0.3259333985578329
-0.5761138998696061 0.38596040604845955
-0.5517613422804148 0.35594690230314624
-0.5517613422804148 0.2959198948125195
-0.5436438230840177 0.28091314293986286
-0.5517613422804148 0.2358928873218928
-0.5517613422804148 0.28091314293986286
-0.5192912654948264 0.3259333985578329
-0.4787036695128409 0.28091314293986286
-0.4787036695128409 0.26590639106720615
-0.48682118870923796 0.17586587983126611
-0.5274087846912235 0.17586587983126611
-0.5436438230840177 0.1908726317039228
-0.5274087846912235 0.17586587983126611
-0.5030562271020322 0.1908726317039228
-0.5355263038876207 0.17586587983126611
-0.5436438230840177 0.1158388723406394
-0.5923489382624004 0.1308456242132961
-0.559878861476812 0.1308456242132961
-0.5761138998696061 0.14585237608595275
-0.5436438230840177 0.17586587983126611
-0.5761138998696061 0.14585237608595275
-0.6167014958515917 0.1308456242132961
-0.6248190150479889 0.1308456242132961
-0.6167014958515917 0.20587938357657945
-0.6004664574587976 0.22088613544923613
-0.6004664574587976 0.2358928873218928
-0.6085839766551946 0.2358928873218928
-0.6491715726371802 0.2358928873218928
-0.6735241302263715 0.2358928873218928
-0.6491715726371802 0.2959198948125195
-0.6654066110299744 0.3259333985578329
-0.6167014958515917 0.2959198948125195
-0.632936534244386 0.2959198948125195
-0.6491715726371802 0.26590639106720615
-0.6816416494227686 0.26590639106720615
-0.6897591686191658 0.2959198948125195
-0.6572890918335773 0.2959198948125195
-0.6491715726371802 0.2959198948125195
-0.641054053440783 0.28091314293986286
-0.6654066110299744 0.26590639106720615
-0.6978766878155629 0.26590639106720615
-0.6572890918335773 0.28091314293986286
-0.6491715726371802 0.31092664668517617
-0.6491715726371802 0.3259333985578329
-0.6167014958515917 0.2959198948125195
-0.6572890918335773 0.2508996391945495
-0.6735241302263715 0.2358928873218928
-0.6735241302263715 0.28091314293986286
-0.641054053440783 0.26590639106720615
-0.641054053440783 0.28091314293986286
-0.632936534244386 0.22088613544923613
-0.6491715726371802 0.17586587983126611
-0.641054053440783 0.14585237608595275
-0.6248190150479889 0.16085912795860943
-0.6085839766551946 0.17586587983126611
-0.5842314190660033 0.16085912795860943
-0.6085839766551946 0.1158388723406394
-0.641054053440783 0.05581186485001271
-0.6491715726371802 0.05581186485001271
-0.6735241302263715 0.040805112977356034
-0.641054053440783 0.10083212046798273
-0.641054053440783 0.08582536859532605
-0.6735241302263715 0.05581186485001271
-0.6491715726371802 0.025798361104699356
-0.6735241302263715 0.05581186485001271
-0.6654066110299744 0.08582536859532605
-0.6572890918335773 0.14585237608595275
-0.5923489382624004 0.1158388723406394
-0.6248190150479889 0.08582536859532605
-0.6572890918335773 0.08582536859532605
-0.6735241302263715 0.08582536859532605
-0.6816416494227686 0.05581186485001271
-0.632936534244386 0.1308456242132961
-0.6248190150479889 0.10083212046798273
-0.6085839766551946 0.08582536859532605
-0.6491715726371802 0.08582536859532605
-0.6572890918335773 0.1308456242132961
-0.6491715726371802 0.1158388723406394
-0.641054053440783 0.1908726317039228
-0.641054053440783 0.17586587983126611
-0.6248190150479889 0.17586587983126611
-0.6572890918335773 0.16085912795860943
-0.6654066110299744 0.16085912795860943
-0.6572890918335773 0.1908726317039228
-0.632936534244386 0.2358928873218928
-0.6491715726371802 0.20587938357657945
-0.641054053440783 0.17586587983126611
-0.6654066110299744 0.14585237608595275
-0.6897591686191658 0.1158388723406394
-0.6735241302263715 0.1308456242132961
-0.6572890918335773 0.1308456242132961
-0.641054053440783 0.14585237608595275
-0.6248190150479889 0.1158388723406394
-0.6004664574587976 0.07081861672266938
-0.6004664574587976 0.10083212046798273
-0.5923489382624004 0.10083212046798273
-0.5355263038876207 0.1308456242132961
-0.5030562271020322 0.14585237608595275
-0.4543511119236495 0.08582536859532605
-0.34070584317409 0.025798361104699356
-0.15400290165695646 -0.01922189451327067
0.3005781733412817 -0.004215142640613995
0.9743322666422418 -0.03422864638592735
1.7049089943179818 -0.0642421501312407
2.1270199925306317 -0.1842961651124941
1.9809046469954834 -0.3193569319664042
1.493853495211657 -0.5444582100562543
1.1529176889629782 -0.8746067512547011
1.0149198626242273 -1.4298565705429982
0.9256271514638592 -2.405295442265682
0.7795118059287112 -3.425754569606336
0.5928088644115777 -4.056038148257916
0.397988403698047 -4.026024644512603
0.23563801977010482 -3.6358490958235294
0.04893507825297128 -3.245673547134456
-0.11341530567497092 -3.0205722690446057
-0.30011824719210445 -3.005565517171949
-0.5274087846912235 -2.9755520134266358
-0.7384642837975484 -2.855497998445382
-0.933284744511079 -2.7954709909547555
-1.1362227244210068 -2.7054304797188156
-1.3229256659381403 -2.7054304797188156
-1.5420986842408624 -2.6604102241008456
-1.7775067409363785 -2.7504507353367855
-1.9966797592391003 -2.765457487209442
-2.1915002199526312 -2.735443983464129
-2.3051454887021907 -2.735443983464129
-2.41879075745175 -2.720437231591472
-2.5405535453977066 -2.7504507353367855
-2.6623163333436635 -2.855497998445382
-2.7840791212896203 -2.915525005936009
-2.857136794057194 -2.960545261553979
-2.873371832449988 -2.9755520134266358
-2.9058419092355767 -2.9755520134266358
-2.913959428431974 -3.0205722690446057
-2.9626645436103565 -3.0805992765352324
-2.9383119860211653 -3.0655925246625757
-2.8814893516463855 -3.050585772789919
-2.8165491980752084 -3.050585772789919
-2.7353740061112375 -3.1556330358985156
-2.6379637757544723 -3.2606802990071126
-2.5324360262013097 -3.3507208102430526
-2.353850603880573 -3.4407613214789925
-2.118442547185057 -3.5007883289696196
-1.8749169712931437 -3.530801832714933
-1.6557439529904219 -3.515795080842276
-1.525863645848068 -3.515795080842276
-1.4609234922768912 -3.455768073351649
-1.444688453884097 -3.380734313988366
-1.4041008579021115 -3.1856465396438294
-1.298573108348949 -3.050585772789919
-1.1849278395993894 -2.9905587652992924
-1.1037526476354182 -2.9005182540633525
-0.9982248980822559 -2.825484494700069
-0.9089321869218877 -2.6153899684828756
-0.8439920333507108 -2.3452684347750554
-0.6978766878155629 -2.120167156685205
-0.5679963806732091 -1.940086134213325
-0.4949387079056351 -1.760005111741445
-0.4218810351380611 -1.6099375930148783
-0.3731759199596784 -1.4298565705429982
-0.2920007279957073 -1.2197620443258046
-0.21894305522813334 -0.9496405106179845
-0.16212042085335357 -0.7845662400187611
-0.12965034406776513 -0.604485217546881
-0.12153282487136803 -0.4394109469476576
-0.11341530567497092 -0.2443231726031208
-0.08094522888938248 -0.07924890200389736
-0.016005075318205594 0.1158388723406394
0.03270003986017706 0.20587938357657945
0.04081755905657417 0.26590639106720615
0.03270003986017706 0.2959198948125195
0.03270003986017706 0.3709536541758029
0.03270003986017706 0.43098066166642957
0.06517011664576551 0.551034676647683
0.10575771262775105 0.5210211729023696
0.10575771262775105 0.4910076691570563
0.11387523182414816 0.47600091728439964
0.08952267423495683 0.4910076691570563
0.08952267423495683 0.596054932265653
0.1463453086097366 0.6560819397562797
0.18693290459172215 0.6710886916289364
0.20316794298451638 0.6710886916289364
0.17881538539532504 0.6710886916289364
0.16258034700253082 0.641075187883623
0.19505042378811926 0.6560819397562797
0.251873058162899 0.7161089472469064
0.28434313494848745 0.7011021953742498
0.2924606541448846 0.6710886916289364
0.3005781733412817 0.686095443501593
0.3005781733412817 0.7311156991195631
0.3574008077160615 0.7761359547375332
0.397988403698047 0.8061494584828465
0.44669351887642966 0.7761359547375332
0.48728111485841524 0.7611292028648764
0.4953986340548123 0.7161089472469064
0.5278687108404008 0.7011021953742498
0.5522212684295921 0.7311156991195631
0.6009263836079748 0.7761359547375332
0.6415139795899604 0.7611292028648764
0.6577490179827545 0.7311156991195631
0.690219094768343 0.6560819397562797
0.6821015755719458 0.686095443501593
0.7308066907503286 0.7461224509922197
0.7795118059287112 0.7611292028648764
0.8282169211070939 0.8061494584828465
0.844451959499888 0.8061494584828465
0.8769220362854765 0.8211562103555031
0.9093921130710649 0.8661764659734732
0.982449785838639 0.9262034734640999
1.0068023434278304 0.9862304809547265
1.0717424969990073 0.9862304809547265
1.128565131373787 0.9712237290820699
1.1204476121773899 0.9412102253367566
1.144800169766581 1.0012372328273833
1.1772702465521696 1.06126424031801
1.2259753617305522 1.1062844959359799
1.2584454385161408 1.1362979996812934
1.2584454385161408 1.1813182552992634
1.2665629577125377 1.2563520146625466
1.2665629577125377 1.3163790221531735
1.2746804769089348 1.3764060296438
1.3233855920873177 1.436433037134427
1.3639731880693031 1.4514397890070836
1.355855668872906 1.4514397890070836
1.3315031112837146 1.436433037134427
1.2990330344981262 1.4664465408797402
1.2990330344981262 1.5564870521156802
1.2990330344981262 1.6315208114789637
1.290915515301729 1.6315208114789637
1.2665629577125377 1.616514059606307
1.2259753617305522 1.6015073077336504
1.1853877657485667 1.6015073077336504
1.1366826505701841 1.616514059606307
1.1204476121773899 1.661534315224277
1.0717424969990073 1.661534315224277
1.0392724202134187 1.616514059606307
0.9662147474458447 1.5865005558609935
0.9012745938746678 1.6015073077336504
0.8363344403034909 1.6315208114789637
0.8363344403034909 1.6465275633516203
0.7957468443215054 1.6015073077336504
0.7308066907503286 1.4964600446250536
0.6577490179827545 1.4064195333891134
0.5846913452151805 1.3313857740258301
0.5278687108404008 1.3013722702805168
0.4791635956620181 1.2563520146625466
0.4385759996800326 1.1813182552992634
0.3736358461088557 1.1062844959359799
0.27622561575209037 0.9562169772094132
0.20316794298451638 0.8961899697187865
0.16258034700253082 0.8811832178461299
0.1382277894133395 0.8811832178461299
0.11387523182414816 0.7911427066101898
0.05705259744936839 0.6560819397562797
-0.032240113710999815 0.5360279247750264
-0.08094522888938248 0.506014421029713
-0.08094522888938248 0.5360279247750264
-0.11341530567497092 0.5210211729023696
-0.12965034406776513 0.46099416541174293
-0.13776786326416224 0.34094015043048953
-0.194590497638942 0.22088613544923613
-0.21082553603173623 0.20587938357657945
-0.194590497638942 0.1908726317039228
-0.194590497638942 0.20587938357657945
-0.20270801683533912 0.16085912795860943
-0.23517809362092756 0.16085912795860943
-0.27576568960291314 0.16085912795860943
-0.30823576638850153 0.1158388723406394
-0.30823576638850153 0.17586587983126611
-0.30823576638850153 0.14585237608595275
-0.27576568960291314 0.1308456242132961
-0.30011824719210445 0.1158388723406394
-0.32447080478129575 0.1158388723406394
-0.32447080478129575 0.1308456242132961
-0.32447080478129575 0.17586587983126611
-0.31635328558489867 0.20587938357657945
-0.2838832087993102 0.1908726317039228
-0.2838832087993102 0.1158388723406394
-0.3488233623704871 0.07081861672266938
-0.36505840076328133 0.08582536859532605
-0.34070584317409 0.1158388723406394
-0.3569408815668842 0.1308456242132961
-0.30823576638850153 0.16085912795860943
-0.30823576638850153 0.1308456242132961
-0.32447080478129575 0.1158388723406394
-0.3569408815668842 0.07081861672266938
-0.36505840076328133 0.1158388723406394
-0.32447080478129575 0.1158388723406394
-0.31635328558489867 0.1158388723406394
-0.30011824719210445 0.040805112977356034
-0.30823576638850153 0.025798361104699356
-0.31635328558489867 0.01079160923204268
-0.30823576638850153 0.025798361104699356
-0.2920007279957073 0.01079160923204268
-0.2595306512101189 -0.01922189451327067
-0.30011824719210445 -0.07924890200389736
-0.30011824719210445 -0.1242691576218674
-0.30011824719210445 -0.1242691576218674
-0.31635328558489867 -0.10926240574921073
-0.2920007279957073 -0.04923539825858402
-0.27576568960291314 -0.03422864638592735
-0.2920007279957073 -0.10926240574921073
-0.30823576638850153 -0.10926240574921073
-0.2920007279957073 -0.1242691576218674
-0.27576568960291314 -0.1242691576218674
-0.27576568960291314 -0.0642421501312407
-0.27576568960291314 -0.04923539825858402
-0.30011824719210445 -0.09425565387655405
-0.30011824719210445 -0.1242691576218674
-0.3325883239776929 -0.10926240574921073
-0.30011824719210445 -0.07924890200389736
-0.30011824719210445 -0.03422864638592735
-0.31635328558489867 -0.0642421501312407
-0.34070584317409 -0.09425565387655405
-0.3488233623704871 -0.13927590949452406
-0.3731759199596784 -0.07924890200389736
-0.38129343915607555 -0.03422864638592735
-0.3325883239776929 0.040805112977356034
-0.3325883239776929 0.025798361104699356
-0.34070584317409 0.01079160923204268
-0.34070584317409 -0.01922189451327067
-0.38129343915607555 -0.01922189451327067
-0.3569408815668842 0.01079160923204268
-0.3488233623704871 0.08582536859532605
-0.3569408815668842 0.07081861672266938
-0.38129343915607555 0.040805112977356034
-0.38129343915607555 -0.03422864638592735
-0.40564599674526686 -0.01922189451327067
-0.3975284775488698 0.01079160923204268
-0.36505840076328133 0.05581186485001271
-0.3569408815668842 0.05581186485001271
-0.36505840076328133 0.07081861672266938
-0.413763515941664 -0.004215142640613995
-0.413763515941664 0.01079160923204268
-0.38941095835247264 0.01079160923204268
-0.3488233623704871 0.025798361104699356
-0.34070584317409 0.040805112977356034
-0.36505840076328133 -0.004215142640613995
-0.38941095835247264 -0.04923539825858402
-0.413763515941664 -0.0642421501312407
-0.38129343915607555 -0.04923539825858402
-0.3488233623704871 -0.07924890200389736
-0.3325883239776929 -0.1242691576218674
-0.3569408815668842 -0.22931642073046413
-0.38129343915607555 -0.27433667634843417
-0.3975284775488698 -0.2443231726031208
-0.40564599674526686 -0.25932992447577746
-0.36505840076328133 -0.22931642073046413
-0.3488233623704871 -0.19930291698515076
-0.3569408815668842 -0.25932992447577746
-0.3731759199596784 -0.27433667634843417
-0.3975284775488698 -0.22931642073046413
-0.3975284775488698 -0.19930291698515076
-0.38129343915607555 -0.19930291698515076
-0.34070584317409 -0.25932992447577746
-0.3488233623704871 -0.27433667634843417
-0.3569408815668842 -0.3043501800937475
-0.3325883239776929 -0.3043501800937475
-0.3488233623704871 -0.2443231726031208
-0.3325883239776929 -0.21430966885780744
-0.3325883239776929 -0.22931642073046413
-0.34070584317409 -0.19930291698515076
-0.3325883239776929 -0.2443231726031208
-0.3488233623704871 -0.25932992447577746
-0.3325883239776929 -0.21430966885780744
-0.31635328558489867 -0.16928941323983743
-0.30011824719210445 -0.15428266136718075
-0.30011824719210445 -0.09425565387655405
-0.3488233623704871 -0.09425565387655405
-0.36505840076328133 -0.07924890200389736
-0.3488233623704871 -0.03422864638592735
-0.3569408815668842 -0.03422864638592735
-0.3325883239776929 -0.03422864638592735
-0.3325883239776929 -0.04923539825858402
-0.3488233623704871 -0.10926240574921073
-0.3731759199596784 -0.09425565387655405
-0.3731759199596784 -0.09425565387655405
-0.3488233623704871 -0.04923539825858402
-0.30011824719210445 -0.03422864638592735
-0.31635328558489867 -0.01922189451327067
-0.3325883239776929 -0.01922189451327067
-0.3488233623704871 -0.04923539825858402
-0.3569408815668842 -0.04923539825858402
-0.34070584317409 -0.04923539825858402
-0.32447080478129575 -0.09425565387655405
-0.3731759199596784 -0.09425565387655405
-0.3975284775488698 -0.10926240574921073
-0.38129343915607555 -0.10926240574921073
-0.3569408815668842 -0.09425565387655405
-0.31635328558489867 -0.07924890200389736
-0.267648170406516 -0.09425565387655405
-0.2595306512101189 -0.13927590949452406
-0.27576568960291314 -0.21430966885780744
-0.2838832087993102 -0.22931642073046413
-0.22706057442453045 -0.19930291698515076
-0.21082553603173623 -0.1842961651124941
-0.16212042085335357 -0.2893434282210908
-0.16212042085335357 -0.34937043571171755
-0.15400290165695646 -0.4093974432023442
-0.12153282487136803 -0.4093974432023442
0.00022996307458862428 -0.4394109469476576
0.24375553896650193 -0.4244041950750009
0.7226891715539314 -0.39439069132968757
1.3883257456584945 -0.4244041950750009
2.005257204584675 -0.4844312025656276
2.3543105300297507 -0.5744717138015677
2.248782780476588 -0.694525728782821
1.9078469742279094 -0.7845662400187611
1.5993812447648192 -1.0246742699812679
1.4207958224440829 -1.4898835780336248
1.3071505536945234 -2.180194164175832
1.1935052849449639 -3.0355790209172624
1.0717424969990073 -3.6808693514414994
0.9743322666422418 -3.8609503739133797
0.844451959499888 -3.6658625995688428
0.6739840563755488 -3.3207073064977393
0.4791635956620181 -3.200653291516486
0.27622561575209037 -3.050585772789919
0.08952267423495683 -2.915525005936009
-0.07282770969298537 -2.810477742827412
-0.22706057442453045 -2.765457487209442
-0.4218810351380611 -2.735443983464129
-0.6248190150479889 -2.7504507353367855
-0.8439920333507108 -2.735443983464129
-1.0388124940642414 -2.690423727846159
-1.217397916384978 -2.690423727846159
-1.4041008579021115 -2.735443983464129
-1.6395089145976276 -2.780464239082099
-1.8749169712931437 -2.885511502190696
-2.0616199128102775 -2.810477742827412
-2.199617739149028 -2.780464239082099
-2.3051454887021907 -2.810477742827412
-2.394438199862559 -2.8404912465727254
-2.499965949415721 -2.9005182540633525
-2.6054936989688837 -3.0355790209172624
-2.702903929325649 -3.0205722690446057
-2.702903929325649 -2.9905587652992924
-2.7272564869148406 -2.960545261553979
-2.719138967718443 -3.005565517171949
-2.7110214485220463 -3.0805992765352324
-2.6866688909328547 -3.200653291516486
-2.6541988141472665 -3.2756870508797693
-2.573023622183295 -3.290693802752426
-2.483730911022927 -3.3657275621157092
-2.3376155654877793 -3.4407613214789925
-2.199617739149028 -3.560815336460246
-2.029149836024689 -3.650855847696186
-1.8505644137039525 -3.650855847696186
-1.5989213186156421 -3.6808693514414994
-1.371630781116523 -3.6358490958235294
-1.217397916384978 -3.560815336460246
-1.1768103204029923 -3.455768073351649
-1.152457762813801 -3.335714058370396
-1.152457762813801 -3.245673547134456
-1.0956351284390213 -3.1856465396438294
-0.9819898596894617 -3.0805992765352324
-0.8926971485290934 -2.9755520134266358
-0.8034044373687252 -2.825484494700069
-0.7303467646011513 -2.690423727846159
-0.6491715726371802 -2.4353089460109953
-0.5274087846912235 -2.1952009160484884
-0.3569408815668842 -1.940086134213325
-0.24329561281732467 -1.7449983598687884
-0.17023794004975068 -1.5499105855242516
-0.12965034406776513 -1.3548228111797147
-0.07282770969298537 -1.0997080293445514
0.016465001467382844 -0.8595999993820445
0.06517011664576551 -0.5894784656742244
0.11387523182414816 -0.37938393945703086
0.1544628278061337 -0.19930291698515076
0.17069786619892793 -0.09425565387655405
0.17069786619892793 0.01079160923204268
0.21128546218091349 0.14585237608595275
0.251873058162899 0.1908726317039228
0.25999057735929615 0.31092664668517617
0.25999057735929615 0.34094015043048953
0.21128546218091349 0.3259333985578329
0.21128546218091349 0.3259333985578329
0.251873058162899 0.34094015043048953
0.2924606541448846 0.4159739097937729
0.3168132117340759 0.43098066166642957
0.3330482501268701 0.46099416541174293
0.34116576932326725 0.46099416541174293
0.3330482501268701 0.47600091728439964
0.36551832691245856 0.506014421029713
0.4142234420908412 0.5360279247750264
0.397988403698047 0.5210211729023696
0.3898708845016499 0.506014421029713
0.3817533653052528 0.47600091728439964
0.3817533653052528 0.46099416541174293
0.4385759996800326 0.4910076691570563
0.5116336724476066 0.506014421029713
0.5684563068223863 0.506014421029713
0.617161422000769 0.47600091728439964
0.617161422000769 0.40096715792111626
0.617161422000769 0.4159739097937729
0.6739840563755488 0.4459874135390863
0.7226891715539314 0.47600091728439964
0.7470417291431227 0.47600091728439964
0.7551592483395199 0.506014421029713
0.7470417291431227 0.46099416541174293
0.7551592483395199 0.46099416541174293
0.8038643635179025 0.5360279247750264
0.8688045170890794 0.551034676647683
0.9337446706602562 0.596054932265653
0.9499797090530505 0.6260684360109664
0.9418621898566534 0.5660414285203397
0.9662147474458447 0.596054932265653
1.0473899394098158 0.5810481803929963
1.1366826505701841 0.6110616841383097
1.2016228041413608 0.6260684360109664
1.1853877657485667 0.7011021953742498
1.1853877657485667 0.7161089472469064
1.209740323337758 0.8211562103555031
1.2503279193197436 0.8961899697187865
1.290915515301729 0.9862304809547265
1.3396206304801117 1.0312507365726966
1.3477381496765088 1.0462574884453533
1.3720907072657003 1.06126424031801
1.3720907072657003 1.1362979996812934
1.4451483800332743 1.1212912478086368
1.4695009376224655 1.2113317590445767
1.5182060528008483 1.1813182552992634
1.5425586103900395 1.19632500717192
1.566911167979231 1.1813182552992634
1.566911167979231 1.2113317590445767
1.5831462063720252 1.2713587665352033
1.5993812447648192 1.3613992777711434
1.5993812447648192 1.3463925258984868
1.5993812447648192 1.3313857740258301
1.5993812447648192 1.3463925258984868
1.6074987639612164 1.3613992777711434
1.6074987639612164 1.4514397890070836
1.6237338023540107 1.5264735483703669
1.6318513215504078 1.5264735483703669
1.591263725568422 1.4964600446250536
1.5506761295864366 1.481453292752397
1.5100885336044512 1.4964600446250536
1.5182060528008483 1.5564870521156802
1.4776184568188626 1.5865005558609935
1.4532658992296714 1.5264735483703669
1.3802082264620974 1.4664465408797402
1.2665629577125377 1.3764060296438
1.1935052849449639 1.3764060296438
1.144800169766581 1.3313857740258301
1.0717424969990073 1.3013722702805168
1.0311549010170216 1.2113317590445767
0.9175096322674621 1.1362979996812934
0.8038643635179025 1.0762709921906666
0.6983366139647401 1.06126424031801
0.6252789411971661 1.01624398470004
0.5846913452151805 0.9862304809547265
0.6009263836079748 0.9262034734640999
0.544103749233195 0.8661764659734732
0.4791635956620181 0.8061494584828465
0.3817533653052528 0.7611292028648764
0.3330482501268701 0.7761359547375332
0.2924606541448846 0.7461224509922197
0.25999057735929615 0.7161089472469064
0.2194029813773106 0.6110616841383097
0.1544628278061337 0.551034676647683
0.10575771262775105 0.47600091728439964
0.08140515503855972 0.4459874135390863
0.07328763584216262 0.506014421029713
0.04893507825297128 0.4459874135390863
0.00022996307458862428 0.4159739097937729
-0.040357632907396926 0.35594690230314624
-0.08094522888938248 0.34094015043048953
-0.08906274808577959 0.31092664668517617
-0.08094522888938248 0.34094015043048953
-0.0971802672821767 0.31092664668517617
-0.10529778647857381 0.22088613544923613
-0.14588538246055935 0.14585237608595275
-0.17023794004975068 0.16085912795860943
-0.17023794004975068 0.17586587983126611
-0.1783554592461478 0.1908726317039228
-0.17023794004975068 0.20587938357657945
-0.1783554592461478 0.20587938357657945
-0.20270801683533912 0.1308456242132961
-0.2514131320137218 0.1308456242132961
-0.23517809362092756 0.17586587983126611
-0.20270801683533912 0.22088613544923613
-0.1783554592461478 0.17586587983126611
-0.21894305522813334 0.14585237608595275
-0.23517809362092756 0.1158388723406394
-0.24329561281732467 0.1308456242132961
-0.24329561281732467 0.17586587983126611
-0.21894305522813334 0.20587938357657945
-0.20270801683533912 0.17586587983126611
-0.22706057442453045 0.16085912795860943
-0.22706057442453045 0.1158388723406394
-0.2514131320137218 0.08582536859532605
-0.21082553603173623 0.10083212046798273
-0.1864729784425449 0.1158388723406394
-0.17023794004975068 0.08582536859532605
-0.1783554592461478 0.01079160923204268
-0.21082553603173623 -0.04923539825858402
-0.24329561281732467 -0.0642421501312407
-0.2595306512101189 -0.04923539825858402
-0.24329561281732467 -0.01922189451327067
-0.21894305522813334 -0.03422864638592735
-0.21894305522813334 -0.07924890200389736
-0.23517809362092756 -0.1242691576218674
-0.267648170406516 -0.1242691576218674
-0.267648170406516 -0.07924890200389736
-0.2514131320137218 -0.07924890200389736
-0.23517809362092756 -0.0642421501312407
-0.23517809362092756 -0.10926240574921073
-0.23517809362092756 -0.09425565387655405
-0.2514131320137218 -0.0642421501312407
-0.20270801683533912 -0.01922189451327067
-0.21082553603173623 0.01079160923204268
-0.20270801683533912 0.05581186485001271
-0.22706057442453045 -0.03422864638592735
-0.2514131320137218 -0.07924890200389736
-0.30011824719210445 -0.07924890200389736
-0.31635328558489867 -0.03422864638592735
-0.30011824719210445 -0.004215142640613995
-0.2838832087993102 0.025798361104699356
-0.27576568960291314 0.040805112977356034
-0.2838832087993102 0.025798361104699356
-0.30823576638850153 0.040805112977356034
-0.30011824719210445 0.1158388723406394
-0.30823576638850153 0.17586587983126611
-0.267648170406516 0.17586587983126611
-0.267648170406516 0.14585237608595275
-0.30011824719210445 0.14585237608595275
-0.31635328558489867 0.1308456242132961
-0.30011824719210445 0.14585237608595275
-0.30823576638850153 0.16085912795860943
-0.30011824719210445 0.1308456242132961
-0.31635328558489867 0.05581186485001271
-0.31635328558489867 0.025798361104699356
-0.3488233623704871 0.07081861672266938
-0.3488233623704871 0.07081861672266938
-0.30011824719210445 0.10083212046798273
-0.2595306512101189 0.1308456242132961
-0.27576568960291314 0.1158388723406394
-0.30823576638850153 0.05581186485001271
-0.3325883239776929 0.05581186485001271
-0.3569408815668842 0.07081861672266938
-0.34070584317409 0.08582536859532605
-0.2920007279957073 -0.004215142640613995
-0.31635328558489867 -0.01922189451327067
-0.3569408815668842 -0.0642421501312407
-0.38941095835247264 -0.07924890200389736
-0.38941095835247264 -0.0642421501312407
-0.34070584317409 -0.03422864638592735
-0.31635328558489867 -0.01922189451327067
-0.32447080478129575 -0.09425565387655405
-0.34070584317409 -0.13927590949452406
-0.34070584317409 -0.19930291698515076
-0.3325883239776929 -0.15428266136718075
-0.31635328558489867 -0.10926240574921073
-0.30823576638850153 -0.15428266136718075
-0.3325883239776929 -0.21430966885780744
-0.3569408815668842 -0.22931642073046413
-0.3731759199596784 -0.2443231726031208
-0.38941095835247264 -0.19930291698515076
-0.36505840076328133 -0.15428266136718075
-0.3488233623704871 -0.16928941323983743
-0.3488233623704871 -0.16928941323983743
-0.3569408815668842 -0.22931642073046413
-0.3731759199596784 -0.19930291698515076
-0.36505840076328133 -0.16928941323983743
-0.34070584317409 -0.13927590949452406
-0.31635328558489867 -0.1242691576218674
-0.31635328558489867 -0.1242691576218674
-0.34070584317409 -0.16928941323983743
-0.3488233623704871 -0.16928941323983743
-0.3488233623704871 -0.1242691576218674
-0.3325883239776929 -0.09425565387655405
-0.31635328558489867 -0.0642421501312407
-0.32447080478129575 -0.09425565387655405
-0.3569408815668842 -0.0642421501312407
-0.36505840076328133 -0.07924890200389736
-0.3569408815668842 -0.03422864638592735
-0.31635328558489867 -0.004215142640613995
-0.2920007279957073 -0.01922189451327067
-0.30011824719210445 -0.004215142640613995
-0.3569408815668842 -0.0642421501312407
-0.3569408815668842 -0.04923539825858402
-0.3569408815668842 -0.03422864638592735
-0.31635328558489867 -0.03422864638592735
-0.32447080478129575 -0.0642421501312407
-0.34070584317409 -0.0642421501312407
-0.3325883239776929 -0.09425565387655405
-0.3488233623704871 -0.07924890200389736
-0.3569408815668842 -0.04923539825858402
-0.3325883239776929 -0.01922189451327067
-0.30823576638850153 -0.01922189451327067
-0.30011824719210445 -0.04923539825858402
-0.3325883239776929 -0.07924890200389736
-0.3325883239776929 -0.1242691576218674
-0.2920007279957073 -0.04923539825858402
-0.30823576638850153 -0.07924890200389736
-0.267648170406516 -0.09425565387655405
-0.27576568960291314 -0.1242691576218674
-0.30823576638850153 -0.22931642073046413
-0.2920007279957073 -0.22931642073046413
-0.27576568960291314 -0.22931642073046413
-0.21894305522813334 -0.15428266136718075
-0.17023794004975068 -0.1842961651124941
-0.16212042085335357 -0.22931642073046413
-0.15400290165695646 -0.27433667634843417
-0.15400290165695646 -0.3043501800937475
-0.12153282487136803 -0.33436368383906084
-0.032240113710999815 -0.3043501800937475
0.1382277894133395 -0.33436368383906084
0.397988403698047 -0.3643771875843742
0.9012745938746678 -0.3643771875843742
1.566911167979231 -0.37938393945703086
2.167607588512617 -0.3643771875843742
2.476073317975707 -0.3643771875843742
2.378663087618942 -0.4394109469476576
2.0458448005666603 -0.5594649619289109
1.729261551907173 -0.7245392325281345
1.5263235719972452 -0.9796540143632979
1.4451483800332743 -1.4148498186703415
1.3883257456584945 -2.0601401491945786
1.2665629577125377 -2.9005182540633525
1.1123300929809927 -3.605835592078216
0.9580972282494477 -3.935984133276663
0.8038643635179025 -3.7709098626774393
0.6739840563755488 -3.3957410658610225
0.5522212684295921 -3.1106127802805457
0.3898708845016499 -2.9755520134266358
0.2275205005737077 -2.9005182540633525
0.04893507825297128 -2.8404912465727254
-0.12965034406776513 -2.780464239082099
-0.2838832087993102 -2.690423727846159
-0.46246863112004666 -2.600383216610219
-0.6491715726371802 -2.5703697128649057
-0.852109552547108 -2.5853764647375623
-1.079400090046227 -2.7054304797188156
-1.306690627545346 -2.735443983464129
-1.4771585306696855 -2.720437231591472
-1.680096510579613 -2.7504507353367855
-1.8424468945075554 -2.765457487209442
-1.9966797592391003 -2.765457487209442
-2.175265181559837 -2.7954709909547555
-2.2970279695057934 -2.765457487209442
-2.426908276648147 -2.7054304797188156
-2.5080834686121185 -2.645403472228189
-2.548671064594104 -2.645403472228189
-2.6541988141472665 -2.6754169759735023
-2.702903929325649 -2.6754169759735023
-2.7597265637004287 -2.690423727846159
-2.7921966404860172 -2.645403472228189
-2.767844082896826 -2.5703697128649057
-2.7597265637004287 -2.5853764647375623
-2.7516090445040318 -2.6754169759735023
-2.775961602093223 -2.7504507353367855
-2.7516090445040318 -2.855497998445382
-2.6623163333436635 -2.9455385096813225
-2.597376179772487 -3.005565517171949
-2.47561339182653 -3.0805992765352324
-2.345733084684176 -3.1706397877711723
-2.2320878159346167 -3.2606802990071126
-2.0778549512030717 -3.2606802990071126
-1.8830344904895409 -3.290693802752426
-1.6719789913832162 -3.2606802990071126
-1.4852760498660824 -3.2156600433891427
-1.3553957427237286 -3.1706397877711723
-1.2498679931705663 -3.1256195321532023
-1.2092803971885808 -3.0355790209172624
-1.1362227244210068 -2.8705047503180388
-1.0144599364750502 -2.7504507353367855
-0.9089321869218877 -2.645403472228189
-0.8196394757615195 -2.5853764647375623
-0.7465818029939455 -2.4803292016289653
-0.6816416494227686 -2.3752819385203687
-0.5679963806732091 -2.2252144197938017
-0.5111737462984293 -2.045133397321922
-0.3975284775488698 -1.9550928860859818
-0.31635328558489867 -1.8200321192320716
-0.2595306512101189 -1.7299916079961317
-0.20270801683533912 -1.5349038336515948
-0.12153282487136803 -1.294795803689088
-0.040357632907396926 -1.114714781217208
0.05705259744936839 -0.9046202550000145
0.08952267423495683 -0.7845662400187611
0.08952267423495683 -0.6795189769101644
0.11387523182414816 -0.5444582100562543
0.16258034700253082 -0.4244041950750009
0.19505042378811926 -0.2893434282210908
0.24375553896650193 -0.21430966885780744
0.27622561575209037 -0.1242691576218674
0.28434313494848745 -0.0642421501312407
0.251873058162899 0.025798361104699356
0.27622561575209037 0.10083212046798273
0.32493073093047303 0.17586587983126611
0.3168132117340759 0.1908726317039228
0.2924606541448846 0.20587938357657945
0.27622561575209037 0.1908726317039228
0.28434313494848745 0.2358928873218928
0.3086956925376788 0.28091314293986286
0.3574008077160615 0.34094015043048953
0.3817533653052528 0.3259333985578329
0.3736358461088557 0.34094015043048953
0.36551832691245856 0.3259333985578329
0.397988403698047 0.34094015043048953
0.42234096128723836 0.34094015043048953
0.4629285572692239 0.40096715792111626
0.4953986340548123 0.40096715792111626
0.5035161532512095 0.3259333985578329
0.4629285572692239 0.34094015043048953
0.4791635956620181 0.38596040604845955
0.5359862300367979 0.3709536541758029
0.5765738260187835 0.40096715792111626
0.6090439028043719 0.38596040604845955
0.617161422000769 0.3709536541758029
0.6252789411971661 0.3259333985578329
0.6415139795899604 0.34094015043048953
0.6496314987863574 0.3709536541758029
0.6983366139647401 0.40096715792111626
0.7551592483395199 0.38596040604845955
0.7226891715539314 0.3709536541758029
0.7551592483395199 0.35594690230314624
0.763276767535917 0.35594690230314624
0.8119818827142996 0.40096715792111626
0.8688045170890794 0.43098066166642957
0.9175096322674621 0.46099416541174293
0.9256271514638592 0.4459874135390863
0.9499797090530505 0.43098066166642957
0.9580972282494477 0.4459874135390863
1.0149198626242273 0.5360279247750264
1.0717424969990073 0.596054932265653
1.128565131373787 0.5810481803929963
1.1366826505701841 0.551034676647683
1.1529176889629782 0.551034676647683
1.1935052849449639 0.5810481803929963
1.2422104001233465 0.6560819397562797
1.290915515301729 0.7461224509922197
1.3477381496765088 0.7611292028648764
1.3883257456584945 0.7311156991195631
1.3964432648548915 0.7611292028648764
1.42891334164048 0.7761359547375332
1.493853495211657 0.8061494584828465
1.5263235719972452 0.8511697141008165
1.566911167979231 0.9111967215914432
1.5993812447648192 0.8511697141008165
1.6156162831576135 0.8661764659734732
1.6074987639612164 0.9111967215914432
1.639968840746805 0.9562169772094132
1.6886739559251875 1.0012372328273833
1.729261551907173 1.01624398470004
1.7454965902999673 1.0462574884453533
1.7454965902999673 1.0312507365726966
1.7373790711035701 1.0912777440633232
1.7698491478891587 1.0762709921906666
1.7779666670855556 1.2113317590445767
1.802319224674747 1.2113317590445767
1.802319224674747 1.1813182552992634
1.7779666670855556 1.1362979996812934
1.7454965902999673 1.1813182552992634
1.729261551907173 1.1813182552992634
1.729261551907173 1.2263385109172333
1.6967914751215847 1.2263385109172333
1.6724389175323933 1.19632500717192
1.6237338023540107 1.1362979996812934
1.575028687175628 1.15130475155395
1.5344410911936424 1.1663115034266067
1.501971014408054 1.1813182552992634
1.4532658992296714 1.15130475155395
1.3720907072657003 1.1212912478086368
1.282797996105332 1.0762709921906666
1.1853877657485667 1.0462574884453533
1.1204476121773899 1.1062844959359799
1.0879775353918013 1.1362979996812934
1.0473899394098158 1.06126424031801
0.9580972282494477 1.0312507365726966
0.8525694786962852 0.9262034734640999
0.7470417291431227 0.8811832178461299
0.6577490179827545 0.8661764659734732
0.6090439028043719 0.8361629622281598
0.5603387876259892 0.7911427066101898
0.48728111485841524 0.7161089472469064
0.3817533653052528 0.641075187883623
0.34116576932326725 0.596054932265653
0.25999057735929615 0.6710886916289364
0.24375553896650193 0.6710886916289364
0.20316794298451638 0.6260684360109664
0.1544628278061337 0.551034676647683
0.08952267423495683 0.4159739097937729
0.04893507825297128 0.38596040604845955
0.016465001467382844 0.38596040604845955
0.008347482270985734 0.34094015043048953
0.008347482270985734 0.31092664668517617
-0.040357632907396926 0.2508996391945495
-0.05659267130019115 0.20587938357657945
-0.08906274808577959 0.2508996391945495
-0.10529778647857381 0.2508996391945495
-0.08906274808577959 0.26590639106720615
-0.11341530567497092 0.2508996391945495
-0.12153282487136803 0.20587938357657945
-0.13776786326416224 0.16085912795860943
-0.13776786326416224 0.17586587983126611
-0.14588538246055935 0.16085912795860943
-0.12965034406776513 0.2358928873218928
-0.10529778647857381 0.14585237608595275
-0.12965034406776513 0.1308456242132961
-0.14588538246055935 0.08582536859532605
-0.15400290165695646 0.08582536859532605
-0.14588538246055935 0.1308456242132961
-0.13776786326416224 0.10083212046798273
-0.10529778647857381 0.1158388723406394
-0.10529778647857381 0.07081861672266938
-0.14588538246055935 0.040805112977356034
-0.15400290165695646 0.01079160923204268
-0.12153282487136803 0.025798361104699356
-0.12153282487136803 0.08582536859532605
-0.12965034406776513 0.05581186485001271
-0.13776786326416224 0.025798361104699356
-0.16212042085335357 -0.03422864638592735
-0.17023794004975068 -0.004215142640613995
-0.15400290165695646 -0.03422864638592735
-0.12965034406776513 -0.004215142640613995
-0.11341530567497092 -0.01922189451327067
-0.12153282487136803 -0.07924890200389736
-0.14588538246055935 -0.07924890200389736
-0.17023794004975068 -0.09425565387655405
-0.16212042085335357 -0.03422864638592735
-0.14588538246055935 0.025798361104699356
-0.13776786326416224 0.025798361104699356
-0.16212042085335357 -0.01922189451327067
-0.20270801683533912 -0.03422864638592735
-0.20270801683533912 -0.03422864638592735
-0.21894305522813334 0.05581186485001271
-0.20270801683533912 0.1158388723406394
-0.194590497638942 0.10083212046798273
-0.21894305522813334 0.07081861672266938
-0.24329561281732467 0.040805112977356034
-0.267648170406516 0.025798361104699356
-0.2595306512101189 0.05581186485001271
-0.2514131320137218 0.07081861672266938
-0.2514131320137218 0.08582536859532605
-0.267648170406516 0.040805112977356034
-0.2920007279957073 0.040805112977356034
-0.30823576638850153 0.08582536859532605
-0.30823576638850153 0.10083212046798273
-0.27576568960291314 0.14585237608595275
-0.2595306512101189 0.1308456242132961
-0.2920007279957073 0.08582536859532605
-0.30011824719210445 0.08582536859532605
-0.31635328558489867 0.07081861672266938
-0.30011824719210445 0.08582536859532605
-0.2838832087993102 0.08582536859532605
-0.2595306512101189 0.07081861672266938
-0.27576568960291314 0.025798361104699356
-0.2838832087993102 0.025798361104699356
-0.2838832087993102 0.08582536859532605
-0.30823576638850153 0.1158388723406394
-0.2838832087993102 0.20587938357657945
-0.27576568960291314 0.20587938357657945
-0.24329561281732467 0.10083212046798273
-0.30011824719210445 0.040805112977356034
-0.30823576638850153 0.040805112977356034
-0.2838832087993102 -0.01922189451327067
-0.267648170406516 -0.01922189451327067
-0.2595306512101189 -0.09425565387655405
-0.267648170406516 -0.1242691576218674
-0.2838832087993102 -0.13927590949452406
-0.31635328558489867 -0.10926240574921073
-0.31635328558489867 -0.04923539825858402
-0.30823576638850153 -0.01922189451327067
-0.2920007279957073 -0.07924890200389736
-0.32447080478129575 -0.1242691576218674
-0.3325883239776929 -0.1242691576218674
-0.3569408815668842 -0.1242691576218674
-0.3488233623704871 -0.09425565387655405
-0.3325883239776929 -0.04923539825858402
-0.3325883239776929 -0.07924890200389736
-0.3325883239776929 -0.09425565387655405
-0.3488233623704871 -0.09425565387655405
-0.3488233623704871 -0.07924890200389736
-0.3569408815668842 -0.004215142640613995
-0.3325883239776929 0.05581186485001271
-0.31635328558489867 0.040805112977356034
-0.30823576638850153 0.05581186485001271
-0.3569408815668842 0.025798361104699356
-0.38129343915607555 0.07081861672266938
-0.3975284775488698 0.10083212046798273
-0.36505840076328133 0.1158388723406394
-0.3731759199596784 0.05581186485001271
-0.38129343915607555 0.05581186485001271
-0.4218810351380611 -0.004215142640613995
-0.44623359272725244 -0.0642421501312407
-0.44623359272725244 -0.1242691576218674
-0.3975284775488698 -0.10926240574921073
-0.3975284775488698 -0.09425565387655405
-0.38129343915607555 -0.09425565387655405
-0.40564599674526686 -0.09425565387655405
-0.4299985543344582 -0.04923539825858402
-0.413763515941664 -0.004215142640613995
-0.38941095835247264 0.025798361104699356
-0.38129343915607555 0.025798361104699356
-0.38941095835247264 -0.03422864638592735
-0.413763515941664 -0.07924890200389736
-0.4218810351380611 -0.04923539825858402
-0.4218810351380611 -0.0642421501312407
-0.3975284775488698 -0.03422864638592735
-0.3731759199596784 -0.01922189451327067
-0.38129343915607555 -0.01922189451327067
-0.40564599674526686 -0.03422864638592735
-0.413763515941664 0.01079160923204268
-0.38941095835247264 0.025798361104699356
-0.38941095835247264 0.01079160923204268
-0.34070584317409 -0.04923539825858402
-0.34070584317409 -0.1242691576218674
-0.3488233623704871 -0.16928941323983743
-0.36505840076328133 -0.16928941323983743
-0.3569408815668842 -0.15428266136718075
-0.3325883239776929 -0.10926240574921073
-0.3488233623704871 -0.16928941323983743
-0.3325883239776929 -0.21430966885780744
-0.3569408815668842 -0.27433667634843417
-0.38129343915607555 -0.25932992447577746
-0.36505840076328133 -0.25932992447577746
-0.34070584317409 -0.21430966885780744
-0.3325883239776929 -0.25932992447577746
-0.32447080478129575 -0.2893434282210908
-0.3488233623704871 -0.3193569319664042
-0.3569408815668842 -0.2893434282210908
-0.31635328558489867 -0.27433667634843417
-0.2838832087993102 -0.22931642073046413
-0.23517809362092756 -0.2443231726031208
-0.22706057442453045 -0.2893434282210908
-0.20270801683533912 -0.3193569319664042
-0.1864729784425449 -0.2893434282210908
-0.08094522888938248 -0.3043501800937475
0.07328763584216262 -0.22931642073046413
0.34116576932326725 -0.2893434282210908
0.8688045170890794 -0.3043501800937475
1.5263235719972452 -0.33436368383906084
2.078314877352249 -0.34937043571171755
2.329957972440559 -0.34937043571171755
2.2081951844946026 -0.34937043571171755
1.867259378245924 -0.4844312025656276
1.5587936487828338 -0.6495054731648511
1.3802082264620974 -0.9796540143632979
1.282797996105332 -1.4598700742883115
1.2016228041413608 -2.180194164175832
1.0960950545881984 -3.050585772789919
0.9580972282494477 -3.650855847696186
0.8038643635179025 -3.740896358932126
0.6658665371791517 -3.470774825224306
0.4953986340548123 -3.0805992765352324
0.32493073093047303 -2.9455385096813225
0.16258034700253082 -2.825484494700069
0.016465001467382844 -2.765457487209442
-0.16212042085335357 -2.720437231591472
-0.38129343915607555 -2.735443983464129
-0.5679963806732091 -2.7054304797188156
-0.7709343605831368 -2.6153899684828756
-0.9738723404930646 -2.600383216610219
-1.1849278395993894 -2.6754169759735023
-1.4041008579021115 -2.6754169759735023
-1.6557439529904219 -2.765457487209442
-1.8262118561147611 -2.780464239082099
-1.9804447208463063 -2.765457487209442
-2.0616199128102775 -2.720437231591472
-2.1915002199526312 -2.735443983464129
-2.272675411916602 -2.765457487209442
-2.394438199862559 -2.780464239082099
-2.524318507004913 -2.7954709909547555
-2.573023622183295 -2.825484494700069
-2.5811411413796925 -2.8404912465727254
-2.5892586605760894 -2.825484494700069
-2.6379637757544723 -2.885511502190696
-2.6866688909328547 -2.915525005936009
-2.694786410129252 -2.915525005936009
-2.646081294950869 -2.930531757808666
-2.597376179772487 -2.930531757808666
-2.5324360262013097 -2.9905587652992924
-2.4350257958445445 -3.140626284025859
-2.394438199862559 -3.245673547134456
-2.3051454887021907 -3.3057005546250826
-2.118442547185057 -3.335714058370396
-1.9317396056679235 -3.335714058370396
-1.753154183347187 -3.3507208102430526
-1.590803799419245 -3.380734313988366
-1.4690410114732884 -3.380734313988366
-1.4203358962949055 -3.290693802752426
-1.3635132619201258 -3.1706397877711723
-1.298573108348949 -3.0655925246625757
-1.217397916384978 -2.9755520134266358
-1.1362227244210068 -2.930531757808666
-1.0875176092426242 -2.855497998445382
-0.9982248980822559 -2.7504507353367855
-0.8845796293326964 -2.5853764647375623
-0.7871693989759311 -2.3452684347750554
-0.6978766878155629 -2.180194164175832
-0.5923489382624004 -2.090153652939892
-0.5192912654948264 -1.9250793823406684
-0.4299985543344582 -1.7900186154867583
-0.3569408815668842 -1.5949308411422216
-0.27576568960291314 -1.3998430667976849
-0.1783554592461478 -1.1897485405804913
-0.12153282487136803 -1.0546877737265812
-0.07282770969298537 -0.9196270068726712
-0.05659267130019115 -0.7095324806554777
-0.016005075318205594 -0.514444706310941
0.024582520663779955 -0.3193569319664042
0.08140515503855972 -0.21430966885780744
0.09764019343135394 -0.1242691576218674
0.09764019343135394 -0.0642421501312407
0.09764019343135394 0.025798361104699356
0.13011027021694238 0.1158388723406394
0.16258034700253082 0.20587938357657945
0.19505042378811926 0.26590639106720615
0.18693290459172215 0.26590639106720615
0.1544628278061337 0.31092664668517617
0.1382277894133395 0.35594690230314624
0.1544628278061337 0.40096715792111626
0.20316794298451638 0.46099416541174293
0.23563801977010482 0.40096715792111626
0.2194029813773106 0.35594690230314624
0.19505042378811926 0.3259333985578329
0.19505042378811926 0.38596040604845955
0.2275205005737077 0.4459874135390863
0.25999057735929615 0.47600091728439964
0.2924606541448846 0.47600091728439964
0.3005781733412817 0.47600091728439964
0.3005781733412817 0.46099416541174293
0.32493073093047303 0.46099416541174293
0.34928328851966434 0.4459874135390863
0.3898708845016499 0.4459874135390863
0.44669351887642966 0.4459874135390863
0.44669351887642966 0.38596040604845955
0.4548110380728268 0.35594690230314624
0.4385759996800326 0.38596040604845955
0.4629285572692239 0.43098066166642957
0.4548110380728268 0.4459874135390863
0.5197511916440036 0.47600091728439964
0.5278687108404008 0.4459874135390863
0.5522212684295921 0.4159739097937729
0.5846913452151805 0.46099416541174293
0.5765738260187835 0.551034676647683
0.6821015755719458 0.596054932265653
0.7389242099467256 0.641075187883623
0.7470417291431227 0.6110616841383097
0.7470417291431227 0.6110616841383097
0.771394286732314 0.6560819397562797
0.7876293251251083 0.7611292028648764
0.844451959499888 0.8361629622281598
0.9012745938746678 0.8211562103555031
0.9175096322674621 0.8211562103555031
0.9580972282494477 0.7911427066101898
0.9743322666422418 0.8211562103555031
0.9905673050350361 0.9111967215914432
1.0717424969990073 0.9562169772094132
1.1042125737845956 1.0012372328273833
1.1610352081593753 0.9862304809547265
1.1691527273557725 0.9712237290820699
1.2016228041413608 1.0012372328273833
1.2503279193197436 1.06126424031801
1.3152680728909205 1.1212912478086368
1.3477381496765088 1.1062844959359799
1.355855668872906 1.0912777440633232
1.3720907072657003 1.0762709921906666
1.3639731880693031 1.1062844959359799
1.3883257456584945 1.15130475155395
1.42891334164048 1.2113317590445767
1.4695009376224655 1.24134526278989
1.4451483800332743 1.2263385109172333
1.4370308608368771 1.2263385109172333
1.4207958224440829 1.2113317590445767
1.42891334164048 1.24134526278989
1.4532658992296714 1.3163790221531735
1.4613834184260683 1.3013722702805168
1.42891334164048 1.2563520146625466
1.4126783032476857 1.24134526278989
1.4045607840512886 1.2863655184078602
1.4126783032476857 1.3463925258984868
1.4207958224440829 1.436433037134427
1.4045607840512886 1.4514397890070836
1.3802082264620974 1.436433037134427
1.3152680728909205 1.3914127815164568
1.2422104001233465 1.3613992777711434
1.1853877657485667 1.3613992777711434
1.1529176889629782 1.3914127815164568
1.0960950545881984 1.3463925258984868
1.0230373818206244 1.3013722702805168
0.9256271514638592 1.2863655184078602
0.8688045170890794 1.2863655184078602
0.8282169211070939 1.3163790221531735
0.763276767535917 1.3463925258984868
0.6983366139647401 1.2863655184078602
0.6415139795899604 1.24134526278989
0.5603387876259892 1.19632500717192
0.4629285572692239 1.1813182552992634
0.4142234420908412 1.1813182552992634
0.3736358461088557 1.1663115034266067
0.3168132117340759 1.06126424031801
0.25999057735929615 0.9712237290820699
0.20316794298451638 0.9111967215914432
0.12199275102054527 0.8961899697187865
0.08952267423495683 0.8811832178461299
0.04081755905657417 0.8511697141008165
0.04081755905657417 0.8061494584828465
-0.007887556121808486 0.6260684360109664
-0.10529778647857381 0.506014421029713
-0.12965034406776513 0.4159739097937729
-0.14588538246055935 0.43098066166642957
-0.17023794004975068 0.4159739097937729
-0.15400290165695646 0.40096715792111626
-0.1864729784425449 0.35594690230314624
-0.21894305522813334 0.26590639106720615
-0.24329561281732467 0.28091314293986286
-0.2514131320137218 0.34094015043048953
-0.24329561281732467 0.3259333985578329
-0.24329561281732467 0.3259333985578329
-0.24329561281732467 0.3259333985578329
-0.27576568960291314 0.1908726317039228
-0.2920007279957073 0.10083212046798273
-0.2838832087993102 0.07081861672266938
-0.27576568960291314 0.025798361104699356
-0.27576568960291314 -0.01922189451327067
-0.2920007279957073 -0.03422864638592735
-0.32447080478129575 -0.01922189451327067
-0.34070584317409 -0.004215142640613995
-0.3325883239776929 0.025798361104699356
-0.32447080478129575 0.05581186485001271
-0.31635328558489867 0.05581186485001271
-0.32447080478129575 0.025798361104699356
-0.34070584317409 0.040805112977356034
-0.36505840076328133 0.025798361104699356
-0.34070584317409 0.07081861672266938
-0.30823576638850153 0.08582536859532605
-0.2838832087993102 0.05581186485001271
-0.30011824719210445 0.01079160923204268
-0.3569408815668842 -0.01922189451327067
-0.3569408815668842 0.01079160923204268
-0.3569408815668842 0.040805112977356034
-0.3488233623704871 0.07081861672266938
-0.31635328558489867 0.07081861672266938
-0.34070584317409 0.040805112977356034
-0.36505840076328133 0.025798361104699356
-0.3569408815668842 0.07081861672266938
-0.3569408815668842 0.07081861672266938
-0.3325883239776929 0.1158388723406394
-0.30011824719210445 0.16085912795860943
-0.3325883239776929 0.1158388723406394
-0.3569408815668842 0.07081861672266938
-0.3731759199596784 0.08582536859532605
-0.36505840076328133 0.1158388723406394
-0.3569408815668842 0.16085912795860943
-0.32447080478129575 0.14585237608595275
-0.3488233623704871 0.1308456242132961
-0.38941095835247264 0.1158388723406394
-0.4218810351380611 0.1308456242132961
-0.4218810351380611 0.16085912795860943
-0.38941095835247264 0.22088613544923613
-0.36505840076328133 0.20587938357657945
-0.38941095835247264 0.16085912795860943
-0.3975284775488698 0.08582536859532605
-0.4299985543344582 0.10083212046798273
-0.40564599674526686 0.1308456242132961
-0.3975284775488698 0.14585237608595275
-0.38129343915607555 0.10083212046798273
-0.38941095835247264 0.08582536859532605
-0.4218810351380611 0.01079160923204268
-0.40564599674526686 -0.004215142640613995
-0.4218810351380611 0.05581186485001271
-0.40564599674526686 0.08582536859532605
-0.38129343915607555 0.05581186485001271
-0.3975284775488698 -0.004215142640613995
-0.4218810351380611 -0.04923539825858402
-0.47058615031644374 -0.0642421501312407
-0.4543511119236495 -0.03422864638592735
-0.4381160735308553 0.01079160923204268
-0.40564599674526686 -0.004215142640613995
-0.4218810351380611 -0.004215142640613995
-0.47058615031644374 -0.04923539825858402
-0.47058615031644374 -0.03422864638592735
-0.46246863112004666 -0.04923539825858402
-0.4381160735308553 0.01079160923204268
-0.4218810351380611 -0.004215142640613995
-0.4299985543344582 -0.03422864638592735
-0.47058615031644374 -0.0642421501312407
-0.5030562271020322 -0.07924890200389736
-0.5111737462984293 0.01079160923204268
-0.4787036695128409 0.01079160923204268
-0.46246863112004666 -0.03422864638592735
-0.47058615031644374 -0.04923539825858402
-0.4949387079056351 -0.0642421501312407
-0.5030562271020322 -0.07924890200389736
-0.5030562271020322 -0.03422864638592735
-0.48682118870923796 -0.01922189451327067
-0.46246863112004666 -0.01922189451327067
-0.4949387079056351 0.01079160923204268
-0.5030562271020322 -0.0642421501312407
-0.5111737462984293 0.01079160923204268
-0.5030562271020322 0.040805112977356034
-0.47058615031644374 0.05581186485001271
-0.4381160735308553 0.040805112977356034
-0.44623359272725244 0.01079160923204268
-0.4543511119236495 -0.004215142640613995
-0.47058615031644374 -0.01922189451327067
-0.47058615031644374 0.05581186485001271
-0.44623359272725244 0.10083212046798273
-0.4543511119236495 0.07081861672266938
-0.4543511119236495 0.025798361104699356
-0.46246863112004666 -0.01922189451327067
-0.48682118870923796 0.01079160923204268
-0.4787036695128409 0.07081861672266938
-0.4299985543344582 0.07081861672266938
-0.4218810351380611 0.10083212046798273
-0.4381160735308553 0.05581186485001271
-0.44623359272725244 -0.03422864638592735
-0.47058615031644374 -0.004215142640613995
-0.4787036695128409 0.025798361104699356
-0.47058615031644374 0.025798361104699356
-0.4381160735308553 -0.004215142640613995
-0.44623359272725244 -0.03422864638592735
-0.46246863112004666 -0.07924890200389736
-0.4949387079056351 -0.10926240574921073
-0.4787036695128409 -0.0642421501312407
-0.4381160735308553 -0.04923539825858402
-0.38941095835247264 -0.07924890200389736
-0.4218810351380611 -0.0642421501312407
-0.4299985543344582 -0.10926240574921073
-0.4381160735308553 -0.10926240574921073
-0.4218810351380611 -0.0642421501312407
-0.40564599674526686 -0.04923539825858402
-0.38941095835247264 -0.0642421501312407
-0.413763515941664 -0.10926240574921073
-0.4299985543344582 -0.15428266136718075
-0.4299985543344582 -0.1242691576218674
-0.4218810351380611 -0.1242691576218674
-0.38941095835247264 -0.09425565387655405
-0.36505840076328133 -0.15428266136718075
-0.3569408815668842 -0.15428266136718075
-0.38129343915607555 -0.1842961651124941
-0.38129343915607555 -0.15428266136718075
-0.3569408815668842 -0.15428266136718075
-0.31635328558489867 -0.10926240574921073
-0.27576568960291314 -0.1242691576218674
-0.21082553603173623 -0.13927590949452406
-0.10529778647857381 -0.1842961651124941
0.1382277894133395 -0.16928941323983743
0.7145716523575343 -0.1842961651124941
1.5182060528008483 -0.16928941323983743
2.1838426269054114 -0.21430966885780744
2.3624280492261476 -0.27433667634843417
2.029609762173866 -0.4244041950750009
1.5506761295864366 -0.6194919694195377
1.2990330344981262 -0.9946607662359546
1.1853877657485667 -1.7299916079961317
1.1204476121773899 -2.735443983464129
0.9337446706602562 -3.650855847696186
0.7551592483395199 -3.890963877658693
0.5765738260187835 -3.575822088332903
0.44669351887642966 -3.050585772789919
0.3168132117340759 -2.825484494700069
0.1544628278061337 -2.7504507353367855
-0.040357632907396926 -2.720437231591472
-0.2514131320137218 -2.690423727846159
-0.4218810351380611 -2.6303967203555323
-0.5842314190660033 -2.5553629609922486
-0.7303467646011513 -2.5103427053742786
-0.9008146677254906 -2.5253494572469353
-1.0956351284390213 -2.5703697128649057
-1.3148081467417432 -2.6153899684828756
-1.517746126651671 -2.6754169759735023
-1.736919144954393 -2.720437231591472
-1.9155045672751294 -2.6754169759735023
-2.029149836024689 -2.7054304797188156
-2.183382700756234 -2.780464239082099
-2.2970279695057934 -2.7954709909547555
-2.402555719058956 -2.810477742827412
-2.4918484302193242 -2.765457487209442
-2.5405535453977066 -2.7504507353367855
-2.573023622183295 -2.7954709909547555
-2.621728737361678 -2.8404912465727254
-2.6785513717364577 -2.885511502190696
-2.6704338525400604 -2.9455385096813225
-2.6785513717364577 -2.9005182540633525
-2.6379637757544723 -2.9005182540633525
-2.5892586605760894 -2.9755520134266358
-2.573023622183295 -3.0805992765352324
-2.5405535453977066 -3.1256195321532023
-2.4512608342373388 -3.2156600433891427
-2.345733084684176 -3.2756870508797693
-2.1427951047742484 -3.335714058370396
-1.9317396056679235 -3.3657275621157092
-1.753154183347187 -3.455768073351649
-1.6151563570084362 -3.455768073351649
-1.4933935690624796 -3.425754569606336
-1.4041008579021115 -3.290693802752426
-1.3553957427237286 -3.1706397877711723
-1.3229256659381403 -3.0655925246625757
-1.2579855123669634 -2.9905587652992924
-1.1849278395993894 -2.885511502190696
-1.1199876860282125 -2.7054304797188156
-1.0225774556714473 -2.4803292016289653
-0.9495197829038733 -2.285241427284429
-0.8115219565651224 -2.1501806604305185
-0.7222292454047542 -2.045133397321922
-0.6248190150479889 -1.9250793823406684
-0.559878861476812 -1.7449983598687884
-0.46246863112004666 -1.4898835780336248
-0.3731759199596784 -1.2497755480711181
-0.267648170406516 -1.0696945255992378
-0.22706057442453045 -0.9346337587453278
-0.22706057442453045 -0.7695594881461044
-0.16212042085335357 -0.5444582100562543
-0.12153282487136803 -0.33436368383906084
-0.07282770969298537 -0.13927590949452406
-0.024122594514602705 -0.04923539825858402
0.00022996307458862428 -0.04923539825858402
0.00022996307458862428 -0.03422864638592735
-0.016005075318205594 0.07081861672266938
0.024582520663779955 0.1908726317039228
0.07328763584216262 0.2959198948125195
0.09764019343135394 0.35594690230314624
0.09764019343135394 0.3709536541758029
0.09764019343135394 0.31092664668517617
0.08140515503855972 0.2959198948125195
0.09764019343135394 0.35594690230314624
0.1463453086097366 0.35594690230314624
0.16258034700253082 0.35594690230314624
0.12199275102054527 0.3259333985578329
0.1544628278061337 0.2959198948125195
0.19505042378811926 0.3259333985578329
0.21128546218091349 0.38596040604845955
0.24375553896650193 0.46099416541174293
0.27622561575209037 0.43098066166642957
0.251873058162899 0.47600091728439964
0.25999057735929615 0.47600091728439964
0.27622561575209037 0.4910076691570563
0.3086956925376788 0.5210211729023696
0.34116576932326725 0.5810481803929963
0.397988403698047 0.5360279247750264
0.42234096128723836 0.506014421029713
0.43045848048363544 0.46099416541174293
0.4142234420908412 0.5660414285203397
0.4548110380728268 0.641075187883623
0.4791635956620181 0.7311156991195631
0.5359862300367979 0.7311156991195631
0.5765738260187835 0.7161089472469064
0.5765738260187835 0.686095443501593
0.6009263836079748 0.686095443501593
0.6252789411971661 0.7311156991195631
0.6658665371791517 0.8061494584828465
0.6983366139647401 0.7761359547375332
0.7145716523575343 0.7761359547375332
0.7145716523575343 0.7911427066101898
0.7551592483395199 0.7911427066101898
0.771394286732314 0.8661764659734732
0.8282169211070939 0.9562169772094132
0.8688045170890794 0.9111967215914432
0.8931570746782708 0.8961899697187865
0.9012745938746678 0.9111967215914432
0.9256271514638592 0.9111967215914432
0.9743322666422418 0.9862304809547265
1.0392724202134187 1.0762709921906666
1.0717424969990073 1.0762709921906666
1.0798600161954042 1.0462574884453533
1.1042125737845956 1.01624398470004
1.128565131373787 1.0462574884453533
1.1610352081593753 1.1212912478086368
1.2016228041413608 1.1813182552992634
1.2422104001233465 1.1813182552992634
1.2665629577125377 1.1813182552992634
1.2665629577125377 1.1663115034266067
1.2503279193197436 1.2113317590445767
1.3071505536945234 1.2713587665352033
1.3315031112837146 1.2863655184078602
1.355855668872906 1.3313857740258301
1.3639731880693031 1.3313857740258301
1.3639731880693031 1.3163790221531735
1.3396206304801117 1.3163790221531735
1.3477381496765088 1.3764060296438
1.3477381496765088 1.436433037134427
1.3396206304801117 1.436433037134427
1.3152680728909205 1.42142628526177
1.282797996105332 1.42142628526177
1.2340928809269494 1.4664465408797402
1.1935052849449639 1.5414803002430235
1.1935052849449639 1.5414803002430235
1.1610352081593753 1.5564870521156802
1.128565131373787 1.5264735483703669
1.0392724202134187 1.4664465408797402
0.9662147474458447 1.481453292752397
0.9418621898566534 1.5114667964977102
0.9256271514638592 1.5114667964977102
0.8769220362854765 1.4664465408797402
0.8119818827142996 1.436433037134427
0.7226891715539314 1.3914127815164568
0.6496314987863574 1.3463925258984868
0.5928088644115777 1.3764060296438
0.544103749233195 1.3613992777711434
0.4629285572692239 1.3013722702805168
0.3898708845016499 1.2263385109172333
0.3086956925376788 1.15130475155395
0.24375553896650193 1.1062844959359799
0.2194029813773106 1.06126424031801
0.21128546218091349 1.06126424031801
0.16258034700253082 1.0012372328273833
0.10575771262775105 0.9562169772094132
0.05705259744936839 0.8361629622281598
0.00022996307458862428 0.8061494584828465
-0.040357632907396926 0.7911427066101898
-0.040357632907396926 0.7761359547375332
-0.048475152103794036 0.7011021953742498
-0.0971802672821767 0.6110616841383097
-0.12965034406776513 0.5660414285203397
-0.16212042085335357 0.551034676647683
-0.1783554592461478 0.551034676647683
-0.17023794004975068 0.5660414285203397
-0.17023794004975068 0.506014421029713
-0.23517809362092756 0.4459874135390863
-0.2595306512101189 0.35594690230314624
-0.267648170406516 0.35594690230314624
-0.27576568960291314 0.3259333985578329
-0.27576568960291314 0.3259333985578329
-0.2595306512101189 0.31092664668517617
-0.2920007279957073 0.26590639106720615
-0.32447080478129575 0.22088613544923613
-0.34070584317409 0.22088613544923613
-0.34070584317409 0.2358928873218928
-0.32447080478129575 0.22088613544923613
-0.31635328558489867 0.2508996391945495
-0.30823576638850153 0.17586587983126611
-0.3325883239776929 0.14585237608595275
-0.3488233623704871 0.16085912795860943
-0.34070584317409 0.1908726317039228
-0.32447080478129575 0.1908726317039228
-0.31635328558489867 0.1908726317039228
-0.34070584317409 0.17586587983126611
-0.3569408815668842 0.1308456242132961
-0.38941095835247264 0.1908726317039228
-0.3488233623704871 0.1908726317039228
-0.36505840076328133 0.22088613544923613
-0.34070584317409 0.1908726317039228
-0.3488233623704871 0.1908726317039228
-0.36505840076328133 0.17586587983126611
-0.36505840076328133 0.17586587983126611
-0.3488233623704871 0.2508996391945495
-0.31635328558489867 0.26590639106720615
-0.32447080478129575 0.22088613544923613
-0.31635328558489867 0.1908726317039228
-0.3488233623704871 0.16085912795860943
-0.3488233623704871 0.16085912795860943
-0.36505840076328133 0.20587938357657945
-0.32447080478129575 0.22088613544923613
-0.3325883239776929 0.22088613544923613
-0.3488233623704871 0.1908726317039228
-0.36505840076328133 0.1908726317039228
-0.38941095835247264 0.20587938357657945
-0.3731759199596784 0.2358928873218928
-0.34070584317409 0.26590639106720615
-0.32447080478129575 0.2508996391945495
-0.32447080478129575 0.20587938357657945
-0.3488233623704871 0.17586587983126611
-0.3731759199596784 0.1908726317039228
-0.3731759199596784 0.20587938357657945
-0.34070584317409 0.2358928873218928
-0.3488233623704871 0.22088613544923613
-0.3488233623704871 0.20587938357657945
-0.38129343915607555 0.16085912795860943
-0.38129343915607555 0.1908726317039228
-0.38941095835247264 0.20587938357657945
-0.38129343915607555 0.2358928873218928
-0.3731759199596784 0.22088613544923613
-0.413763515941664 0.16085912795860943
-0.40564599674526686 0.1158388723406394
-0.44623359272725244 0.1308456242132961
-0.44623359272725244 0.1308456242132961
-0.4299985543344582 0.1308456242132961
-0.40564599674526686 0.1158388723406394
-0.4218810351380611 0.10083212046798273
-0.44623359272725244 0.05581186485001271
-0.46246863112004666 0.040805112977356034
-0.44623359272725244 0.08582536859532605
-0.46246863112004666 0.10083212046798273
-0.4543511119236495 0.10083212046798273
-0.4299985543344582 0.07081861672266938
-0.46246863112004666 0.01079160923204268
-0.46246863112004666 0.040805112977356034
-0.4543511119236495 0.08582536859532605
-0.4543511119236495 0.1308456242132961
-0.44623359272725244 0.1158388723406394
-0.48682118870923796 0.08582536859532605
-0.4949387079056351 0.07081861672266938
-0.5192912654948264 0.07081861672266938
-0.5192912654948264 0.1308456242132961
-0.47058615031644374 0.1308456242132961
-0.46246863112004666 0.1158388723406394
-0.4218810351380611 0.10083212046798273
-0.4543511119236495 0.1158388723406394
-0.46246863112004666 0.10083212046798273
-0.4381160735308553 0.14585237608595275
-0.4218810351380611 0.17586587983126611
-0.4218810351380611 0.17586587983126611
-0.4299985543344582 0.1308456242132961
-0.4543511119236495 0.10083212046798273
-0.44623359272725244 0.08582536859532605
-0.44623359272725244 0.1308456242132961
-0.4299985543344582 0.16085912795860943
-0.40564599674526686 0.14585237608595275
-0.3975284775488698 0.16085912795860943
-0.4381160735308553 0.07081861672266938
-0.4543511119236495 0.10083212046798273
-0.4543511119236495 0.1158388723406394
-0.4218810351380611 0.1308456242132961
-0.3975284775488698 0.14585237608595275
-0.38941095835247264 0.14585237608595275
-0.413763515941664 0.07081861672266938
-0.4299985543344582 0.10083212046798273
-0.4218810351380611 0.1308456242132961
-0.40564599674526686 0.14585237608595275
-0.3975284775488698 0.14585237608595275
-0.38129343915607555 0.07081861672266938
-0.3975284775488698 0.040805112977356034
-0.4218810351380611 0.01079160923204268
-0.4299985543344582 0.01079160923204268
-0.40564599674526686 0.05581186485001271
-0.4218810351380611 0.025798361104699356
-0.413763515941664 -0.03422864638592735
-0.413763515941664 -0.0642421501312407
-0.4299985543344582 -0.0642421501312407
-0.4299985543344582 -0.0642421501312407
-0.40564599674526686 -0.01922189451327067
-0.413763515941664 -0.004215142640613995
-0.44623359272725244 0.01079160923204268
-0.4299985543344582 -0.01922189451327067
-0.4299985543344582 0.01079160923204268
-0.4218810351380611 0.040805112977356034
-0.4299985543344582 0.1158388723406394
-0.3975284775488698 0.10083212046798273
-0.4218810351380611 0.05581186485001271
-0.4381160735308553 -0.0642421501312407
-0.4299985543344582 -0.13927590949452406
-0.4299985543344582 -0.1842961651124941
-0.36505840076328133 -0.15428266136718075
-0.3569408815668842 -0.1842961651124941
-0.3325883239776929 -0.1842961651124941
-0.2920007279957073 -0.19930291698515076
-0.22706057442453045 -0.13927590949452406
-0.048475152103794036 -0.15428266136718075
0.2924606541448846 -0.1242691576218674
0.9662147474458447 -0.07924890200389736
1.79420170547835 -0.1242691576218674
2.378663087618942 -0.19930291698515076
2.4111331644045304 -0.2893434282210908
2.0133747237810717 -0.37938393945703086
1.591263725568422 -0.5294514581835976
1.3639731880693031 -0.9646472624906413
1.2503279193197436 -1.7449983598687884
1.1042125737845956 -2.7504507353367855
0.9499797090530505 -3.4857815770969625
0.7795118059287112 -3.5908288402055595
0.617161422000769 -3.2306667952617993
0.471046076465621 -2.885511502190696
0.28434313494848745 -2.780464239082099
0.04893507825297128 -2.7504507353367855
-0.13776786326416224 -2.645403472228189
-0.30823576638850153 -2.5253494572469353
-0.44623359272725244 -2.495335953501622
-0.6248190150479889 -2.4803292016289653
-0.852109552547108 -2.540356209119592
-1.079400090046227 -2.6153899684828756
-1.2904555891525518 -2.6303967203555323
-1.4933935690624796 -2.645403472228189
-1.6963315489724073 -2.6754169759735023
-1.8505644137039525 -2.720437231591472
-2.0129147976318946 -2.7504507353367855
-2.1509126239706458 -2.810477742827412
-2.256440373523808 -2.780464239082099
-2.353850603880573 -2.780464239082099
-2.426908276648147 -2.780464239082099
-2.4918484302193242 -2.7954709909547555
-2.5324360262013097 -2.855497998445382
-2.5811411413796925 -2.9455385096813225
-2.621728737361678 -2.9455385096813225
-2.6054936989688837 -2.915525005936009
-2.5405535453977066 -2.915525005936009
-2.5162009878085154 -2.9905587652992924
-2.47561339182653 -3.095606028407889
-2.467495872630133 -3.2156600433891427
-2.3782031614697647 -3.3057005546250826
-2.2158527775418224 -3.3657275621157092
-2.0047972784354977 -3.3957410658610225
-1.8018592985255697 -3.455768073351649
-1.590803799419245 -3.4857815770969625
-1.452805973080494 -3.410747817733679
-1.3553957427237286 -3.335714058370396
-1.2904555891525518 -3.1856465396438294
-1.233632954777772 -3.050585772789919
-1.1605752820101982 -2.960545261553979
-1.1118701668318154 -2.915525005936009
-1.079400090046227 -2.7954709909547555
-1.0225774556714473 -2.645403472228189
-0.9170497061182848 -2.4353089460109953
-0.7871693989759311 -2.2402211716664584
-0.6572890918335773 -2.120167156685205
-0.5761138998696061 -1.985106389831295
-0.5030562271020322 -1.7900186154867583
-0.40564599674526686 -1.5949308411422216
-0.30011824719210445 -1.3248093074344014
-0.23517809362092756 -1.0696945255992378
-0.17023794004975068 -0.8896135031273579
-0.11341530567497092 -0.7695594881461044
-0.08094522888938248 -0.6194919694195377
-0.05659267130019115 -0.4093974432023442
-0.024122594514602705 -0.21430966885780744
0.016465001467382844 -0.07924890200389736
0.04081755905657417 0.01079160923204268
0.05705259744936839 0.05581186485001271
0.04081755905657417 0.07081861672266938
0.05705259744936839 0.10083212046798273
0.04893507825297128 0.16085912795860943
0.07328763584216262 0.2508996391945495
0.13011027021694238 0.2358928873218928
0.10575771262775105 0.17586587983126611
0.11387523182414816 0.1908726317039228
0.09764019343135394 0.20587938357657945
0.13011027021694238 0.2508996391945495
0.17881538539532504 0.3259333985578329
0.20316794298451638 0.31092664668517617
0.2194029813773106 0.31092664668517617
0.20316794298451638 0.28091314293986286
0.20316794298451638 0.35594690230314624
0.251873058162899 0.40096715792111626
0.28434313494848745 0.46099416541174293
0.2924606541448846 0.46099416541174293
0.3168132117340759 0.46099416541174293
0.3086956925376788 0.43098066166642957
0.3086956925376788 0.46099416541174293
0.34116576932326725 0.5360279247750264
0.3736358461088557 0.5360279247750264
0.4142234420908412 0.5660414285203397
0.4548110380728268 0.551034676647683
0.4385759996800326 0.5360279247750264
0.4629285572692239 0.5660414285203397
0.5035161532512095 0.6560819397562797
0.5359862300367979 0.7161089472469064
0.5603387876259892 0.7611292028648764
0.5928088644115777 0.7911427066101898
0.6009263836079748 0.8061494584828465
0.5765738260187835 0.8511697141008165
0.6333964603935632 0.8661764659734732
0.7064541331611371 0.9262034734640999
0.7389242099467256 0.9412102253367566
0.7389242099467256 0.9262034734640999
0.763276767535917 0.8811832178461299
0.7876293251251083 0.8961899697187865
0.8038643635179025 0.9262034734640999
0.8769220362854765 0.9862304809547265
0.9499797090530505 1.0012372328273833
0.982449785838639 0.9862304809547265
0.9986848242314331 0.9862304809547265
1.0311549010170216 0.9562169772094132
1.0636249778026101 1.0312507365726966
1.128565131373787 1.0762709921906666
1.1772702465521696 1.01624398470004
1.1772702465521696 1.0012372328273833
1.2016228041413608 0.9862304809547265
1.2259753617305522 1.0012372328273833
1.2259753617305522 1.0912777440633232
1.3152680728909205 1.1362979996812934
1.3477381496765088 1.1813182552992634
1.3396206304801117 1.15130475155395
1.3477381496765088 1.15130475155395
1.3315031112837146 1.19632500717192
1.3639731880693031 1.2713587665352033
1.3964432648548915 1.3313857740258301
1.3883257456584945 1.3313857740258301
1.355855668872906 1.3463925258984868
1.3071505536945234 1.3463925258984868
1.2746804769089348 1.4064195333891134
1.2503279193197436 1.42142628526177
1.2422104001233465 1.4964600446250536
1.1772702465521696 1.5114667964977102
1.144800169766581 1.481453292752397
1.0636249778026101 1.3764060296438
0.9743322666422418 1.3764060296438
0.9093921130710649 1.3764060296438
0.8850395554818736 1.3764060296438
0.8363344403034909 1.3914127815164568
0.7551592483395199 1.3463925258984868
0.6496314987863574 1.2713587665352033
0.5359862300367979 1.2713587665352033
0.4629285572692239 1.2563520146625466
0.42234096128723836 1.24134526278989
0.36551832691245856 1.1813182552992634
0.2924606541448846 1.0912777440633232
0.19505042378811926 1.0462574884453533
0.07328763584216262 1.0312507365726966
0.04893507825297128 0.9712237290820699
0.016465001467382844 0.9111967215914432
-0.032240113710999815 0.7911427066101898
-0.11341530567497092 0.6710886916289364
-0.16212042085335357 0.596054932265653
-0.194590497638942 0.596054932265653
-0.20270801683533912 0.551034676647683
-0.23517809362092756 0.5360279247750264
-0.21894305522813334 0.47600091728439964
-0.23517809362092756 0.40096715792111626
-0.27576568960291314 0.3259333985578329
-0.31635328558489867 0.2959198948125195
-0.32447080478129575 0.2959198948125195
-0.31635328558489867 0.26590639106720615
-0.32447080478129575 0.1908726317039228
-0.3488233623704871 0.16085912795860943
-0.3569408815668842 0.1158388723406394
-0.36505840076328133 0.08582536859532605
-0.3488233623704871 0.10083212046798273
-0.3325883239776929 0.10083212046798273
-0.3325883239776929 0.08582536859532605
-0.34070584317409 0.05581186485001271
-0.3488233623704871 0.01079160923204268
-0.36505840076328133 -0.004215142640613995
-0.36505840076328133 0.05581186485001271
-0.3488233623704871 0.07081861672266938
-0.34070584317409 0.1158388723406394
-0.3488233623704871 0.10083212046798273
-0.3731759199596784 0.05581186485001271
-0.38941095835247264 0.040805112977356034
-0.38129343915607555 0.07081861672266938
-0.34070584317409 0.14585237608595275
-0.3325883239776929 0.1158388723406394
-0.3569408815668842 0.08582536859532605
-0.3975284775488698 0.040805112977356034
-0.38941095835247264 0.05581186485001271
-0.40564599674526686 0.08582536859532605
-0.36505840076328133 0.17586587983126611
-0.3488233623704871 0.16085912795860943
-0.3569408815668842 0.14585237608595275
-0.38941095835247264 0.14585237608595275
-0.40564599674526686 0.17586587983126611
-0.40564599674526686 0.2358928873218928
-0.38129343915607555 0.2508996391945495
-0.38129343915607555 0.28091314293986286
-0.38941095835247264 0.2358928873218928
-0.4381160735308553 0.16085912795860943
-0.4381160735308553 0.1308456242132961
-0.40564599674526686 0.17586587983126611
-0.4218810351380611 0.17586587983126611
-0.3975284775488698 0.20587938357657945
-0.4299985543344582 0.16085912795860943
-0.4787036695128409 0.1308456242132961
-0.48682118870923796 0.07081861672266938
-0.4787036695128409 0.10083212046798273
-0.46246863112004666 0.07081861672266938
-0.46246863112004666 0.05581186485001271
-0.46246863112004666 0.01079160923204268
-0.5030562271020322 -0.01922189451327067
-0.5111737462984293 -0.01922189451327067
-0.5274087846912235 -0.004215142640613995
-0.4949387079056351 0.040805112977356034
-0.4787036695128409 -0.01922189451327067
-0.48682118870923796 -0.004215142640613995
-0.5111737462984293 -0.01922189451327067
-0.5192912654948264 -0.004215142640613995
-0.5111737462984293 0.05581186485001271
-0.48682118870923796 0.10083212046798273
-0.4787036695128409 0.08582536859532605
-0.4949387079056351 0.040805112977356034
-0.5355263038876207 0.025798361104699356
-0.5761138998696061 -0.004215142640613995
-0.5436438230840177 0.08582536859532605
-0.5355263038876207 0.10083212046798273
-0.5111737462984293 0.08582536859532605
-0.5355263038876207 0.07081861672266938
-0.5761138998696061 0.040805112977356034
-0.559878861476812 0.07081861672266938
-0.5274087846912235 0.10083212046798273
-0.5274087846912235 0.14585237608595275
-0.47058615031644374 0.14585237608595275
-0.4787036695128409 0.1308456242132961
-0.5111737462984293 0.14585237608595275
-0.5030562271020322 0.14585237608595275
-0.5436438230840177 0.1308456242132961
-0.5030562271020322 0.16085912795860943
-0.4949387079056351 0.1908726317039228
-0.5111737462984293 0.17586587983126611
-0.559878861476812 0.17586587983126611
-0.5679963806732091 0.1308456242132961
-0.5517613422804148 0.08582536859532605
-0.559878861476812 0.05581186485001271
-0.5192912654948264 0.05581186485001271
-0.5355263038876207 0.040805112977356034
-0.559878861476812 -0.004215142640613995
-0.5679963806732091 -0.03422864638592735
-0.5679963806732091 0.01079160923204268
-0.5274087846912235 0.025798361104699356
-0.5355263038876207 0.025798361104699356
-0.5355263038876207 -0.01922189451327067
-0.559878861476812 -0.07924890200389736
-0.5923489382624004 -0.09425565387655405
-0.5679963806732091 -0.04923539825858402
-0.5355263038876207 -0.01922189451327067
-0.5192912654948264 -0.0642421501312407
-0.5030562271020322 -0.09425565387655405
-0.5274087846912235 -0.16928941323983743
-0.5355263038876207 -0.1242691576218674
-0.5355263038876207 -0.07924890200389736
-0.5111737462984293 -0.09425565387655405
-0.5030562271020322 -0.10926240574921073
-0.5192912654948264 -0.16928941323983743
-0.5355263038876207 -0.21430966885780744
-0.5355263038876207 -0.1842961651124941
-0.5355263038876207 -0.16928941323983743
-0.5111737462984293 -0.10926240574921073
-0.5111737462984293 -0.15428266136718075
-0.5030562271020322 -0.16928941323983743
-0.5517613422804148 -0.15428266136718075
-0.5517613422804148 -0.16928941323983743
-0.5274087846912235 -0.1242691576218674
-0.4949387079056351 -0.07924890200389736
-0.4543511119236495 -0.10926240574921073
-0.48682118870923796 -0.13927590949452406
-0.47058615031644374 -0.16928941323983743
-0.4787036695128409 -0.16928941323983743
-0.47058615031644374 -0.1242691576218674
-0.4543511119236495 -0.07924890200389736
-0.4299985543344582 -0.10926240574921073
-0.4299985543344582 -0.09425565387655405
-0.4299985543344582 -0.1842961651124941
-0.4381160735308553 -0.16928941323983743
-0.413763515941664 -0.1242691576218674
-0.3569408815668842 -0.09425565387655405
-0.27576568960291314 -0.1242691576218674
-0.194590497638942 -0.15428266136718075
0.024582520663779955 -0.1842961651124941
0.5278687108404008 -0.15428266136718075
1.3152680728909205 -0.1242691576218674
2.0864323965486458 -0.10926240574921073
2.378663087618942 -0.21430966885780744
2.078314877352249 -0.3643771875843742
1.5100885336044512 -0.5744717138015677
1.1529176889629782 -0.9646472624906413
1.0392724202134187 -1.714984856123475
0.9662147474458447 -2.6604102241008456
0.8363344403034909 -3.4407613214789925
0.6658665371791517 -3.5908288402055595
0.4629285572692239 -3.3057005546250826
0.3330482501268701 -2.9755520134266358
0.17069786619892793 -2.8404912465727254
0.03270003986017706 -2.735443983464129
-0.0971802672821767 -2.690423727846159
-0.23517809362092756 -2.690423727846159
-0.3731759199596784 -2.6754169759735023
-0.5355263038876207 -2.690423727846159
-0.6491715726371802 -2.6754169759735023
-0.7546993221903426 -2.6303967203555323
-0.8439920333507108 -2.645403472228189
-0.8845796293326964 -2.7054304797188156
-0.8764621101362993 -2.735443983464129
-0.8115219565651224 -2.690423727846159
-0.7141117262083571 -2.645403472228189
-0.6572890918335773 -2.5853764647375623
-0.6004664574587976 -2.6153899684828756
-0.641054053440783 -2.7054304797188156
-0.6978766878155629 -2.810477742827412
-0.7303467646011513 -2.8404912465727254
-0.7384642837975484 -2.8705047503180388
-0.7709343605831368 -2.8705047503180388
-0.852109552547108 -2.9005182540633525
-0.9657548212966675 -2.855497998445382
-1.079400090046227 -2.8404912465727254
-1.1281052052246097 -2.735443983464129
-1.006342417278653 -2.645403472228189
-0.8034044373687252 -2.540356209119592
-0.6248190150479889 -2.4353089460109953
-0.48682118870923796 -2.210207667921145
-0.4218810351380611 -1.985106389831295
-0.38941095835247264 -1.6699646005055049
-0.38129343915607555 -1.3698295630523714
-0.38129343915607555 -1.114714781217208
-0.3488233623704871 -0.9796540143632979
-0.3569408815668842 -0.8746067512547011
-0.40564599674526686 -0.7395459844007911
-0.38941095835247264 -0.6194919694195377
-0.3975284775488698 -0.514444706310941
-0.38129343915607555 -0.4244041950750009
-0.38129343915607555 -0.4093974432023442
-0.40564599674526686 -0.39439069132968757
-0.413763515941664 -0.39439069132968757
-0.4381160735308553 -0.3043501800937475
-0.3975284775488698 -0.25932992447577746
-0.38941095835247264 -0.1842961651124941
-0.3731759199596784 -0.1842961651124941
-0.3975284775488698 -0.2443231726031208
-0.413763515941664 -0.21430966885780744
-0.413763515941664 -0.21430966885780744
-0.4299985543344582 -0.16928941323983743
-0.40564599674526686 -0.13927590949452406
-0.38129343915607555 -0.13927590949452406
-0.40564599674526686 -0.19930291698515076
-0.4299985543344582 -0.19930291698515076
-0.4543511119236495 -0.16928941323983743
-0.4381160735308553 -0.10926240574921073
-0.4299985543344582 -0.0642421501312407
-0.40564599674526686 -0.0642421501312407
-0.4381160735308553 -0.07924890200389736
-0.4543511119236495 -0.0642421501312407
-0.4381160735308553 -0.004215142640613995
-0.4299985543344582 0.05581186485001271
-0.44623359272725244 0.07081861672266938
-0.4218810351380611 0.01079160923204268
-0.40564599674526686 0.025798361104699356
-0.4218810351380611 0.01079160923204268
-0.44623359272725244 0.01079160923204268
-0.4381160735308553 0.025798361104699356
-0.4218810351380611 0.10083212046798273
-0.40564599674526686 0.08582536859532605
-0.40564599674526686 0.07081861672266938
-0.4299985543344582 0.08582536859532605
-0.44623359272725244 0.10083212046798273
-0.4299985543344582 0.17586587983126611
-0.3975284775488698 0.1908726317039228
-0.38129343915607555 0.20587938357657945
-0.413763515941664 0.17586587983126611
-0.4381160735308553 0.14585237608595275
-0.4787036695128409 0.1908726317039228
-0.4218810351380611 0.2508996391945495
-0.3975284775488698 0.31092664668517617
-0.413763515941664 0.26590639106720615
-0.4381160735308553 0.22088613544923613
-0.4543511119236495 0.1158388723406394
-0.4543511119236495 0.1158388723406394
-0.4299985543344582 0.17586587983126611
-0.3975284775488698 0.22088613544923613
-0.38941095835247264 0.22088613544923613
-0.3975284775488698 0.17586587983126611
-0.413763515941664 0.17586587983126611
-0.4299985543344582 0.16085912795860943
-0.44623359272725244 0.1908726317039228
-0.4299985543344582 0.20587938357657945
-0.38941095835247264 0.20587938357657945
-0.4218810351380611 0.17586587983126611
-0.47058615031644374 0.1158388723406394
-0.46246863112004666 0.14585237608595275
-0.48682118870923796 0.17586587983126611
-0.46246863112004666 0.20587938357657945
-0.44623359272725244 0.22088613544923613
-0.47058615031644374 0.22088613544923613
-0.5030562271020322 0.17586587983126611
-0.5517613422804148 0.1908726317039228
-0.5436438230840177 0.2358928873218928
-0.5355263038876207 0.26590639106720615
-0.5436438230840177 0.2358928873218928
-0.5923489382624004 0.20587938357657945
-0.6491715726371802 0.20587938357657945
-0.6816416494227686 0.17586587983126611
-0.6816416494227686 0.22088613544923613
-0.6978766878155629 0.26590639106720615
-0.6816416494227686 0.2508996391945495
-0.7222292454047542 0.26590639106720615
-0.7303467646011513 0.2358928873218928
-0.7465818029939455 0.26590639106720615
-0.7546993221903426 0.28091314293986286
-0.7384642837975484 0.3259333985578329
-0.7141117262083571 0.35594690230314624
-0.7141117262083571 0.28091314293986286
-0.7384642837975484 0.31092664668517617
-0.7465818029939455 0.3259333985578329
-0.7628168413867398 0.35594690230314624
-0.7141117262083571 0.38596040604845955
-0.6816416494227686 0.40096715792111626
-0.6816416494227686 0.3259333985578329
-0.6897591686191658 0.31092664668517617
-0.6897591686191658 0.2959198948125195
-0.6491715726371802 0.3259333985578329
-0.6004664574587976 0.35594690230314624
-0.559878861476812 0.34094015043048953
-0.5923489382624004 0.31092664668517617
-0.5761138998696061 0.26590639106720615
-0.5679963806732091 0.2508996391945495
-0.559878861476812 0.22088613544923613
-0.5192912654948264 0.2508996391945495
-0.46246863112004666 0.22088613544923613
-0.47058615031644374 0.1908726317039228
-0.48682118870923796 0.1158388723406394
-0.4949387079056351 0.14585237608595275
-0.47058615031644374 0.1308456242132961
-0.4381160735308553 0.1158388723406394
-0.4218810351380611 0.1308456242132961
-0.4381160735308553 0.05581186485001271
-0.4299985543344582 0.025798361104699356
-0.4218810351380611 0.07081861672266938
-0.40564599674526686 0.08582536859532605
-0.36505840076328133 0.07081861672266938
-0.3569408815668842 0.10083212046798273
-0.3569408815668842 0.07081861672266938
-0.38129343915607555 0.025798361104699356
-0.3731759199596784 0.025798361104699356
-0.38129343915607555 0.040805112977356034
-0.3569408815668842 0.08582536859532605
-0.32447080478129575 0.10083212046798273
-0.3731759199596784 0.040805112977356034
-0.4218810351380611 0.025798361104699356
-0.413763515941664 0.01079160923204268
-0.3731759199596784 0.05581186485001271
-0.38129343915607555 0.10083212046798273
-0.34070584317409 0.1308456242132961
-0.3488233623704871 0.14585237608595275
-0.3731759199596784 0.08582536859532605
-0.3731759199596784 0.1308456242132961
-0.36505840076328133 0.14585237608595275
-0.36505840076328133 0.20587938357657945
-0.3488233623704871 0.20587938357657945
-0.38129343915607555 0.22088613544923613
-0.38941095835247264 0.1908726317039228
-0.38941095835247264 0.1908726317039228
-0.38941095835247264 0.2358928873218928
-0.3569408815668842 0.2358928873218928
-0.3325883239776929 0.2358928873218928
-0.3569408815668842 0.2358928873218928
-0.3488233623704871 0.22088613544923613
-0.3569408815668842 0.20587938357657945
-0.3569408815668842 0.22088613544923613
-0.3325883239776929 0.2508996391945495
-0.2920007279957073 0.20587938357657945
-0.30823576638850153 0.17586587983126611
