0.006873760424777549 0.7403570388061442
0.07778788273420581 0.8009795159793085
0.11324494388891995 0.8616019931524728
0.13097347446627702 0.7100458002195621
0.060059352156848746 0.5281783687000693
-0.09949742303936485 0.34631093718057654
-0.2413256676582214 0.28568846000741227
-0.22359713708086432 0.3766221757671587
-0.134954484194079 0.5281783687000693
-0.1704115453487931 0.4675558915269051
-0.20586860650350725 0.34631093718057654
-0.2945112593902926 0.28568846000741227
-0.3122397899676496 0.28568846000741227
-0.2945112593902926 0.34631093718057654
-0.22359713708086432 0.4675558915269051
-0.22359713708086432 0.43724465294032294
-0.3299683205450067 0.43724465294032294
-0.400882442854435 0.4978671301134872
-0.400882442854435 0.5281783687000693
-0.41861097343179204 0.6191120844598157
-0.4363395040091491 0.6494233230463978
-0.41861097343179204 0.6191120844598157
-0.36542538169972083 0.4978671301134872
-0.3831539122770779 0.5888008458732336
-0.36542538169972083 0.6494233230463978
-0.2945112593902926 0.5888008458732336
-0.3122397899676496 0.6494233230463978
-0.34769685112236376 0.4675558915269051
-0.47179656516386326 0.5281783687000693
-0.4540680345865062 0.4069334143537408
-0.3831539122770779 0.43724465294032294
-0.25905419823557846 0.5584896072866514
-0.09949742303936485 0.5584896072866514
-0.04631183130729365 0.5281783687000693
-0.18814007592615017 0.43724465294032294
-0.3831539122770779 0.28568846000741227
-0.5249821568959344 0.28568846000741227
-0.4363395040091491 0.43724465294032294
-0.36542538169972083 0.4675558915269051
-0.3299683205450067 0.4978671301134872
-0.48952509574122033 0.4978671301134872
-0.6136248097827197 0.4978671301134872
-0.684538932092148 0.4675558915269051
-0.5427106874732915 0.5888008458732336
-0.3122397899676496 0.7403570388061442
-0.2413256676582214 0.7403570388061442
-0.25905419823557846 0.43724465294032294
-0.3122397899676496 0.22506598283424803
-0.41861097343179204 0.2553772214208302
-0.3831539122770779 0.3766221757671587
-0.36542538169972083 0.4675558915269051
-0.41861097343179204 0.4978671301134872
-0.5072536263185774 0.4978671301134872
-0.5781677486280057 0.5584896072866514
-0.47179656516386326 0.67973456163298
-0.1704115453487931 0.8009795159793085
0.396901433126633 0.9828469474988013
1.0883141256435587 0.7706682773927264
1.6378985735416276 0.3159996985939944
2.1165688991302685 -0.07804640303157327
2.6661533470283376 -0.4114700274839767
3.2511948560811206 -0.5933374590034695
3.7121366510924045 -0.8661386062827087
3.7121366510924045 -1.3208071850814407
3.2689233866584777 -1.7148532867070083
2.542053632986838 -1.9876544339862474
1.761998287583127 -1.9573431953996654
0.7337435140964172 -1.654230809533844
-0.41861097343179204 -1.5329858551875155
-1.4468657469185018 -1.2904959464948584
-2.386477867518426 -0.9873835606290372
-2.6878628873334964 -0.8358273676961265
-2.563763173291997 -0.3811587888973946
-2.0850928477033563 0.07350978990133739
-1.5709654609600014 0.3766221757671587
-1.180937788258146 0.5281783687000693
-1.0213810130619323 0.3159996985939944
-0.8972812990204329 0.43724465294032294
-0.7909101155562904 0.43724465294032294
-0.6313533403600768 0.43724465294032294
-0.400882442854435 0.4069334143537408
-0.25905419823557846 0.4978671301134872
-0.20586860650350725 0.43724465294032294
-0.22359713708086432 0.4069334143537408
-0.27678272881293553 0.34631093718057654
-0.36542538169972083 0.43724465294032294
-0.3831539122770779 0.4675558915269051
-0.3299683205450067 0.6191120844598157
-0.2413256676582214 0.5584896072866514
-0.1704115453487931 0.4675558915269051
-0.18814007592615017 0.43724465294032294
-0.134954484194079 0.43724465294032294
-0.028583300729936582 0.5584896072866514
0.09551641331156288 0.4069334143537408
0.09551641331156288 0.43724465294032294
0.04233082157949168 0.3766221757671587
-0.04631183130729365 0.43724465294032294
0.006873760424777549 0.5584896072866514
0.1841590661983482 0.5888008458732336
0.2905302496624906 0.5281783687000693
0.30825878023984765 0.43724465294032294
0.2905302496624906 0.34631093718057654
0.3437158413945618 0.43724465294032294
0.5210011471681325 0.5281783687000693
0.6982864529417031 0.6191120844598157
0.7692005752511314 0.3766221757671587
0.5564582083228466 0.34631093718057654
0.4678155554360613 0.22506598283424803
0.5210011471681325 0.22506598283424803
0.662829391786989 0.3159996985939944
0.8223861669832025 0.4069334143537408
0.9464858810247021 0.3766221757671587
1.0174000033341304 0.28568846000741227
1.1237711867982727 0.13413226707450165
1.1769567785303439 0.2553772214208302
1.1060426562209156 0.34631093718057654
1.0705855950662015 0.4069334143537408
1.1237711867982727 0.4675558915269051
1.2124138396850581 0.4069334143537408
1.2833279619944864 0.1947547442476659
1.2833279619944864 0.1947547442476659
1.3542420843039147 0.3766221757671587
1.3719706148812716 0.4978671301134872
1.2833279619944864 0.34631093718057654
1.3187850231492004 0.3159996985939944
1.3542420843039147 0.22506598283424803
1.3719706148812716 0.22506598283424803
1.3542420843039147 0.1947547442476659
1.3542420843039147 0.22506598283424803
1.3187850231492004 0.2553772214208302
1.2124138396850581 0.3159996985939944
1.0883141256435587 0.34631093718057654
0.9464858810247021 0.3159996985939944
0.8755717587152738 0.4069334143537408
0.7160149835190602 0.43724465294032294
0.662829391786989 0.34631093718057654
0.5741867389002037 0.4069334143537408
0.5032726165907754 0.43724465294032294
0.4678155554360613 0.3766221757671587
0.5210011471681325 0.5888008458732336
0.5032726165907754 0.67973456163298
0.37917290254927594 0.6191120844598157
0.16643053562099114 0.5281783687000693
-0.04631183130729365 0.4675558915269051
-0.08176889246200779 0.5281783687000693
-0.06404036188465072 0.4978671301134872
-0.1704115453487931 0.7100458002195621
-0.18814007592615017 0.5888008458732336
-0.18814007592615017 0.5584896072866514
-0.27678272881293553 0.4675558915269051
-0.400882442854435 0.5888008458732336
-0.3831539122770779 0.7100458002195621
-0.2945112593902926 0.7403570388061442
-0.1704115453487931 0.7100458002195621
-0.2413256676582214 0.5888008458732336
-0.400882442854435 0.5888008458732336
-0.5072536263185774 0.6191120844598157
-0.400882442854435 0.8009795159793085
-0.34769685112236376 0.8919132317390549
-0.34769685112236376 0.7706682773927264
-0.41861097343179204 0.7100458002195621
-0.5072536263185774 0.5584896072866514
-0.5427106874732915 0.6191120844598157
-0.48952509574122033 0.8616019931524728
-0.4363395040091491 0.8616019931524728
-0.47179656516386326 0.8312907545658906
-0.47179656516386326 0.7706682773927264
-0.41861097343179204 0.6494233230463978
-0.34769685112236376 0.7100458002195621
-0.2945112593902926 0.8616019931524728
-0.2413256676582214 0.8919132317390549
-0.15268301477143606 0.8312907545658906
-0.1704115453487931 0.8009795159793085
-0.2413256676582214 0.7403570388061442
-0.2413256676582214 0.8009795159793085
-0.18814007592615017 0.8919132317390549
0.006873760424777549 0.9828469474988013
0.09551641331156288 0.8009795159793085
0.04233082157949168 0.6494233230463978
-0.04631183130729365 0.6191120844598157
-0.11722595361672192 0.6494233230463978
-0.134954484194079 0.67973456163298
-0.08176889246200779 0.7100458002195621
-0.08176889246200779 0.67973456163298
-0.06404036188465072 0.5584896072866514
-0.134954484194079 0.4978671301134872
-0.20586860650350725 0.5281783687000693
-0.2945112593902926 0.6191120844598157
-0.2945112593902926 0.7100458002195621
-0.3122397899676496 0.5888008458732336
-0.36542538169972083 0.3159996985939944
-0.4540680345865062 0.22506598283424803
-0.48952509574122033 0.3766221757671587
-0.41861097343179204 0.5584896072866514
-0.34769685112236376 0.6191120844598157
-0.2945112593902926 0.6494233230463978
-0.3831539122770779 0.6191120844598157
-0.47179656516386326 0.6191120844598157
-0.5249821568959344 0.5281783687000693
-0.5072536263185774 0.5584896072866514
-0.48952509574122033 0.6494233230463978
-0.36542538169972083 0.7100458002195621
-0.400882442854435 0.5888008458732336
-0.41861097343179204 0.5888008458732336
-0.5072536263185774 0.43724465294032294
-0.48952509574122033 0.6191120844598157
-0.41861097343179204 0.67973456163298
-0.3831539122770779 0.6191120844598157
-0.34769685112236376 0.5888008458732336
-0.34769685112236376 0.43724465294032294
-0.36542538169972083 0.4978671301134872
-0.4540680345865062 0.7100458002195621
-0.5427106874732915 0.8919132317390549
-0.6490818709374339 0.8312907545658906
-0.6490818709374339 0.7403570388061442
-0.5958962792053627 0.5888008458732336
-0.5781677486280057 0.5888008458732336
-0.6313533403600768 0.5888008458732336
-0.5958962792053627 0.7706682773927264
-0.5427106874732915 0.7403570388061442
-0.47179656516386326 0.6494233230463978
-0.5072536263185774 0.4978671301134872
-0.47179656516386326 0.5281783687000693
-0.36542538169972083 0.6191120844598157
-0.2945112593902926 0.67973456163298
-0.27678272881293553 0.7403570388061442
-0.3299683205450067 0.7100458002195621
-0.4363395040091491 0.67973456163298
-0.48952509574122033 0.6494233230463978
-0.4540680345865062 0.6191120844598157
-0.41861097343179204 0.7706682773927264
-0.48952509574122033 0.6494233230463978
-0.5958962792053627 0.7403570388061442
-0.5604392180506486 0.67973456163298
-0.41861097343179204 0.7100458002195621
-0.09949742303936485 0.8919132317390549
0.37917290254927594 0.8009795159793085
0.9819429421794161 0.67973456163298
1.5492559206548424 0.3159996985939944
2.1520259602849827 0.04319855131475525
2.7016104081830514 -0.3811587888973946
3.2511948560811206 -0.5933374590034695
3.6057654676282618 -0.9570723220424551
3.570308406473548 -1.1995622307351121
3.056181019730193 -1.5936083323606798
2.311582735481196 -1.9270319568130831
1.5669844512321993 -1.8967207182265011
0.5032726165907754 -1.6239195709472618
-0.7377245238242193 -1.411740900841187
-1.8014363584656432 -1.2298734693216942
-2.5283061121372827 -1.0176947992156193
-2.6169487650240684 -0.7448936519363801
-2.386477867518426 -0.29022507313764817
-1.960993133661857 0.22506598283424803
-1.6064225221147155 0.6494233230463978
-1.2341233799902172 0.8312907545658906
-0.9150098295977899 0.7100458002195621
-0.7022674626695051 0.5888008458732336
-0.5958962792053627 0.6191120844598157
-0.5249821568959344 0.7100458002195621
-0.48952509574122033 0.7403570388061442
-0.34769685112236376 0.67973456163298
-0.2413256676582214 0.6191120844598157
-0.20586860650350725 0.3766221757671587
-0.3122397899676496 0.4069334143537408
-0.47179656516386326 0.5281783687000693
-0.48952509574122033 0.7403570388061442
-0.27678272881293553 0.6494233230463978
-0.27678272881293553 0.5584896072866514
-0.2945112593902926 0.43724465294032294
-0.34769685112236376 0.5888008458732336
-0.20586860650350725 0.8009795159793085
-0.08176889246200779 0.8616019931524728
0.006873760424777549 0.7706682773927264
0.006873760424777549 0.67973456163298
0.024602291002134614 0.5888008458732336
0.060059352156848746 0.4069334143537408
0.21961612735306235 0.43724465294032294
0.3259873108172047 0.4978671301134872
0.2550731885077765 0.4675558915269051
0.16643053562099114 0.43724465294032294
0.09551641331156288 0.5281783687000693
0.1841590661983482 0.5584896072866514
0.36144437197191887 0.6494233230463978
0.5032726165907754 0.7403570388061442
0.5564582083228466 0.6191120844598157
0.5564582083228466 0.4675558915269051
0.4678155554360613 0.3766221757671587
0.5741867389002037 0.28568846000741227
0.6805579223643461 0.3766221757671587
0.8755717587152738 0.5281783687000693
1.0174000033341304 0.5281783687000693
1.0528570644888444 0.43724465294032294
1.0528570644888444 0.22506598283424803
0.9996714727567733 0.16444350566108376
1.0705855950662015 0.28568846000741227
1.230142370262415 0.43724465294032294
1.3187850231492004 0.28568846000741227
1.230142370262415 0.2553772214208302
1.1414997173756298 0.3159996985939944
1.1060426562209156 0.4069334143537408
1.1769567785303439 0.34631093718057654
1.3010564925718433 0.43724465294032294
1.3365135537265576 0.4069334143537408
1.2833279619944864 0.34631093718057654
1.2124138396850581 0.2553772214208302
1.2124138396850581 0.1947547442476659
1.2478709008397721 0.1947547442476659
1.3542420843039147 0.1947547442476659
1.3542420843039147 0.34631093718057654
1.3187850231492004 0.3159996985939944
1.1769567785303439 0.22506598283424803
0.9642144116020591 0.2553772214208302
0.928757350447345 0.43724465294032294
0.8933002892926308 0.67973456163298
0.8223861669832025 0.6191120844598157
0.7869291058284884 0.6494233230463978
0.645100861209632 0.4675558915269051
0.645100861209632 0.4675558915269051
0.6273723306322748 0.4978671301134872
0.4146299637039901 0.6191120844598157
0.14870200504363407 0.6191120844598157
0.024602291002134614 0.6191120844598157
-0.010854770152579518 0.5584896072866514
-0.04631183130729365 0.5584896072866514
-0.028583300729936582 0.6191120844598157
-0.06404036188465072 0.7403570388061442
-0.04631183130729365 0.7403570388061442
-0.09949742303936485 0.7706682773927264
-0.18814007592615017 0.6191120844598157
-0.27678272881293553 0.67973456163298
-0.2413256676582214 0.8009795159793085
-0.22359713708086432 0.8919132317390549
-0.134954484194079 0.8009795159793085
-0.2413256676582214 0.7403570388061442
-0.3299683205450067 0.6191120844598157
-0.36542538169972083 0.5888008458732336
-0.2945112593902926 0.6494233230463978
-0.2945112593902926 0.7100458002195621
-0.3299683205450067 0.8312907545658906
-0.36542538169972083 0.922224470325637
-0.34769685112236376 0.8009795159793085
-0.400882442854435 0.67973456163298
-0.5249821568959344 0.6191120844598157
-0.5958962792053627 0.7403570388061442
-0.48952509574122033 0.8616019931524728
-0.41861097343179204 0.8616019931524728
-0.27678272881293553 0.6494233230463978
-0.20586860650350725 0.67973456163298
-0.20586860650350725 0.7706682773927264
-0.27678272881293553 0.8616019931524728
-0.3122397899676496 0.8919132317390549
-0.34769685112236376 0.7403570388061442
-0.3831539122770779 0.67973456163298
-0.3831539122770779 0.7706682773927264
-0.2945112593902926 0.8312907545658906
-0.20586860650350725 1.0131581860853833
-0.134954484194079 1.0434694246719656
-0.09949742303936485 0.922224470325637
-0.04631183130729365 0.8616019931524728
0.024602291002134614 0.7706682773927264
0.13097347446627702 0.8919132317390549
0.2550731885077765 0.7706682773927264
0.27280171908513356 0.7100458002195621
0.14870200504363407 0.4069334143537408
-0.04631183130729365 0.4069334143537408
-0.2413256676582214 0.4675558915269051
-0.22359713708086432 0.5281783687000693
-0.1704115453487931 0.5281783687000693
-0.1704115453487931 0.4978671301134872
-0.34769685112236376 0.5281783687000693
-0.48952509574122033 0.4675558915269051
-0.5958962792053627 0.5584896072866514
-0.5249821568959344 0.7100458002195621
-0.4363395040091491 0.8919132317390549
-0.36542538169972083 0.8009795159793085
-0.36542538169972083 0.6494233230463978
-0.4363395040091491 0.5281783687000693
-0.47179656516386326 0.5888008458732336
-0.5958962792053627 0.67973456163298
-0.5958962792053627 0.8312907545658906
-0.5249821568959344 0.7706682773927264
-0.4540680345865062 0.6191120844598157
-0.5249821568959344 0.5888008458732336
-0.5781677486280057 0.5888008458732336
-0.5427106874732915 0.5281783687000693
-0.5604392180506486 0.6494233230463978
-0.5604392180506486 0.5888008458732336
-0.5249821568959344 0.5888008458732336
-0.47179656516386326 0.6494233230463978
-0.47179656516386326 0.6494233230463978
-0.36542538169972083 0.7706682773927264
-0.20586860650350725 0.7100458002195621
-0.15268301477143606 0.5281783687000693
-0.36542538169972083 0.5584896072866514
-0.5958962792053627 0.4978671301134872
-0.8086386461336474 0.6494233230463978
-0.7554530544015763 0.8616019931524728
-0.5958962792053627 1.1040919018451298
-0.47179656516386326 0.9525357089122192
-0.5072536263185774 0.6191120844598157
-0.5781677486280057 0.43724465294032294
-0.5781677486280057 0.5584896072866514
-0.47179656516386326 0.6494233230463978
-0.400882442854435 0.7403570388061442
-0.41861097343179204 0.7706682773927264
-0.3299683205450067 0.67973456163298
-0.41861097343179204 0.5584896072866514
-0.4363395040091491 0.5888008458732336
-0.5249821568959344 0.67973456163298
-0.5072536263185774 0.8009795159793085
-0.4363395040091491 0.8616019931524728
-0.400882442854435 0.7403570388061442
-0.3831539122770779 0.8009795159793085
-0.18814007592615017 0.8919132317390549
0.30825878023984765 0.8616019931524728
0.9642144116020591 0.5584896072866514
1.6733556346963419 0.3766221757671587
2.240668613171768 0.13413226707450165
2.861167183379265 -0.25991383455106604
3.4107516312773343 -0.8358273676961265
3.623493998205619 -1.2601847079082764
3.2157377949264063 -1.5632970937740975
2.4534109801000525 -1.8664094796399189
1.6378985735416276 -2.0179656725728297
0.6096438000549178 -2.0179656725728297
-0.7199959932468621 -1.7451645252935903
-1.9255360725071426 -1.2904959464948584
-2.6169487650240684 -0.9570723220424551
-2.7055914179108536 -0.7448936519363801
-2.3510208063637124 -0.4114700274839767
-2.031907255971285 0.07350978990133739
-1.7127937055788578 0.3159996985939944
-1.4291372163411449 0.5584896072866514
-1.1100236659487177 0.7100458002195621
-0.8086386461336474 0.7403570388061442
-0.6313533403600768 0.6191120844598157
-0.5604392180506486 0.6494233230463978
-0.5427106874732915 0.5888008458732336
-0.41861097343179204 0.7100458002195621
-0.36542538169972083 0.67973456163298
-0.34769685112236376 0.6494233230463978
-0.34769685112236376 0.4978671301134872
-0.27678272881293553 0.5584896072866514
-0.25905419823557846 0.5584896072866514
-0.25905419823557846 0.6191120844598157
-0.1704115453487931 0.7706682773927264
-0.18814007592615017 0.7100458002195621
-0.2945112593902926 0.8312907545658906
-0.3831539122770779 0.67973456163298
-0.36542538169972083 0.6494233230463978
-0.22359713708086432 0.7706682773927264
-0.06404036188465072 0.7706682773927264
0.060059352156848746 0.7100458002195621
0.04233082157949168 0.5584896072866514
-0.028583300729936582 0.5584896072866514
-0.08176889246200779 0.4675558915269051
-0.04631183130729365 0.5584896072866514
0.04233082157949168 0.67973456163298
0.13097347446627702 0.67973456163298
0.36144437197191887 0.6494233230463978
0.5032726165907754 0.43724465294032294
0.5387296777454895 0.4069334143537408
0.4500870248587042 0.4675558915269051
0.4146299637039901 0.5888008458732336
0.43235849428134715 0.4978671301134872
0.5387296777454895 0.4069334143537408
0.6805579223643461 0.1947547442476659
0.8223861669832025 0.1947547442476659
0.911028819869988 0.3766221757671587
0.911028819869988 0.5281783687000693
0.928757350447345 0.4675558915269051
0.9464858810247021 0.43724465294032294
0.9996714727567733 0.2553772214208302
1.0174000033341304 0.22506598283424803
1.0705855950662015 0.10382102848791952
1.2478709008397721 0.2553772214208302
1.3542420843039147 0.3159996985939944
1.3896991454586287 0.22506598283424803
1.3187850231492004 0.16444350566108376
1.194685309107701 0.16444350566108376
1.194685309107701 0.28568846000741227
1.1769567785303439 0.3159996985939944
1.2478709008397721 0.34631093718057654
1.230142370262415 0.3159996985939944
1.1769567785303439 0.2553772214208302
1.1060426562209156 0.28568846000741227
1.1060426562209156 0.4069334143537408
0.9464858810247021 0.43724465294032294
0.928757350447345 0.4675558915269051
0.8755717587152738 0.43724465294032294
0.8046576364058455 0.4675558915269051
0.662829391786989 0.43724465294032294
0.5210011471681325 0.5584896072866514
0.4855440860134183 0.6191120844598157
0.37917290254927594 0.7403570388061442
0.2550731885077765 0.7100458002195621
0.14870200504363407 0.6494233230463978
0.13097347446627702 0.6494233230463978
0.07778788273420581 0.7100458002195621
-0.010854770152579518 0.8312907545658906
-0.09949742303936485 0.8312907545658906
-0.08176889246200779 0.7403570388061442
-0.1704115453487931 0.6191120844598157
-0.22359713708086432 0.5888008458732336
-0.2945112593902926 0.7100458002195621
-0.22359713708086432 0.8312907545658906
-0.15268301477143606 0.8312907545658906
-0.2413256676582214 0.7706682773927264
-0.3831539122770779 0.67973456163298
-0.400882442854435 0.7100458002195621
-0.36542538169972083 0.7706682773927264
-0.3299683205450067 0.7100458002195621
-0.36542538169972083 0.67973456163298
-0.48952509574122033 0.6494233230463978
-0.5781677486280057 0.67973456163298
-0.5427106874732915 0.7403570388061442
-0.4540680345865062 0.8616019931524728
-0.3831539122770779 0.922224470325637
-0.41861097343179204 0.7706682773927264
-0.48952509574122033 0.5888008458732336
-0.5427106874732915 0.4978671301134872
-0.5249821568959344 0.7100458002195621
-0.4540680345865062 0.8009795159793085
-0.36542538169972083 0.8919132317390549
-0.2413256676582214 0.8009795159793085
-0.25905419823557846 0.7100458002195621
-0.41861097343179204 0.7706682773927264
-0.5249821568959344 0.8009795159793085
-0.48952509574122033 0.9525357089122192
-0.2945112593902926 1.0131581860853833
-0.22359713708086432 0.922224470325637
-0.3122397899676496 0.8616019931524728
-0.400882442854435 0.8009795159793085
-0.3831539122770779 0.9525357089122192
-0.2413256676582214 1.0737806632585476
-0.06404036188465072 1.1040919018451298
-0.010854770152579518 1.0434694246719656
-0.010854770152579518 1.0131581860853833
-0.09949742303936485 1.0131581860853833
-0.06404036188465072 0.922224470325637
-0.06404036188465072 0.8009795159793085
-0.028583300729936582 0.5281783687000693
-0.09949742303936485 0.4675558915269051
-0.18814007592615017 0.4978671301134872
-0.34769685112236376 0.4675558915269051
-0.400882442854435 0.4978671301134872
-0.41861097343179204 0.5584896072866514
-0.3831539122770779 0.67973456163298
-0.3122397899676496 0.6191120844598157
-0.3299683205450067 0.4978671301134872
-0.3299683205450067 0.43724465294032294
-0.25905419823557846 0.4675558915269051
-0.2413256676582214 0.5584896072866514
-0.3299683205450067 0.6191120844598157
-0.4363395040091491 0.67973456163298
-0.5604392180506486 0.7100458002195621
-0.5958962792053627 0.6191120844598157
-0.6313533403600768 0.7403570388061442
-0.684538932092148 0.7403570388061442
-0.6490818709374339 0.8616019931524728
-0.6313533403600768 0.8616019931524728
-0.5781677486280057 0.67973456163298
-0.5072536263185774 0.67973456163298
-0.5072536263185774 0.5888008458732336
-0.5249821568959344 0.7403570388061442
-0.48952509574122033 0.8009795159793085
-0.5249821568959344 0.8009795159793085
-0.48952509574122033 0.7100458002195621
-0.4540680345865062 0.7403570388061442
-0.5072536263185774 0.5888008458732336
-0.5072536263185774 0.67973456163298
-0.5072536263185774 0.7403570388061442
-0.5072536263185774 0.7403570388061442
-0.5249821568959344 0.8009795159793085
-0.5427106874732915 0.6494233230463978
-0.5427106874732915 0.67973456163298
-0.5249821568959344 0.6494233230463978
-0.47179656516386326 0.7706682773927264
-0.5072536263185774 0.8312907545658906
-0.5604392180506486 0.7403570388061442
-0.5958962792053627 0.67973456163298
-0.6136248097827197 0.7100458002195621
-0.5781677486280057 0.8009795159793085
-0.5072536263185774 0.8009795159793085
-0.36542538169972083 0.8312907545658906
-0.3831539122770779 0.6191120844598157
-0.3299683205450067 0.67973456163298
-0.36542538169972083 0.6191120844598157
-0.47179656516386326 0.7100458002195621
-0.666810401514791 0.8616019931524728
-0.7022674626695051 0.922224470325637
-0.48952509574122033 1.0131581860853833
-0.11722595361672192 0.8616019931524728
0.5032726165907754 0.6494233230463978
1.2655994314171293 0.5281783687000693
1.9570121239340548 0.34631093718057654
2.542053632986838 -0.017423925858409007
3.0029954279981217 -0.5327149818303052
3.2334663255037634 -1.0176947992156193
3.286651917235835 -1.5329858551875155
2.9675383668434074 -1.8360982410533369
2.3647683272132674 -1.8967207182265011
1.6378985735416276 -1.9876544339862474
0.7692005752511314 -2.0179656725728297
-0.47179656516386326 -2.0785881497459937
-1.695065175001501 -1.7148532867070083
-2.6346772956014255 -1.2601847079082764
-2.9892479071485667 -0.7448936519363801
-2.7055914179108536 -0.22960259596448393
-2.2623781534769267 0.16444350566108376
-1.8368934196203572 0.4978671301134872
-1.5000513386505732 0.67973456163298
-1.1277521965260746 0.8009795159793085
-0.8972812990204329 0.7403570388061442
-0.666810401514791 0.7403570388061442
-0.6136248097827197 0.67973456163298
-0.5249821568959344 0.6494233230463978
-0.5072536263185774 0.67973456163298
-0.4540680345865062 0.7403570388061442
-0.34769685112236376 0.8009795159793085
-0.25905419823557846 0.7706682773927264
-0.3122397899676496 0.7403570388061442
-0.400882442854435 0.6494233230463978
-0.3831539122770779 0.7100458002195621
-0.27678272881293553 0.8919132317390549
-0.22359713708086432 0.922224470325637
-0.22359713708086432 0.8312907545658906
-0.22359713708086432 0.67973456163298
-0.25905419823557846 0.4978671301134872
-0.20586860650350725 0.5888008458732336
-0.11722595361672192 0.6494233230463978
-0.010854770152579518 0.7706682773927264
-0.06404036188465072 0.8616019931524728
-0.06404036188465072 0.8919132317390549
-0.06404036188465072 0.7706682773927264
0.09551641331156288 0.7100458002195621
0.23734465793041942 0.6494233230463978
0.30825878023984765 0.4978671301134872
0.1841590661983482 0.5584896072866514
0.11324494388891995 0.4978671301134872
0.09551641331156288 0.4675558915269051
0.2550731885077765 0.4675558915269051
0.4146299637039901 0.67973456163298
0.5919152694775607 0.7403570388061442
0.7160149835190602 0.6191120844598157
0.6805579223643461 0.3766221757671587
0.5741867389002037 0.43724465294032294
0.5919152694775607 0.5584896072866514
0.7337435140964172 0.5584896072866514
0.8755717587152738 0.6494233230463978
0.9819429421794161 0.4675558915269051
0.9819429421794161 0.34631093718057654
1.0528570644888444 0.3159996985939944
1.1237711867982727 0.3159996985939944
1.1060426562209156 0.34631093718057654
1.1060426562209156 0.4675558915269051
1.0705855950662015 0.5281783687000693
1.0883141256435587 0.34631093718057654
1.1769567785303439 0.1947547442476659
1.2655994314171293 0.2553772214208302
1.2655994314171293 0.3766221757671587
1.2478709008397721 0.34631093718057654
1.2478709008397721 0.34631093718057654
1.230142370262415 0.34631093718057654
1.3187850231492004 0.3159996985939944
1.3010564925718433 0.34631093718057654
1.194685309107701 0.34631093718057654
1.0174000033341304 0.43724465294032294
0.8755717587152738 0.3766221757671587
0.7869291058284884 0.34631093718057654
0.7692005752511314 0.3766221757671587
0.7160149835190602 0.43724465294032294
0.6273723306322748 0.5281783687000693
0.5564582083228466 0.67973456163298
0.4500870248587042 0.7706682773927264
0.36144437197191887 0.67973456163298
0.3259873108172047 0.67973456163298
0.3437158413945618 0.6191120844598157
0.27280171908513356 0.8009795159793085
0.11324494388891995 0.9828469474988013
-0.04631183130729365 0.8919132317390549
-0.134954484194079 0.8616019931524728
-0.1704115453487931 0.8009795159793085
-0.15268301477143606 0.6494233230463978
-0.11722595361672192 0.7403570388061442
-0.11722595361672192 0.8009795159793085
-0.09949742303936485 0.7706682773927264
-0.11722595361672192 0.8312907545658906
-0.2413256676582214 0.7100458002195621
-0.25905419823557846 0.8009795159793085
-0.2945112593902926 0.8312907545658906
-0.25905419823557846 0.9525357089122192
-0.20586860650350725 0.9525357089122192
-0.22359713708086432 0.7100458002195621
-0.2945112593902926 0.67973456163298
-0.47179656516386326 0.5584896072866514
-0.47179656516386326 0.7100458002195621
-0.3831539122770779 0.7403570388061442
-0.36542538169972083 0.8312907545658906
-0.36542538169972083 0.8616019931524728
-0.41861097343179204 0.7706682773927264
-0.4363395040091491 0.8616019931524728
-0.47179656516386326 0.8616019931524728
-0.4363395040091491 0.9525357089122192
-0.400882442854435 0.8919132317390549
-0.34769685112236376 0.922224470325637
-0.3122397899676496 0.8009795159793085
-0.27678272881293553 0.8312907545658906
-0.2413256676582214 0.8919132317390549
-0.25905419823557846 0.922224470325637
-0.2945112593902926 0.9525357089122192
-0.36542538169972083 0.9525357089122192
-0.27678272881293553 0.9525357089122192
-0.15268301477143606 1.0737806632585476
-0.134954484194079 1.0131581860853833
-0.20586860650350725 1.1040919018451298
-0.2413256676582214 1.0131581860853833
-0.2413256676582214 0.922224470325637
-0.20586860650350725 0.8919132317390549
-0.18814007592615017 0.922224470325637
-0.09949742303936485 0.9828469474988013
0.006873760424777549 1.1040919018451298
0.07778788273420581 1.0737806632585476
0.04233082157949168 0.8616019931524728
-0.04631183130729365 0.5888008458732336
-0.25905419823557846 0.5584896072866514
-0.3122397899676496 0.7403570388061442
-0.3122397899676496 0.922224470325637
-0.18814007592615017 0.8312907545658906
-0.20586860650350725 0.7403570388061442
-0.27678272881293553 0.5888008458732336
-0.3122397899676496 0.67973456163298
-0.34769685112236376 0.8009795159793085
-0.2945112593902926 0.8312907545658906
-0.27678272881293553 0.7706682773927264
-0.3299683205450067 0.5888008458732336
-0.3299683205450067 0.6191120844598157
-0.34769685112236376 0.6494233230463978
-0.3831539122770779 0.7100458002195621
-0.47179656516386326 0.8616019931524728
-0.5072536263185774 0.8312907545658906
-0.5249821568959344 0.7706682773927264
-0.48952509574122033 0.6191120844598157
-0.5072536263185774 0.5584896072866514
-0.47179656516386326 0.7100458002195621
-0.400882442854435 0.7403570388061442
-0.3831539122770779 0.7706682773927264
-0.41861097343179204 0.5584896072866514
-0.48952509574122033 0.5281783687000693
-0.5249821568959344 0.4978671301134872
-0.48952509574122033 0.7100458002195621
-0.400882442854435 0.7706682773927264
-0.3831539122770779 0.67973456163298
-0.4540680345865062 0.7100458002195621
-0.5072536263185774 0.5281783687000693
-0.5958962792053627 0.6191120844598157
-0.5958962792053627 0.7403570388061442
-0.5249821568959344 0.8616019931524728
-0.400882442854435 0.8312907545658906
-0.3831539122770779 0.5888008458732336
-0.48952509574122033 0.5888008458732336
-0.5604392180506486 0.6191120844598157
-0.5604392180506486 0.7706682773927264
-0.41861097343179204 0.8919132317390549
-0.3299683205450067 0.8009795159793085
-0.27678272881293553 0.7100458002195621
-0.47179656516386326 0.6191120844598157
-0.5249821568959344 0.5281783687000693
-0.5072536263185774 0.67973456163298
-0.47179656516386326 0.7403570388061442
-0.4363395040091491 0.7403570388061442
-0.4363395040091491 0.5584896072866514
-0.47179656516386326 0.5281783687000693
-0.4363395040091491 0.43724465294032294
-0.34769685112236376 0.4978671301134872
-0.3299683205450067 0.7100458002195621
-0.36542538169972083 0.7403570388061442
-0.47179656516386326 0.6191120844598157
-0.6136248097827197 0.6191120844598157
-0.6313533403600768 0.922224470325637
-0.5072536263185774 1.164714379018294
-0.08176889246200779 1.164714379018294
0.4500870248587042 0.9828469474988013
0.9996714727567733 0.67973456163298
1.5492559206548424 0.2553772214208302
2.081111837975554 -0.017423925858409007
2.7370674693377657 -0.3811587888973946
3.1448236726169783 -0.7752048905229623
3.339837508967906 -1.1389397535619479
3.127095142039621 -1.6239195709472618
2.4356824495226954 -1.8664094796399189
1.7797268181604842 -1.9573431953996654
1.1060426562209156 -1.8360982410533369
0.13097347446627702 -1.654230809533844
-1.0213810130619323 -1.5329858551875155
-2.049635786548642 -1.16925099214853
-2.6878628873334964 -1.0783172763887836
-2.9006052542617815 -0.8358273676961265
-2.5992202344467112 -0.44178126607055884
-2.1205499088580706 0.04319855131475525
-1.748250766733572 0.4069334143537408
-1.4114086857637878 0.5888008458732336
-1.0922951353713606 0.4675558915269051
-0.8086386461336474 0.4675558915269051
-0.5958962792053627 0.5584896072866514
-0.5072536263185774 0.6191120844598157
-0.47179656516386326 0.67973456163298
-0.5958962792053627 0.5281783687000693
-0.6136248097827197 0.4978671301134872
-0.5427106874732915 0.4069334143537408
-0.41861097343179204 0.5281783687000693
-0.27678272881293553 0.8009795159793085
-0.2413256676582214 0.8312907545658906
-0.22359713708086432 0.6494233230463978
-0.2945112593902926 0.5281783687000693
-0.22359713708086432 0.6494233230463978
-0.15268301477143606 0.7100458002195621
-0.18814007592615017 0.7403570388061442
-0.2413256676582214 0.7403570388061442
-0.2413256676582214 0.5281783687000693
-0.20586860650350725 0.5281783687000693
-0.08176889246200779 0.5584896072866514
0.04233082157949168 0.5888008458732336
0.16643053562099114 0.6191120844598157
0.16643053562099114 0.5888008458732336
0.04233082157949168 0.5281783687000693
-0.028583300729936582 0.4069334143537408
0.006873760424777549 0.5584896072866514
0.09551641331156288 0.67973456163298
0.27280171908513356 0.67973456163298
0.37917290254927594 0.6191120844598157
0.43235849428134715 0.4675558915269051
0.4855440860134183 0.3159996985939944
0.5210011471681325 0.16444350566108376
0.5032726165907754 0.4069334143537408
0.5387296777454895 0.4675558915269051
0.5387296777454895 0.4978671301134872
0.5387296777454895 0.4069334143537408
0.645100861209632 0.3766221757671587
0.7869291058284884 0.3766221757671587
0.911028819869988 0.4978671301134872
0.9642144116020591 0.5281783687000693
0.9819429421794161 0.43724465294032294
0.9642144116020591 0.4069334143537408
0.9819429421794161 0.07350978990133739
0.9819429421794161 0.13413226707450165
1.0528570644888444 0.1947547442476659
1.1060426562209156 0.3159996985939944
1.230142370262415 0.22506598283424803
1.3187850231492004 0.10382102848791952
1.3365135537265576 0.07350978990133739
1.3187850231492004 0.012887312728173124
1.3010564925718433 0.10382102848791952
1.4074276760359858 0.1947547442476659
1.496070328922771 0.10382102848791952
1.3719706148812716 0.07350978990133739
1.1237711867982727 0.012887312728173124
0.8933002892926308 0.1947547442476659
0.911028819869988 0.4675558915269051
1.0883141256435587 0.5888008458732336
1.230142370262415 0.5584896072866514
1.230142370262415 0.4069334143537408
1.0883141256435587 0.28568846000741227
1.0528570644888444 0.34631093718057654
1.0705855950662015 0.3766221757671587
1.0883141256435587 0.4675558915269051
1.0528570644888444 0.3766221757671587
0.9819429421794161 0.28568846000741227
0.6805579223643461 0.22506598283424803
0.4146299637039901 0.16444350566108376
0.2550731885077765 0.43724465294032294
0.2905302496624906 0.67973456163298
0.3259873108172047 0.8312907545658906
0.3259873108172047 0.8919132317390549
0.23734465793041942 0.67973456163298
0.14870200504363407 0.5888008458732336
0.07778788273420581 0.6494233230463978
0.07778788273420581 0.67973456163298
0.07778788273420581 0.7100458002195621
0.006873760424777549 0.7403570388061442
-0.09949742303936485 0.67973456163298
-0.11722595361672192 0.5888008458732336
-0.11722595361672192 0.67973456163298
-0.08176889246200779 0.7100458002195621
-0.134954484194079 0.8009795159793085
-0.09949742303936485 0.8009795159793085
-0.15268301477143606 0.7100458002195621
-0.1704115453487931 0.7100458002195621
-0.20586860650350725 0.67973456163298
-0.2413256676582214 0.8009795159793085
-0.25905419823557846 0.7706682773927264
-0.3299683205450067 0.6494233230463978
-0.34769685112236376 0.6191120844598157
-0.34769685112236376 0.6494233230463978
-0.27678272881293553 0.7403570388061442
-0.22359713708086432 0.8312907545658906
-0.25905419823557846 0.7403570388061442
-0.3299683205450067 0.67973456163298
-0.41861097343179204 0.5888008458732336
-0.36542538169972083 0.7100458002195621
-0.22359713708086432 0.7403570388061442
-0.20586860650350725 0.8009795159793085
-0.18814007592615017 0.8312907545658906
-0.25905419823557846 0.67973456163298
-0.3299683205450067 0.6191120844598157
-0.400882442854435 0.6191120844598157
-0.41861097343179204 0.7706682773927264
-0.27678272881293553 0.922224470325637
-0.25905419823557846 0.8919132317390549
-0.22359713708086432 0.8009795159793085
-0.25905419823557846 0.6191120844598157
-0.2413256676582214 0.9828469474988013
-0.22359713708086432 1.0131581860853833
-0.134954484194079 1.0737806632585476
-0.06404036188465072 1.0434694246719656
-0.08176889246200779 0.8616019931524728
-0.134954484194079 0.7706682773927264
-0.22359713708086432 0.8009795159793085
-0.18814007592615017 0.9525357089122192
-0.06404036188465072 1.164714379018294
0.04233082157949168 0.9525357089122192
0.11324494388891995 0.8919132317390549
0.07778788273420581 0.8312907545658906
0.060059352156848746 0.8616019931524728
-0.028583300729936582 0.8616019931524728
0.006873760424777549 0.8919132317390549
0.006873760424777549 0.7100458002195621
-0.08176889246200779 0.5584896072866514
-0.06404036188465072 0.3766221757671587
-0.08176889246200779 0.4069334143537408
-0.08176889246200779 0.4978671301134872
-0.15268301477143606 0.6494233230463978
-0.25905419823557846 0.5888008458732336
-0.3831539122770779 0.43724465294032294
-0.3831539122770779 0.34631093718057654
-0.3831539122770779 0.4069334143537408
-0.3299683205450067 0.5584896072866514
-0.2413256676582214 0.67973456163298
-0.18814007592615017 0.6191120844598157
-0.25905419823557846 0.5584896072866514
-0.3299683205450067 0.5888008458732336
-0.2945112593902926 0.5584896072866514
-0.3299683205450067 0.5888008458732336
-0.3122397899676496 0.67973456163298
-0.27678272881293553 0.6191120844598157
-0.3831539122770779 0.5584896072866514
-0.4363395040091491 0.4675558915269051
-0.48952509574122033 0.5281783687000693
-0.41861097343179204 0.6494233230463978
-0.34769685112236376 0.7403570388061442
-0.20586860650350725 0.8312907545658906
-0.27678272881293553 0.67973456163298
-0.34769685112236376 0.5584896072866514
-0.4363395040091491 0.6494233230463978
-0.36542538169972083 0.7403570388061442
-0.36542538169972083 0.8009795159793085
-0.3122397899676496 0.7100458002195621
-0.400882442854435 0.6191120844598157
-0.48952509574122033 0.5281783687000693
-0.5427106874732915 0.6494233230463978
-0.4363395040091491 0.6494233230463978
-0.4540680345865062 0.8616019931524728
-0.400882442854435 0.922224470325637
-0.4540680345865062 0.7403570388061442
-0.4540680345865062 0.6191120844598157
-0.41861097343179204 0.5584896072866514
-0.34769685112236376 0.5584896072866514
-0.2945112593902926 0.6494233230463978
-0.3299683205450067 0.6191120844598157
-0.3831539122770779 0.6191120844598157
-0.48952509574122033 0.6191120844598157
-0.47179656516386326 0.5584896072866514
-0.3831539122770779 0.7100458002195621
-0.3122397899676496 0.7403570388061442
-0.2945112593902926 0.6494233230463978
-0.34769685112236376 0.7100458002195621
-0.4363395040091491 0.5281783687000693
-0.4363395040091491 0.5281783687000693
-0.3831539122770779 0.6494233230463978
-0.3122397899676496 0.7100458002195621
-0.2413256676582214 0.8919132317390549
-0.3122397899676496 0.8919132317390549
-0.34769685112236376 0.7706682773927264
-0.134954484194079 0.8616019931524728
0.23734465793041942 0.7100458002195621
0.7337435140964172 0.6191120844598157
1.1769567785303439 0.4069334143537408
1.6378985735416276 -0.04773516444499114
2.1342974297076256 -0.44178126607055884
2.524325102409481 -0.6842711747632159
2.790253061069837 -0.9873835606290372
2.8966242445339794 -1.1389397535619479
2.6129677552962662 -1.3208071850814407
2.1165688991302685 -1.4723633780143512
1.5669844512321993 -1.5329858551875155
0.8578432281379167 -1.4723633780143512
-0.04631183130729365 -1.3208071850814407
-1.0568380742166463 -1.1086285149753656
-1.9078075419297855 -0.8358273676961265
-2.563763173291997 -0.6842711747632159
-2.7765055402202816 -0.5630262204168873
-2.6169487650240684 -0.25991383455106604
-2.1205499088580706 0.22506598283424803
-1.7127937055788578 0.5888008458732336
-1.3582230940317166 0.6494233230463978
-1.180937788258146 0.5888008458732336
-1.0568380742166463 0.4675558915269051
-0.8972812990204329 0.4978671301134872
-0.684538932092148 0.5888008458732336
-0.47179656516386326 0.6494233230463978
-0.3831539122770779 0.5888008458732336
-0.36542538169972083 0.4978671301134872
-0.34769685112236376 0.34631093718057654
-0.34769685112236376 0.5281783687000693
-0.3122397899676496 0.5888008458732336
-0.2413256676582214 0.8009795159793085
-0.15268301477143606 0.7100458002195621
-0.20586860650350725 0.6494233230463978
-0.2413256676582214 0.5584896072866514
-0.20586860650350725 0.67973456163298
-0.1704115453487931 0.7100458002195621
-0.04631183130729365 0.6191120844598157
-0.06404036188465072 0.5888008458732336
-0.11722595361672192 0.5281783687000693
-0.1704115453487931 0.5584896072866514
-0.04631183130729365 0.6191120844598157
0.11324494388891995 0.8312907545658906
0.21961612735306235 0.8312907545658906
0.13097347446627702 0.7706682773927264
-0.08176889246200779 0.6494233230463978
-0.11722595361672192 0.6494233230463978
-0.08176889246200779 0.6191120844598157
0.09551641331156288 0.67973456163298
0.21961612735306235 0.7403570388061442
0.23734465793041942 0.6494233230463978
0.20188759677570528 0.5888008458732336
0.21961612735306235 0.5281783687000693
0.23734465793041942 0.4675558915269051
0.3437158413945618 0.6191120844598157
0.4146299637039901 0.7403570388061442
0.5210011471681325 0.7100458002195621
0.645100861209632 0.5281783687000693
0.7160149835190602 0.34631093718057654
0.7160149835190602 0.28568846000741227
0.7514720446737744 0.3766221757671587
0.7869291058284884 0.43724465294032294
0.8401146975605597 0.4675558915269051
0.911028819869988 0.28568846000741227
0.928757350447345 0.1947547442476659
0.9996714727567733 0.1947547442476659
1.0528570644888444 0.34631093718057654
1.0705855950662015 0.4069334143537408
1.0351285339114873 0.3159996985939944
0.9996714727567733 0.22506598283424803
1.0351285339114873 0.1947547442476659
1.0883141256435587 0.13413226707450165
1.1414997173756298 0.2553772214208302
1.230142370262415 0.3159996985939944
1.3010564925718433 0.3159996985939944
1.4074276760359858 0.22506598283424803
1.3896991454586287 0.22506598283424803
1.3719706148812716 0.16444350566108376
1.2833279619944864 0.22506598283424803
1.2478709008397721 0.34631093718057654
1.194685309107701 0.3159996985939944
1.1769567785303439 0.13413226707450165
1.1237711867982727 0.10382102848791952
1.0705855950662015 0.22506598283424803
1.0351285339114873 0.3766221757671587
1.0351285339114873 0.4675558915269051
0.9996714727567733 0.43724465294032294
0.911028819869988 0.43724465294032294
0.8401146975605597 0.3766221757671587
0.7692005752511314 0.4069334143537408
0.7160149835190602 0.5281783687000693
0.662829391786989 0.7100458002195621
0.6096438000549178 0.5888008458732336
0.5919152694775607 0.5584896072866514
0.4855440860134183 0.4675558915269051
0.37917290254927594 0.4978671301134872
0.2905302496624906 0.5584896072866514
0.2550731885077765 0.5584896072866514
0.14870200504363407 0.5888008458732336
0.006873760424777549 0.5584896072866514
-0.18814007592615017 0.5888008458732336
-0.2945112593902926 0.6191120844598157
-0.2413256676582214 0.7706682773927264
-0.15268301477143606 0.8312907545658906
-0.09949742303936485 0.8312907545658906
-0.134954484194079 0.7403570388061442
-0.18814007592615017 0.67973456163298
-0.22359713708086432 0.67973456163298
-0.27678272881293553 0.8616019931524728
-0.3299683205450067 0.922224470325637
-0.3299683205450067 0.8009795159793085
-0.3299683205450067 0.67973456163298
-0.36542538169972083 0.5888008458732336
-0.3831539122770779 0.6191120844598157
-0.4363395040091491 0.7706682773927264
-0.400882442854435 0.8009795159793085
-0.3299683205450067 0.8009795159793085
-0.3122397899676496 0.7100458002195621
-0.34769685112236376 0.6191120844598157
-0.36542538169972083 0.6191120844598157
-0.3299683205450067 0.7100458002195621
-0.2945112593902926 0.7706682773927264
-0.22359713708086432 0.7100458002195621
-0.2945112593902926 0.5584896072866514
-0.4363395040091491 0.5281783687000693
-0.47179656516386326 0.6191120844598157
-0.47179656516386326 0.7403570388061442
-0.34769685112236376 0.9828469474988013
-0.3299683205450067 0.922224470325637
-0.25905419823557846 0.8312907545658906
-0.27678272881293553 0.8312907545658906
-0.2945112593902926 0.7403570388061442
-0.25905419823557846 0.8919132317390549
-0.20586860650350725 0.8919132317390549
-0.18814007592615017 0.8616019931524728
-0.22359713708086432 0.922224470325637
-0.2945112593902926 0.7706682773927264
-0.3122397899676496 0.8616019931524728
-0.20586860650350725 0.9828469474988013
-0.028583300729936582 1.0131581860853833
0.024602291002134614 1.0131581860853833
-0.010854770152579518 0.8616019931524728
-0.06404036188465072 0.7403570388061442
-0.04631183130729365 0.7403570388061442
-0.028583300729936582 0.8312907545658906
0.024602291002134614 0.922224470325637
0.024602291002134614 0.7100458002195621
-0.06404036188465072 0.67973456163298
-0.134954484194079 0.5584896072866514
-0.1704115453487931 0.5584896072866514
-0.20586860650350725 0.67973456163298
-0.18814007592615017 0.7706682773927264
-0.15268301477143606 0.6494233230463978
-0.15268301477143606 0.4675558915269051
-0.22359713708086432 0.4675558915269051
-0.22359713708086432 0.5584896072866514
-0.2413256676582214 0.6494233230463978
-0.2945112593902926 0.7706682773927264
-0.3299683205450067 0.7100458002195621
-0.34769685112236376 0.67973456163298
-0.400882442854435 0.7100458002195621
-0.5249821568959344 0.5888008458732336
-0.5072536263185774 0.6494233230463978
-0.48952509574122033 0.7403570388061442
-0.3299683205450067 0.8616019931524728
-0.2945112593902926 0.7403570388061442
-0.36542538169972083 0.67973456163298
-0.48952509574122033 0.6494233230463978
-0.5958962792053627 0.7100458002195621
-0.5249821568959344 0.8009795159793085
-0.4363395040091491 0.7100458002195621
-0.3831539122770779 0.6191120844598157
-0.3831539122770779 0.5888008458732336
-0.4540680345865062 0.5281783687000693
-0.3831539122770779 0.6494233230463978
-0.3299683205450067 0.67973456163298
-0.3122397899676496 0.6191120844598157
-0.41861097343179204 0.6191120844598157
-0.47179656516386326 0.5888008458732336
-0.4540680345865062 0.6191120844598157
-0.400882442854435 0.67973456163298
-0.3831539122770779 0.7100458002195621
-0.36542538169972083 0.67973456163298
-0.3831539122770779 0.5888008458732336
-0.4363395040091491 0.5888008458732336
-0.4540680345865062 0.4675558915269051
-0.4363395040091491 0.5888008458732336
-0.3831539122770779 0.7403570388061442
-0.3831539122770779 0.7706682773927264
-0.400882442854435 0.7100458002195621
-0.4363395040091491 0.7100458002195621
-0.4540680345865062 0.6494233230463978
-0.36542538169972083 0.5888008458732336
-0.34769685112236376 0.67973456163298
-0.27678272881293553 0.67973456163298
-0.2945112593902926 0.5888008458732336
-0.3122397899676496 0.43724465294032294
-0.36542538169972083 0.4978671301134872
-0.400882442854435 0.5584896072866514
-0.48952509574122033 0.7100458002195621
-0.48952509574122033 0.8009795159793085
-0.5072536263185774 0.7706682773927264
-0.47179656516386326 0.8009795159793085
-0.2945112593902926 0.8009795159793085
0.14870200504363407 0.8312907545658906
0.5919152694775607 0.67973456163298
1.0528570644888444 0.34631093718057654
1.5315273900774853 0.04319855131475525
2.0988403685529113 -0.35084755031081244
2.542053632986838 -0.6236486975900516
2.843438652801908 -0.8358273676961265
3.038452489152836 -1.0480060378022014
2.9852668974207646 -1.381429662254605
2.7193389387604086 -1.4723633780143512
2.1165688991302685 -1.5936083323606798
1.230142370262415 -1.5329858551875155
0.024602291002134614 -1.16925099214853
-1.0745666047940035 -0.6842711747632159
-1.9078075419297855 -0.6539599361766337
-2.510577581559926 -0.502403743243723
-2.741048479065568 -0.502403743243723
-2.492849050982569 -0.25991383455106604
-2.031907255971285 0.10382102848791952
-1.7127937055788578 0.4978671301134872
-1.51777986922793 0.5281783687000693
-1.2695804411449312 0.5281783687000693
-0.9859239519072182 0.43724465294032294
-0.7199959932468621 0.43724465294032294
-0.5072536263185774 0.4675558915269051
-0.4363395040091491 0.4675558915269051
-0.3831539122770779 0.4069334143537408
-0.4363395040091491 0.4675558915269051
-0.4363395040091491 0.4069334143537408
-0.41861097343179204 0.34631093718057654
-0.3299683205450067 0.43724465294032294
-0.3122397899676496 0.5584896072866514
-0.25905419823557846 0.6494233230463978
-0.27678272881293553 0.5584896072866514
-0.2413256676582214 0.34631093718057654
-0.22359713708086432 0.3159996985939944
-0.1704115453487931 0.4675558915269051
-0.08176889246200779 0.6191120844598157
0.04233082157949168 0.5281783687000693
0.04233082157949168 0.43724465294032294
0.024602291002134614 0.2553772214208302
-0.010854770152579518 0.3766221757671587
0.006873760424777549 0.43724465294032294
0.024602291002134614 0.5584896072866514
0.060059352156848746 0.43724465294032294
0.060059352156848746 0.4069334143537408
0.11324494388891995 0.4069334143537408
0.13097347446627702 0.4069334143537408
0.2550731885077765 0.5584896072866514
0.3437158413945618 0.4675558915269051
0.4146299637039901 0.4675558915269051
0.396901433126633 0.43724465294032294
0.36144437197191887 0.34631093718057654
0.396901433126633 0.2553772214208302
0.43235849428134715 0.34631093718057654
0.5210011471681325 0.4069334143537408
0.7160149835190602 0.3159996985939944
0.8223861669832025 0.22506598283424803
0.7869291058284884 0.2553772214208302
0.6982864529417031 0.16444350566108376
0.7160149835190602 0.1947547442476659
0.8401146975605597 0.3159996985939944
0.9464858810247021 0.28568846000741227
0.9996714727567733 0.04319855131475525
0.9996714727567733 0.07350978990133739
1.0351285339114873 0.16444350566108376
1.1237711867982727 0.2553772214208302
1.230142370262415 0.28568846000741227
1.194685309107701 0.1947547442476659
1.1237711867982727 0.012887312728173124
1.1414997173756298 -0.04773516444499114
1.159228247952987 0.07350978990133739
1.2124138396850581 0.1947547442476659
1.230142370262415 0.22506598283424803
1.1769567785303439 0.13413226707450165
1.0883141256435587 0.012887312728173124
1.0705855950662015 0.012887312728173124
1.1237711867982727 -0.04773516444499114
1.1237711867982727 0.07350978990133739
1.159228247952987 0.22506598283424803
1.159228247952987 0.22506598283424803
1.0528570644888444 0.2553772214208302
0.9819429421794161 0.1947547442476659
0.911028819869988 0.28568846000741227
0.8046576364058455 0.2553772214208302
0.7514720446737744 0.28568846000741227
0.7692005752511314 0.3766221757671587
0.7514720446737744 0.22506598283424803
0.6982864529417031 0.1947547442476659
0.5564582083228466 0.1947547442476659
0.396901433126633 0.43724465294032294
0.23734465793041942 0.4978671301134872
0.14870200504363407 0.4069334143537408
0.060059352156848746 0.4978671301134872
0.04233082157949168 0.4675558915269051
0.060059352156848746 0.4069334143537408
0.09551641331156288 0.4675558915269051
0.11324494388891995 0.5584896072866514
0.11324494388891995 0.5584896072866514
0.060059352156848746 0.4069334143537408
-0.04631183130729365 0.4069334143537408
-0.1704115453487931 0.4069334143537408
-0.15268301477143606 0.5281783687000693
-0.1704115453487931 0.6494233230463978
-0.08176889246200779 0.5888008458732336
-0.06404036188465072 0.4978671301134872
-0.1704115453487931 0.43724465294032294
-0.3122397899676496 0.43724465294032294
-0.3299683205450067 0.5281783687000693
-0.36542538169972083 0.6494233230463978
-0.3831539122770779 0.6494233230463978
-0.41861097343179204 0.5584896072866514
-0.400882442854435 0.43724465294032294
-0.34769685112236376 0.43724465294032294
-0.3831539122770779 0.5281783687000693
-0.3122397899676496 0.5888008458732336
-0.3122397899676496 0.5584896072866514
-0.27678272881293553 0.43724465294032294
-0.3299683205450067 0.43724465294032294
-0.41861097343179204 0.43724465294032294
-0.41861097343179204 0.5584896072866514
-0.400882442854435 0.6494233230463978
-0.3122397899676496 0.6191120844598157
-0.27678272881293553 0.5281783687000693
-0.2413256676582214 0.3766221757671587
-0.27678272881293553 0.4675558915269051
-0.34769685112236376 0.5281783687000693
-0.34769685112236376 0.6494233230463978
-0.34769685112236376 0.5888008458732336
-0.3122397899676496 0.5584896072866514
-0.3122397899676496 0.4069334143537408
-0.27678272881293553 0.5281783687000693
-0.2945112593902926 0.67973456163298
-0.25905419823557846 0.8616019931524728
-0.18814007592615017 0.8009795159793085
-0.1704115453487931 0.67973456163298
-0.18814007592615017 0.5584896072866514
-0.25905419823557846 0.4978671301134872
-0.2413256676582214 0.5584896072866514
-0.15268301477143606 0.67973456163298
-0.09949742303936485 0.67973456163298
-0.010854770152579518 0.7100458002195621
-0.010854770152579518 0.6494233230463978
0.060059352156848746 0.5584896072866514
0.14870200504363407 0.6191120844598157
0.20188759677570528 0.5281783687000693
0.13097347446627702 0.4069334143537408
-0.028583300729936582 0.43724465294032294
-0.134954484194079 0.3159996985939944
-0.2413256676582214 0.3766221757671587
-0.22359713708086432 0.4675558915269051
-0.134954484194079 0.5281783687000693
-0.11722595361672192 0.4675558915269051
-0.08176889246200779 0.3766221757671587
-0.09949742303936485 0.2553772214208302
-0.18814007592615017 0.16444350566108376
-0.27678272881293553 0.4069334143537408
-0.3122397899676496 0.43724465294032294
-0.3299683205450067 0.4069334143537408
-0.2945112593902926 0.3766221757671587
-0.27678272881293553 0.28568846000741227
-0.2413256676582214 0.22506598283424803
-0.25905419823557846 0.34631093718057654
-0.22359713708086432 0.4069334143537408
-0.18814007592615017 0.4675558915269051
-0.1704115453487931 0.4069334143537408
-0.18814007592615017 0.1947547442476659
-0.25905419823557846 0.2553772214208302
-0.36542538169972083 0.3766221757671587
-0.3831539122770779 0.3766221757671587
-0.3831539122770779 0.4069334143537408
-0.400882442854435 0.4069334143537408
-0.41861097343179204 0.2553772214208302
-0.41861097343179204 0.34631093718057654
-0.3122397899676496 0.43724465294032294
-0.2413256676582214 0.5584896072866514
-0.2413256676582214 0.4978671301134872
-0.3299683205450067 0.3766221757671587
-0.3299683205450067 0.3159996985939944
-0.36542538169972083 0.28568846000741227
-0.41861097343179204 0.4069334143537408
-0.3831539122770779 0.4978671301134872
-0.41861097343179204 0.5584896072866514
-0.4363395040091491 0.4069334143537408
-0.4363395040091491 0.4069334143537408
-0.400882442854435 0.4069334143537408
-0.36542538169972083 0.43724465294032294
-0.27678272881293553 0.5281783687000693
-0.27678272881293553 0.4675558915269051
-0.2945112593902926 0.43724465294032294
-0.36542538169972083 0.3159996985939944
-0.41861097343179204 0.34631093718057654
-0.34769685112236376 0.4069334143537408
-0.2413256676582214 0.4675558915269051
-0.15268301477143606 0.4978671301134872
-0.1704115453487931 0.3766221757671587
-0.18814007592615017 0.28568846000741227
-0.22359713708086432 0.22506598283424803
-0.2413256676582214 0.22506598283424803
-0.27678272881293553 0.34631093718057654
-0.25905419823557846 0.3159996985939944
-0.3122397899676496 0.1947547442476659
-0.34769685112236376 0.1947547442476659
-0.400882442854435 0.28568846000741227
-0.4363395040091491 0.4675558915269051
-0.4540680345865062 0.5584896072866514
-0.34769685112236376 0.5888008458732336
-0.25905419823557846 0.6191120844598157
-0.08176889246200779 0.6494233230463978
0.07778788273420581 0.6191120844598157
0.4146299637039901 0.67973456163298
0.8755717587152738 0.4978671301134872
1.3896991454586287 0.34631093718057654
1.7442697570057701 0.07350978990133739
2.1697544908623394 -0.1992913573779018
2.7016104081830514 -0.3811587888973946
3.2157377949264063 -0.6236486975900516
3.623493998205619 -0.8661386062827087
3.871693426288618 -1.1995622307351121
3.7653222428244755 -1.5936083323606798
3.1980092643490496 -1.8664094796399189
2.488868041254767 -2.0179656725728297
1.9392835933566979 -1.7754757638801726
1.1769567785303439 -1.7451645252935903
0.1841590661983482 -1.654230809533844
-0.950466890752504 -1.5026746166009335
-1.8546219501977144 -1.2298734693216942
-2.3687493369410695 -0.8964498448692908
-2.492849050982569 -0.714582413349798
-2.24464962289957 -0.4114700274839767
-1.9078075419297855 -0.16898011879131966
-1.6241510526920726 -0.04773516444499114
-1.464594277495859 0.16444350566108376
-1.198666318835503 0.1947547442476659
-0.8795527684430757 0.2553772214208302
-0.5427106874732915 0.34631093718057654
-0.34769685112236376 0.34631093718057654
-0.25905419823557846 0.22506598283424803
-0.2945112593902926 0.13413226707450165
-0.34769685112236376 0.13413226707450165
-0.3299683205450067 0.28568846000741227
-0.18814007592615017 0.34631093718057654
-0.134954484194079 0.3766221757671587
-0.20586860650350725 0.22506598283424803
-0.18814007592615017 0.3159996985939944
-0.09949742303936485 0.43724465294032294
-0.09949742303936485 0.4675558915269051
-0.010854770152579518 0.5281783687000693
-0.04631183130729365 0.4978671301134872
-0.1704115453487931 0.3766221757671587
-0.09949742303936485 0.3159996985939944
0.006873760424777549 0.4069334143537408
0.09551641331156288 0.4069334143537408
0.14870200504363407 0.34631093718057654
0.11324494388891995 0.4069334143537408
0.04233082157949168 0.4069334143537408
0.09551641331156288 0.28568846000741227
0.060059352156848746 0.28568846000741227
0.16643053562099114 0.34631093718057654
0.20188759677570528 0.43724465294032294
0.27280171908513356 0.4675558915269051
0.27280171908513356 0.4675558915269051
0.27280171908513356 0.22506598283424803
0.3259873108172047 0.1947547442476659
0.43235849428134715 0.2553772214208302
0.4855440860134183 0.2553772214208302
0.5210011471681325 0.3159996985939944
0.5564582083228466 0.22506598283424803
0.6096438000549178 0.10382102848791952
0.6273723306322748 0.07350978990133739
0.6096438000549178 0.16444350566108376
0.6805579223643461 0.16444350566108376
0.8223861669832025 0.16444350566108376
0.911028819869988 0.16444350566108376
0.9464858810247021 0.04319855131475525
1.0528570644888444 0.10382102848791952
1.159228247952987 0.16444350566108376
1.230142370262415 0.22506598283424803
1.2478709008397721 0.13413226707450165
1.2124138396850581 0.10382102848791952
1.159228247952987 -0.07804640303157327
1.1769567785303439 0.012887312728173124
1.2655994314171293 0.07350978990133739
1.4074276760359858 0.10382102848791952
1.460613267768057 0.10382102848791952
1.4074276760359858 0.04319855131475525
1.3719706148812716 -0.04773516444499114
1.3542420843039147 0.012887312728173124
1.3365135537265576 0.16444350566108376
1.3896991454586287 0.22506598283424803
1.4428847371906999 0.10382102848791952
1.4251562066133427 0.012887312728173124
1.3896991454586287 -0.07804640303157327
1.3719706148812716 -0.25991383455106604
1.3719706148812716 -0.13866888020473753
1.3365135537265576 -0.017423925858409007
1.3187850231492004 -0.017423925858409007
1.2833279619944864 0.07350978990133739
1.2124138396850581 -0.04773516444499114
1.159228247952987 0.10382102848791952
1.1237711867982727 0.1947547442476659
1.1414997173756298 0.28568846000741227
1.1237711867982727 0.2553772214208302
1.0883141256435587 0.1947547442476659
0.9642144116020591 0.04319855131475525
0.9464858810247021 0.07350978990133739
0.928757350447345 0.1947547442476659
0.8933002892926308 0.4069334143537408
0.7514720446737744 0.3159996985939944
0.6096438000549178 0.10382102848791952
0.43235849428134715 0.07350978990133739
0.3437158413945618 0.07350978990133739
0.3259873108172047 0.2553772214208302
0.36144437197191887 0.4069334143537408
0.2550731885077765 0.34631093718057654
0.07778788273420581 0.3159996985939944
-0.028583300729936582 0.22506598283424803
-0.06404036188465072 0.2553772214208302
0.006873760424777549 0.43724465294032294
0.04233082157949168 0.4675558915269051
0.07778788273420581 0.43724465294032294
-0.028583300729936582 0.34631093718057654
-0.08176889246200779 0.2553772214208302
-0.028583300729936582 0.34631093718057654
0.006873760424777549 0.34631093718057654
0.006873760424777549 0.4069334143537408
-0.010854770152579518 0.4675558915269051
-0.134954484194079 0.4675558915269051
-0.15268301477143606 0.3159996985939944
-0.25905419823557846 0.4069334143537408
-0.27678272881293553 0.4069334143537408
-0.20586860650350725 0.5888008458732336
-0.18814007592615017 0.5281783687000693
-0.1704115453487931 0.4978671301134872
-0.2413256676582214 0.34631093718057654
-0.3299683205450067 0.28568846000741227
-0.27678272881293553 0.34631093718057654
-0.2413256676582214 0.3766221757671587
-0.1704115453487931 0.4978671301134872
-0.22359713708086432 0.4978671301134872
-0.3831539122770779 0.3159996985939944
-0.400882442854435 0.43724465294032294
-0.34769685112236376 0.4675558915269051
-0.25905419823557846 0.6191120844598157
-0.1704115453487931 0.43724465294032294
-0.134954484194079 0.28568846000741227
-0.1704115453487931 0.34631093718057654
-0.3299683205450067 0.3766221757671587
-0.34769685112236376 0.5281783687000693
-0.27678272881293553 0.6494233230463978
-0.1704115453487931 0.7403570388061442
-0.15268301477143606 0.7403570388061442
-0.20586860650350725 0.4978671301134872
-0.18814007592615017 0.4069334143537408
-0.18814007592615017 0.4069334143537408
-0.15268301477143606 0.4978671301134872
-0.09949742303936485 0.5584896072866514
-0.010854770152579518 0.4978671301134872
0.07778788273420581 0.4675558915269051
0.04233082157949168 0.4978671301134872
0.024602291002134614 0.5584896072866514
0.04233082157949168 0.5584896072866514
0.04233082157949168 0.6191120844598157
-0.010854770152579518 0.4675558915269051
-0.15268301477143606 0.2553772214208302
-0.22359713708086432 0.2553772214208302
-0.20586860650350725 0.3159996985939944
-0.09949742303936485 0.4069334143537408
-0.06404036188465072 0.3766221757671587
-0.1704115453487931 0.28568846000741227
-0.2945112593902926 0.2553772214208302
-0.3122397899676496 0.13413226707450165
-0.3122397899676496 0.34631093718057654
-0.22359713708086432 0.43724465294032294
-0.09949742303936485 0.4675558915269051
-0.04631183130729365 0.3159996985939944
-0.134954484194079 0.16444350566108376
-0.20586860650350725 0.1947547442476659
-0.22359713708086432 0.3159996985939944
-0.20586860650350725 0.43724465294032294
-0.27678272881293553 0.3766221757671587
-0.34769685112236376 0.4069334143537408
-0.48952509574122033 0.3766221757671587
-0.5604392180506486 0.4069334143537408
-0.48952509574122033 0.5584896072866514
-0.400882442854435 0.5281783687000693
-0.2945112593902926 0.4675558915269051
-0.25905419823557846 0.4069334143537408
-0.27678272881293553 0.22506598283424803
-0.34769685112236376 0.3159996985939944
-0.34769685112236376 0.5281783687000693
-0.3299683205450067 0.7100458002195621
-0.2413256676582214 0.5584896072866514
-0.34769685112236376 0.4069334143537408
-0.3831539122770779 0.2553772214208302
-0.4363395040091491 0.34631093718057654
-0.4363395040091491 0.4069334143537408
-0.34769685112236376 0.5888008458732336
-0.27678272881293553 0.5584896072866514
-0.2945112593902926 0.3766221757671587
-0.400882442854435 0.28568846000741227
-0.48952509574122033 0.3159996985939944
-0.48952509574122033 0.43724465294032294
-0.36542538169972083 0.4675558915269051
-0.2413256676582214 0.4069334143537408
-0.20586860650350725 0.4069334143537408
-0.25905419823557846 0.2553772214208302
-0.34769685112236376 0.3159996985939944
-0.3299683205450067 0.2553772214208302
-0.25905419823557846 0.34631093718057654
-0.1704115453487931 0.34631093718057654
-0.2413256676582214 0.3159996985939944
-0.2413256676582214 0.1947547442476659
-0.25905419823557846 0.22506598283424803
-0.3122397899676496 0.34631093718057654
-0.400882442854435 0.34631093718057654
-0.4540680345865062 0.4675558915269051
-0.36542538169972083 0.5584896072866514
-0.09949742303936485 0.5888008458732336
0.2550731885077765 0.5281783687000693
0.8046576364058455 0.5888008458732336
1.3896991454586287 0.3766221757671587
2.010197715666126 0.07350978990133739
2.595239224718909 -0.22960259596448393
3.2334663255037634 -0.6539599361766337
3.6944081205150474 -0.9873835606290372
3.889421956865975 -1.2904959464948584
3.7475937122471183 -1.5329858551875155
3.2157377949264063 -1.8057870024667546
2.4179539189453387 -1.9876544339862474
1.7088126958510559 -2.048276911159412
0.7869291058284884 -1.8967207182265011
-0.2945112593902926 -1.5936083323606798
-1.2695804411449312 -1.3208071850814407
-2.067364317125999 -1.1995622307351121
-2.4219349286731404 -1.1389397535619479
-2.4396634592504975 -1.0480060378022014
-2.1382784394354273 -0.6539599361766337
-1.783707827888286 -0.13866888020473753
-1.464594277495859 0.13413226707450165
-1.180937788258146 0.3159996985939944
-0.8795527684430757 0.34631093718057654
-0.7199959932468621 0.28568846000741227
-0.5958962792053627 0.3159996985939944
-0.48952509574122033 0.4069334143537408
-0.3122397899676496 0.4069334143537408
-0.20586860650350725 0.3766221757671587
-0.20586860650350725 0.22506598283424803
-0.27678272881293553 0.22506598283424803
-0.34769685112236376 0.2553772214208302
-0.25905419823557846 0.34631093718057654
-0.11722595361672192 0.4978671301134872
-0.04631183130729365 0.4069334143537408
-0.134954484194079 0.3159996985939944
-0.2413256676582214 0.1947547442476659
-0.27678272881293553 0.1947547442476659
-0.2413256676582214 0.4675558915269051
-0.06404036188465072 0.5281783687000693
0.024602291002134614 0.3159996985939944
0.07778788273420581 0.1947547442476659
0.04233082157949168 0.04319855131475525
-0.028583300729936582 0.10382102848791952
0.07778788273420581 0.28568846000741227
0.2550731885077765 0.4069334143537408
0.43235849428134715 0.34631093718057654
0.5210011471681325 0.22506598283424803
0.37917290254927594 0.10382102848791952
0.1841590661983482 0.13413226707450165
0.14870200504363407 0.3159996985939944
0.27280171908513356 0.3766221757671587
0.43235849428134715 0.34631093718057654
0.4500870248587042 0.28568846000741227
0.396901433126633 0.07350978990133739
0.36144437197191887 0.10382102848791952
0.5032726165907754 0.2553772214208302
0.7514720446737744 0.3159996985939944
0.911028819869988 0.3766221757671587
0.9464858810247021 0.1947547442476659
0.9996714727567733 0.012887312728173124
0.9642144116020591 0.04319855131475525
1.0883141256435587 0.10382102848791952
1.1769567785303439 0.10382102848791952
1.230142370262415 0.012887312728173124
1.159228247952987 -0.04773516444499114
1.1237711867982727 -0.16898011879131966
1.1769567785303439 -0.10835764161815539
1.3542420843039147 0.012887312728173124
1.496070328922771 0.10382102848791952
1.5492559206548424 0.012887312728173124
1.5137988595001282 -0.07804640303157327
1.460613267768057 -0.16898011879131966
1.4428847371906999 -0.07804640303157327
1.4074276760359858 0.10382102848791952
1.496070328922771 0.16444350566108376
1.4428847371906999 0.04319855131475525
1.3365135537265576 -0.10835764161815539
1.2655994314171293 -0.1992913573779018
1.230142370262415 -0.04773516444499114
1.230142370262415 0.10382102848791952
1.3010564925718433 0.13413226707450165
1.2478709008397721 0.07350978990133739
1.0883141256435587 -0.017423925858409007
0.8401146975605597 0.10382102848791952
0.662829391786989 0.10382102848791952
0.645100861209632 0.3766221757671587
0.645100861209632 0.4978671301134872
0.645100861209632 0.3766221757671587
0.5741867389002037 0.28568846000741227
0.4678155554360613 0.1947547442476659
0.37917290254927594 0.22506598283424803
0.36144437197191887 0.34631093718057654
0.27280171908513356 0.3766221757671587
0.20188759677570528 0.34631093718057654
0.13097347446627702 0.3159996985939944
0.09551641331156288 0.2553772214208302
0.11324494388891995 0.28568846000741227
0.13097347446627702 0.3159996985939944
0.07778788273420581 0.4069334143537408
-0.010854770152579518 0.3766221757671587
-0.15268301477143606 0.34631093718057654
-0.3122397899676496 0.28568846000741227
-0.3122397899676496 0.34631093718057654
-0.2413256676582214 0.5584896072866514
-0.1704115453487931 0.67973456163298
-0.09949742303936485 0.4675558915269051
-0.11722595361672192 0.28568846000741227
-0.20586860650350725 0.16444350566108376
-0.25905419823557846 0.10382102848791952
-0.3122397899676496 0.2553772214208302
-0.25905419823557846 0.4069334143537408
-0.25905419823557846 0.3766221757671587
-0.27678272881293553 0.3159996985939944
-0.36542538169972083 0.2553772214208302
-0.41861097343179204 0.34631093718057654
-0.3299683205450067 0.5584896072866514
-0.20586860650350725 0.5888008458732336
-0.134954484194079 0.4978671301134872
-0.25905419823557846 0.2553772214208302
-0.3831539122770779 0.16444350566108376
-0.400882442854435 0.2553772214208302
-0.34769685112236376 0.4069334143537408
-0.2413256676582214 0.4675558915269051
-0.1704115453487931 0.4069334143537408
-0.20586860650350725 0.28568846000741227
-0.3122397899676496 0.2553772214208302
-0.3831539122770779 0.34631093718057654
-0.34769685112236376 0.5281783687000693
-0.25905419823557846 0.6191120844598157
-0.11722595361672192 0.6191120844598157
-0.09949742303936485 0.4675558915269051
-0.06404036188465072 0.4675558915269051
-0.08176889246200779 0.4978671301134872
0.04233082157949168 0.5888008458732336
0.13097347446627702 0.6494233230463978
0.1841590661983482 0.5888008458732336
0.09551641331156288 0.4978671301134872
-0.010854770152579518 0.3766221757671587
-0.010854770152579518 0.4675558915269051
-0.028583300729936582 0.4675558915269051
-0.010854770152579518 0.43724465294032294
-0.010854770152579518 0.3159996985939944
-0.028583300729936582 0.16444350566108376
-0.06404036188465072 0.07350978990133739
-0.15268301477143606 0.012887312728173124
-0.1704115453487931 0.16444350566108376
-0.25905419823557846 0.28568846000741227
-0.22359713708086432 0.28568846000741227
-0.2413256676582214 0.28568846000741227
-0.2945112593902926 0.22506598283424803
-0.3122397899676496 0.2553772214208302
-0.18814007592615017 0.43724465294032294
-0.08176889246200779 0.4069334143537408
-0.11722595361672192 0.3766221757671587
-0.25905419823557846 0.3766221757671587
-0.5072536263185774 0.3159996985939944
-0.5604392180506486 0.4069334143537408
-0.47179656516386326 0.4069334143537408
-0.400882442854435 0.4978671301134872
-0.36542538169972083 0.3159996985939944
-0.3831539122770779 0.22506598283424803
-0.4540680345865062 0.10382102848791952
-0.47179656516386326 0.012887312728173124
-0.3831539122770779 0.13413226707450165
-0.3122397899676496 0.22506598283424803
-0.2945112593902926 0.22506598283424803
-0.41861097343179204 0.22506598283424803
-0.47179656516386326 0.1947547442476659
-0.47179656516386326 0.2553772214208302
-0.4540680345865062 0.3766221757671587
-0.4363395040091491 0.5281783687000693
-0.34769685112236376 0.5584896072866514
-0.41861097343179204 0.4069334143537408
-0.4540680345865062 0.1947547442476659
-0.48952509574122033 0.2553772214208302
-0.4540680345865062 0.1947547442476659
-0.3831539122770779 0.43724465294032294
-0.27678272881293553 0.3766221757671587
-0.34769685112236376 0.2553772214208302
-0.400882442854435 0.22506598283424803
-0.4540680345865062 0.13413226707450165
-0.3299683205450067 0.34631093718057654
-0.27678272881293553 0.34631093718057654
-0.22359713708086432 0.3159996985939944
-0.27678272881293553 0.22506598283424803
-0.400882442854435 0.13413226707450165
-0.4540680345865062 0.1947547442476659
-0.4363395040091491 0.4069334143537408
-0.3831539122770779 0.4675558915269051
-0.34769685112236376 0.43724465294032294
-0.34769685112236376 0.3766221757671587
-0.36542538169972083 0.2553772214208302
-0.34769685112236376 0.2553772214208302
-0.36542538169972083 0.28568846000741227
-0.3122397899676496 0.34631093718057654
-0.25905419823557846 0.3159996985939944
-0.2945112593902926 0.28568846000741227
-0.400882442854435 0.2553772214208302
-0.5249821568959344 0.3159996985939944
-0.48952509574122033 0.5888008458732336
-0.22359713708086432 0.7706682773927264
0.2905302496624906 0.67973456163298
0.928757350447345 0.34631093718057654
1.5137988595001282 -0.017423925858409007
2.04565477682084 -0.13866888020473753
2.6661533470283376 -0.4114700274839767
3.2334663255037634 -0.7448936519363801
3.658951059360333 -1.16925099214853
3.7475937122471183 -1.5026746166009335
3.4993942841641195 -2.0179656725728297
2.8788957139566222 -2.2604555812654867
2.240668613171768 -2.2301443426789045
1.5847129818095564 -2.2301443426789045
0.662829391786989 -2.108899388332576
-0.4363395040091491 -1.9876544339862474
-1.5355083998052872 -1.8057870024667546
-2.24464962289957 -1.5329858551875155
-2.54603464271464 -1.2904959464948584
-2.4573919898278547 -0.8055161291095444
-2.1028213782807135 -0.4114700274839767
-1.8368934196203572 -0.017423925858409007
-1.5886939915373584 0.16444350566108376
-1.3050375022996454 0.1947547442476659
-0.950466890752504 0.28568846000741227
-0.7022674626695051 0.28568846000741227
-0.48952509574122033 0.1947547442476659
-0.3122397899676496 0.13413226707450165
-0.2413256676582214 0.13413226707450165
-0.27678272881293553 0.13413226707450165
-0.5072536263185774 0.1947547442476659
-0.5781677486280057 0.28568846000741227
-0.5427106874732915 0.43724465294032294
-0.41861097343179204 0.43724465294032294
-0.3299683205450067 0.28568846000741227
-0.2945112593902926 0.22506598283424803
-0.25905419823557846 0.22506598283424803
-0.18814007592615017 0.3159996985939944
-0.11722595361672192 0.2553772214208302
-0.18814007592615017 0.28568846000741227
-0.25905419823557846 0.3159996985939944
-0.25905419823557846 0.3159996985939944
-0.11722595361672192 0.34631093718057654
0.006873760424777549 0.28568846000741227
0.13097347446627702 0.3766221757671587
0.20188759677570528 0.28568846000741227
0.14870200504363407 0.16444350566108376
0.14870200504363407 0.16444350566108376
0.16643053562099114 0.1947547442476659
0.2550731885077765 0.28568846000741227
0.30825878023984765 0.28568846000741227
0.2550731885077765 0.13413226707450165
0.11324494388891995 -0.04773516444499114
0.11324494388891995 0.04319855131475525
0.2905302496624906 0.16444350566108376
0.5032726165907754 0.2553772214208302
0.6982864529417031 0.13413226707450165
0.662829391786989 0.10382102848791952
0.6805579223643461 -0.04773516444499114
0.7514720446737744 -0.04773516444499114
0.8223861669832025 0.012887312728173124
0.8755717587152738 0.13413226707450165
0.8755717587152738 0.1947547442476659
0.8401146975605597 0.16444350566108376
0.911028819869988 0.10382102848791952
0.9819429421794161 -0.04773516444499114
1.0174000033341304 0.10382102848791952
1.0351285339114873 0.012887312728173124
1.159228247952987 -0.04773516444499114
1.2833279619944864 -0.07804640303157327
1.3365135537265576 -0.22960259596448393
1.3187850231492004 -0.16898011879131966
1.3896991454586287 -0.04773516444499114
1.3896991454586287 -0.04773516444499114
1.3365135537265576 0.012887312728173124
1.230142370262415 -0.10835764161815539
1.0883141256435587 -0.10835764161815539
1.0883141256435587 0.07350978990133739
1.2655994314171293 0.13413226707450165
1.3719706148812716 0.16444350566108376
1.4428847371906999 0.012887312728173124
1.3542420843039147 -0.10835764161815539
1.194685309107701 -0.1992913573779018
1.0174000033341304 -0.13866888020473753
0.9819429421794161 0.012887312728173124
0.9642144116020591 0.2553772214208302
0.9464858810247021 0.1947547442476659
0.8223861669832025 0.16444350566108376
0.662829391786989 0.10382102848791952
0.5387296777454895 0.13413226707450165
0.43235849428134715 0.28568846000741227
0.3437158413945618 0.4069334143537408
0.3437158413945618 0.34631093718057654
0.37917290254927594 0.16444350566108376
0.23734465793041942 0.13413226707450165
-0.010854770152579518 0.13413226707450165
-0.15268301477143606 0.43724465294032294
-0.08176889246200779 0.5281783687000693
-0.028583300729936582 0.5281783687000693
-0.09949742303936485 0.3766221757671587
-0.2413256676582214 0.3159996985939944
-0.2945112593902926 0.3159996985939944
-0.20586860650350725 0.43724465294032294
-0.11722595361672192 0.5281783687000693
-0.1704115453487931 0.4069334143537408
-0.25905419823557846 0.2553772214208302
-0.34769685112236376 0.28568846000741227
-0.34769685112236376 0.34631093718057654
-0.2945112593902926 0.43724465294032294
-0.22359713708086432 0.5584896072866514
-0.20586860650350725 0.3766221757671587
-0.25905419823557846 0.1947547442476659
-0.2413256676582214 0.3159996985939944
-0.27678272881293553 0.28568846000741227
-0.2945112593902926 0.43724465294032294
-0.25905419823557846 0.5888008458732336
-0.27678272881293553 0.5281783687000693
-0.3122397899676496 0.3766221757671587
-0.41861097343179204 0.34631093718057654
-0.4363395040091491 0.1947547442476659
-0.3831539122770779 0.4675558915269051
-0.2945112593902926 0.5281783687000693
-0.22359713708086432 0.5584896072866514
-0.2945112593902926 0.43724465294032294
-0.34769685112236376 0.28568846000741227
-0.3831539122770779 0.3159996985939944
-0.34769685112236376 0.4069334143537408
-0.27678272881293553 0.6494233230463978
-0.09949742303936485 0.5888008458732336
0.006873760424777549 0.4978671301134872
-0.06404036188465072 0.5281783687000693
-0.1704115453487931 0.6191120844598157
-0.20586860650350725 0.6191120844598157
-0.15268301477143606 0.7706682773927264
-0.04631183130729365 0.7100458002195621
-0.04631183130729365 0.6191120844598157
-0.010854770152579518 0.3766221757671587
0.024602291002134614 0.3766221757671587
0.07778788273420581 0.4069334143537408
0.006873760424777549 0.5281783687000693
-0.010854770152579518 0.43724465294032294
-0.08176889246200779 0.3159996985939944
-0.010854770152579518 0.2553772214208302
0.04233082157949168 0.22506598283424803
0.006873760424777549 0.16444350566108376
-0.22359713708086432 0.3766221757671587
-0.48952509574122033 0.43724465294032294
-0.5604392180506486 0.3766221757671587
-0.47179656516386326 0.22506598283424803
-0.36542538169972083 0.13413226707450165
-0.34769685112236376 0.3159996985939944
-0.3122397899676496 0.4675558915269051
-0.2945112593902926 0.6494233230463978
-0.3122397899676496 0.6191120844598157
-0.3831539122770779 0.43724465294032294
-0.47179656516386326 0.28568846000741227
-0.4363395040091491 0.22506598283424803
-0.41861097343179204 0.3159996985939944
-0.34769685112236376 0.22506598283424803
-0.3831539122770779 0.2553772214208302
-0.4363395040091491 0.1947547442476659
-0.5427106874732915 0.22506598283424803
-0.5604392180506486 0.3766221757671587
-0.47179656516386326 0.4675558915269051
-0.4363395040091491 0.43724465294032294
-0.48952509574122033 0.3159996985939944
-0.5958962792053627 0.22506598283424803
-0.6136248097827197 0.1947547442476659
-0.5427106874732915 0.43724465294032294
-0.400882442854435 0.43724465294032294
-0.3122397899676496 0.3766221757671587
-0.3122397899676496 0.28568846000741227
-0.3122397899676496 0.28568846000741227
-0.2945112593902926 0.43724465294032294
-0.25905419823557846 0.3766221757671587
-0.3299683205450067 0.4978671301134872
-0.41861097343179204 0.34631093718057654
-0.47179656516386326 0.3766221757671587
-0.48952509574122033 0.28568846000741227
-0.5072536263185774 0.22506598283424803
-0.4363395040091491 0.22506598283424803
-0.5072536263185774 0.34631093718057654
-0.41861097343179204 0.4675558915269051
-0.47179656516386326 0.3766221757671587
-0.4540680345865062 0.22506598283424803
-0.47179656516386326 0.1947547442476659
-0.4363395040091491 0.28568846000741227
-0.36542538169972083 0.34631093718057654
-0.34769685112236376 0.3766221757671587
-0.36542538169972083 0.3159996985939944
-0.41861097343179204 0.3766221757671587
-0.41861097343179204 0.5281783687000693
-0.4540680345865062 0.34631093718057654
-0.48952509574122033 0.4675558915269051
-0.3831539122770779 0.4978671301134872
-0.11722595361672192 0.4978671301134872
0.3259873108172047 0.3766221757671587
0.9464858810247021 0.2553772214208302
1.6556271041189847 0.04319855131475525
2.276125674326482 -0.07804640303157327
2.9143527751113365 -0.44178126607055884
3.357566039545263 -0.7448936519363801
3.588036937050905 -1.16925099214853
3.623493998205619 -1.684542048120426
3.322108978390549 -2.0785881497459937
2.6661533470283376 -2.2301443426789045
2.04565477682084 -2.351389297025233
1.2655994314171293 -2.351389297025233
0.2905302496624906 -2.2301443426789045
-0.8440957072883616 -2.139210626919158
-1.8546219501977144 -1.8360982410533369
-2.492849050982569 -1.5026746166009335
-2.7055914179108536 -1.1995622307351121
-2.4396634592504975 -0.714582413349798
-2.0850928477033563 -0.1992913573779018
-1.7659792973109292 0.22506598283424803
-1.3936801551864306 0.4675558915269051
-1.0391095436392894 0.5888008458732336
-0.7554530544015763 0.4675558915269051
-0.5781677486280057 0.3159996985939944
-0.5427106874732915 0.10382102848791952
-0.5781677486280057 0.07350978990133739
-0.5249821568959344 0.16444350566108376
-0.47179656516386326 0.2553772214208302
-0.36542538169972083 0.3159996985939944
-0.36542538169972083 0.22506598283424803
-0.3299683205450067 0.16444350566108376
-0.2413256676582214 0.1947547442476659
-0.1704115453487931 0.2553772214208302
-0.028583300729936582 0.3159996985939944
0.060059352156848746 0.28568846000741227
0.006873760424777549 0.1947547442476659
-0.11722595361672192 0.10382102848791952
-0.22359713708086432 0.04319855131475525
-0.1704115453487931 0.28568846000741227
-0.15268301477143606 0.28568846000741227
-0.06404036188465072 0.28568846000741227
-0.08176889246200779 0.2553772214208302
-0.09949742303936485 0.2553772214208302
-0.08176889246200779 0.1947547442476659
0.024602291002134614 0.3766221757671587
0.23734465793041942 0.4675558915269051
0.5387296777454895 0.34631093718057654
0.6273723306322748 0.012887312728173124
0.4678155554360613 -0.1992913573779018
0.16643053562099114 -0.16898011879131966
0.11324494388891995 0.16444350566108376
0.2905302496624906 0.28568846000741227
0.4500870248587042 0.3159996985939944
0.4855440860134183 0.28568846000741227
0.43235849428134715 0.16444350566108376
0.4855440860134183 0.13413226707450165
0.5741867389002037 0.07350978990133739
0.7514720446737744 0.07350978990133739
0.7869291058284884 -0.017423925858409007
0.8046576364058455 -0.10835764161815539
0.8223861669832025 -0.1992913573779018
0.8755717587152738 -0.22960259596448393
0.9819429421794161 -0.1992913573779018
1.0883141256435587 -0.017423925858409007
1.194685309107701 0.012887312728173124
1.1769567785303439 -0.10835764161815539
1.159228247952987 -0.13866888020473753
1.1769567785303439 -0.16898011879131966
1.2124138396850581 -0.25991383455106604
1.3010564925718433 -0.22960259596448393
1.2655994314171293 -0.1992913573779018
1.2124138396850581 -0.16898011879131966
1.194685309107701 -0.1992913573779018
1.194685309107701 -0.13866888020473753
1.2655994314171293 -0.13866888020473753
1.2655994314171293 -0.07804640303157327
1.1769567785303439 -0.07804640303157327
1.1237711867982727 -0.1992913573779018
1.1060426562209156 -0.3205363117242303
1.159228247952987 -0.16898011879131966
1.1769567785303439 -0.10835764161815539
1.194685309107701 0.10382102848791952
1.194685309107701 0.012887312728173124
1.0528570644888444 -0.13866888020473753
0.8401146975605597 -0.16898011879131966
0.645100861209632 -0.07804640303157327
0.5741867389002037 0.16444350566108376
0.5919152694775607 0.3766221757671587
0.6273723306322748 0.3159996985939944
0.5919152694775607 0.22506598283424803
0.396901433126633 0.012887312728173124
0.27280171908513356 0.07350978990133739
0.27280171908513356 0.2553772214208302
0.2905302496624906 0.4978671301134872
0.20188759677570528 0.43724465294032294
-0.028583300729936582 0.3159996985939944
-0.2945112593902926 0.2553772214208302
-0.36542538169972083 0.34631093718057654
-0.3122397899676496 0.34631093718057654
-0.18814007592615017 0.3159996985939944
-0.18814007592615017 0.34631093718057654
-0.1704115453487931 0.3766221757671587
-0.20586860650350725 0.28568846000741227
-0.15268301477143606 0.28568846000741227
-0.134954484194079 0.3766221757671587
-0.20586860650350725 0.4675558915269051
-0.25905419823557846 0.43724465294032294
-0.36542538169972083 0.3159996985939944
-0.36542538169972083 0.16444350566108376
-0.4540680345865062 0.16444350566108376
-0.34769685112236376 0.22506598283424803
-0.34769685112236376 0.3159996985939944
-0.3122397899676496 0.34631093718057654
-0.34769685112236376 0.3159996985939944
-0.4363395040091491 0.22506598283424803
-0.4540680345865062 0.3159996985939944
-0.400882442854435 0.2553772214208302
-0.2945112593902926 0.34631093718057654
-0.3122397899676496 0.3159996985939944
-0.36542538169972083 0.16444350566108376
-0.36542538169972083 0.13413226707450165
-0.25905419823557846 0.13413226707450165
-0.20586860650350725 0.13413226707450165
-0.18814007592615017 0.28568846000741227
-0.1704115453487931 0.4069334143537408
-0.1704115453487931 0.3766221757671587
-0.18814007592615017 0.34631093718057654
-0.1704115453487931 0.2553772214208302
-0.2413256676582214 0.4069334143537408
-0.22359713708086432 0.4069334143537408
-0.134954484194079 0.4675558915269051
-0.09949742303936485 0.43724465294032294
-0.04631183130729365 0.43724465294032294
-0.06404036188465072 0.3159996985939944
0.060059352156848746 0.4978671301134872
0.1841590661983482 0.5281783687000693
0.1841590661983482 0.6191120844598157
0.04233082157949168 0.43724465294032294
-0.11722595361672192 0.3159996985939944
-0.1704115453487931 0.22506598283424803
-0.1704115453487931 0.22506598283424803
-0.11722595361672192 0.2553772214208302
-0.11722595361672192 0.1947547442476659
-0.1704115453487931 0.16444350566108376
-0.25905419823557846 -0.07804640303157327
-0.400882442854435 -0.13866888020473753
-0.4363395040091491 -0.13866888020473753
-0.41861097343179204 -0.04773516444499114
-0.34769685112236376 -0.07804640303157327
-0.27678272881293553 -0.04773516444499114
-0.27678272881293553 -0.04773516444499114
-0.2413256676582214 -0.017423925858409007
-0.25905419823557846 0.04319855131475525
-0.25905419823557846 0.16444350566108376
-0.3299683205450067 0.13413226707450165
-0.36542538169972083 0.012887312728173124
-0.400882442854435 0.012887312728173124
-0.400882442854435 -0.017423925858409007
-0.34769685112236376 0.10382102848791952
-0.25905419823557846 0.1947547442476659
-0.2945112593902926 0.16444350566108376
-0.47179656516386326 0.04319855131475525
-0.5427106874732915 0.10382102848791952
-0.6136248097827197 0.2553772214208302
-0.5427106874732915 0.5281783687000693
-0.4540680345865062 0.4675558915269051
-0.36542538169972083 0.34631093718057654
-0.3299683205450067 0.13413226707450165
-0.3299683205450067 -0.10835764161815539
-0.3299683205450067 -0.16898011879131966
-0.25905419823557846 -0.07804640303157327
-0.34769685112236376 -0.017423925858409007
-0.4540680345865062 0.04319855131475525
-0.5249821568959344 -0.04773516444499114
-0.5427106874732915 -0.017423925858409007
-0.5427106874732915 0.16444350566108376
-0.48952509574122033 0.3159996985939944
-0.36542538169972083 0.3159996985939944
-0.34769685112236376 -0.017423925858409007
-0.4540680345865062 -0.07804640303157327
-0.5604392180506486 -0.017423925858409007
-0.5072536263185774 0.04319855131475525
-0.3831539122770779 0.16444350566108376
-0.27678272881293553 0.10382102848791952
-0.3122397899676496 0.10382102848791952
-0.4363395040091491 0.10382102848791952
-0.48952509574122033 0.13413226707450165
-0.400882442854435 0.012887312728173124
-0.25905419823557846 0.04319855131475525
-0.25905419823557846 0.1947547442476659
-0.3831539122770779 0.13413226707450165
-0.5249821568959344 0.10382102848791952
-0.5604392180506486 0.1947547442476659
-0.3831539122770779 0.34631093718057654
-0.010854770152579518 0.43724465294032294
0.5387296777454895 0.3766221757671587
1.1060426562209156 -0.04773516444499114
1.6201700429642705 -0.25991383455106604
2.081111837975554 -0.5933374590034695
2.542053632986838 -0.8358273676961265
2.9675383668434074 -1.2904959464948584
3.1625522031943354 -1.7451645252935903
2.9498098362660508 -2.321078058438651
2.3470397966359102 -2.4423230127849793
1.6556271041189847 -2.502945489958144
0.8223861669832025 -2.3817005356118153
-0.25905419823557846 -2.1998331040923222
-1.3227660328770023 -1.9876544339862474
-2.1028213782807135 -1.7451645252935903
-2.652405826178782 -1.4723633780143512
-2.758777009642925 -0.9873835606290372
-2.386477867518426 -0.5327149818303052
-1.9255360725071426 -0.13866888020473753
-1.5000513386505732 0.16444350566108376
-1.1277521965260746 0.012887312728173124
-0.7909101155562904 -0.13866888020473753
-0.5604392180506486 -0.3205363117242303
-0.4363395040091491 -0.35084755031081244
-0.41861097343179204 -0.16898011879131966
-0.41861097343179204 0.012887312728173124
-0.3299683205450067 0.012887312728173124
-0.3122397899676496 0.10382102848791952
-0.2945112593902926 0.16444350566108376
-0.34769685112236376 0.28568846000741227
-0.36542538169972083 0.4069334143537408
-0.27678272881293553 0.4978671301134872
-0.25905419823557846 0.28568846000741227
-0.25905419823557846 0.04319855131475525
-0.25905419823557846 -0.07804640303157327
-0.20586860650350725 -0.04773516444499114
-0.08176889246200779 0.04319855131475525
0.04233082157949168 0.04319855131475525
0.11324494388891995 0.10382102848791952
0.09551641331156288 0.04319855131475525
0.060059352156848746 0.04319855131475525
0.060059352156848746 0.22506598283424803
0.13097347446627702 0.3159996985939944
0.1841590661983482 0.2553772214208302
0.30825878023984765 0.16444350566108376
0.36144437197191887 0.012887312728173124
0.3437158413945618 -0.04773516444499114
0.3437158413945618 -0.017423925858409007
0.396901433126633 -0.07804640303157327
0.4678155554360613 -0.10835764161815539
0.5741867389002037 -0.10835764161815539
0.6096438000549178 -0.07804640303157327
0.6805579223643461 0.04319855131475525
0.7337435140964172 0.04319855131475525
0.8578432281379167 0.04319855131475525
1.0351285339114873 -0.017423925858409007
1.0528570644888444 -0.22960259596448393
1.0351285339114873 -0.25991383455106604
1.0528570644888444 -0.22960259596448393
1.1769567785303439 -0.1992913573779018
1.3010564925718433 -0.16898011879131966
1.3365135537265576 -0.1992913573779018
1.3010564925718433 -0.29022507313764817
1.2478709008397721 -0.44178126607055884
1.2124138396850581 -0.502403743243723
1.230142370262415 -0.472092504657141
1.2655994314171293 -0.3811587888973946
1.3719706148812716 -0.16898011879131966
1.4251562066133427 -0.04773516444499114
1.4251562066133427 -0.017423925858409007
1.4074276760359858 -0.10835764161815539
1.3542420843039147 -0.10835764161815539
1.3896991454586287 -0.13866888020473753
1.4074276760359858 -0.29022507313764817
1.3542420843039147 -0.472092504657141
1.159228247952987 -0.6539599361766337
1.0174000033341304 -0.6539599361766337
0.928757350447345 -0.4114700274839767
0.9464858810247021 -0.13866888020473753
0.9819429421794161 -0.04773516444499114
0.9642144116020591 -0.04773516444499114
0.6982864529417031 -0.1992913573779018
0.5741867389002037 -0.13866888020473753
0.396901433126633 0.10382102848791952
0.3437158413945618 0.28568846000741227
0.2905302496624906 0.16444350566108376
0.1841590661983482 -0.017423925858409007
0.14870200504363407 -0.10835764161815539
0.07778788273420581 -0.017423925858409007
0.04233082157949168 0.28568846000741227
0.04233082157949168 0.43724465294032294
0.060059352156848746 0.4675558915269051
0.006873760424777549 0.2553772214208302
0.006873760424777549 -0.10835764161815539
-0.11722595361672192 -0.1992913573779018
-0.20586860650350725 -0.29022507313764817
-0.20586860650350725 -0.35084755031081244
-0.20586860650350725 -0.16898011879131966
-0.22359713708086432 -0.07804640303157327
-0.22359713708086432 -0.04773516444499114
-0.3122397899676496 -0.04773516444499114
-0.3299683205450067 -0.07804640303157327
-0.25905419823557846 0.012887312728173124
-0.20586860650350725 0.10382102848791952
-0.134954484194079 0.10382102848791952
-0.11722595361672192 0.07350978990133739
-0.22359713708086432 0.13413226707450165
-0.27678272881293553 0.22506598283424803
-0.2945112593902926 0.22506598283424803
-0.27678272881293553 0.2553772214208302
-0.15268301477143606 0.04319855131475525
-0.09949742303936485 -0.10835764161815539
-0.09949742303936485 -0.22960259596448393
-0.18814007592615017 -0.16898011879131966
-0.18814007592615017 0.1947547442476659
-0.18814007592615017 0.16444350566108376
-0.2413256676582214 -0.04773516444499114
-0.27678272881293553 -0.25991383455106604
-0.3122397899676496 -0.3205363117242303
-0.34769685112236376 -0.07804640303157327
-0.27678272881293553 0.10382102848791952
-0.134954484194079 0.28568846000741227
-0.04631183130729365 0.16444350566108376
-0.010854770152579518 -0.07804640303157327
-0.028583300729936582 0.012887312728173124
-0.06404036188465072 0.13413226707450165
0.024602291002134614 0.13413226707450165
0.11324494388891995 0.13413226707450165
0.16643053562099114 0.1947547442476659
0.13097347446627702 0.1947547442476659
0.024602291002134614 0.13413226707450165
-0.04631183130729365 0.16444350566108376
-0.028583300729936582 0.22506598283424803
0.09551641331156288 0.22506598283424803
0.09551641331156288 0.10382102848791952
0.060059352156848746 -0.25991383455106604
-0.134954484194079 -0.3811587888973946
-0.3122397899676496 -0.25991383455106604
-0.34769685112236376 0.04319855131475525
-0.25905419823557846 0.28568846000741227
-0.1704115453487931 0.10382102848791952
-0.09949742303936485 -0.3811587888973946
-0.15268301477143606 -0.5327149818303052
-0.20586860650350725 -0.502403743243723
-0.3122397899676496 -0.3205363117242303
-0.3831539122770779 -0.10835764161815539
-0.36542538169972083 -0.10835764161815539
-0.36542538169972083 -0.04773516444499114
-0.3831539122770779 -0.13866888020473753
-0.3831539122770779 -0.1992913573779018
-0.4363395040091491 -0.22960259596448393
-0.34769685112236376 -0.16898011879131966
-0.25905419823557846 -0.1992913573779018
-0.25905419823557846 -0.1992913573779018
-0.400882442854435 0.012887312728173124
-0.47179656516386326 0.04319855131475525
-0.5249821568959344 0.07350978990133739
-0.4363395040091491 0.10382102848791952
-0.34769685112236376 0.13413226707450165
-0.2945112593902926 0.16444350566108376
-0.3299683205450067 -0.10835764161815539
-0.36542538169972083 -0.44178126607055884
-0.34769685112236376 -0.35084755031081244
-0.27678272881293553 -0.25991383455106604
-0.2413256676582214 -0.16898011879131966
-0.25905419823557846 -0.25991383455106604
-0.27678272881293553 -0.22960259596448393
-0.25905419823557846 -0.07804640303157327
-0.27678272881293553 0.1947547442476659
-0.3831539122770779 0.3159996985939944
-0.3831539122770779 0.28568846000741227
-0.400882442854435 0.13413226707450165
-0.36542538169972083 -0.13866888020473753
-0.400882442854435 -0.29022507313764817
-0.36542538169972083 -0.35084755031081244
-0.25905419823557846 -0.25991383455106604
-0.22359713708086432 -0.22960259596448393
-0.3299683205450067 -0.35084755031081244
-0.4363395040091491 -0.3205363117242303
-0.5249821568959344 -0.1992913573779018
-0.48952509574122033 -0.10835764161815539
-0.4540680345865062 0.10382102848791952
-0.3831539122770779 0.1947547442476659
-0.18814007592615017 0.22506598283424803
0.09551641331156288 0.16444350566108376
0.5210011471681325 -0.017423925858409007
0.9642144116020591 -0.29022507313764817
1.5315273900774853 -0.4114700274839767
2.0988403685529113 -0.7752048905229623
2.7193389387604086 -1.4723633780143512
2.9498098362660508 -2.2301443426789045
2.8788957139566222 -2.7151241600642186
2.506596571832124 -2.6848129214776364
1.9392835933566979 -2.4423230127849793
1.2124138396850581 -2.2604555812654867
-0.028583300729936582 -2.0785881497459937
-1.2695804411449312 -1.8967207182265011
-2.24464962289957 -1.5936083323606798
-2.7233199484882107 -1.2904959464948584
-2.563763173291997 -0.9267610834558729
-2.1028213782807135 -0.5630262204168873
-1.7127937055788578 -0.29022507313764817
-1.464594277495859 -0.13866888020473753
-1.180937788258146 -0.04773516444499114
-0.8263671767110046 -0.07804640303157327
-0.5249821568959344 -0.10835764161815539
-0.41861097343179204 -0.25991383455106604
-0.4363395040091491 -0.4114700274839767
-0.400882442854435 -0.5327149818303052
-0.400882442854435 -0.5933374590034695
-0.34769685112236376 -0.44178126607055884
-0.2945112593902926 -0.22960259596448393
-0.2945112593902926 -0.017423925858409007
-0.2945112593902926 0.1947547442476659
-0.25905419823557846 0.34631093718057654
-0.2413256676582214 0.43724465294032294
-0.18814007592615017 0.4069334143537408
-0.04631183130729365 0.16444350566108376
-0.028583300729936582 -0.16898011879131966
-0.08176889246200779 -0.44178126607055884
-0.134954484194079 -0.5630262204168873
-0.09949742303936485 -0.5327149818303052
0.006873760424777549 -0.502403743243723
0.14870200504363407 -0.4114700274839767
0.16643053562099114 -0.5630262204168873
0.11324494388891995 -0.6236486975900516
0.11324494388891995 -0.6539599361766337
0.024602291002134614 -0.5327149818303052
0.13097347446627702 -0.13866888020473753
0.2905302496624906 -0.07804640303157327
0.37917290254927594 -0.29022507313764817
0.4678155554360613 -0.7448936519363801
0.5032726165907754 -0.9570723220424551
0.5387296777454895 -0.8358273676961265
0.5919152694775607 -0.6539599361766337
0.5919152694775607 -0.502403743243723
0.5741867389002037 -0.502403743243723
0.5919152694775607 -0.5630262204168873
0.6273723306322748 -0.7448936519363801
0.6982864529417031 -0.5630262204168873
0.7869291058284884 -0.22960259596448393
0.8223861669832025 0.10382102848791952
0.8401146975605597 0.07350978990133739
0.9642144116020591 -0.3205363117242303
1.0705855950662015 -0.9570723220424551
1.159228247952987 -1.2601847079082764
1.230142370262415 -1.2904959464948584
1.2833279619944864 -0.9267610834558729
1.2833279619944864 -0.714582413349798
1.2655994314171293 -0.8055161291095444
1.230142370262415 -1.0176947992156193
1.194685309107701 -1.2298734693216942
1.1769567785303439 -1.2601847079082764
1.230142370262415 -1.16925099214853
1.3365135537265576 -1.1086285149753656
1.3187850231492004 -1.16925099214853
1.2833279619944864 -1.2904959464948584
1.2833279619944864 -1.411740900841187
1.230142370262415 -1.411740900841187
1.2478709008397721 -1.2904959464948584
1.194685309107701 -1.3208071850814407
1.0883141256435587 -1.0480060378022014
0.9819429421794161 -1.0783172763887836
0.9819429421794161 -0.6842711747632159
0.9819429421794161 -0.5327149818303052
0.8933002892926308 -0.44178126607055884
0.8046576364058455 -0.472092504657141
0.662829391786989 -0.6539599361766337
0.5387296777454895 -0.9267610834558729
0.43235849428134715 -0.9873835606290372
0.396901433126633 -0.8661386062827087
0.3437158413945618 -0.6539599361766337
0.2905302496624906 -0.502403743243723
0.20188759677570528 -0.5327149818303052
0.13097347446627702 -0.5630262204168873
0.09551641331156288 -0.472092504657141
0.04233082157949168 -0.5630262204168873
0.04233082157949168 -0.6236486975900516
0.006873760424777549 -0.8358273676961265
-0.09949742303936485 -0.8358273676961265
-0.20586860650350725 -0.7752048905229623
-0.25905419823557846 -0.5630262204168873
-0.400882442854435 -0.3205363117242303
-0.36542538169972083 -0.1992913573779018
-0.3122397899676496 -0.44178126607055884
-0.22359713708086432 -0.6539599361766337
-0.25905419823557846 -0.6842711747632159
-0.1704115453487931 -0.5933374590034695
-0.15268301477143606 -0.472092504657141
-0.09949742303936485 -0.44178126607055884
-0.09949742303936485 -0.6236486975900516
-0.25905419823557846 -0.714582413349798
-0.34769685112236376 -0.6236486975900516
-0.41861097343179204 -0.5630262204168873
-0.36542538169972083 -0.5630262204168873
-0.2945112593902926 -0.6236486975900516
-0.25905419823557846 -0.8055161291095444
-0.2945112593902926 -0.9570723220424551
-0.27678272881293553 -0.8661386062827087
-0.2413256676582214 -0.7448936519363801
-0.22359713708086432 -0.5933374590034695
-0.2413256676582214 -0.44178126607055884
-0.22359713708086432 -0.44178126607055884
-0.25905419823557846 -0.502403743243723
-0.36542538169972083 -0.5933374590034695
-0.36542538169972083 -0.6539599361766337
-0.2945112593902926 -0.502403743243723
-0.27678272881293553 -0.25991383455106604
-0.2413256676582214 -0.22960259596448393
-0.134954484194079 -0.5630262204168873
-0.09949742303936485 -0.6539599361766337
-0.010854770152579518 -0.6842711747632159
0.024602291002134614 -0.5933374590034695
0.13097347446627702 -0.4114700274839767
0.2550731885077765 -0.502403743243723
0.2550731885077765 -0.5630262204168873
0.21961612735306235 -0.6236486975900516
0.11324494388891995 -0.44178126607055884
0.060059352156848746 -0.5327149818303052
-0.010854770152579518 -0.6539599361766337
-0.04631183130729365 -0.9570723220424551
-0.20586860650350725 -1.1389397535619479
-0.36542538169972083 -1.1995622307351121
-0.41861097343179204 -1.2298734693216942
-0.3831539122770779 -1.0480060378022014
-0.27678272881293553 -0.8661386062827087
-0.2413256676582214 -1.0480060378022014
-0.27678272881293553 -0.9873835606290372
-0.25905419823557846 -1.0176947992156193
-0.2413256676582214 -0.8964498448692908
-0.11722595361672192 -0.7752048905229623
-0.04631183130729365 -0.6842711747632159
-0.134954484194079 -0.8358273676961265
-0.2413256676582214 -0.9570723220424551
-0.2945112593902926 -1.0176947992156193
-0.25905419823557846 -0.8964498448692908
-0.25905419823557846 -0.7752048905229623
-0.27678272881293553 -0.714582413349798
-0.41861097343179204 -0.8661386062827087
-0.5249821568959344 -0.9570723220424551
-0.5781677486280057 -0.9570723220424551
-0.5249821568959344 -0.8358273676961265
-0.3831539122770779 -0.8964498448692908
-0.27678272881293553 -1.0176947992156193
-0.25905419823557846 -1.1389397535619479
-0.3122397899676496 -1.2601847079082764
-0.34769685112236376 -1.2601847079082764
-0.36542538169972083 -1.381429662254605
-0.36542538169972083 -1.3511184236680227
-0.400882442854435 -1.2298734693216942
-0.4363395040091491 -1.1086285149753656
-0.5249821568959344 -1.1086285149753656
-0.6136248097827197 -1.0176947992156193
-0.6136248097827197 -0.8964498448692908
-0.5781677486280057 -0.8055161291095444
-0.5604392180506486 -0.6539599361766337
-0.47179656516386326 -0.714582413349798
-0.4540680345865062 -0.8055161291095444
-0.4540680345865062 -0.9873835606290372
-0.4540680345865062 -1.1389397535619479
-0.4363395040091491 -1.1995622307351121
-0.34769685112236376 -1.2601847079082764
-0.2945112593902926 -1.2298734693216942
-0.3299683205450067 -1.1389397535619479
-0.4540680345865062 -1.16925099214853
-0.5072536263185774 -1.16925099214853
-0.5072536263185774 -0.9267610834558729
-0.41861097343179204 -0.9267610834558729
-0.4363395040091491 -0.6842711747632159
-0.5072536263185774 -0.5327149818303052
-0.5604392180506486 -0.5630262204168873
-0.400882442854435 -0.8661386062827087
0.11324494388891995 -1.2298734693216942
0.645100861209632 -1.2298734693216942
1.159228247952987 -1.16925099214853
1.7088126958510559 -1.411740900841187
2.2052115520170537 -2.1695218655057404
2.6129677552962662 -2.806057875823965
2.843438652801908 -3.1394815002763683
2.7016104081830514 -3.1091702616897865
2.240668613171768 -3.0182365459300398
1.5137988595001282 -3.048547784516622
0.3437158413945618 -2.8969915915837112
-0.9150098295977899 -2.654501682891054
-1.996450194816571 -2.0785881497459937
-2.5992202344467112 -1.7148532867070083
-2.6701343567561393 -1.5936083323606798
-2.386477867518426 -1.5936083323606798
-2.014178725393928 -1.5632970937740975
-1.748250766733572 -1.3511184236680227
-1.3404945634543595 -1.1995622307351121
-0.8972812990204329 -1.0480060378022014
-0.684538932092148 -1.0783172763887836
-0.666810401514791 -1.1086285149753656
-0.5958962792053627 -1.1995622307351121
-0.6136248097827197 -1.3208071850814407
-0.6136248097827197 -1.3208071850814407
-0.5604392180506486 -1.1995622307351121
-0.4363395040091491 -0.9873835606290372
-0.3299683205450067 -0.8358273676961265
-0.400882442854435 -0.8358273676961265
-0.3831539122770779 -0.9570723220424551
-0.34769685112236376 -1.1086285149753656
-0.2945112593902926 -1.1995622307351121
-0.2413256676582214 -1.16925099214853
-0.1704115453487931 -1.1389397535619479
-0.25905419823557846 -1.2298734693216942
-0.25905419823557846 -1.0783172763887836
-0.27678272881293553 -0.7448936519363801
-0.2413256676582214 -0.5630262204168873
-0.20586860650350725 -0.7448936519363801
-0.1704115453487931 -0.9570723220424551
-0.06404036188465072 -1.1389397535619479
0.024602291002134614 -1.0480060378022014
0.11324494388891995 -0.9873835606290372
0.1841590661983482 -0.9570723220424551
0.16643053562099114 -1.1995622307351121
0.1841590661983482 -1.4723633780143512
0.20188759677570528 -1.5632970937740975
0.20188759677570528 -1.3511184236680227
0.2550731885077765 -1.2298734693216942
0.396901433126633 -1.1389397535619479
0.5919152694775607 -1.1995622307351121
0.7160149835190602 -1.3208071850814407
0.7869291058284884 -1.4420521394277692
0.8046576364058455 -1.411740900841187
0.8755717587152738 -1.2298734693216942
0.8755717587152738 -1.2298734693216942
0.928757350447345 -1.3511184236680227
1.0174000033341304 -1.3208071850814407
0.9642144116020591 -1.4420521394277692
0.8755717587152738 -1.411740900841187
0.8401146975605597 -1.411740900841187
0.928757350447345 -1.3511184236680227
1.0528570644888444 -1.4420521394277692
1.0883141256435587 -1.4723633780143512
1.0705855950662015 -1.5936083323606798
1.0883141256435587 -1.5026746166009335
1.1414997173756298 -1.1995622307351121
1.1414997173756298 -1.0176947992156193
1.1414997173756298 -0.9267610834558729
1.1060426562209156 -0.9873835606290372
1.0883141256435587 -1.2601847079082764
1.0351285339114873 -1.3208071850814407
1.0528570644888444 -1.411740900841187
1.0351285339114873 -1.3511184236680227
0.9819429421794161 -1.3208071850814407
0.911028819869988 -1.5329858551875155
0.8933002892926308 -1.5026746166009335
0.662829391786989 -1.5026746166009335
0.43235849428134715 -1.16925099214853
0.30825878023984765 -0.9570723220424551
0.3259873108172047 -0.9267610834558729
0.2905302496624906 -1.0480060378022014
0.14870200504363407 -1.1086285149753656
-0.028583300729936582 -0.8964498448692908
-0.134954484194079 -0.6842711747632159
-0.08176889246200779 -0.502403743243723
-0.010854770152579518 -0.6842711747632159
0.024602291002134614 -0.9267610834558729
-0.06404036188465072 -1.1389397535619479
-0.1704115453487931 -1.1389397535619479
-0.20586860650350725 -1.0480060378022014
-0.20586860650350725 -0.9267610834558729
-0.18814007592615017 -0.8055161291095444
-0.25905419823557846 -0.9267610834558729
-0.41861097343179204 -0.8055161291095444
-0.5072536263185774 -0.714582413349798
-0.5249821568959344 -0.5630262204168873
-0.5958962792053627 -0.6236486975900516
-0.5958962792053627 -0.714582413349798
-0.5604392180506486 -0.714582413349798
-0.4540680345865062 -0.6539599361766337
-0.400882442854435 -0.6539599361766337
-0.400882442854435 -0.7448936519363801
-0.48952509574122033 -0.8358273676961265
-0.5072536263185774 -1.0176947992156193
-0.5072536263185774 -1.0783172763887836
-0.41861097343179204 -1.0480060378022014
-0.41861097343179204 -0.8661386062827087
-0.400882442854435 -0.6539599361766337
-0.3831539122770779 -0.5327149818303052
-0.36542538169972083 -0.6539599361766337
-0.2945112593902926 -0.8055161291095444
-0.22359713708086432 -0.9873835606290372
-0.2413256676582214 -0.9267610834558729
-0.36542538169972083 -0.8964498448692908
-0.3831539122770779 -0.5933374590034695
-0.36542538169972083 -0.4114700274839767
-0.36542538169972083 -0.4114700274839767
-0.400882442854435 -0.472092504657141
-0.41861097343179204 -0.502403743243723
-0.3299683205450067 -0.5327149818303052
-0.15268301477143606 -0.472092504657141
0.024602291002134614 -0.44178126607055884
0.006873760424777549 -0.502403743243723
-0.18814007592615017 -0.5327149818303052
-0.3831539122770779 -0.4114700274839767
-0.400882442854435 -0.4114700274839767
-0.2945112593902926 -0.502403743243723
-0.15268301477143606 -0.714582413349798
-0.134954484194079 -0.8661386062827087
-0.22359713708086432 -0.8055161291095444
-0.3831539122770779 -0.6539599361766337
-0.4540680345865062 -0.6842711747632159
-0.4540680345865062 -0.6236486975900516
-0.400882442854435 -0.9267610834558729
-0.400882442854435 -1.0176947992156193
-0.3831539122770779 -1.0176947992156193
-0.400882442854435 -0.8661386062827087
-0.400882442854435 -0.6539599361766337
-0.34769685112236376 -0.6236486975900516
-0.34769685112236376 -0.6236486975900516
-0.48952509574122033 -0.6539599361766337
-0.5958962792053627 -0.6842711747632159
-0.5958962792053627 -0.502403743243723
-0.5781677486280057 -0.472092504657141
-0.5427106874732915 -0.5327149818303052
-0.4363395040091491 -0.6842711747632159
-0.4363395040091491 -0.8055161291095444
-0.400882442854435 -0.7752048905229623
-0.34769685112236376 -0.8055161291095444
-0.22359713708086432 -0.6236486975900516
-0.134954484194079 -0.5327149818303052
-0.20586860650350725 -0.3205363117242303
-0.47179656516386326 -0.4114700274839767
-0.8086386461336474 -0.502403743243723
-0.8618242378657187 -0.44178126607055884
-0.6313533403600768 -0.44178126607055884
-0.3122397899676496 -0.5630262204168873
-0.20586860650350725 -0.8055161291095444
-0.25905419823557846 -1.0480060378022014
-0.5781677486280057 -0.8661386062827087
-0.8263671767110046 -0.714582413349798
-0.8618242378657187 -0.472092504657141
-0.6490818709374339 -0.25991383455106604
-0.41861097343179204 -0.29022507313764817
-0.3299683205450067 -0.472092504657141
-0.47179656516386326 -0.6842711747632159
-0.5604392180506486 -0.6842711747632159
-0.5072536263185774 -0.6236486975900516
-0.4363395040091491 -0.5630262204168873
-0.4540680345865062 -0.6236486975900516
-0.6490818709374339 -0.6539599361766337
-0.8263671767110046 -0.5630262204168873
-0.7909101155562904 -0.29022507313764817
-0.5781677486280057 -0.16898011879131966
-0.41861097343179204 -0.1992913573779018
-0.34769685112236376 -0.1992913573779018
-0.4363395040091491 -0.44178126607055884
-0.5604392180506486 -0.5630262204168873
-0.5958962792053627 -0.4114700274839767
-0.5072536263185774 -0.07804640303157327
-0.06404036188465072 0.1947547442476659
0.5564582083228466 -0.13866888020473753
1.2124138396850581 -0.5630262204168873
1.8506409404699125 -1.0176947992156193
2.524325102409481 -1.3208071850814407
3.056181019730193 -1.5936083323606798
3.393023100699977 -1.8664094796399189
3.658951059360333 -2.0785881497459937
3.4284801618546914 -2.4423230127849793
2.77252453049248 -2.7151241600642186
1.9570121239340548 -2.654501682891054
0.9464858810247021 -2.3817005356118153
-0.20586860650350725 -2.0785881497459937
-1.2873089717222883 -1.9573431953996654
-2.1737355005901415 -1.7754757638801726
-2.6346772956014255 -1.7451645252935903
-2.581491703869354 -1.411740900841187
-2.067364317125999 -0.9570723220424551
-1.5709654609600014 -0.7752048905229623
-1.3227660328770023 -0.6236486975900516
-1.180937788258146 -0.6539599361766337
-0.950466890752504 -0.6539599361766337
-0.5958962792053627 -0.6236486975900516
-0.3831539122770779 -0.5630262204168873
-0.3122397899676496 -0.44178126607055884
-0.4363395040091491 -0.3811587888973946
-0.5249821568959344 -0.502403743243723
-0.5072536263185774 -0.44178126607055884
-0.48952509574122033 -0.502403743243723
-0.5604392180506486 -0.44178126607055884
-0.5072536263185774 -0.22960259596448393
-0.5072536263185774 -0.22960259596448393
-0.48952509574122033 -0.1992913573779018
-0.5072536263185774 -0.1992913573779018
-0.5072536263185774 -0.1992913573779018
-0.4540680345865062 -0.1992913573779018
-0.2945112593902926 -0.07804640303157327
-0.134954484194079 -0.25991383455106604
-0.04631183130729365 -0.3205363117242303
-0.010854770152579518 -0.5327149818303052
-0.028583300729936582 -0.44178126607055884
-0.06404036188465072 -0.3811587888973946
-0.134954484194079 -0.16898011879131966
-0.08176889246200779 -0.13866888020473753
-0.09949742303936485 -0.16898011879131966
-0.134954484194079 -0.35084755031081244
-0.028583300729936582 -0.5933374590034695
0.13097347446627702 -0.5933374590034695
0.2905302496624906 -0.5327149818303052
0.37917290254927594 -0.6236486975900516
0.36144437197191887 -0.5327149818303052
0.2905302496624906 -0.6842711747632159
0.30825878023984765 -0.6236486975900516
0.5032726165907754 -0.502403743243723
0.662829391786989 -0.3811587888973946
0.662829391786989 -0.35084755031081244
0.645100861209632 -0.5630262204168873
0.7337435140964172 -0.5933374590034695
0.8578432281379167 -0.6539599361766337
0.928757350447345 -0.714582413349798
0.911028819869988 -0.6539599361766337
0.8401146975605597 -0.6539599361766337
0.8401146975605597 -0.7752048905229623
0.8578432281379167 -0.8055161291095444
0.9464858810247021 -0.8964498448692908
1.0351285339114873 -0.714582413349798
1.1414997173756298 -0.5933374590034695
1.2478709008397721 -0.5933374590034695
1.230142370262415 -0.6842711747632159
1.194685309107701 -0.8358273676961265
1.1414997173756298 -0.7448936519363801
1.159228247952987 -0.6236486975900516
1.230142370262415 -0.44178126607055884
1.3542420843039147 -0.472092504657141
1.4074276760359858 -0.6842711747632159
1.3719706148812716 -0.714582413349798
1.2655994314171293 -0.6842711747632159
1.230142370262415 -0.5630262204168873
1.230142370262415 -0.5327149818303052
1.194685309107701 -0.5327149818303052
1.1414997173756298 -0.6236486975900516
1.0351285339114873 -0.6236486975900516
0.8578432281379167 -0.5630262204168873
0.6982864529417031 -0.3811587888973946
0.5919152694775607 -0.13866888020473753
0.5741867389002037 -0.017423925858409007
0.5210011471681325 -0.04773516444499114
0.4500870248587042 -0.1992913573779018
0.396901433126633 -0.35084755031081244
0.30825878023984765 -0.472092504657141
0.2550731885077765 -0.3811587888973946
0.16643053562099114 -0.44178126607055884
0.024602291002134614 -0.4114700274839767
-0.06404036188465072 -0.502403743243723
-0.1704115453487931 -0.3811587888973946
-0.18814007592615017 -0.29022507313764817
-0.1704115453487931 -0.13866888020473753
-0.134954484194079 -0.13866888020473753
-0.22359713708086432 -0.22960259596448393
-0.2945112593902926 -0.10835764161815539
-0.34769685112236376 -0.07804640303157327
-0.3299683205450067 -0.017423925858409007
-0.3299683205450067 0.07350978990133739
-0.27678272881293553 -0.07804640303157327
-0.3122397899676496 -0.22960259596448393
-0.3831539122770779 -0.29022507313764817
-0.48952509574122033 -0.29022507313764817
-0.4363395040091491 -0.16898011879131966
-0.34769685112236376 -0.017423925858409007
-0.36542538169972083 -0.07804640303157327
-0.34769685112236376 -0.10835764161815539
-0.3831539122770779 -0.3205363117242303
-0.3831539122770779 -0.29022507313764817
-0.400882442854435 -0.1992913573779018
-0.36542538169972083 -0.10835764161815539
-0.36542538169972083 0.07350978990133739
-0.3122397899676496 0.012887312728173124
-0.3299683205450067 -0.04773516444499114
-0.34769685112236376 -0.017423925858409007
-0.3122397899676496 0.10382102848791952
-0.2413256676582214 0.16444350566108376
-0.20586860650350725 0.16444350566108376
-0.18814007592615017 0.012887312728173124
-0.18814007592615017 -0.04773516444499114
-0.18814007592615017 0.07350978990133739
-0.134954484194079 0.10382102848791952
-0.04631183130729365 0.28568846000741227
-0.010854770152579518 0.2553772214208302
-0.028583300729936582 0.22506598283424803
-0.04631183130729365 0.04319855131475525
-0.010854770152579518 0.2553772214208302
0.04233082157949168 0.2553772214208302
0.07778788273420581 0.1947547442476659
0.024602291002134614 0.10382102848791952
-0.09949742303936485 -0.22960259596448393
-0.22359713708086432 -0.25991383455106604
-0.2413256676582214 -0.25991383455106604
-0.22359713708086432 -0.04773516444499114
-0.18814007592615017 0.012887312728173124
-0.18814007592615017 0.012887312728173124
-0.20586860650350725 -0.10835764161815539
-0.20586860650350725 -0.16898011879131966
-0.2413256676582214 -0.07804640303157327
-0.25905419823557846 0.012887312728173124
-0.25905419823557846 0.22506598283424803
-0.20586860650350725 0.10382102848791952
-0.22359713708086432 0.07350978990133739
-0.27678272881293553 -0.017423925858409007
-0.3122397899676496 0.13413226707450165
-0.3831539122770779 0.16444350566108376
-0.400882442854435 0.22506598283424803
-0.3831539122770779 0.07350978990133739
-0.41861097343179204 0.012887312728173124
-0.4540680345865062 -0.017423925858409007
-0.48952509574122033 -0.04773516444499114
-0.48952509574122033 0.10382102848791952
-0.4363395040091491 0.22506598283424803
-0.27678272881293553 0.1947547442476659
-0.27678272881293553 0.10382102848791952
-0.400882442854435 -0.017423925858409007
-0.47179656516386326 0.07350978990133739
-0.4540680345865062 0.22506598283424803
-0.3831539122770779 0.3766221757671587
-0.400882442854435 0.34631093718057654
-0.34769685112236376 0.2553772214208302
-0.3831539122770779 0.012887312728173124
-0.3831539122770779 0.07350978990133739
-0.3831539122770779 0.22506598283424803
-0.3299683205450067 0.34631093718057654
-0.25905419823557846 0.3159996985939944
-0.25905419823557846 0.16444350566108376
-0.34769685112236376 0.04319855131475525
-0.4540680345865062 0.10382102848791952
-0.4540680345865062 0.012887312728173124
-0.3831539122770779 0.16444350566108376
-0.2945112593902926 0.10382102848791952
-0.2945112593902926 0.07350978990133739
-0.36542538169972083 0.10382102848791952
-0.4540680345865062 0.10382102848791952
-0.47179656516386326 0.28568846000741227
-0.3831539122770779 0.28568846000741227
-0.3299683205450067 0.3159996985939944
-0.3831539122770779 0.16444350566108376
-0.5427106874732915 0.22506598283424803
-0.5072536263185774 0.3766221757671587
-0.27678272881293553 0.5888008458732336
0.13097347446627702 0.67973456163298
0.7692005752511314 0.43724465294032294
1.3365135537265576 0.13413226707450165
1.992469185088769 -0.3205363117242303
2.6484248164509805 -0.6539599361766337
3.2157377949264063 -0.9267610834558729
3.6766795899376903 -1.1389397535619479
3.9603360791754034 -1.5026746166009335
3.871693426288618 -1.8967207182265011
3.339837508967906 -2.139210626919158
2.595239224718909 -2.2301443426789045
1.6910841652736988 -2.048276911159412
0.5032726165907754 -1.8360982410533369
-0.7731815849789334 -1.7754757638801726
-1.9078075419297855 -1.684542048120426
-2.563763173291997 -1.5632970937740975
-2.6169487650240684 -1.1995622307351121
-2.1560069700127844 -0.5630262204168873
-1.6418795832694295 -0.017423925858409007
-1.2695804411449312 0.07350978990133739
-1.0391095436392894 0.22506598283424803
-0.8972812990204329 0.13413226707450165
-0.6490818709374339 0.1947547442476659
-0.47179656516386326 0.2553772214208302
-0.400882442854435 0.2553772214208302
-0.34769685112236376 0.1947547442476659
-0.34769685112236376 0.13413226707450165
-0.3299683205450067 0.2553772214208302
-0.3299683205450067 0.28568846000741227
-0.22359713708086432 0.4675558915269051
-0.1704115453487931 0.5888008458732336
-0.15268301477143606 0.5888008458732336
-0.20586860650350725 0.4675558915269051
-0.27678272881293553 0.28568846000741227
-0.22359713708086432 0.2553772214208302
-0.134954484194079 0.3766221757671587
-0.06404036188465072 0.4675558915269051
-0.028583300729936582 0.5281783687000693
-0.028583300729936582 0.3159996985939944
-0.04631183130729365 0.3159996985939944
0.060059352156848746 0.34631093718057654
0.1841590661983482 0.4675558915269051
0.2905302496624906 0.67973456163298
0.30825878023984765 0.5888008458732336
0.27280171908513356 0.4069334143537408
0.23734465793041942 0.28568846000741227
0.2550731885077765 0.3766221757671587
0.3259873108172047 0.43724465294032294
0.5032726165907754 0.4675558915269051
0.5741867389002037 0.5281783687000693
0.6805579223643461 0.3766221757671587
0.7337435140964172 0.34631093718057654
0.7337435140964172 0.28568846000741227
0.8401146975605597 0.3766221757671587
0.9642144116020591 0.43724465294032294
1.1414997173756298 0.4675558915269051
1.1237711867982727 0.34631093718057654
1.0528570644888444 0.22506598283424803
1.0351285339114873 0.2553772214208302
1.1769567785303439 0.28568846000741227
1.2655994314171293 0.3766221757671587
1.3365135537265576 0.3766221757671587
1.3365135537265576 0.2553772214208302
1.3187850231492004 0.1947547442476659
1.4074276760359858 0.1947547442476659
1.496070328922771 0.28568846000741227
1.5315273900774853 0.4069334143537408
1.5847129818095564 0.3766221757671587
1.5669844512321993 0.3766221757671587
1.460613267768057 0.2553772214208302
1.4428847371906999 0.22506598283424803
1.460613267768057 0.2553772214208302
1.460613267768057 0.3159996985939944
1.460613267768057 0.3766221757671587
1.3719706148812716 0.3159996985939944
1.2655994314171293 0.22506598283424803
1.1237711867982727 0.28568846000741227
1.1237711867982727 0.43724465294032294
1.0528570644888444 0.5281783687000693
1.0174000033341304 0.5281783687000693
0.8578432281379167 0.4675558915269051
0.7514720446737744 0.5281783687000693
0.645100861209632 0.6191120844598157
0.6273723306322748 0.7706682773927264
0.6096438000549178 0.8919132317390549
0.5564582083228466 0.9525357089122192
0.4146299637039901 0.8616019931524728
0.20188759677570528 0.8009795159793085
-0.028583300729936582 0.8919132317390549
0.006873760424777549 0.8312907545658906
0.09551641331156288 0.8919132317390549
0.11324494388891995 0.8009795159793085
0.04233082157949168 0.7706682773927264
-0.134954484194079 0.7100458002195621
-0.15268301477143606 0.7403570388061442
-0.1704115453487931 0.8312907545658906
-0.06404036188465072 0.9525357089122192
-0.010854770152579518 0.8919132317390549
-0.09949742303936485 0.8312907545658906
-0.18814007592615017 0.7403570388061442
-0.2413256676582214 0.922224470325637
-0.20586860650350725 1.0737806632585476
-0.15268301477143606 1.1040919018451298
-0.1704115453487931 1.0737806632585476
