-0.2413256676582214 0.9525357089122192
-0.25905419823557846 0.9828469474988013
-0.3299683205450067 0.8009795159793085
-0.3831539122770779 0.8919132317390549
-0.3299683205450067 0.922224470325637
-0.3122397899676496 0.8616019931524728
-0.25905419823557846 0.9828469474988013
-0.25905419823557846 0.922224470325637
-0.2945112593902926 0.7706682773927264
-0.3299683205450067 0.8919132317390549
-0.2945112593902926 0.922224470325637
-0.2945112593902926 1.1040919018451298
-0.3122397899676496 1.1344031404317119
-0.2945112593902926 1.1950256176048761
-0.22359713708086432 1.2253368561914584
-0.028583300729936582 1.1344031404317119
0.37917290254927594 1.0737806632585476
0.8933002892926308 0.9828469474988013
1.3542420843039147 0.67973456163298
1.7974553487378413 0.28568846000741227
2.3647683272132674 -0.04773516444499114
2.790253061069837 -0.472092504657141
3.1448236726169783 -0.714582413349798
3.2334663255037634 -0.9267610834558729
3.0029954279981217 -1.16925099214853
2.506596571832124 -1.2904959464948584
1.9570121239340548 -1.3208071850814407
1.1237711867982727 -1.16925099214853
0.024602291002134614 -0.9570723220424551
-1.0391095436392894 -0.5327149818303052
-1.8368934196203572 -0.29022507313764817
-2.4042063980957833 -0.13866888020473753
-2.54603464271464 -0.10835764161815539
-2.315563745208998 0.1947547442476659
-1.9255360725071426 0.43724465294032294
-1.6596081138467866 0.7100458002195621
-1.4468657469185018 0.8312907545658906
-1.180937788258146 0.8312907545658906
-0.9150098295977899 0.8009795159793085
-0.7554530544015763 0.8009795159793085
-0.5781677486280057 0.922224470325637
-0.4363395040091491 0.8919132317390549
-0.3122397899676496 0.922224470325637
-0.2945112593902926 0.8312907545658906
-0.2945112593902926 0.8009795159793085
-0.2945112593902926 0.8312907545658906
-0.25905419823557846 0.922224470325637
-0.18814007592615017 0.9828469474988013
-0.134954484194079 1.0737806632585476
-0.08176889246200779 0.8919132317390549
-0.09949742303936485 0.8616019931524728
-0.11722595361672192 0.922224470325637
-0.11722595361672192 0.922224470325637
-0.06404036188465072 1.0434694246719656
0.024602291002134614 1.0131581860853833
0.006873760424777549 0.9525357089122192
-0.028583300729936582 0.8616019931524728
0.006873760424777549 0.8919132317390549
0.024602291002134614 0.922224470325637
0.11324494388891995 1.1040919018451298
0.14870200504363407 1.0131581860853833
0.16643053562099114 0.9525357089122192
0.16643053562099114 0.8919132317390549
0.11324494388891995 0.8312907545658906
0.13097347446627702 0.8919132317390549
0.2550731885077765 0.9525357089122192
0.3259873108172047 0.9828469474988013
0.37917290254927594 0.8919132317390549
0.3437158413945618 0.8009795159793085
0.3437158413945618 0.8009795159793085
0.43235849428134715 0.922224470325637
0.4855440860134183 0.922224470325637
0.5741867389002037 0.9525357089122192
0.5919152694775607 0.8312907545658906
0.5564582083228466 0.7100458002195621
0.5919152694775607 0.67973456163298
0.662829391786989 0.7706682773927264
0.7514720446737744 0.8312907545658906
0.8578432281379167 0.8009795159793085
0.8933002892926308 0.67973456163298
0.8755717587152738 0.6494233230463978
0.8933002892926308 0.5584896072866514
0.928757350447345 0.6494233230463978
1.0351285339114873 0.7403570388061442
1.0883141256435587 0.7403570388061442
1.159228247952987 0.67973456163298
1.1769567785303439 0.6191120844598157
1.1769567785303439 0.4978671301134872
1.1769567785303439 0.6191120844598157
1.2655994314171293 0.6494233230463978
1.3719706148812716 0.67973456163298
1.3719706148812716 0.5584896072866514
1.3365135537265576 0.5584896072866514
1.3010564925718433 0.43724465294032294
1.3542420843039147 0.4675558915269051
1.4074276760359858 0.5584896072866514
1.4251562066133427 0.6494233230463978
1.4428847371906999 0.5584896072866514
1.4074276760359858 0.5281783687000693
1.3896991454586287 0.5888008458732336
1.3719706148812716 0.5584896072866514
1.3896991454586287 0.7100458002195621
1.4783417983454141 0.7100458002195621
1.3896991454586287 0.6494233230463978
1.2655994314171293 0.6494233230463978
1.194685309107701 0.5888008458732336
1.1237711867982727 0.6494233230463978
1.1414997173756298 0.7100458002195621
1.194685309107701 0.8616019931524728
1.0528570644888444 0.8009795159793085
0.9464858810247021 0.6494233230463978
0.8046576364058455 0.7706682773927264
0.7869291058284884 0.8312907545658906
0.7514720446737744 0.9525357089122192
0.6982864529417031 0.922224470325637
0.5741867389002037 0.9525357089122192
0.4855440860134183 0.8312907545658906
0.37917290254927594 0.8919132317390549
0.30825878023984765 0.9828469474988013
0.30825878023984765 1.0737806632585476
0.2905302496624906 1.1040919018451298
0.23734465793041942 1.0434694246719656
0.14870200504363407 0.9525357089122192
0.060059352156848746 0.8312907545658906
0.024602291002134614 1.0434694246719656
0.060059352156848746 1.0737806632585476
0.060059352156848746 1.164714379018294
0.060059352156848746 1.0131581860853833
-0.04631183130729365 0.9525357089122192
-0.11722595361672192 0.8616019931524728
-0.09949742303936485 1.0131581860853833
-0.06404036188465072 1.1344031404317119
-0.04631183130729365 1.0737806632585476
-0.08176889246200779 0.9828469474988013
-0.09949742303936485 0.9525357089122192
-0.15268301477143606 0.9828469474988013
-0.15268301477143606 1.0434694246719656
-0.134954484194079 1.1040919018451298
-0.09949742303936485 1.1344031404317119
-0.08176889246200779 1.0434694246719656
-0.09949742303936485 0.9828469474988013
-0.134954484194079 1.0131581860853833
-0.134954484194079 1.0434694246719656
-0.06404036188465072 1.1344031404317119
0.04233082157949168 1.1344031404317119
0.024602291002134614 1.1040919018451298
0.006873760424777549 0.8919132317390549
-0.04631183130729365 0.9828469474988013
-0.06404036188465072 1.0131581860853833
-0.010854770152579518 1.1040919018451298
0.07778788273420581 1.164714379018294
0.060059352156848746 1.1344031404317119
0.060059352156848746 1.1040919018451298
0.024602291002134614 1.0737806632585476
0.060059352156848746 1.1950256176048761
0.13097347446627702 1.3162705719512047
0.1841590661983482 1.2556480947780404
0.20188759677570528 1.2253368561914584
0.11324494388891995 1.164714379018294
0.09551641331156288 1.164714379018294
0.16643053562099114 1.1950256176048761
0.23734465793041942 1.1950256176048761
0.3259873108172047 1.3162705719512047
0.30825878023984765 1.1950256176048761
0.3437158413945618 1.1344031404317119
0.3259873108172047 1.1344031404317119
0.3437158413945618 1.1344031404317119
0.43235849428134715 1.1344031404317119
0.4500870248587042 1.1344031404317119
0.36144437197191887 1.0131581860853833
0.23734465793041942 0.922224470325637
0.11324494388891995 0.8919132317390549
0.1841590661983482 0.8919132317390549
0.1841590661983482 1.0131581860853833
0.21961612735306235 0.9525357089122192
0.1841590661983482 0.8616019931524728
0.14870200504363407 0.8009795159793085
0.04233082157949168 0.8616019931524728
0.04233082157949168 0.8919132317390549
0.13097347446627702 1.0131581860853833
0.20188759677570528 0.9525357089122192
0.1841590661983482 1.0131581860853833
0.09551641331156288 0.8312907545658906
-0.04631183130729365 0.8616019931524728
-0.06404036188465072 1.0131581860853833
-0.010854770152579518 1.0737806632585476
0.04233082157949168 1.0434694246719656
0.060059352156848746 0.9828469474988013
-0.010854770152579518 0.922224470325637
-0.08176889246200779 0.8009795159793085
-0.04631183130729365 0.922224470325637
0.006873760424777549 0.9525357089122192
0.060059352156848746 1.0434694246719656
0.006873760424777549 0.9525357089122192
0.006873760424777549 0.8616019931524728
-0.04631183130729365 0.8312907545658906
-0.028583300729936582 0.922224470325637
0.024602291002134614 0.9828469474988013
0.006873760424777549 1.0434694246719656
-0.010854770152579518 0.9525357089122192
-0.010854770152579518 0.8919132317390549
-0.028583300729936582 0.8919132317390549
-0.04631183130729365 0.922224470325637
0.04233082157949168 1.0434694246719656
0.04233082157949168 1.0737806632585476
0.024602291002134614 1.0131581860853833
-0.04631183130729365 0.8616019931524728
-0.06404036188465072 0.9828469474988013
-0.04631183130729365 1.0131581860853833
-0.028583300729936582 1.1040919018451298
0.006873760424777549 1.0131581860853833
-0.010854770152579518 1.0434694246719656
-0.04631183130729365 0.9525357089122192
-0.06404036188465072 0.922224470325637
-0.09949742303936485 1.0434694246719656
0.006873760424777549 1.0737806632585476
0.024602291002134614 0.9828469474988013
0.024602291002134614 0.9828469474988013
-0.010854770152579518 0.8919132317390549
-0.06404036188465072 0.8616019931524728
-0.06404036188465072 0.922224470325637
-0.028583300729936582 1.0131581860853833
-0.04631183130729365 1.0737806632585476
-0.08176889246200779 1.0434694246719656
-0.11722595361672192 1.1344031404317119
0.006873760424777549 1.164714379018294
0.37917290254927594 1.1950256176048761
0.8046576364058455 1.1950256176048761
1.3542420843039147 1.0131581860853833
1.8151838793151982 0.7100458002195621
2.2052115520170537 0.43724465294032294
2.7016104081830514 0.07350978990133739
3.2334663255037634 -0.07804640303157327
3.6766795899376903 -0.3811587888973946
3.924879018020689 -0.6842711747632159
3.9603360791754034 -1.1086285149753656
3.4639372230094057 -1.4420521394277692
2.807981591647194 -1.5026746166009335
2.04565477682084 -1.3511184236680227
0.9819429421794161 -1.1389397535619479
-0.20586860650350725 -0.9873835606290372
-1.3582230940317166 -0.6539599361766337
-2.1560069700127844 -0.6236486975900516
-2.3687493369410695 -0.29022507313764817
-2.049635786548642 0.10382102848791952
-1.5532369303826443 0.5584896072866514
-1.198666318835503 0.7706682773927264
-0.932738360175147 0.8312907545658906
-0.7554530544015763 0.7403570388061442
-0.5249821568959344 0.7403570388061442
-0.36542538169972083 0.8312907545658906
-0.20586860650350725 0.8616019931524728
-0.11722595361672192 0.9828469474988013
-0.04631183130729365 0.8616019931524728
-0.04631183130729365 0.7706682773927264
-0.06404036188465072 0.8312907545658906
-0.06404036188465072 0.8616019931524728
0.04233082157949168 1.0434694246719656
0.13097347446627702 1.0737806632585476
0.16643053562099114 0.9828469474988013
0.13097347446627702 0.8312907545658906
0.09551641331156288 0.922224470325637
0.13097347446627702 0.9525357089122192
0.1841590661983482 0.9828469474988013
0.27280171908513356 0.9828469474988013
0.27280171908513356 0.8616019931524728
0.2905302496624906 0.8616019931524728
0.23734465793041942 0.8009795159793085
0.27280171908513356 0.8616019931524728
0.30825878023984765 0.9525357089122192
0.4500870248587042 0.9525357089122192
0.4678155554360613 0.9525357089122192
0.4146299637039901 0.8009795159793085
0.36144437197191887 0.8312907545658906
0.4500870248587042 0.8919132317390549
0.5564582083228466 0.9828469474988013
0.6273723306322748 0.9828469474988013
0.662829391786989 0.922224470325637
0.6805579223643461 0.7403570388061442
0.7160149835190602 0.7706682773927264
0.7337435140964172 0.7706682773927264
0.8578432281379167 0.9828469474988013
0.9464858810247021 0.922224470325637
0.9642144116020591 0.8009795159793085
1.0351285339114873 0.6494233230463978
1.0528570644888444 0.67973456163298
1.0883141256435587 0.7403570388061442
1.2124138396850581 0.8009795159793085
1.2833279619944864 0.7706682773927264
1.3187850231492004 0.7100458002195621
1.3542420843039147 0.6494233230463978
1.3542420843039147 0.5584896072866514
1.4074276760359858 0.6494233230463978
1.4428847371906999 0.7100458002195621
1.5492559206548424 0.7403570388061442
1.5669844512321993 0.6191120844598157
1.5492559206548424 0.5584896072866514
1.5492559206548424 0.5584896072866514
1.5847129818095564 0.6191120844598157
1.6024415123869136 0.67973456163298
1.6733556346963419 0.8009795159793085
1.6910841652736988 0.6494233230463978
1.6556271041189847 0.5584896072866514
1.6201700429642705 0.4675558915269051
1.5669844512321993 0.6191120844598157
1.6201700429642705 0.7706682773927264
1.6733556346963419 0.8009795159793085
1.5669844512321993 0.7403570388061442
1.5315273900774853 0.67973456163298
1.460613267768057 0.6191120844598157
1.3719706148812716 0.7706682773927264
1.3365135537265576 0.8919132317390549
1.2478709008397721 0.922224470325637
1.1769567785303439 0.7706682773927264
1.0351285339114873 0.8312907545658906
0.928757350447345 0.8312907545658906
0.8401146975605597 0.922224470325637
0.8046576364058455 1.0737806632585476
0.7692005752511314 1.1040919018451298
0.645100861209632 1.0131581860853833
0.5387296777454895 0.922224470325637
0.43235849428134715 1.0434694246719656
0.36144437197191887 1.1344031404317119
0.37917290254927594 1.2253368561914584
0.37917290254927594 1.1950256176048761
0.27280171908513356 1.1344031404317119
0.1841590661983482 1.0434694246719656
0.14870200504363407 0.9828469474988013
0.11324494388891995 1.0737806632585476
0.14870200504363407 1.1950256176048761
0.16643053562099114 1.1344031404317119
0.09551641331156288 1.164714379018294
0.060059352156848746 1.0737806632585476
-0.010854770152579518 1.0434694246719656
0.006873760424777549 1.1040919018451298
0.006873760424777549 1.1950256176048761
0.04233082157949168 1.1950256176048761
0.04233082157949168 1.0737806632585476
-0.010854770152579518 0.9525357089122192
-0.08176889246200779 0.9828469474988013
-0.04631183130729365 1.0737806632585476
-0.028583300729936582 1.1040919018451298
0.024602291002134614 1.164714379018294
0.006873760424777549 1.1040919018451298
-0.06404036188465072 0.922224470325637
-0.06404036188465072 0.9828469474988013
-0.08176889246200779 1.0737806632585476
0.024602291002134614 1.1950256176048761
0.07778788273420581 1.2253368561914584
0.04233082157949168 1.1950256176048761
0.024602291002134614 1.0131581860853833
-0.028583300729936582 1.0737806632585476
-0.028583300729936582 1.1950256176048761
0.024602291002134614 1.3162705719512047
0.13097347446627702 1.2859593333646226
0.09551641331156288 1.2859593333646226
0.07778788273420581 1.1950256176048761
0.024602291002134614 1.2253368561914584
0.07778788273420581 1.3162705719512047
0.16643053562099114 1.4678267648841155
0.27280171908513356 1.4072042877109512
0.27280171908513356 1.3162705719512047
0.2550731885077765 1.1950256176048761
0.2550731885077765 1.1344031404317119
0.27280171908513356 1.1950256176048761
0.2905302496624906 1.2253368561914584
0.2550731885077765 1.2253368561914584
0.1841590661983482 1.0434694246719656
0.04233082157949168 0.922224470325637
-0.010854770152579518 0.922224470325637
0.060059352156848746 0.9525357089122192
0.09551641331156288 1.1040919018451298
0.13097347446627702 1.1040919018451298
0.07778788273420581 1.0737806632585476
-0.028583300729936582 0.8919132317390549
-0.06404036188465072 0.922224470325637
-0.06404036188465072 0.9828469474988013
-0.06404036188465072 1.0434694246719656
0.060059352156848746 1.0737806632585476
0.024602291002134614 1.0737806632585476
-0.010854770152579518 0.9828469474988013
-0.08176889246200779 0.9525357089122192
-0.15268301477143606 1.0434694246719656
-0.1704115453487931 1.1344031404317119
-0.134954484194079 1.1344031404317119
-0.134954484194079 1.0737806632585476
-0.18814007592615017 0.9828469474988013
-0.25905419823557846 0.9828469474988013
-0.18814007592615017 1.0737806632585476
-0.1704115453487931 1.1344031404317119
-0.09949742303936485 1.1344031404317119
-0.11722595361672192 1.0131581860853833
-0.134954484194079 0.9525357089122192
-0.20586860650350725 0.9828469474988013
-0.22359713708086432 1.0737806632585476
-0.1704115453487931 1.0434694246719656
-0.134954484194079 1.0737806632585476
-0.15268301477143606 1.1040919018451298
-0.15268301477143606 1.0131581860853833
-0.2413256676582214 1.0131581860853833
-0.22359713708086432 1.0131581860853833
-0.20586860650350725 1.164714379018294
-0.09949742303936485 1.164714379018294
-0.15268301477143606 1.0737806632585476
-0.22359713708086432 1.0434694246719656
-0.2413256676582214 0.9525357089122192
-0.22359713708086432 1.1344031404317119
-0.20586860650350725 1.164714379018294
-0.1704115453487931 1.164714379018294
-0.20586860650350725 1.0131581860853833
-0.20586860650350725 1.0434694246719656
-0.25905419823557846 0.9828469474988013
-0.27678272881293553 1.0434694246719656
-0.22359713708086432 1.0737806632585476
-0.15268301477143606 1.1040919018451298
-0.134954484194079 0.9828469474988013
-0.18814007592615017 0.9828469474988013
-0.18814007592615017 0.9525357089122192
-0.20586860650350725 0.9828469474988013
-0.18814007592615017 1.1040919018451298
-0.134954484194079 1.1040919018451298
-0.20586860650350725 1.164714379018294
-0.25905419823557846 1.1040919018451298
-0.2945112593902926 1.2253368561914584
-0.15268301477143606 1.4072042877109512
0.11324494388891995 1.4072042877109512
0.6273723306322748 1.346581810537787
1.159228247952987 1.1344031404317119
1.6910841652736988 0.7403570388061442
2.1342974297076256 0.4675558915269051
2.7016104081830514 0.3159996985939944
3.2511948560811206 0.13413226707450165
3.6944081205150474 -0.13866888020473753
3.889421956865975 -0.5630262204168873
3.9426075485980463 -0.8358273676961265
3.7121366510924045 -1.16925099214853
3.1980092643490496 -1.381429662254605
2.595239224718909 -1.3511184236680227
1.974740654511412 -1.3511184236680227
0.9819429421794161 -1.3208071850814407
-0.2413256676582214 -1.2601847079082764
-1.3936801551864306 -0.8964498448692908
-2.209192561744856 -0.5630262204168873
-2.5283061121372827 -0.25991383455106604
-2.297835214631641 0.04319855131475525
-1.9255360725071426 0.3159996985939944
-1.6241510526920726 0.5584896072866514
-1.3936801551864306 0.8616019931524728
-1.1277521965260746 0.922224470325637
-0.8086386461336474 1.1040919018451298
-0.5427106874732915 1.0434694246719656
-0.400882442854435 0.922224470325637
-0.3299683205450067 0.922224470325637
-0.3122397899676496 0.9525357089122192
-0.3122397899676496 1.0434694246719656
-0.15268301477143606 1.1040919018451298
-0.11722595361672192 1.1344031404317119
-0.15268301477143606 1.1040919018451298
-0.09949742303936485 0.9525357089122192
-0.15268301477143606 0.9828469474988013
-0.09949742303936485 1.1040919018451298
-0.028583300729936582 1.1344031404317119
0.04233082157949168 1.164714379018294
0.07778788273420581 1.1344031404317119
0.07778788273420581 0.9525357089122192
0.024602291002134614 0.9525357089122192
0.006873760424777549 0.9828469474988013
0.11324494388891995 1.1040919018451298
0.16643053562099114 1.1344031404317119
0.20188759677570528 1.0131581860853833
0.13097347446627702 0.8919132317390549
0.1841590661983482 0.8919132317390549
0.13097347446627702 0.9828469474988013
0.27280171908513356 0.9828469474988013
0.43235849428134715 1.0434694246719656
0.396901433126633 0.9525357089122192
0.4146299637039901 0.8616019931524728
0.43235849428134715 0.8616019931524728
0.5210011471681325 0.9525357089122192
0.5919152694775607 1.0131581860853833
0.6982864529417031 0.9828469474988013
0.7514720446737744 0.922224470325637
0.7514720446737744 0.7706682773927264
0.7692005752511314 0.7706682773927264
0.8755717587152738 0.8312907545658906
0.9642144116020591 0.8312907545658906
1.0174000033341304 0.9525357089122192
1.0705855950662015 0.7403570388061442
1.0883141256435587 0.67973456163298
1.1060426562209156 0.7403570388061442
1.1237711867982727 0.67973456163298
1.2478709008397721 0.8009795159793085
1.3010564925718433 0.8312907545658906
1.3365135537265576 0.8009795159793085
1.3010564925718433 0.7100458002195621
1.3010564925718433 0.5888008458732336
1.3365135537265576 0.7403570388061442
1.4074276760359858 0.7403570388061442
1.4428847371906999 0.8616019931524728
1.4428847371906999 0.7100458002195621
1.4074276760359858 0.7403570388061442
1.3542420843039147 0.5888008458732336
1.3365135537265576 0.7100458002195621
1.3187850231492004 0.8919132317390549
1.4074276760359858 0.8312907545658906
1.2833279619944864 0.8312907545658906
1.1769567785303439 0.67973456163298
1.0705855950662015 0.8009795159793085
0.9996714727567733 0.8312907545658906
0.9642144116020591 1.0434694246719656
0.911028819869988 1.0131581860853833
0.7869291058284884 0.9828469474988013
0.662829391786989 1.0131581860853833
0.5564582083228466 0.922224470325637
0.4500870248587042 1.0434694246719656
0.4500870248587042 1.164714379018294
0.4146299637039901 1.2253368561914584
0.3259873108172047 1.1950256176048761
0.20188759677570528 1.0737806632585476
0.07778788273420581 1.1040919018451298
0.04233082157949168 1.164714379018294
0.024602291002134614 1.3162705719512047
0.024602291002134614 1.2253368561914584
-0.028583300729936582 1.164714379018294
-0.11722595361672192 1.1950256176048761
-0.18814007592615017 1.1344031404317119
-0.20586860650350725 1.164714379018294
-0.20586860650350725 1.2859593333646226
-0.1704115453487931 1.3162705719512047
-0.2413256676582214 1.2253368561914584
-0.27678272881293553 1.164714379018294
-0.34769685112236376 1.0434694246719656
-0.3299683205450067 1.2253368561914584
-0.27678272881293553 1.2253368561914584
-0.2413256676582214 1.2859593333646226
-0.27678272881293553 1.1950256176048761
-0.2945112593902926 1.1040919018451298
-0.34769685112236376 1.164714379018294
-0.3299683205450067 1.1950256176048761
-0.2945112593902926 1.346581810537787
-0.2413256676582214 1.2859593333646226
-0.25905419823557846 1.2253368561914584
-0.3122397899676496 1.164714379018294
-0.3299683205450067 1.1950256176048761
-0.3122397899676496 1.164714379018294
-0.20586860650350725 1.376893049124369
-0.134954484194079 1.346581810537787
-0.15268301477143606 1.376893049124369
-0.18814007592615017 1.2859593333646226
-0.22359713708086432 1.3162705719512047
-0.15268301477143606 1.4072042877109512
-0.134954484194079 1.4375155262975332
-0.028583300729936582 1.4375155262975332
-0.028583300729936582 1.4678267648841155
-0.04631183130729365 1.4072042877109512
-0.04631183130729365 1.4072042877109512
-0.04631183130729365 1.4678267648841155
0.04233082157949168 1.4981380034706975
0.14870200504363407 1.4072042877109512
0.09551641331156288 1.376893049124369
-0.028583300729936582 1.1950256176048761
-0.08176889246200779 1.0131581860853833
-0.1704115453487931 1.2253368561914584
-0.11722595361672192 1.2556480947780404
-0.09949742303936485 1.2556480947780404
-0.11722595361672192 1.0131581860853833
-0.27678272881293553 0.9828469474988013
-0.3299683205450067 1.0131581860853833
-0.3831539122770779 1.1040919018451298
-0.3299683205450067 1.2556480947780404
-0.2945112593902926 1.164714379018294
-0.27678272881293553 1.1344031404317119
-0.3299683205450067 1.1040919018451298
-0.3831539122770779 1.1950256176048761
-0.41861097343179204 1.2556480947780404
-0.4363395040091491 1.2556480947780404
-0.41861097343179204 1.2859593333646226
-0.400882442854435 1.1950256176048761
-0.41861097343179204 1.1040919018451298
-0.48952509574122033 1.0737806632585476
-0.5072536263185774 1.1344031404317119
-0.4363395040091491 1.1950256176048761
-0.36542538169972083 1.2253368561914584
-0.41861097343179204 1.1950256176048761
-0.400882442854435 1.1040919018451298
-0.4540680345865062 1.0434694246719656
-0.47179656516386326 1.1344031404317119
-0.36542538169972083 1.2556480947780404
-0.36542538169972083 1.2859593333646226
-0.3831539122770779 1.2556480947780404
-0.4363395040091491 1.0737806632585476
-0.4540680345865062 1.1344031404317119
-0.5072536263185774 1.2253368561914584
-0.41861097343179204 1.2859593333646226
-0.34769685112236376 1.376893049124369
-0.3831539122770779 1.1950256176048761
-0.400882442854435 1.1040919018451298
-0.47179656516386326 1.0737806632585476
-0.4363395040091491 1.1344031404317119
-0.400882442854435 1.2859593333646226
-0.34769685112236376 1.346581810537787
-0.400882442854435 1.1950256176048761
-0.47179656516386326 1.1040919018451298
-0.48952509574122033 1.164714379018294
-0.47179656516386326 1.1344031404317119
-0.41861097343179204 1.2556480947780404
-0.34769685112236376 1.2556480947780404
-0.36542538169972083 1.1344031404317119
-0.3831539122770779 1.1040919018451298
-0.4540680345865062 1.164714379018294
-0.48952509574122033 1.1950256176048761
-0.47179656516386326 1.4072042877109512
-0.400882442854435 1.5284492420572797
-0.1704115453487931 1.5587604806438617
0.21961612735306235 1.346581810537787
0.7160149835190602 1.1344031404317119
1.3719706148812716 0.8919132317390549
1.9392835933566979 0.7403570388061442
2.595239224718909 0.4675558915269051
3.127095142039621 0.13413226707450165
3.552579875896191 -0.3811587888973946
3.7298651816697617 -0.714582413349798
3.641222528782976 -0.9570723220424551
3.091638080884907 -1.3511184236680227
2.3647683272132674 -1.3511184236680227
1.5137988595001282 -1.411740900841187
0.3259873108172047 -1.4420521394277692
-1.0036524824845752 -1.1086285149753656
-2.1205499088580706 -0.714582413349798
-2.741048479065568 -0.16898011879131966
-2.6701343567561393 0.012887312728173124
-2.1914640311674987 0.5584896072866514
-1.8014363584656432 0.8009795159793085
-1.51777986922793 0.9525357089122192
-1.198666318835503 1.0737806632585476
-0.9150098295977899 1.2253368561914584
-0.6313533403600768 1.1950256176048761
-0.5249821568959344 1.164714379018294
-0.48952509574122033 1.0737806632585476
-0.48952509574122033 1.164714379018294
-0.4363395040091491 1.2859593333646226
-0.34769685112236376 1.3162705719512047
-0.27678272881293553 1.4072042877109512
-0.2945112593902926 1.2859593333646226
-0.2945112593902926 1.164714379018294
-0.3122397899676496 1.1950256176048761
-0.2413256676582214 1.2253368561914584
-0.18814007592615017 1.2556480947780404
-0.08176889246200779 1.2859593333646226
-0.08176889246200779 1.1950256176048761
-0.08176889246200779 1.1040919018451298
-0.11722595361672192 1.1950256176048761
-0.08176889246200779 1.1950256176048761
0.024602291002134614 1.2859593333646226
0.09551641331156288 1.2556480947780404
0.14870200504363407 1.1950256176048761
0.11324494388891995 1.1344031404317119
0.07778788273420581 1.0737806632585476
0.13097347446627702 1.1344031404317119
0.23734465793041942 1.1950256176048761
0.3259873108172047 1.2556480947780404
0.36144437197191887 1.1344031404317119
0.4146299637039901 1.0131581860853833
0.43235849428134715 1.0434694246719656
0.4678155554360613 1.0737806632585476
0.5741867389002037 1.1344031404317119
0.6982864529417031 1.1344031404317119
0.7160149835190602 0.9828469474988013
0.8046576364058455 0.9525357089122192
0.7869291058284884 0.8616019931524728
0.8578432281379167 0.9525357089122192
0.9464858810247021 0.8919132317390549
1.0351285339114873 1.0131581860853833
1.0351285339114873 0.922224470325637
1.1060426562209156 0.8009795159793085
1.0705855950662015 0.7403570388061442
1.159228247952987 0.7100458002195621
1.2124138396850581 0.8312907545658906
1.230142370262415 0.8919132317390549
1.2655994314171293 0.7403570388061442
1.2655994314171293 0.67973456163298
1.2655994314171293 0.6494233230463978
1.2655994314171293 0.7706682773927264
1.3542420843039147 0.8919132317390549
1.3896991454586287 0.8009795159793085
1.3187850231492004 0.8009795159793085
1.3187850231492004 0.8312907545658906
1.2124138396850581 0.7100458002195621
1.1769567785303439 0.8616019931524728
1.1060426562209156 1.0434694246719656
1.0705855950662015 1.0131581860853833
1.0528570644888444 1.0434694246719656
0.8933002892926308 0.9525357089122192
0.7869291058284884 0.9828469474988013
0.645100861209632 1.1344031404317119
0.5741867389002037 1.2253368561914584
0.5210011471681325 1.2556480947780404
0.4678155554360613 1.164714379018294
0.2550731885077765 1.1950256176048761
0.16643053562099114 1.1344031404317119
0.060059352156848746 1.2253368561914584
0.024602291002134614 1.3162705719512047
0.006873760424777549 1.346581810537787
-0.06404036188465072 1.376893049124369
-0.134954484194079 1.2253368561914584
-0.15268301477143606 1.164714379018294
-0.18814007592615017 1.2859593333646226
-0.22359713708086432 1.346581810537787
-0.18814007592615017 1.4375155262975332
-0.18814007592615017 1.346581810537787
-0.27678272881293553 1.346581810537787
-0.3122397899676496 1.2253368561914584
-0.3831539122770779 1.2859593333646226
-0.3122397899676496 1.4072042877109512
-0.27678272881293553 1.3162705719512047
-0.27678272881293553 1.376893049124369
-0.36542538169972083 1.2859593333646226
-0.36542538169972083 1.2253368561914584
-0.400882442854435 1.3162705719512047
-0.3299683205450067 1.4072042877109512
-0.2945112593902926 1.4072042877109512
-0.3299683205450067 1.346581810537787
-0.3299683205450067 1.1950256176048761
-0.3831539122770779 1.2859593333646226
-0.36542538169972083 1.2859593333646226
-0.2945112593902926 1.4375155262975332
-0.22359713708086432 1.376893049124369
-0.25905419823557846 1.376893049124369
-0.25905419823557846 1.3162705719512047
-0.2945112593902926 1.4072042877109512
-0.3122397899676496 1.4072042877109512
-0.20586860650350725 1.5587604806438617
-0.134954484194079 1.5587604806438617
-0.15268301477143606 1.5284492420572797
-0.20586860650350725 1.4678267648841155
-0.22359713708086432 1.4375155262975332
-0.134954484194079 1.4678267648841155
-0.08176889246200779 1.619382957817026
-0.010854770152579518 1.5587604806438617
0.006873760424777549 1.5284492420572797
-0.010854770152579518 1.4375155262975332
-0.04631183130729365 1.4072042877109512
-0.028583300729936582 1.4072042877109512
-0.04631183130729365 1.4375155262975332
-0.06404036188465072 1.3162705719512047
-0.11722595361672192 1.1950256176048761
-0.2413256676582214 1.1040919018451298
-0.25905419823557846 1.1040919018451298
-0.25905419823557846 1.1040919018451298
-0.25905419823557846 1.164714379018294
-0.25905419823557846 1.2556480947780404
-0.25905419823557846 1.1344031404317119
-0.27678272881293553 1.0737806632585476
-0.34769685112236376 1.1344031404317119
-0.3122397899676496 1.1950256176048761
-0.3122397899676496 1.3162705719512047
-0.3299683205450067 1.376893049124369
-0.3831539122770779 1.2556480947780404
-0.4540680345865062 1.1950256176048761
-0.5072536263185774 1.1344031404317119
-0.47179656516386326 1.1950256176048761
-0.41861097343179204 1.3162705719512047
-0.3831539122770779 1.2556480947780404
-0.41861097343179204 1.2556480947780404
-0.4540680345865062 1.1344031404317119
-0.5072536263185774 1.1040919018451298
-0.47179656516386326 1.2556480947780404
-0.4363395040091491 1.376893049124369
-0.400882442854435 1.3162705719512047
-0.400882442854435 1.2859593333646226
-0.4363395040091491 1.164714379018294
-0.48952509574122033 1.1040919018451298
-0.5249821568959344 1.164714379018294
-0.4540680345865062 1.2859593333646226
-0.3831539122770779 1.2556480947780404
-0.36542538169972083 1.2253368561914584
-0.41861097343179204 1.1344031404317119
-0.47179656516386326 1.1344031404317119
-0.4363395040091491 1.2253368561914584
-0.400882442854435 1.2859593333646226
-0.3299683205450067 1.3162705719512047
-0.41861097343179204 1.164714379018294
-0.4540680345865062 1.1344031404317119
-0.47179656516386326 1.164714379018294
-0.47179656516386326 1.164714379018294
-0.400882442854435 1.2556480947780404
-0.34769685112236376 1.2859593333646226
-0.34769685112236376 1.1950256176048761
-0.3831539122770779 1.1344031404317119
-0.400882442854435 0.9828469474988013
-0.41861097343179204 1.0737806632585476
-0.36542538169972083 1.2556480947780404
-0.3299683205450067 1.2859593333646226
-0.36542538169972083 1.164714379018294
-0.47179656516386326 1.2556480947780404
-0.5427106874732915 1.2556480947780404
-0.4540680345865062 1.346581810537787
-0.18814007592615017 1.589071719230444
0.2905302496624906 1.4678267648841155
0.8046576364058455 1.1344031404317119
1.3719706148812716 0.67973456163298
1.9038265322019836 0.5281783687000693
2.506596571832124 0.2553772214208302
3.1448236726169783 -0.017423925858409007
3.623493998205619 -0.502403743243723
3.641222528782976 -0.8661386062827087
3.1980092643490496 -1.3208071850814407
2.4356824495226954 -1.5632970937740975
1.8329124098925553 -1.5026746166009335
1.0705855950662015 -1.3208071850814407
-0.010854770152579518 -1.0480060378022014
-1.2341233799902172 -0.8358273676961265
-2.297835214631641 -0.6539599361766337
-2.811962601374996 -0.35084755031081244
-2.6878628873334964 0.07350978990133739
-2.1382784394354273 0.5281783687000693
-1.695065175001501 0.8919132317390549
-1.4114086857637878 0.9828469474988013
-1.180937788258146 1.0131581860853833
-0.932738360175147 0.922224470325637
-0.7022674626695051 0.9828469474988013
-0.5249821568959344 1.164714379018294
-0.4363395040091491 1.1344031404317119
-0.4363395040091491 1.1344031404317119
-0.3831539122770779 1.0434694246719656
-0.34769685112236376 1.0131581860853833
-0.3299683205450067 1.1344031404317119
-0.27678272881293553 1.2253368561914584
-0.18814007592615017 1.2253368561914584
-0.1704115453487931 1.1344031404317119
-0.20586860650350725 1.0131581860853833
-0.2413256676582214 1.1040919018451298
-0.22359713708086432 1.1040919018451298
-0.15268301477143606 1.1950256176048761
-0.028583300729936582 1.1950256176048761
-0.08176889246200779 1.0434694246719656
-0.04631183130729365 1.0131581860853833
-0.08176889246200779 1.0131581860853833
-0.010854770152579518 1.1040919018451298
0.07778788273420581 1.1040919018451298
0.14870200504363407 1.1950256176048761
0.20188759677570528 1.0737806632585476
0.20188759677570528 1.0131581860853833
0.14870200504363407 0.9828469474988013
0.21961612735306235 0.9828469474988013
0.3259873108172047 1.0131581860853833
0.4146299637039901 1.0737806632585476
0.4678155554360613 0.9828469474988013
0.4678155554360613 0.8919132317390549
0.4678155554360613 0.8616019931524728
0.5387296777454895 0.8616019931524728
0.6805579223643461 0.9525357089122192
0.7692005752511314 0.8616019931524728
0.8578432281379167 0.8312907545658906
0.8755717587152738 0.7706682773927264
0.8755717587152738 0.6494233230463978
0.928757350447345 0.8009795159793085
1.0351285339114873 0.8009795159793085
1.1237711867982727 0.7706682773927264
1.159228247952987 0.7100458002195621
1.1414997173756298 0.6494233230463978
1.1414997173756298 0.6494233230463978
1.159228247952987 0.7100458002195621
1.2655994314171293 0.7403570388061442
1.3187850231492004 0.8312907545658906
1.3187850231492004 0.6494233230463978
1.2655994314171293 0.5888008458732336
1.2655994314171293 0.67973456163298
1.2833279619944864 0.7100458002195621
1.3365135537265576 0.8009795159793085
1.3542420843039147 0.7706682773927264
1.3187850231492004 0.7403570388061442
1.194685309107701 0.7100458002195621
1.1060426562209156 0.67973456163298
1.0705855950662015 0.8312907545658906
1.0351285339114873 0.8616019931524728
1.0528570644888444 0.8919132317390549
0.911028819869988 0.922224470325637
0.8046576364058455 0.7706682773927264
0.662829391786989 0.8616019931524728
0.6096438000549178 0.922224470325637
0.5032726165907754 1.1344031404317119
0.4500870248587042 1.1344031404317119
0.3437158413945618 1.0737806632585476
0.1841590661983482 1.0434694246719656
0.11324494388891995 1.0434694246719656
0.024602291002134614 1.1344031404317119
0.04233082157949168 1.164714379018294
0.060059352156848746 1.1950256176048761
-0.028583300729936582 1.1040919018451298
-0.15268301477143606 1.0434694246719656
-0.1704115453487931 1.0737806632585476
-0.20586860650350725 1.1040919018451298
-0.20586860650350725 1.346581810537787
-0.22359713708086432 1.2859593333646226
-0.2413256676582214 1.2253368561914584
-0.34769685112236376 1.0737806632585476
-0.36542538169972083 1.1040919018451298
-0.3831539122770779 1.164714379018294
-0.3831539122770779 1.2556480947780404
-0.27678272881293553 1.2859593333646226
-0.27678272881293553 1.2859593333646226
-0.400882442854435 1.1344031404317119
-0.41861097343179204 1.1040919018451298
-0.41861097343179204 1.2556480947780404
-0.34769685112236376 1.3162705719512047
-0.2945112593902926 1.2253368561914584
-0.36542538169972083 1.2556480947780404
-0.400882442854435 1.1040919018451298
-0.41861097343179204 1.164714379018294
-0.4363395040091491 1.2253368561914584
-0.3831539122770779 1.2253368561914584
-0.3299683205450067 1.3162705719512047
-0.3122397899676496 1.1950256176048761
-0.3299683205450067 1.164714379018294
-0.34769685112236376 1.1040919018451298
-0.3122397899676496 1.2859593333646226
-0.2945112593902926 1.4072042877109512
-0.2413256676582214 1.376893049124369
-0.20586860650350725 1.376893049124369
-0.22359713708086432 1.2253368561914584
-0.2945112593902926 1.346581810537787
-0.2945112593902926 1.4072042877109512
-0.20586860650350725 1.4981380034706975
-0.09949742303936485 1.4678267648841155
-0.06404036188465072 1.4072042877109512
-0.04631183130729365 1.2859593333646226
-0.09949742303936485 1.2859593333646226
-0.09949742303936485 1.346581810537787
-0.04631183130729365 1.376893049124369
0.024602291002134614 1.2253368561914584
-0.06404036188465072 1.0737806632585476
-0.1704115453487931 0.9525357089122192
-0.25905419823557846 1.0434694246719656
-0.27678272881293553 1.0434694246719656
-0.2945112593902926 1.1344031404317119
-0.27678272881293553 1.0434694246719656
-0.36542538169972083 0.9828469474988013
-0.41861097343179204 0.8009795159793085
-0.4363395040091491 0.8616019931524728
-0.4363395040091491 0.9828469474988013
-0.34769685112236376 1.1040919018451298
-0.2945112593902926 1.1344031404317119
-0.36542538169972083 1.0434694246719656
-0.4540680345865062 1.0737806632585476
-0.5072536263185774 1.0434694246719656
-0.5427106874732915 1.0131581860853833
-0.47179656516386326 1.1040919018451298
-0.4363395040091491 1.1344031404317119
-0.48952509574122033 1.0737806632585476
-0.5249821568959344 0.922224470325637
-0.5427106874732915 0.8616019931524728
-0.5604392180506486 0.9828469474988013
-0.5072536263185774 1.0737806632585476
-0.47179656516386326 1.1344031404317119
-0.5072536263185774 0.9828469474988013
-0.5958962792053627 1.0131581860853833
-0.5427106874732915 0.9828469474988013
-0.5781677486280057 0.9828469474988013
-0.5249821568959344 1.1040919018451298
-0.4540680345865062 1.164714379018294
-0.48952509574122033 0.9828469474988013
-0.5427106874732915 0.922224470325637
-0.5958962792053627 0.9525357089122192
-0.5958962792053627 0.9525357089122192
-0.5249821568959344 1.1344031404317119
-0.47179656516386326 1.0737806632585476
-0.47179656516386326 1.0131581860853833
-0.5249821568959344 0.922224470325637
-0.6136248097827197 0.922224470325637
-0.5781677486280057 0.9828469474988013
-0.5427106874732915 1.0131581860853833
-0.47179656516386326 1.0131581860853833
-0.47179656516386326 0.9525357089122192
-0.5427106874732915 0.8616019931524728
-0.5958962792053627 0.8919132317390549
-0.5604392180506486 0.8919132317390549
-0.5604392180506486 1.0131581860853833
-0.5249821568959344 1.1040919018451298
-0.5781677486280057 1.0737806632585476
-0.6136248097827197 1.0737806632585476
-0.5604392180506486 1.1950256176048761
-0.2413256676582214 1.2859593333646226
0.27280171908513356 1.164714379018294
0.8401146975605597 0.9525357089122192
1.3719706148812716 0.5888008458732336
1.9038265322019836 0.07350978990133739
2.4179539189453387 -0.25991383455106604
2.861167183379265 -0.6539599361766337
3.1625522031943354 -0.7448936519363801
3.056181019730193 -1.0783172763887836
2.4356824495226954 -1.3208071850814407
1.761998287583127 -1.411740900841187
0.8578432281379167 -1.3511184236680227
-0.3122397899676496 -1.0783172763887836
-1.5532369303826443 -0.714582413349798
-2.475120520405212 -0.44178126607055884
-2.9006052542617815 -0.16898011879131966
-2.6878628873334964 -0.04773516444499114
-2.226921092322213 0.2553772214208302
-1.8014363584656432 0.6494233230463978
-1.464594277495859 0.8616019931524728
-1.1632092576807889 0.8009795159793085
-0.932738360175147 0.8009795159793085
-0.7909101155562904 0.6191120844598157
-0.7199959932468621 0.7100458002195621
-0.5958962792053627 0.7403570388061442
-0.5249821568959344 0.922224470325637
-0.4363395040091491 0.922224470325637
-0.41861097343179204 0.8616019931524728
-0.41861097343179204 0.7403570388061442
-0.4363395040091491 0.7403570388061442
-0.41861097343179204 0.8616019931524728
-0.2945112593902926 1.0131581860853833
-0.27678272881293553 0.9828469474988013
-0.2413256676582214 0.8919132317390549
-0.25905419823557846 0.7100458002195621
-0.27678272881293553 0.8312907545658906
-0.2413256676582214 0.8919132317390549
-0.134954484194079 0.9525357089122192
-0.11722595361672192 0.922224470325637
-0.09949742303936485 0.8312907545658906
-0.11722595361672192 0.8009795159793085
-0.11722595361672192 0.7403570388061442
-0.028583300729936582 0.7403570388061442
0.024602291002134614 0.8312907545658906
0.14870200504363407 0.8312907545658906
0.14870200504363407 0.7403570388061442
0.16643053562099114 0.6494233230463978
0.14870200504363407 0.7100458002195621
0.20188759677570528 0.7403570388061442
0.27280171908513356 0.8009795159793085
0.37917290254927594 0.8312907545658906
0.43235849428134715 0.7100458002195621
0.4500870248587042 0.6191120844598157
0.4678155554360613 0.5888008458732336
0.5919152694775607 0.6191120844598157
0.6805579223643461 0.67973456163298
0.7514720446737744 0.7403570388061442
0.8223861669832025 0.6191120844598157
0.8401146975605597 0.4069334143537408
0.8578432281379167 0.4069334143537408
0.8933002892926308 0.4978671301134872
0.9819429421794161 0.5281783687000693
1.0705855950662015 0.5888008458732336
1.0883141256435587 0.5281783687000693
1.0705855950662015 0.43724465294032294
1.0174000033341304 0.3766221757671587
1.0528570644888444 0.5281783687000693
1.0528570644888444 0.4978671301134872
1.159228247952987 0.6191120844598157
1.1414997173756298 0.5584896072866514
1.1237711867982727 0.4978671301134872
1.159228247952987 0.34631093718057654
1.1060426562209156 0.43724465294032294
1.1237711867982727 0.5888008458732336
1.0705855950662015 0.6494233230463978
1.0174000033341304 0.5281783687000693
0.9642144116020591 0.6191120844598157
0.8046576364058455 0.5584896072866514
0.7514720446737744 0.5888008458732336
0.6805579223643461 0.7100458002195621
0.7337435140964172 0.8009795159793085
0.6096438000549178 0.7100458002195621
0.4500870248587042 0.67973456163298
0.37917290254927594 0.7100458002195621
0.2905302496624906 0.7403570388061442
0.2550731885077765 0.8919132317390549
0.23734465793041942 0.8919132317390549
0.13097347446627702 0.8009795159793085
0.024602291002134614 0.7706682773927264
-0.11722595361672192 0.8312907545658906
-0.134954484194079 0.8919132317390549
-0.1704115453487931 0.922224470325637
-0.1704115453487931 0.9828469474988013
-0.18814007592615017 0.8616019931524728
-0.2413256676582214 0.8616019931524728
-0.3299683205450067 0.7706682773927264
-0.3122397899676496 0.8312907545658906
-0.36542538169972083 1.0131581860853833
-0.2945112593902926 0.9525357089122192
-0.3122397899676496 0.922224470325637
-0.3831539122770779 0.7706682773927264
-0.41861097343179204 0.8009795159793085
-0.4540680345865062 0.8919132317390549
-0.400882442854435 0.922224470325637
-0.36542538169972083 1.0131581860853833
-0.36542538169972083 0.8919132317390549
-0.41861097343179204 0.8009795159793085
-0.4540680345865062 0.7403570388061442
-0.4540680345865062 0.8919132317390549
-0.400882442854435 1.0131581860853833
-0.34769685112236376 0.9828469474988013
-0.36542538169972083 0.8919132317390549
-0.41861097343179204 0.7706682773927264
-0.4540680345865062 0.8009795159793085
-0.47179656516386326 0.8616019931524728
-0.41861097343179204 0.8616019931524728
-0.34769685112236376 0.922224470325637
-0.34769685112236376 0.922224470325637
-0.3831539122770779 0.8616019931524728
-0.400882442854435 0.8919132317390549
-0.36542538169972083 0.9828469474988013
-0.3299683205450067 1.0737806632585476
-0.22359713708086432 1.0737806632585476
-0.20586860650350725 1.0737806632585476
-0.25905419823557846 0.9828469474988013
-0.3299683205450067 1.0131581860853833
-0.2945112593902926 1.0131581860853833
-0.20586860650350725 1.0737806632585476
-0.09949742303936485 1.1040919018451298
-0.06404036188465072 1.0737806632585476
-0.09949742303936485 0.9525357089122192
-0.11722595361672192 0.8312907545658906
-0.08176889246200779 1.0131581860853833
0.006873760424777549 1.0434694246719656
0.006873760424777549 1.0434694246719656
-0.08176889246200779 0.8009795159793085
-0.20586860650350725 0.7100458002195621
-0.25905419823557846 0.67973456163298
-0.25905419823557846 0.67973456163298
-0.22359713708086432 0.7403570388061442
-0.20586860650350725 0.7403570388061442
-0.3122397899676496 0.6494233230463978
-0.3831539122770779 0.4978671301134872
-0.4363395040091491 0.5888008458732336
-0.4363395040091491 0.67973456163298
-0.36542538169972083 0.7706682773927264
-0.3122397899676496 0.7100458002195621
-0.3122397899676496 0.8009795159793085
-0.4540680345865062 0.7100458002195621
-0.5249821568959344 0.5888008458732336
-0.5604392180506486 0.7100458002195621
-0.5072536263185774 0.8009795159793085
-0.41861097343179204 0.8009795159793085
-0.4540680345865062 0.7100458002195621
-0.5249821568959344 0.6191120844598157
-0.5604392180506486 0.6494233230463978
-0.5958962792053627 0.67973456163298
-0.5427106874732915 0.8009795159793085
-0.48952509574122033 0.7706682773927264
-0.47179656516386326 0.7100458002195621
-0.5072536263185774 0.5888008458732336
-0.5427106874732915 0.5584896072866514
-0.5249821568959344 0.7100458002195621
-0.5072536263185774 0.7706682773927264
-0.41861097343179204 0.8009795159793085
-0.4363395040091491 0.8312907545658906
-0.47179656516386326 0.6494233230463978
-0.5249821568959344 0.6494233230463978
-0.5427106874732915 0.5888008458732336
-0.48952509574122033 0.8009795159793085
-0.4540680345865062 0.7706682773927264
-0.4540680345865062 0.67973456163298
-0.47179656516386326 0.5584896072866514
-0.5604392180506486 0.6494233230463978
-0.5427106874732915 0.7403570388061442
-0.5427106874732915 0.7706682773927264
-0.4363395040091491 0.67973456163298
-0.47179656516386326 0.7100458002195621
-0.47179656516386326 0.6191120844598157
-0.5072536263185774 0.5888008458732336
-0.5427106874732915 0.67973456163298
-0.4540680345865062 0.67973456163298
-0.4363395040091491 0.7706682773927264
-0.41861097343179204 0.6494233230463978
-0.5249821568959344 0.6494233230463978
-0.5604392180506486 0.7100458002195621
-0.5958962792053627 0.67973456163298
-0.5604392180506486 0.9525357089122192
-0.36542538169972083 1.0434694246719656
-0.18814007592615017 0.922224470325637
0.11324494388891995 0.7706682773927264
0.4855440860134183 0.5281783687000693
0.9642144116020591 0.3159996985939944
1.5315273900774853 0.13413226707450165
2.1342974297076256 -0.1992913573779018
2.542053632986838 -0.5327149818303052
2.807981591647194 -0.9267610834558729
2.9320813056886936 -1.2601847079082764
2.754795999915123 -1.381429662254605
2.258397143749125 -1.3511184236680227
1.726541226428413 -1.3511184236680227
0.8578432281379167 -1.2298734693216942
-0.3122397899676496 -1.1995622307351121
-1.51777986922793 -0.9267610834558729
-2.4573919898278547 -0.5327149818303052
-2.829691131952353 -0.22960259596448393
-2.6169487650240684 0.012887312728173124
-2.1914640311674987 0.1947547442476659
-1.783707827888286 0.34631093718057654
-1.5532369303826443 0.4978671301134872
-1.2341233799902172 0.5888008458732336
-0.8795527684430757 0.67973456163298
-0.6313533403600768 0.6494233230463978
-0.5072536263185774 0.5281783687000693
-0.5427106874732915 0.5281783687000693
-0.5781677486280057 0.4978671301134872
-0.48952509574122033 0.5888008458732336
-0.3831539122770779 0.7100458002195621
-0.34769685112236376 0.67973456163298
-0.34769685112236376 0.6494233230463978
-0.36542538169972083 0.5584896072866514
-0.3299683205450067 0.5888008458732336
-0.2945112593902926 0.5888008458732336
-0.22359713708086432 0.7100458002195621
-0.18814007592615017 0.67973456163298
-0.134954484194079 0.6494233230463978
-0.20586860650350725 0.5584896072866514
-0.1704115453487931 0.4675558915269051
-0.15268301477143606 0.5281783687000693
-0.010854770152579518 0.6494233230463978
0.04233082157949168 0.7100458002195621
0.060059352156848746 0.6191120844598157
-0.028583300729936582 0.4978671301134872
-0.028583300729936582 0.4675558915269051
0.04233082157949168 0.4675558915269051
0.13097347446627702 0.5888008458732336
0.2550731885077765 0.6494233230463978
0.2905302496624906 0.43724465294032294
0.30825878023984765 0.3159996985939944
0.2905302496624906 0.3159996985939944
0.37917290254927594 0.4069334143537408
0.5032726165907754 0.4675558915269051
0.5919152694775607 0.4675558915269051
0.6805579223643461 0.3766221757671587
0.6982864529417031 0.2553772214208302
0.7160149835190602 0.1947547442476659
0.7869291058284884 0.22506598283424803
0.8755717587152738 0.3766221757671587
0.9996714727567733 0.34631093718057654
1.0174000033341304 0.28568846000741227
1.0351285339114873 0.10382102848791952
1.0351285339114873 0.16444350566108376
1.0351285339114873 0.2553772214208302
1.0705855950662015 0.28568846000741227
1.1414997173756298 0.3159996985939944
1.1237711867982727 0.2553772214208302
1.159228247952987 0.13413226707450165
1.1237711867982727 0.07350978990133739
1.0883141256435587 0.16444350566108376
1.1414997173756298 0.2553772214208302
1.1769567785303439 0.3159996985939944
1.1414997173756298 0.2553772214208302
1.0528570644888444 0.16444350566108376
0.9819429421794161 0.16444350566108376
0.928757350447345 0.28568846000741227
0.8755717587152738 0.34631093718057654
0.8046576364058455 0.4069334143537408
0.7160149835190602 0.3159996985939944
0.645100861209632 0.28568846000741227
0.5032726165907754 0.3159996985939944
0.4146299637039901 0.43724465294032294
0.37917290254927594 0.4978671301134872
0.37917290254927594 0.5584896072866514
0.27280171908513356 0.4978671301134872
0.14870200504363407 0.3766221757671587
0.024602291002134614 0.4069334143537408
-0.028583300729936582 0.4978671301134872
-0.04631183130729365 0.5584896072866514
-0.09949742303936485 0.6191120844598157
-0.11722595361672192 0.5888008458732336
-0.25905419823557846 0.43724465294032294
-0.3122397899676496 0.4978671301134872
-0.3122397899676496 0.5584896072866514
-0.3299683205450067 0.6494233230463978
-0.3122397899676496 0.5888008458732336
-0.3122397899676496 0.5584896072866514
-0.400882442854435 0.5281783687000693
-0.47179656516386326 0.4978671301134872
-0.400882442854435 0.4069334143537408
-0.3831539122770779 0.5888008458732336
-0.3831539122770779 0.6494233230463978
-0.41861097343179204 0.5584896072866514
-0.47179656516386326 0.4978671301134872
-0.5072536263185774 0.4675558915269051
-0.4363395040091491 0.5584896072866514
-0.4363395040091491 0.7100458002195621
-0.3831539122770779 0.6191120844598157
-0.4363395040091491 0.5888008458732336
-0.4363395040091491 0.4675558915269051
-0.47179656516386326 0.5281783687000693
-0.47179656516386326 0.6494233230463978
-0.41861097343179204 0.6494233230463978
-0.4363395040091491 0.7403570388061442
-0.47179656516386326 0.5888008458732336
-0.47179656516386326 0.4978671301134872
-0.48952509574122033 0.4069334143537408
-0.41861097343179204 0.5584896072866514
-0.36542538169972083 0.7403570388061442
-0.34769685112236376 0.7100458002195621
-0.3122397899676496 0.7403570388061442
-0.34769685112236376 0.5888008458732336
-0.36542538169972083 0.6494233230463978
-0.34769685112236376 0.67973456163298
-0.22359713708086432 0.8009795159793085
-0.15268301477143606 0.8312907545658906
-0.09949742303936485 0.67973456163298
-0.11722595361672192 0.5584896072866514
-0.11722595361672192 0.5888008458732336
-0.11722595361672192 0.6191120844598157
-0.04631183130729365 0.7403570388061442
-0.028583300729936582 0.7100458002195621
-0.08176889246200779 0.5281783687000693
-0.22359713708086432 0.3159996985939944
-0.25905419823557846 0.28568846000741227
-0.27678272881293553 0.4069334143537408
-0.22359713708086432 0.4675558915269051
-0.22359713708086432 0.4675558915269051
-0.25905419823557846 0.34631093718057654
-0.36542538169972083 0.22506598283424803
-0.400882442854435 0.22506598283424803
-0.3831539122770779 0.3766221757671587
-0.2945112593902926 0.4978671301134872
-0.3122397899676496 0.4978671301134872
-0.25905419823557846 0.4675558915269051
-0.3831539122770779 0.3766221757671587
-0.48952509574122033 0.34631093718057654
-0.5249821568959344 0.43724465294032294
-0.41861097343179204 0.5281783687000693
-0.400882442854435 0.5584896072866514
-0.41861097343179204 0.4675558915269051
-0.5072536263185774 0.3766221757671587
-0.5427106874732915 0.3159996985939944
-0.5072536263185774 0.3159996985939944
-0.48952509574122033 0.4978671301134872
-0.41861097343179204 0.4978671301134872
-0.4363395040091491 0.43724465294032294
-0.47179656516386326 0.3766221757671587
-0.5249821568959344 0.28568846000741227
-0.5427106874732915 0.4069334143537408
-0.5072536263185774 0.4675558915269051
-0.4540680345865062 0.4978671301134872
-0.4540680345865062 0.5281783687000693
-0.48952509574122033 0.3159996985939944
-0.5604392180506486 0.28568846000741227
-0.5249821568959344 0.3766221757671587
-0.47179656516386326 0.5888008458732336
-0.4540680345865062 0.4978671301134872
-0.41861097343179204 0.4675558915269051
-0.5072536263185774 0.3159996985939944
-0.5604392180506486 0.3159996985939944
-0.5604392180506486 0.4675558915269051
-0.48952509574122033 0.43724465294032294
-0.4363395040091491 0.43724465294032294
-0.4540680345865062 0.3766221757671587
-0.47179656516386326 0.2553772214208302
-0.5072536263185774 0.3159996985939944
-0.47179656516386326 0.4069334143537408
-0.41861097343179204 0.4978671301134872
-0.36542538169972083 0.5281783687000693
-0.41861097343179204 0.4069334143537408
-0.5072536263185774 0.34631093718057654
-0.5427106874732915 0.43724465294032294
-0.5958962792053627 0.5584896072866514
-0.48952509574122033 0.67973456163298
-0.1704115453487931 0.67973456163298
0.2905302496624906 0.5888008458732336
0.7869291058284884 0.22506598283424803
1.3010564925718433 -0.04773516444499114
1.9215550627793407 -0.29022507313764817
2.595239224718909 -0.5327149818303052
3.1802807337716925 -0.8661386062827087
3.4107516312773343 -1.16925099214853
3.357566039545263 -1.5329858551875155
2.8966242445339794 -1.8057870024667546
2.276125674326482 -1.7148532867070083
1.5492559206548424 -1.5329858551875155
0.4500870248587042 -1.411740900841187
-0.8263671767110046 -1.1995622307351121
-1.996450194816571 -1.0176947992156193
-2.6701343567561393 -0.8661386062827087
-2.758777009642925 -0.6236486975900516
-2.315563745208998 -0.22960259596448393
-1.8014363584656432 0.10382102848791952
-1.5355083998052872 0.2553772214208302
-1.2873089717222883 0.1947547442476659
-1.0391095436392894 0.22506598283424803
-0.7909101155562904 0.3159996985939944
-0.5604392180506486 0.3159996985939944
-0.41861097343179204 0.34631093718057654
-0.400882442854435 0.3159996985939944
-0.4363395040091491 0.2553772214208302
-0.4363395040091491 0.1947547442476659
-0.3831539122770779 0.34631093718057654
-0.3122397899676496 0.4675558915269051
-0.25905419823557846 0.4978671301134872
-0.20586860650350725 0.43724465294032294
-0.20586860650350725 0.34631093718057654
-0.2413256676582214 0.3159996985939944
-0.20586860650350725 0.34631093718057654
-0.18814007592615017 0.4675558915269051
-0.09949742303936485 0.43724465294032294
-0.028583300729936582 0.4675558915269051
-0.08176889246200779 0.3766221757671587
-0.09949742303936485 0.3159996985939944
-0.09949742303936485 0.34631093718057654
0.006873760424777549 0.4978671301134872
0.11324494388891995 0.43724465294032294
0.13097347446627702 0.3159996985939944
0.13097347446627702 0.3159996985939944
0.11324494388891995 0.28568846000741227
0.16643053562099114 0.3766221757671587
0.2550731885077765 0.3766221757671587
0.37917290254927594 0.34631093718057654
0.396901433126633 0.28568846000741227
0.43235849428134715 0.13413226707450165
0.4678155554360613 0.1947547442476659
0.5387296777454895 0.28568846000741227
0.5919152694775607 0.22506598283424803
0.6805579223643461 0.22506598283424803
0.6982864529417031 0.13413226707450165
0.7337435140964172 0.10382102848791952
0.7869291058284884 0.07350978990133739
0.8755717587152738 0.13413226707450165
0.9464858810247021 0.16444350566108376
1.0528570644888444 0.1947547442476659
1.0883141256435587 0.13413226707450165
1.0705855950662015 0.012887312728173124
1.0351285339114873 -0.017423925858409007
1.1414997173756298 -0.04773516444499114
1.1769567785303439 0.13413226707450165
1.230142370262415 0.16444350566108376
1.3010564925718433 0.07350978990133739
1.2124138396850581 -0.04773516444499114
1.2124138396850581 -0.017423925858409007
1.230142370262415 0.04319855131475525
1.3010564925718433 0.10382102848791952
1.3542420843039147 0.16444350566108376
1.2833279619944864 0.16444350566108376
1.230142370262415 0.04319855131475525
1.159228247952987 -0.017423925858409007
1.194685309107701 0.07350978990133739
1.159228247952987 0.13413226707450165
1.159228247952987 0.22506598283424803
1.0528570644888444 0.16444350566108376
0.9642144116020591 0.012887312728173124
0.8578432281379167 0.012887312728173124
0.7692005752511314 0.16444350566108376
0.7514720446737744 0.22506598283424803
0.7514720446737744 0.3159996985939944
0.645100861209632 0.22506598283424803
0.5210011471681325 0.13413226707450165
0.37917290254927594 0.1947547442476659
0.3437158413945618 0.2553772214208302
0.3259873108172047 0.4069334143537408
0.2550731885077765 0.4069334143537408
0.16643053562099114 0.3766221757671587
0.09551641331156288 0.28568846000741227
-0.010854770152579518 0.43724465294032294
-0.06404036188465072 0.3766221757671587
-0.08176889246200779 0.5281783687000693
-0.028583300729936582 0.4978671301134872
-0.08176889246200779 0.4978671301134872
-0.134954484194079 0.28568846000741227
-0.2413256676582214 0.3159996985939944
-0.20586860650350725 0.3766221757671587
-0.25905419823557846 0.4675558915269051
-0.20586860650350725 0.5888008458732336
-0.25905419823557846 0.4675558915269051
-0.3122397899676496 0.3766221757671587
-0.34769685112236376 0.3159996985939944
-0.36542538169972083 0.3766221757671587
-0.3299683205450067 0.5888008458732336
-0.2945112593902926 0.4675558915269051
-0.2945112593902926 0.4978671301134872
-0.36542538169972083 0.43724465294032294
-0.3831539122770779 0.34631093718057654
-0.41861097343179204 0.3766221757671587
-0.3299683205450067 0.5281783687000693
-0.2945112593902926 0.4978671301134872
-0.3122397899676496 0.4069334143537408
-0.36542538169972083 0.34631093718057654
-0.3831539122770779 0.3159996985939944
-0.3831539122770779 0.4978671301134872
-0.3299683205450067 0.5281783687000693
-0.3122397899676496 0.5281783687000693
-0.27678272881293553 0.4978671301134872
-0.3122397899676496 0.4069334143537408
-0.3299683205450067 0.34631093718057654
-0.34769685112236376 0.4978671301134872
-0.25905419823557846 0.5584896072866514
-0.20586860650350725 0.6494233230463978
-0.18814007592615017 0.5888008458732336
-0.2413256676582214 0.43724465294032294
-0.27678272881293553 0.4675558915269051
-0.2413256676582214 0.4978671301134872
-0.11722595361672192 0.7100458002195621
-0.028583300729936582 0.67973456163298
-0.028583300729936582 0.5281783687000693
-0.028583300729936582 0.5281783687000693
-0.04631183130729365 0.5281783687000693
-0.04631183130729365 0.4978671301134872
0.024602291002134614 0.5888008458732336
0.006873760424777549 0.4675558915269051
-0.04631183130729365 0.3766221757671587
-0.11722595361672192 0.2553772214208302
-0.1704115453487931 0.22506598283424803
-0.22359713708086432 0.2553772214208302
-0.15268301477143606 0.34631093718057654
-0.1704115453487931 0.34631093718057654
-0.15268301477143606 0.3766221757671587
-0.27678272881293553 0.10382102848791952
-0.34769685112236376 0.13413226707450165
-0.3122397899676496 0.22506598283424803
-0.27678272881293553 0.3766221757671587
-0.1704115453487931 0.34631093718057654
-0.18814007592615017 0.28568846000741227
-0.22359713708086432 0.28568846000741227
-0.3122397899676496 0.1947547442476659
-0.36542538169972083 0.3159996985939944
-0.34769685112236376 0.3766221757671587
-0.3122397899676496 0.4069334143537408
-0.3122397899676496 0.3159996985939944
-0.34769685112236376 0.2553772214208302
-0.3831539122770779 0.22506598283424803
-0.3831539122770779 0.34631093718057654
-0.4363395040091491 0.34631093718057654
-0.34769685112236376 0.3766221757671587
-0.27678272881293553 0.3159996985939944
-0.34769685112236376 0.1947547442476659
-0.36542538169972083 0.16444350566108376
-0.41861097343179204 0.28568846000741227
-0.3831539122770779 0.4069334143537408
-0.34769685112236376 0.4069334143537408
-0.34769685112236376 0.2553772214208302
-0.34769685112236376 0.22506598283424803
-0.400882442854435 0.16444350566108376
-0.41861097343179204 0.28568846000741227
-0.34769685112236376 0.34631093718057654
-0.3122397899676496 0.3766221757671587
-0.3299683205450067 0.3159996985939944
-0.36542538169972083 0.28568846000741227
-0.41861097343179204 0.22506598283424803
-0.47179656516386326 0.28568846000741227
-0.36542538169972083 0.43724465294032294
-0.25905419823557846 0.4069334143537408
-0.27678272881293553 0.34631093718057654
-0.400882442854435 0.28568846000741227
-0.3831539122770779 0.1947547442476659
-0.34769685112236376 0.2553772214208302
-0.3299683205450067 0.34631093718057654
-0.25905419823557846 0.4069334143537408
-0.25905419823557846 0.1947547442476659
-0.3299683205450067 0.1947547442476659
-0.34769685112236376 0.16444350566108376
-0.36542538169972083 0.22506598283424803
-0.3122397899676496 0.3766221757671587
-0.2945112593902926 0.3766221757671587
-0.34769685112236376 0.3766221757671587
-0.4363395040091491 0.3159996985939944
-0.3831539122770779 0.4069334143537408
-0.18814007592615017 0.5584896072866514
0.27280171908513356 0.5888008458732336
0.8755717587152738 0.4069334143537408
1.496070328922771 0.04319855131475525
2.010197715666126 -0.29022507313764817
2.6129677552962662 -0.5933374590034695
3.2334663255037634 -0.8661386062827087
3.658951059360333 -1.1086285149753656
3.8007793039791897 -1.5026746166009335
3.4284801618546914 -1.8664094796399189
2.6661533470283376 -2.139210626919158
1.8860980016246265 -2.1695218655057404
0.8933002892926308 -1.9270319568130831
-0.25905419823557846 -1.7451645252935903
-1.3050375022996454 -1.4420521394277692
-2.209192561744856 -1.2601847079082764
-2.5992202344467112 -1.0480060378022014
-2.4573919898278547 -0.8055161291095444
-2.049635786548642 -0.35084755031081244
-1.5886939915373584 0.07350978990133739
-1.2341233799902172 0.1947547442476659
-1.0391095436392894 0.2553772214208302
-0.8086386461336474 0.13413226707450165
-0.6313533403600768 0.13413226707450165
-0.5072536263185774 0.1947547442476659
-0.3831539122770779 0.3159996985939944
-0.25905419823557846 0.4069334143537408
-0.25905419823557846 0.28568846000741227
-0.25905419823557846 0.2553772214208302
-0.22359713708086432 0.22506598283424803
-0.20586860650350725 0.34631093718057654
-0.18814007592615017 0.4675558915269051
-0.06404036188465072 0.4069334143537408
-0.09949742303936485 0.28568846000741227
-0.09949742303936485 0.2553772214208302
-0.134954484194079 0.2553772214208302
-0.11722595361672192 0.28568846000741227
-0.028583300729936582 0.3766221757671587
0.07778788273420581 0.34631093718057654
0.07778788273420581 0.3766221757671587
0.060059352156848746 0.22506598283424803
0.024602291002134614 0.22506598283424803
0.04233082157949168 0.22506598283424803
0.09551641331156288 0.34631093718057654
0.16643053562099114 0.34631093718057654
0.23734465793041942 0.2553772214208302
0.2550731885077765 0.10382102848791952
0.2550731885077765 0.13413226707450165
0.30825878023984765 0.13413226707450165
0.396901433126633 0.22506598283424803
0.4678155554360613 0.2553772214208302
0.5741867389002037 0.16444350566108376
0.5387296777454895 0.012887312728173124
0.5387296777454895 0.04319855131475525
0.6273723306322748 0.04319855131475525
0.7337435140964172 0.16444350566108376
0.8223861669832025 0.22506598283424803
0.8401146975605597 0.07350978990133739
0.911028819869988 -0.04773516444499114
0.911028819869988 -0.07804640303157327
0.9819429421794161 0.07350978990133739
1.0705855950662015 0.10382102848791952
1.159228247952987 0.13413226707450165
1.2124138396850581 0.04319855131475525
1.2124138396850581 -0.10835764161815539
1.159228247952987 -0.16898011879131966
1.230142370262415 -0.04773516444499114
1.2833279619944864 0.04319855131475525
1.3896991454586287 0.10382102848791952
1.3542420843039147 -0.04773516444499114
1.3187850231492004 -0.07804640303157327
1.3187850231492004 -0.13866888020473753
1.3365135537265576 0.012887312728173124
1.3719706148812716 0.07350978990133739
1.4428847371906999 0.07350978990133739
1.4251562066133427 0.012887312728173124
1.3719706148812716 -0.04773516444499114
1.2655994314171293 -0.017423925858409007
1.2655994314171293 0.012887312728173124
1.2478709008397721 0.10382102848791952
1.2478709008397721 0.28568846000741227
1.1414997173756298 0.16444350566108376
1.0351285339114873 0.04319855131475525
0.911028819869988 0.012887312728173124
0.8578432281379167 0.13413226707450165
0.7869291058284884 0.28568846000741227
0.7514720446737744 0.34631093718057654
0.645100861209632 0.28568846000741227
0.5387296777454895 0.22506598283424803
0.4146299637039901 0.28568846000741227
0.396901433126633 0.34631093718057654
0.30825878023984765 0.43724465294032294
0.3259873108172047 0.43724465294032294
0.2550731885077765 0.4069334143537408
0.16643053562099114 0.28568846000741227
0.024602291002134614 0.2553772214208302
-0.028583300729936582 0.3766221757671587
-0.04631183130729365 0.43724465294032294
0.006873760424777549 0.43724465294032294
-0.04631183130729365 0.3766221757671587
-0.11722595361672192 0.34631093718057654
-0.15268301477143606 0.3766221757671587
-0.20586860650350725 0.43724465294032294
-0.18814007592615017 0.4069334143537408
-0.134954484194079 0.43724465294032294
-0.11722595361672192 0.3159996985939944
-0.18814007592615017 0.3159996985939944
-0.2413256676582214 0.28568846000741227
-0.25905419823557846 0.3766221757671587
-0.18814007592615017 0.43724465294032294
-0.134954484194079 0.4675558915269051
-0.134954484194079 0.43724465294032294
-0.25905419823557846 0.3159996985939944
-0.25905419823557846 0.22506598283424803
-0.27678272881293553 0.4069334143537408
-0.25905419823557846 0.4069334143537408
-0.18814007592615017 0.43724465294032294
-0.18814007592615017 0.43724465294032294
-0.27678272881293553 0.1947547442476659
-0.27678272881293553 0.3159996985939944
-0.2413256676582214 0.3766221757671587
-0.20586860650350725 0.43724465294032294
-0.134954484194079 0.4675558915269051
-0.11722595361672192 0.34631093718057654
-0.134954484194079 0.43724465294032294
-0.11722595361672192 0.43724465294032294
-0.134954484194079 0.5281783687000693
-0.134954484194079 0.5888008458732336
-0.028583300729936582 0.5888008458732336
-0.08176889246200779 0.6191120844598157
-0.09949742303936485 0.43724465294032294
-0.11722595361672192 0.34631093718057654
-0.09949742303936485 0.5584896072866514
-0.010854770152579518 0.67973456163298
0.09551641331156288 0.6494233230463978
0.07778788273420581 0.6191120844598157
0.09551641331156288 0.4978671301134872
0.09551641331156288 0.4675558915269051
0.11324494388891995 0.5281783687000693
0.13097347446627702 0.5584896072866514
0.11324494388891995 0.43724465294032294
0.060059352156848746 0.4069334143537408
-0.06404036188465072 0.22506598283424803
-0.08176889246200779 0.16444350566108376
-0.15268301477143606 0.28568846000741227
-0.134954484194079 0.3159996985939944
-0.09949742303936485 0.34631093718057654
-0.1704115453487931 0.22506598283424803
-0.20586860650350725 0.10382102848791952
-0.2413256676582214 0.13413226707450165
-0.25905419823557846 0.2553772214208302
-0.22359713708086432 0.2553772214208302
-0.15268301477143606 0.28568846000741227
-0.134954484194079 0.3159996985939944
-0.18814007592615017 0.1947547442476659
-0.3122397899676496 0.16444350566108376
-0.34769685112236376 0.28568846000741227
-0.3831539122770779 0.3159996985939944
-0.3122397899676496 0.28568846000741227
-0.2945112593902926 0.1947547442476659
-0.34769685112236376 0.13413226707450165
-0.3299683205450067 0.1947547442476659
-0.3831539122770779 0.16444350566108376
-0.3299683205450067 0.34631093718057654
-0.25905419823557846 0.2553772214208302
-0.27678272881293553 0.3159996985939944
-0.3299683205450067 0.16444350566108376
-0.36542538169972083 0.16444350566108376
-0.36542538169972083 0.2553772214208302
-0.34769685112236376 0.28568846000741227
-0.2945112593902926 0.28568846000741227
-0.25905419823557846 0.28568846000741227
-0.2945112593902926 0.22506598283424803
-0.400882442854435 0.16444350566108376
-0.400882442854435 0.22506598283424803
-0.2945112593902926 0.4069334143537408
-0.22359713708086432 0.3159996985939944
-0.25905419823557846 0.3159996985939944
-0.3122397899676496 0.1947547442476659
-0.34769685112236376 0.16444350566108376
-0.34769685112236376 0.3159996985939944
-0.3122397899676496 0.3159996985939944
-0.22359713708086432 0.3766221757671587
-0.2413256676582214 0.28568846000741227
-0.2945112593902926 0.22506598283424803
-0.3831539122770779 0.22506598283424803
-0.3299683205450067 0.22506598283424803
-0.25905419823557846 0.3766221757671587
-0.22359713708086432 0.3159996985939944
-0.27678272881293553 0.34631093718057654
-0.3122397899676496 0.22506598283424803
-0.36542538169972083 0.22506598283424803
-0.3122397899676496 0.28568846000741227
-0.2413256676582214 0.3159996985939944
-0.2413256676582214 0.3159996985939944
-0.2945112593902926 0.3159996985939944
-0.34769685112236376 0.3159996985939944
-0.400882442854435 0.3159996985939944
-0.25905419823557846 0.5584896072866514
0.006873760424777549 0.6191120844598157
0.4855440860134183 0.4978671301134872
0.9819429421794161 0.2553772214208302
1.460613267768057 -0.10835764161815539
1.9570121239340548 -0.35084755031081244
2.5597821635641953 -0.5327149818303052
3.1802807337716925 -0.8055161291095444
3.623493998205619 -1.0783172763887836
3.8007793039791897 -1.5329858551875155
3.7121366510924045 -1.9270319568130831
3.1980092643490496 -2.2604555812654867
2.524325102409481 -2.5332567285447256
1.974740654511412 -2.3817005356118153
1.3010564925718433 -2.351389297025233
0.16643053562099114 -2.2301443426789045
-1.0391095436392894 -2.0785881497459937
-2.014178725393928 -1.7148532867070083
-2.54603464271464 -1.4723633780143512
-2.475120520405212 -0.9267610834558729
-2.067364317125999 -0.5630262204168873
-1.695065175001501 -0.22960259596448393
-1.3936801551864306 -0.13866888020473753
-1.180937788258146 0.04319855131475525
-0.9150098295977899 0.07350978990133739
-0.6490818709374339 0.1947547442476659
-0.3831539122770779 0.16444350566108376
-0.36542538169972083 0.13413226707450165
-0.36542538169972083 0.10382102848791952
-0.34769685112236376 0.07350978990133739
-0.3299683205450067 0.22506598283424803
-0.25905419823557846 0.22506598283424803
-0.18814007592615017 0.3766221757671587
-0.1704115453487931 0.2553772214208302
-0.1704115453487931 0.1947547442476659
-0.15268301477143606 0.13413226707450165
-0.18814007592615017 0.2553772214208302
-0.09949742303936485 0.34631093718057654
0.024602291002134614 0.3766221757671587
-0.04631183130729365 0.2553772214208302
-0.028583300729936582 0.10382102848791952
-0.08176889246200779 0.22506598283424803
-0.010854770152579518 0.22506598283424803
0.04233082157949168 0.28568846000741227
0.13097347446627702 0.3159996985939944
0.11324494388891995 0.22506598283424803
0.09551641331156288 0.10382102848791952
0.07778788273420581 0.07350978990133739
0.16643053562099114 0.1947547442476659
0.1841590661983482 0.2553772214208302
0.30825878023984765 0.2553772214208302
0.3259873108172047 0.16444350566108376
0.3437158413945618 0.012887312728173124
0.3259873108172047 -0.017423925858409007
0.36144437197191887 0.07350978990133739
0.4855440860134183 0.10382102848791952
0.5564582083228466 0.13413226707450165
0.5919152694775607 0.10382102848791952
0.5919152694775607 -0.017423925858409007
0.645100861209632 -0.10835764161815539
0.6805579223643461 -0.04773516444499114
0.6982864529417031 0.10382102848791952
0.8933002892926308 0.07350978990133739
0.928757350447345 -0.04773516444499114
0.911028819869988 -0.10835764161815539
0.9642144116020591 -0.13866888020473753
0.9996714727567733 -0.017423925858409007
1.0705855950662015 0.012887312728173124
1.1060426562209156 -0.04773516444499114
1.1237711867982727 -0.13866888020473753
1.159228247952987 -0.16898011879131966
1.1237711867982727 -0.25991383455106604
1.1769567785303439 -0.16898011879131966
1.2655994314171293 -0.07804640303157327
1.3187850231492004 -0.017423925858409007
1.2833279619944864 -0.10835764161815539
1.2833279619944864 -0.22960259596448393
1.2655994314171293 -0.22960259596448393
1.2655994314171293 -0.10835764161815539
1.3542420843039147 -0.04773516444499114
1.3365135537265576 -0.04773516444499114
1.3542420843039147 -0.10835764161815539
1.3010564925718433 -0.10835764161815539
1.2833279619944864 -0.16898011879131966
1.2655994314171293 -0.10835764161815539
1.2478709008397721 0.04319855131475525
1.2478709008397721 0.10382102848791952
1.230142370262415 0.012887312728173124
1.159228247952987 0.012887312728173124
1.0705855950662015 0.012887312728173124
0.9819429421794161 0.07350978990133739
0.9642144116020591 0.13413226707450165
0.928757350447345 0.1947547442476659
0.8401146975605597 0.1947547442476659
0.6805579223643461 0.22506598283424803
0.5919152694775607 0.22506598283424803
0.5032726165907754 0.2553772214208302
0.4500870248587042 0.4069334143537408
0.4146299637039901 0.43724465294032294
0.3259873108172047 0.34631093718057654
0.27280171908513356 0.3159996985939944
0.16643053562099114 0.28568846000741227
0.09551641331156288 0.3766221757671587
0.09551641331156288 0.4675558915269051
0.07778788273420581 0.4675558915269051
0.024602291002134614 0.4675558915269051
-0.04631183130729365 0.4069334143537408
-0.09949742303936485 0.34631093718057654
-0.15268301477143606 0.4675558915269051
-0.09949742303936485 0.5281783687000693
-0.09949742303936485 0.5584896072866514
-0.134954484194079 0.4069334143537408
-0.22359713708086432 0.43724465294032294
-0.2413256676582214 0.3766221757671587
-0.27678272881293553 0.4978671301134872
-0.22359713708086432 0.43724465294032294
-0.20586860650350725 0.4675558915269051
-0.22359713708086432 0.4978671301134872
-0.2413256676582214 0.3766221757671587
-0.3122397899676496 0.4069334143537408
-0.2945112593902926 0.4069334143537408
-0.27678272881293553 0.5281783687000693
-0.25905419823557846 0.4978671301134872
-0.25905419823557846 0.43724465294032294
-0.2945112593902926 0.3159996985939944
-0.27678272881293553 0.4069334143537408
-0.27678272881293553 0.4675558915269051
-0.25905419823557846 0.6191120844598157
-0.2413256676582214 0.4978671301134872
-0.18814007592615017 0.4978671301134872
-0.2413256676582214 0.3159996985939944
-0.2945112593902926 0.3159996985939944
-0.2945112593902926 0.3159996985939944
-0.20586860650350725 0.5584896072866514
-0.1704115453487931 0.5888008458732336
-0.1704115453487931 0.5281783687000693
-0.1704115453487931 0.43724465294032294
-0.2413256676582214 0.4675558915269051
-0.20586860650350725 0.5584896072866514
-0.134954484194079 0.7100458002195621
-0.09949742303936485 0.7706682773927264
0.006873760424777549 0.67973456163298
-0.028583300729936582 0.7100458002195621
-0.028583300729936582 0.7100458002195621
0.04233082157949168 0.8312907545658906
0.13097347446627702 0.922224470325637
0.2905302496624906 1.0434694246719656
0.3437158413945618 0.9828469474988013
0.4146299637039901 1.0434694246719656
0.4678155554360613 1.1040919018451298
0.645100861209632 1.2556480947780404
0.8578432281379167 1.346581810537787
1.0705855950662015 1.346581810537787
1.194685309107701 1.4072042877109512
1.3365135537265576 1.1950256176048761
1.5669844512321993 1.164714379018294
1.9392835933566979 1.1950256176048761
2.3824968577906245 1.2859593333646226
2.807981591647194 1.1950256176048761
3.2511948560811206 1.1344031404317119
3.7475937122471183 0.9828469474988013
4.314906690722545 0.8919132317390549
4.988590852662113 0.8616019931524728
5.60908942286961 0.922224470325637
6.15867387076768 0.922224470325637
6.63734419635632 0.8312907545658906
7.027371869058176 0.8009795159793085
7.36421395002796 0.67973456163298
7.647870439265673 0.8009795159793085
7.878341336771315 0.8919132317390549
8.126540764854314 0.8616019931524728
8.073355173122243 0.8009795159793085
7.771970153307173 0.8009795159793085
7.186928644254389 0.922224470325637
6.052302687303537 1.2253368561914584
4.155349915526331 1.5284492420572797
2.2052115520170537 2.074051536615758
1.194685309107701 2.2862302067218327
1.0351285339114873 2.255918968135251
0.7160149835190602 2.255918968135251
-0.010854770152579518 2.4984088768279076
-0.8618242378657187 2.95307745562664
-1.482322808073216 3.256189841492461
-1.9432646030844998 3.3471235572522073
-2.24464962289957 3.4380572730119536
-2.492849050982569 3.468368511598536
-2.581491703869354 3.5289909887717004
-2.581491703869354 3.6199247045314467
-2.5283061121372827 3.468368511598536
-2.492849050982569 3.1349448871461325
-2.510577581559926 2.710587546933983
-2.4219349286731404 2.2256077295486687
-2.2623781534769267 1.7709391507499366
-1.9787216642392138 1.4072042877109512
-1.7659792973109292 0.9525357089122192
-1.6418795832694295 0.5584896072866514
-1.6064225221147155 0.07350978990133739
-1.6241510526920726 -0.10835764161815539
-1.5709654609600014 -0.3205363117242303
-1.5000513386505732 -0.3811587888973946
-1.464594277495859 -0.472092504657141
-1.4468657469185018 -0.5933374590034695
-1.464594277495859 -0.8661386062827087
-1.5709654609600014 -0.8964498448692908
-1.5355083998052872 -0.9267610834558729
-1.4468657469185018 -0.8055161291095444
-1.4468657469185018 -0.9267610834558729
-1.464594277495859 -1.0480060378022014
-1.464594277495859 -1.16925099214853
-1.482322808073216 -1.2601847079082764
-1.464594277495859 -1.1389397535619479
-1.4114086857637878 -1.1995622307351121
-1.4114086857637878 -1.1389397535619479
-1.3936801551864306 -1.2904959464948584
-1.464594277495859 -1.381429662254605
-1.482322808073216 -1.4420521394277692
-1.4468657469185018 -1.5026746166009335
-1.4468657469185018 -1.2601847079082764
-1.3227660328770023 -1.381429662254605
-1.3759516246090737 -1.4420521394277692
-1.3582230940317166 -1.5936083323606798
-1.3582230940317166 -1.7148532867070083
-1.3936801551864306 -1.6239195709472618
-1.3404945634543595 -1.5936083323606798
-1.251851910567574 -1.5329858551875155
-1.2873089717222883 -1.684542048120426
-1.3404945634543595 -1.8360982410533369
-1.3227660328770023 -1.8057870024667546
-1.2873089717222883 -1.8057870024667546
-1.2695804411449312 -1.7451645252935903
-1.21639484941286 -1.8360982410533369
-1.21639484941286 -1.8360982410533369
-1.251851910567574 -1.8967207182265011
-1.3050375022996454 -1.9573431953996654
-1.2695804411449312 -1.8967207182265011
-1.198666318835503 -1.7754757638801726
-1.1277521965260746 -1.7754757638801726
-1.1277521965260746 -1.7754757638801726
-1.180937788258146 -1.8360982410533369
-1.180937788258146 -1.8967207182265011
-1.1100236659487177 -1.8057870024667546
-1.0745666047940035 -1.654230809533844
-1.0036524824845752 -1.5632970937740975
-0.950466890752504 -1.5936083323606798
-0.950466890752504 -1.654230809533844
-0.950466890752504 -1.5936083323606798
-0.8618242378657187 -1.4420521394277692
-0.7909101155562904 -1.3208071850814407
-0.684538932092148 -1.1389397535619479
-0.6313533403600768 -1.2298734693216942
-0.5958962792053627 -1.16925099214853
-0.5781677486280057 -1.1995622307351121
-0.5604392180506486 -0.9873835606290372
-0.5072536263185774 -0.8055161291095444
-0.400882442854435 -0.714582413349798
-0.41861097343179204 -0.7752048905229623
-0.41861097343179204 -0.7752048905229623
-0.4363395040091491 -0.6842711747632159
-0.4540680345865062 -0.5327149818303052
-0.41861097343179204 -0.4114700274839767
-0.34769685112236376 -0.29022507313764817
-0.34769685112236376 -0.22960259596448393
-0.4540680345865062 -0.1992913573779018
-0.48952509574122033 -0.1992913573779018
-0.48952509574122033 -0.10835764161815539
-0.4363395040091491 0.07350978990133739
-0.400882442854435 0.16444350566108376
-0.47179656516386326 0.13413226707450165
-0.5072536263185774 0.07350978990133739
-0.5427106874732915 0.07350978990133739
-0.5604392180506486 0.28568846000741227
-0.5249821568959344 0.2553772214208302
-0.47179656516386326 0.34631093718057654
-0.5249821568959344 0.22506598283424803
-0.5604392180506486 0.2553772214208302
-0.6136248097827197 0.22506598283424803
-0.666810401514791 0.2553772214208302
-0.5427106874732915 0.3159996985939944
-0.48952509574122033 0.3766221757671587
-0.5249821568959344 0.28568846000741227
-0.5249821568959344 0.2553772214208302
-0.5072536263185774 0.28568846000741227
-0.5604392180506486 0.3766221757671587
-0.48952509574122033 0.4069334143537408
-0.400882442854435 0.4069334143537408
-0.47179656516386326 0.3159996985939944
-0.48952509574122033 0.28568846000741227
-0.5249821568959344 0.28568846000741227
-0.5072536263185774 0.3766221757671587
-0.5072536263185774 0.3159996985939944
-0.4363395040091491 0.43724465294032294
-0.4540680345865062 0.3766221757671587
-0.48952509574122033 0.2553772214208302
-0.5249821568959344 0.16444350566108376
-0.5427106874732915 0.34631093718057654
-0.5072536263185774 0.4675558915269051
-0.41861097343179204 0.4675558915269051
-0.41861097343179204 0.3159996985939944
-0.4540680345865062 0.2553772214208302
-0.5249821568959344 0.3159996985939944
-0.5427106874732915 0.3159996985939944
-0.5072536263185774 0.43724465294032294
-0.47179656516386326 0.4675558915269051
-0.47179656516386326 0.3159996985939944
-0.47179656516386326 0.2553772214208302
-0.5072536263185774 0.22506598283424803
-0.5427106874732915 0.2553772214208302
-0.4363395040091491 0.4069334143537408
-0.41861097343179204 0.3159996985939944
-0.4363395040091491 0.28568846000741227
-0.47179656516386326 0.22506598283424803
-0.5249821568959344 0.13413226707450165
-0.5072536263185774 0.28568846000741227
-0.47179656516386326 0.34631093718057654
-0.400882442854435 0.43724465294032294
-0.41861097343179204 0.2553772214208302
-0.48952509574122033 0.28568846000741227
-0.5249821568959344 0.2553772214208302
-0.47179656516386326 0.3159996985939944
-0.47179656516386326 0.28568846000741227
-0.3831539122770779 0.3766221757671587
-0.41861097343179204 0.34631093718057654
-0.4540680345865062 0.22506598283424803
-0.5249821568959344 0.22506598283424803
-0.5072536263185774 0.22506598283424803
-0.47179656516386326 0.3159996985939944
-0.41861097343179204 0.4069334143537408
-0.47179656516386326 0.43724465294032294
-0.4363395040091491 0.22506598283424803
-0.47179656516386326 0.2553772214208302
-0.5249821568959344 0.2553772214208302
-0.41861097343179204 0.34631093718057654
-0.3831539122770779 0.34631093718057654
-0.36542538169972083 0.3159996985939944
-0.41861097343179204 0.28568846000741227
-0.4540680345865062 0.16444350566108376
-0.47179656516386326 0.28568846000741227
-0.41861097343179204 0.3159996985939944
-0.36542538169972083 0.4069334143537408
-0.41861097343179204 0.28568846000741227
-0.400882442854435 0.28568846000741227
-0.41861097343179204 0.22506598283424803
-0.4363395040091491 0.34631093718057654
-0.2945112593902926 0.4978671301134872
-0.27678272881293553 0.5281783687000693
-0.25905419823557846 0.43724465294032294
-0.3122397899676496 0.34631093718057654
-0.34769685112236376 0.34631093718057654
-0.3122397899676496 0.4675558915269051
-0.20586860650350725 0.5584896072866514
-0.11722595361672192 0.6191120844598157
-0.08176889246200779 0.5281783687000693
-0.08176889246200779 0.4675558915269051
-0.09949742303936485 0.4069334143537408
-0.04631183130729365 0.43724465294032294
-0.010854770152579518 0.4978671301134872
-0.028583300729936582 0.3766221757671587
-0.010854770152579518 0.2553772214208302
-0.134954484194079 0.13413226707450165
-0.18814007592615017 0.13413226707450165
-0.27678272881293553 0.13413226707450165
-0.22359713708086432 0.16444350566108376
-0.20586860650350725 0.16444350566108376
-0.2413256676582214 0.13413226707450165
-0.36542538169972083 0.04319855131475525
-0.47179656516386326 -0.017423925858409007
-0.47179656516386326 0.07350978990133739
-0.3831539122770779 0.13413226707450165
-0.2945112593902926 0.28568846000741227
-0.27678272881293553 0.16444350566108376
-0.3299683205450067 0.07350978990133739
-0.3831539122770779 0.07350978990133739
-0.47179656516386326 0.1947547442476659
-0.4540680345865062 0.3159996985939944
-0.400882442854435 0.3159996985939944
-0.4540680345865062 0.2553772214208302
-0.48952509574122033 0.04319855131475525
-0.5249821568959344 0.04319855131475525
-0.5072536263185774 0.07350978990133739
-0.48952509574122033 0.22506598283424803
-0.4363395040091491 0.3159996985939944
-0.4363395040091491 0.1947547442476659
-0.48952509574122033 0.1947547442476659
-0.5072536263185774 0.04319855131475525
-0.47179656516386326 0.16444350566108376
-0.47179656516386326 0.1947547442476659
-0.3831539122770779 0.3159996985939944
-0.3831539122770779 0.2553772214208302
-0.4363395040091491 0.10382102848791952
-0.47179656516386326 0.13413226707450165
-0.4540680345865062 0.16444350566108376
-0.4363395040091491 0.2553772214208302
-0.36542538169972083 0.28568846000741227
-0.36542538169972083 0.22506598283424803
-0.41861097343179204 0.16444350566108376
-0.48952509574122033 0.13413226707450165
-0.47179656516386326 0.1947547442476659
-0.36542538169972083 0.2553772214208302
-0.3122397899676496 0.3159996985939944
-0.3299683205450067 0.1947547442476659
-0.3831539122770779 0.16444350566108376
-0.41861097343179204 0.10382102848791952
-0.400882442854435 0.22506598283424803
-0.41861097343179204 0.3159996985939944
-0.27678272881293553 0.28568846000741227
-0.3122397899676496 0.28568846000741227
-0.3122397899676496 0.16444350566108376
-0.36542538169972083 0.16444350566108376
-0.34769685112236376 0.1947547442476659
-0.36542538169972083 0.28568846000741227
-0.27678272881293553 0.3766221757671587
-0.2945112593902926 0.28568846000741227
-0.34769685112236376 0.2553772214208302
-0.36542538169972083 0.3766221757671587
-0.2413256676582214 0.5888008458732336
0.006873760424777549 0.6191120844598157
0.396901433126633 0.4978671301134872
0.8046576364058455 0.3766221757671587
1.194685309107701 0.04319855131475525
1.6024415123869136 -0.29022507313764817
2.063383307398197 -0.5327149818303052
2.542053632986838 -0.714582413349798
2.9320813056886936 -1.0176947992156193
3.127095142039621 -1.4420521394277692
3.056181019730193 -1.7451645252935903
2.790253061069837 -2.0179656725728297
2.311582735481196 -2.0179656725728297
1.8329124098925553 -1.8664094796399189
1.1060426562209156 -1.7754757638801726
0.07778788273420581 -1.5632970937740975
-1.0213810130619323 -1.4420521394277692
-1.9432646030844998 -1.2298734693216942
-2.4396634592504975 -0.9267610834558729
-2.475120520405212 -0.6842711747632159
-2.1382784394354273 -0.5327149818303052
-1.8191648890430003 -0.3811587888973946
-1.6241510526920726 -0.25991383455106604
-1.482322808073216 -0.13866888020473753
-1.21639484941286 -0.04773516444499114
-0.950466890752504 0.16444350566108376
-0.6313533403600768 0.1947547442476659
-0.5249821568959344 0.07350978990133739
-0.5072536263185774 0.012887312728173124
-0.48952509574122033 0.012887312728173124
-0.41861097343179204 0.10382102848791952
-0.3299683205450067 0.1947547442476659
-0.2413256676582214 0.2553772214208302
-0.22359713708086432 0.1947547442476659
-0.27678272881293553 0.13413226707450165
-0.3122397899676496 0.13413226707450165
-0.25905419823557846 0.28568846000741227
-0.2413256676582214 0.34631093718057654
-0.18814007592615017 0.3159996985939944
-0.09949742303936485 0.22506598283424803
-0.134954484194079 0.10382102848791952
-0.15268301477143606 0.07350978990133739
-0.134954484194079 0.16444350566108376
-0.06404036188465072 0.2553772214208302
0.04233082157949168 0.22506598283424803
0.04233082157949168 0.1947547442476659
0.006873760424777549 0.13413226707450165
-0.04631183130729365 0.07350978990133739
0.006873760424777549 0.16444350566108376
0.09551641331156288 0.22506598283424803
0.21961612735306235 0.22506598283424803
0.16643053562099114 0.10382102848791952
0.21961612735306235 0.04319855131475525
0.1841590661983482 0.07350978990133739
0.23734465793041942 0.13413226707450165
0.3437158413945618 0.16444350566108376
0.43235849428134715 0.16444350566108376
0.4146299637039901 0.07350978990133739
0.43235849428134715 -0.04773516444499114
0.4146299637039901 -0.07804640303157327
0.5032726165907754 0.07350978990133739
0.5919152694775607 0.04319855131475525
0.662829391786989 0.13413226707450165
0.6982864529417031 -0.04773516444499114
0.6805579223643461 -0.07804640303157327
0.6805579223643461 -0.13866888020473753
0.6982864529417031 -0.04773516444499114
0.7692005752511314 -0.017423925858409007
0.8755717587152738 0.012887312728173124
0.8755717587152738 -0.04773516444499114
0.8755717587152738 -0.10835764161815539
0.8223861669832025 -0.04773516444499114
0.8046576364058455 -0.04773516444499114
0.8755717587152738 0.07350978990133739
0.9642144116020591 0.012887312728173124
0.928757350447345 -0.017423925858409007
0.8755717587152738 -0.13866888020473753
0.8578432281379167 -0.16898011879131966
0.8755717587152738 -0.13866888020473753
0.911028819869988 -0.017423925858409007
0.9464858810247021 0.012887312728173124
0.911028819869988 -0.017423925858409007
0.8933002892926308 -0.10835764161815539
0.8223861669832025 -0.07804640303157327
0.8578432281379167 -0.04773516444499114
0.8755717587152738 0.04319855131475525
0.9464858810247021 0.10382102848791952
0.8755717587152738 0.04319855131475525
0.7869291058284884 0.04319855131475525
0.7514720446737744 -0.017423925858409007
0.7160149835190602 -0.017423925858409007
0.7337435140964172 0.10382102848791952
0.7514720446737744 0.1947547442476659
0.6982864529417031 0.04319855131475525
0.6273723306322748 0.012887312728173124
0.5387296777454895 0.07350978990133739
0.4500870248587042 0.2553772214208302
0.4500870248587042 0.22506598283424803
0.4500870248587042 0.2553772214208302
0.43235849428134715 0.16444350566108376
0.3259873108172047 0.10382102848791952
0.2550731885077765 0.04319855131475525
0.1841590661983482 0.13413226707450165
0.1841590661983482 0.28568846000741227
0.16643053562099114 0.2553772214208302
0.11324494388891995 0.16444350566108376
0.04233082157949168 0.13413226707450165
-0.010854770152579518 0.07350978990133739
-0.04631183130729365 0.10382102848791952
-0.028583300729936582 0.2553772214208302
-0.010854770152579518 0.2553772214208302
-0.06404036188465072 0.16444350566108376
-0.134954484194079 0.10382102848791952
-0.20586860650350725 0.04319855131475525
-0.27678272881293553 0.13413226707450165
-0.18814007592615017 0.22506598283424803
-0.11722595361672192 0.3159996985939944
-0.15268301477143606 0.16444350566108376
-0.2413256676582214 0.13413226707450165
-0.2945112593902926 0.10382102848791952
-0.2945112593902926 0.04319855131475525
-0.27678272881293553 0.2553772214208302
-0.18814007592615017 0.2553772214208302
-0.20586860650350725 0.1947547442476659
-0.2413256676582214 0.10382102848791952
-0.2413256676582214 0.04319855131475525
-0.25905419823557846 0.16444350566108376
-0.2413256676582214 0.2553772214208302
-0.20586860650350725 0.34631093718057654
-0.20586860650350725 0.22506598283424803
-0.22359713708086432 0.1947547442476659
-0.2413256676582214 0.13413226707450165
-0.25905419823557846 0.28568846000741227
-0.18814007592615017 0.3159996985939944
-0.06404036188465072 0.3159996985939944
-0.06404036188465072 0.3159996985939944
-0.08176889246200779 0.3159996985939944
-0.134954484194079 0.1947547442476659
-0.11722595361672192 0.2553772214208302
-0.08176889246200779 0.4675558915269051
-0.028583300729936582 0.4675558915269051
0.024602291002134614 0.34631093718057654
-0.028583300729936582 0.3159996985939944
-0.028583300729936582 0.3159996985939944
0.07778788273420581 0.34631093718057654
0.14870200504363407 0.4069334143537408
0.20188759677570528 0.3766221757671587
0.21961612735306235 0.34631093718057654
0.1841590661983482 0.16444350566108376
0.14870200504363407 0.16444350566108376
0.07778788273420581 0.1947547442476659
0.11324494388891995 0.28568846000741227
0.14870200504363407 0.22506598283424803
0.024602291002134614 0.1947547442476659
0.024602291002134614 0.04319855131475525
0.006873760424777549 -0.017423925858409007
-0.04631183130729365 -0.017423925858409007
0.006873760424777549 0.10382102848791952
-0.028583300729936582 0.13413226707450165
-0.04631183130729365 0.04319855131475525
-0.09949742303936485 -0.04773516444499114
-0.134954484194079 -0.07804640303157327
-0.134954484194079 0.04319855131475525
-0.04631183130729365 0.13413226707450165
0.04233082157949168 0.1947547442476659
-0.028583300729936582 0.13413226707450165
-0.15268301477143606 0.07350978990133739
-0.22359713708086432 0.10382102848791952
-0.25905419823557846 0.04319855131475525
-0.1704115453487931 0.16444350566108376
-0.09949742303936485 0.2553772214208302
-0.134954484194079 0.1947547442476659
-0.20586860650350725 0.012887312728173124
-0.2413256676582214 0.07350978990133739
-0.2413256676582214 0.012887312728173124
-0.22359713708086432 0.13413226707450165
-0.18814007592615017 0.16444350566108376
-0.1704115453487931 0.16444350566108376
-0.20586860650350725 0.07350978990133739
-0.25905419823557846 0.012887312728173124
-0.25905419823557846 0.13413226707450165
-0.20586860650350725 0.1947547442476659
-0.22359713708086432 0.1947547442476659
-0.20586860650350725 0.16444350566108376
-0.25905419823557846 0.10382102848791952
-0.34769685112236376 0.07350978990133739
-0.3299683205450067 0.16444350566108376
-0.25905419823557846 0.2553772214208302
-0.20586860650350725 0.22506598283424803
-0.1704115453487931 0.16444350566108376
-0.3122397899676496 0.10382102848791952
-0.3122397899676496 0.10382102848791952
-0.34769685112236376 0.07350978990133739
-0.3122397899676496 0.16444350566108376
-0.22359713708086432 0.2553772214208302
-0.20586860650350725 0.13413226707450165
-0.25905419823557846 0.13413226707450165
-0.27678272881293553 0.04319855131475525
-0.25905419823557846 0.07350978990133739
-0.25905419823557846 0.16444350566108376
-0.1704115453487931 0.10382102848791952
-0.1704115453487931 0.07350978990133739
-0.25905419823557846 -0.017423925858409007
-0.2413256676582214 0.07350978990133739
-0.3122397899676496 0.13413226707450165
-0.3299683205450067 0.28568846000741227
-0.3122397899676496 0.28568846000741227
-0.36542538169972083 0.3766221757671587
-0.25905419823557846 0.22506598283424803
0.024602291002134614 0.13413226707450165
0.5032726165907754 -0.10835764161815539
1.0174000033341304 -0.22960259596448393
1.5492559206548424 -0.472092504657141
2.1165688991302685 -0.9267610834558729
2.595239224718909 -1.3511184236680227
2.8966242445339794 -1.7148532867070083
2.861167183379265 -2.0179656725728297
2.5597821635641953 -2.0785881497459937
2.063383307398197 -1.9573431953996654
1.2478709008397721 -1.8967207182265011
0.09551641331156288 -1.7754757638801726
-1.1454807271034317 -1.5329858551875155
-2.1737355005901415 -1.16925099214853
-2.5992202344467112 -0.8661386062827087
-2.386477867518426 -0.6236486975900516
-1.960993133661857 -0.472092504657141
-1.6064225221147155 -0.1992913573779018
-1.4114086857637878 -0.13866888020473753
-1.1277521965260746 -0.10835764161815539
-0.7554530544015763 0.1947547442476659
-0.5072536263185774 0.07350978990133739
-0.400882442854435 0.04319855131475525
-0.34769685112236376 -0.13866888020473753
-0.3122397899676496 -0.16898011879131966
-0.22359713708086432 -0.04773516444499114
-0.15268301477143606 0.13413226707450165
-0.04631183130729365 0.10382102848791952
-0.04631183130729365 0.07350978990133739
-0.08176889246200779 0.04319855131475525
-0.08176889246200779 0.012887312728173124
-0.08176889246200779 -0.017423925858409007
-0.09949742303936485 0.13413226707450165
-0.010854770152579518 0.1947547442476659
0.04233082157949168 0.10382102848791952
0.024602291002134614 -0.017423925858409007
0.04233082157949168 0.012887312728173124
0.04233082157949168 0.04319855131475525
0.13097347446627702 0.16444350566108376
0.23734465793041942 0.16444350566108376
0.1841590661983482 0.16444350566108376
0.16643053562099114 -0.04773516444499114
0.1841590661983482 -0.017423925858409007
0.20188759677570528 -0.017423925858409007
0.3259873108172047 0.04319855131475525
0.43235849428134715 0.012887312728173124
0.4500870248587042 -0.04773516444499114
0.5032726165907754 -0.07804640303157327
0.4500870248587042 -0.13866888020473753
0.4855440860134183 -0.07804640303157327
0.5741867389002037 -0.017423925858409007
0.662829391786989 0.012887312728173124
0.7514720446737744 -0.04773516444499114
0.7869291058284884 -0.10835764161815539
0.8223861669832025 -0.13866888020473753
0.8223861669832025 -0.07804640303157327
0.928757350447345 -0.017423925858409007
1.0174000033341304 -0.13866888020473753
1.0883141256435587 -0.10835764161815539
1.1060426562209156 -0.25991383455106604
1.1060426562209156 -0.25991383455106604
1.1237711867982727 -0.29022507313764817
1.230142370262415 -0.16898011879131966
1.3010564925718433 -0.16898011879131966
1.3010564925718433 -0.25991383455106604
1.2833279619944864 -0.3205363117242303
1.2655994314171293 -0.3811587888973946
1.3010564925718433 -0.29022507313764817
1.3365135537265576 -0.16898011879131966
1.3896991454586287 -0.16898011879131966
1.4074276760359858 -0.25991383455106604
1.3365135537265576 -0.29022507313764817
1.3542420843039147 -0.25991383455106604
1.3542420843039147 -0.1992913573779018
1.3719706148812716 -0.16898011879131966
1.3896991454586287 -0.1992913573779018
1.3010564925718433 -0.1992913573779018
1.230142370262415 -0.29022507313764817
1.159228247952987 -0.1992913573779018
1.1060426562209156 -0.16898011879131966
1.0528570644888444 -0.017423925858409007
1.0174000033341304 -0.13866888020473753
0.9642144116020591 -0.07804640303157327
0.7692005752511314 -0.13866888020473753
0.7160149835190602 -0.1992913573779018
0.6096438000549178 -0.07804640303157327
0.5387296777454895 0.012887312728173124
0.5387296777454895 0.13413226707450165
0.4500870248587042 0.10382102848791952
0.3259873108172047 0.07350978990133739
0.21961612735306235 0.10382102848791952
0.14870200504363407 0.07350978990133739
0.1841590661983482 0.13413226707450165
0.1841590661983482 0.10382102848791952
0.1841590661983482 -0.017423925858409007
0.04233082157949168 -0.07804640303157327
-0.028583300729936582 0.012887312728173124
-0.09949742303936485 0.012887312728173124
-0.08176889246200779 0.16444350566108376
-0.028583300729936582 0.1947547442476659
-0.028583300729936582 0.1947547442476659
-0.09949742303936485 0.07350978990133739
-0.11722595361672192 0.07350978990133739
-0.1704115453487931 0.16444350566108376
-0.134954484194079 0.16444350566108376
-0.06404036188465072 0.16444350566108376
-0.11722595361672192 0.10382102848791952
-0.1704115453487931 0.012887312728173124
-0.22359713708086432 0.07350978990133739
-0.18814007592615017 0.10382102848791952
-0.134954484194079 0.22506598283424803
-0.134954484194079 0.1947547442476659
-0.134954484194079 0.04319855131475525
-0.1704115453487931 -0.017423925858409007
-0.20586860650350725 -0.017423925858409007
-0.2413256676582214 0.10382102848791952
-0.1704115453487931 0.1947547442476659
-0.08176889246200779 0.2553772214208302
-0.11722595361672192 0.13413226707450165
-0.09949742303936485 0.10382102848791952
-0.15268301477143606 0.10382102848791952
-0.18814007592615017 0.13413226707450165
-0.1704115453487931 0.22506598283424803
-0.06404036188465072 0.2553772214208302
-0.06404036188465072 0.13413226707450165
-0.09949742303936485 0.10382102848791952
-0.134954484194079 0.13413226707450165
-0.09949742303936485 0.13413226707450165
-0.04631183130729365 0.28568846000741227
0.006873760424777549 0.34631093718057654
0.024602291002134614 0.34631093718057654
0.006873760424777549 0.2553772214208302
0.04233082157949168 0.28568846000741227
0.13097347446627702 0.4069334143537408
0.2550731885077765 0.4069334143537408
0.2905302496624906 0.4069334143537408
0.2905302496624906 0.3159996985939944
0.21961612735306235 0.1947547442476659
0.14870200504363407 0.07350978990133739
0.14870200504363407 0.012887312728173124
0.13097347446627702 0.04319855131475525
0.11324494388891995 -0.017423925858409007
0.060059352156848746 -0.017423925858409007
0.060059352156848746 -0.10835764161815539
-0.010854770152579518 -0.1992913573779018
-0.06404036188465072 -0.16898011879131966
-0.08176889246200779 -0.07804640303157327
-0.04631183130729365 -0.017423925858409007
-0.04631183130729365 -0.017423925858409007
-0.09949742303936485 -0.13866888020473753
-0.134954484194079 -0.10835764161815539
-0.09949742303936485 -0.017423925858409007
-0.028583300729936582 0.04319855131475525
0.006873760424777549 0.04319855131475525
-0.08176889246200779 0.012887312728173124
-0.1704115453487931 -0.04773516444499114
-0.22359713708086432 -0.10835764161815539
-0.20586860650350725 0.07350978990133739
-0.1704115453487931 0.10382102848791952
-0.134954484194079 0.07350978990133739
-0.1704115453487931 0.012887312728173124
-0.22359713708086432 -0.10835764161815539
-0.2413256676582214 -0.04773516444499114
-0.2413256676582214 -0.10835764161815539
-0.22359713708086432 -0.04773516444499114
-0.20586860650350725 -0.04773516444499114
-0.18814007592615017 0.012887312728173124
-0.22359713708086432 -0.04773516444499114
-0.3122397899676496 0.012887312728173124
-0.2945112593902926 0.012887312728173124
-0.2413256676582214 0.07350978990133739
-0.18814007592615017 0.16444350566108376
-0.22359713708086432 0.07350978990133739
-0.27678272881293553 0.012887312728173124
-0.2945112593902926 -0.07804640303157327
-0.3122397899676496 -0.07804640303157327
-0.2413256676582214 0.07350978990133739
-0.18814007592615017 0.10382102848791952
-0.22359713708086432 0.04319855131475525
-0.25905419823557846 -0.07804640303157327
-0.27678272881293553 -0.04773516444499114
-0.27678272881293553 0.04319855131475525
-0.2413256676582214 0.13413226707450165
-0.15268301477143606 0.04319855131475525
-0.18814007592615017 0.04319855131475525
-0.20586860650350725 -0.10835764161815539
-0.22359713708086432 -0.10835764161815539
-0.1704115453487931 -0.07804640303157327
-0.1704115453487931 0.04319855131475525
-0.134954484194079 -0.017423925858409007
-0.25905419823557846 0.04319855131475525
-0.3122397899676496 -0.017423925858409007
-0.3831539122770779 0.04319855131475525
-0.2945112593902926 0.16444350566108376
-0.04631183130729365 0.2553772214208302
0.27280171908513356 0.3159996985939944
0.6982864529417031 0.16444350566108376
1.230142370262415 -0.16898011879131966
1.761998287583127 -0.44178126607055884
2.3470397966359102 -0.6842711747632159
3.020723958575479 -0.9570723220424551
3.623493998205619 -1.2904959464948584
3.907150487443332 -1.6239195709472618
3.871693426288618 -1.9876544339862474
3.37529457012262 -2.2604555812654867
2.6838818776056947 -2.1998331040923222
1.8506409404699125 -2.108899388332576
0.7160149835190602 -1.9876544339862474
-0.6136248097827197 -1.7451645252935903
-1.783707827888286 -1.6239195709472618
-2.4396634592504975 -1.3511184236680227
-2.5283061121372827 -1.1086285149753656
-2.049635786548642 -0.714582413349798
-1.5000513386505732 -0.472092504657141
-1.21639484941286 -0.25991383455106604
-1.0213810130619323 -0.25991383455106604
-0.7909101155562904 -0.22960259596448393
-0.5604392180506486 -0.10835764161815539
-0.34769685112236376 0.04319855131475525
-0.2413256676582214 0.04319855131475525
-0.18814007592615017 -0.07804640303157327
-0.18814007592615017 -0.29022507313764817
-0.22359713708086432 -0.13866888020473753
-0.18814007592615017 -0.07804640303157327
-0.09949742303936485 -0.017423925858409007
-0.06404036188465072 0.04319855131475525
-0.04631183130729365 0.012887312728173124
-0.06404036188465072 -0.13866888020473753
-0.04631183130729365 -0.07804640303157327
-0.04631183130729365 0.10382102848791952
0.04233082157949168 0.16444350566108376
0.04233082157949168 0.13413226707450165
0.060059352156848746 0.13413226707450165
0.060059352156848746 0.10382102848791952
0.09551641331156288 -0.017423925858409007
0.14870200504363407 0.012887312728173124
0.1841590661983482 0.07350978990133739
0.23734465793041942 0.012887312728173124
0.23734465793041942 -0.017423925858409007
0.2550731885077765 -0.1992913573779018
0.27280171908513356 -0.16898011879131966
0.3259873108172047 -0.10835764161815539
0.43235849428134715 -0.13866888020473753
0.5210011471681325 -0.017423925858409007
0.5210011471681325 -0.10835764161815539
0.5032726165907754 -0.1992913573779018
0.4855440860134183 -0.1992913573779018
0.5564582083228466 -0.07804640303157327
0.662829391786989 -0.13866888020473753
0.8223861669832025 -0.04773516444499114
0.911028819869988 -0.10835764161815539
0.8755717587152738 -0.1992913573779018
0.8933002892926308 -0.29022507313764817
0.9464858810247021 -0.10835764161815539
1.0528570644888444 -0.07804640303157327
1.1414997173756298 -0.10835764161815539
1.1414997173756298 -0.1992913573779018
1.1769567785303439 -0.35084755031081244
1.1769567785303439 -0.29022507313764817
1.230142370262415 -0.3205363117242303
1.3187850231492004 -0.25991383455106604
1.3719706148812716 -0.16898011879131966
1.3719706148812716 -0.16898011879131966
1.3187850231492004 -0.22960259596448393
1.3542420843039147 -0.3205363117242303
1.3365135537265576 -0.25991383455106604
1.4251562066133427 -0.16898011879131966
1.460613267768057 -0.16898011879131966
1.3896991454586287 -0.13866888020473753
1.3010564925718433 -0.16898011879131966
1.3010564925718433 -0.22960259596448393
1.2655994314171293 -0.1992913573779018
1.3542420843039147 -0.16898011879131966
1.3010564925718433 -0.10835764161815539
1.2478709008397721 -0.04773516444499114
1.159228247952987 -0.16898011879131966
0.9996714727567733 -0.16898011879131966
0.8933002892926308 -0.13866888020473753
0.911028819869988 0.07350978990133739
0.8933002892926308 0.04319855131475525
0.7692005752511314 0.04319855131475525
0.6273723306322748 0.04319855131475525
0.5210011471681325 -0.13866888020473753
0.4500870248587042 0.07350978990133739
0.4500870248587042 0.13413226707450165
0.43235849428134715 0.13413226707450165
0.3259873108172047 0.04319855131475525
0.27280171908513356 0.04319855131475525
0.14870200504363407 -0.07804640303157327
0.09551641331156288 0.16444350566108376
0.07778788273420581 0.1947547442476659
0.006873760424777549 0.13413226707450165
-0.09949742303936485 0.22506598283424803
-0.22359713708086432 0.012887312728173124
-0.2413256676582214 0.012887312728173124
-0.20586860650350725 0.10382102848791952
-0.15268301477143606 0.13413226707450165
-0.08176889246200779 0.1947547442476659
-0.15268301477143606 0.16444350566108376
-0.18814007592615017 0.13413226707450165
-0.22359713708086432 0.10382102848791952
-0.27678272881293553 0.16444350566108376
-0.2413256676582214 0.13413226707450165
-0.20586860650350725 0.22506598283424803
-0.18814007592615017 0.16444350566108376
-0.18814007592615017 0.012887312728173124
-0.18814007592615017 0.07350978990133739
-0.20586860650350725 0.16444350566108376
-0.20586860650350725 0.3159996985939944
-0.15268301477143606 0.28568846000741227
-0.1704115453487931 0.2553772214208302
-0.20586860650350725 0.16444350566108376
-0.1704115453487931 0.13413226707450165
-0.1704115453487931 0.16444350566108376
-0.15268301477143606 0.34631093718057654
-0.06404036188465072 0.34631093718057654
-0.08176889246200779 0.34631093718057654
-0.134954484194079 0.2553772214208302
-0.15268301477143606 0.16444350566108376
-0.15268301477143606 0.2553772214208302
-0.08176889246200779 0.43724465294032294
-0.028583300729936582 0.4978671301134872
0.006873760424777549 0.3766221757671587
0.04233082157949168 0.3159996985939944
0.024602291002134614 0.22506598283424803
0.11324494388891995 0.3159996985939944
0.21961612735306235 0.3159996985939944
0.2550731885077765 0.3766221757671587
0.14870200504363407 0.22506598283424803
0.07778788273420581 0.16444350566108376
-0.028583300729936582 0.04319855131475525
-0.06404036188465072 0.1947547442476659
-0.06404036188465072 0.10382102848791952
-0.028583300729936582 0.07350978990133739
-0.028583300729936582 0.012887312728173124
-0.09949742303936485 -0.10835764161815539
-0.20586860650350725 -0.017423925858409007
-0.18814007592615017 0.012887312728173124
-0.20586860650350725 0.1947547442476659
-0.1704115453487931 0.1947547442476659
-0.1704115453487931 0.16444350566108376
-0.1704115453487931 0.04319855131475525
-0.2413256676582214 0.22506598283424803
-0.34769685112236376 0.22506598283424803
-0.3299683205450067 0.3766221757671587
-0.25905419823557846 0.2553772214208302
-0.25905419823557846 0.1947547442476659
-0.3299683205450067 0.13413226707450165
-0.3122397899676496 -0.017423925858409007
-0.3299683205450067 0.13413226707450165
-0.3122397899676496 0.22506598283424803
-0.3122397899676496 0.1947547442476659
-0.3299683205450067 0.16444350566108376
-0.400882442854435 0.04319855131475525
-0.400882442854435 0.012887312728173124
-0.3831539122770779 0.07350978990133739
-0.34769685112236376 0.1947547442476659
-0.2413256676582214 0.13413226707450165
-0.27678272881293553 0.13413226707450165
-0.3299683205450067 0.10382102848791952
-0.36542538169972083 0.012887312728173124
-0.3831539122770779 0.07350978990133739
-0.3122397899676496 0.22506598283424803
-0.27678272881293553 0.1947547442476659
-0.3122397899676496 0.16444350566108376
-0.3299683205450067 0.07350978990133739
-0.400882442854435 -0.017423925858409007
-0.36542538169972083 0.04319855131475525
-0.3122397899676496 0.10382102848791952
-0.25905419823557846 0.16444350566108376
-0.3122397899676496 0.07350978990133739
-0.3122397899676496 0.012887312728173124
-0.34769685112236376 0.012887312728173124
-0.36542538169972083 0.07350978990133739
-0.3831539122770779 0.1947547442476659
-0.25905419823557846 0.16444350566108376
-0.20586860650350725 0.10382102848791952
-0.25905419823557846 0.04319855131475525
-0.3299683205450067 0.04319855131475525
-0.400882442854435 0.1947547442476659
-0.4363395040091491 0.3159996985939944
-0.36542538169972083 0.3766221757671587
-0.20586860650350725 0.4675558915269051
0.16643053562099114 0.28568846000741227
0.645100861209632 0.13413226707450165
1.2478709008397721 -0.16898011879131966
1.9392835933566979 -0.29022507313764817
2.577510694141552 -0.5630262204168873
3.1802807337716925 -0.8964498448692908
3.570308406473548 -1.2904959464948584
3.7475937122471183 -1.684542048120426
3.588036937050905 -2.108899388332576
3.038452489152836 -2.2604555812654867
2.4179539189453387 -2.4423230127849793
1.6556271041189847 -2.4726342513715616
0.5387296777454895 -2.412011774198397
-0.666810401514791 -2.1695218655057404
-1.783707827888286 -1.8057870024667546
-2.4219349286731404 -1.4723633780143512
-2.4573919898278547 -1.2298734693216942
-2.1205499088580706 -0.8358273676961265
-1.748250766733572 -0.5630262204168873
-1.5886939915373584 -0.22960259596448393
-1.3050375022996454 -0.07804640303157327
-1.0391095436392894 0.13413226707450165
-0.7554530544015763 0.10382102848791952
-0.5958962792053627 0.04319855131475525
-0.48952509574122033 -0.04773516444499114
-0.41861097343179204 0.04319855131475525
-0.41861097343179204 0.04319855131475525
-0.27678272881293553 0.04319855131475525
-0.1704115453487931 0.13413226707450165
-0.1704115453487931 0.16444350566108376
-0.20586860650350725 0.16444350566108376
-0.18814007592615017 0.13413226707450165
-0.20586860650350725 0.1947547442476659
-0.134954484194079 0.22506598283424803
-0.04631183130729365 0.22506598283424803
-0.06404036188465072 0.16444350566108376
-0.028583300729936582 0.012887312728173124
-0.028583300729936582 0.04319855131475525
0.006873760424777549 -0.017423925858409007
0.024602291002134614 0.16444350566108376
0.11324494388891995 0.16444350566108376
0.09551641331156288 0.10382102848791952
0.04233082157949168 -0.017423925858409007
0.09551641331156288 -0.04773516444499114
0.16643053562099114 0.012887312728173124
0.27280171908513356 0.10382102848791952
0.36144437197191887 0.10382102848791952
0.37917290254927594 -0.017423925858409007
0.4146299637039901 -0.04773516444499114
0.37917290254927594 -0.13866888020473753
0.5210011471681325 -0.07804640303157327
0.6982864529417031 -0.07804640303157327
0.8046576364058455 -0.07804640303157327
0.8046576364058455 -0.16898011879131966
0.7692005752511314 -0.22960259596448393
0.6982864529417031 -0.3205363117242303
0.8046576364058455 -0.13866888020473753
0.8933002892926308 -0.1992913573779018
0.9642144116020591 -0.16898011879131966
1.0174000033341304 -0.13866888020473753
1.0883141256435587 -0.1992913573779018
1.1237711867982727 -0.1992913573779018
1.194685309107701 -0.22960259596448393
1.2655994314171293 -0.1992913573779018
1.3365135537265576 -0.13866888020473753
1.3542420843039147 -0.22960259596448393
1.3365135537265576 -0.29022507313764817
1.3365135537265576 -0.1992913573779018
1.3365135537265576 -0.25991383455106604
1.4251562066133427 -0.13866888020473753
1.4428847371906999 -0.25991383455106604
1.3896991454586287 -0.1992913573779018
1.3010564925718433 -0.25991383455106604
1.2833279619944864 -0.3205363117242303
1.3365135537265576 -0.1992913573779018
1.3542420843039147 -0.16898011879131966
1.3542420843039147 -0.07804640303157327
1.2833279619944864 -0.16898011879131966
1.159228247952987 -0.22960259596448393
1.0883141256435587 -0.1992913573779018
1.0174000033341304 -0.017423925858409007
0.9819429421794161 0.07350978990133739
0.9642144116020591 0.07350978990133739
0.8755717587152738 0.04319855131475525
0.7692005752511314 -0.10835764161815539
0.6273723306322748 -0.04773516444499114
0.6096438000549178 0.012887312728173124
0.5564582083228466 0.1947547442476659
0.6096438000549178 0.22506598283424803
0.4855440860134183 0.10382102848791952
0.30825878023984765 -0.017423925858409007
0.11324494388891995 0.012887312728173124
0.060059352156848746 0.16444350566108376
0.07778788273420581 0.3159996985939944
-0.010854770152579518 0.3766221757671587
-0.08176889246200779 0.22506598283424803
-0.18814007592615017 0.1947547442476659
-0.22359713708086432 0.16444350566108376
-0.15268301477143606 0.1947547442476659
-0.06404036188465072 0.28568846000741227
-0.09949742303936485 0.3766221757671587
-0.15268301477143606 0.22506598283424803
-0.25905419823557846 0.07350978990133739
-0.3122397899676496 0.22506598283424803
-0.2945112593902926 0.22506598283424803
-0.25905419823557846 0.28568846000741227
-0.15268301477143606 0.1947547442476659
-0.134954484194079 0.1947547442476659
-0.1704115453487931 0.07350978990133739
-0.2945112593902926 0.10382102848791952
-0.3299683205450067 0.22506598283424803
-0.3122397899676496 0.34631093718057654
-0.2413256676582214 0.3159996985939944
-0.25905419823557846 0.28568846000741227
-0.3299683205450067 0.1947547442476659
-0.25905419823557846 0.1947547442476659
-0.3299683205450067 0.2553772214208302
-0.2413256676582214 0.43724465294032294
-0.15268301477143606 0.43724465294032294
-0.1704115453487931 0.34631093718057654
-0.18814007592615017 0.13413226707450165
-0.1704115453487931 0.16444350566108376
-0.1704115453487931 0.3766221757671587
-0.08176889246200779 0.4675558915269051
0.006873760424777549 0.5281783687000693
0.006873760424777549 0.4675558915269051
-0.028583300729936582 0.34631093718057654
0.006873760424777549 0.43724465294032294
0.04233082157949168 0.4978671301134872
0.11324494388891995 0.6191120844598157
0.16643053562099114 0.5281783687000693
0.20188759677570528 0.3766221757671587
0.21961612735306235 0.4069334143537408
0.16643053562099114 0.4978671301134872
0.11324494388891995 0.4675558915269051
0.060059352156848746 0.3159996985939944
0.060059352156848746 0.22506598283424803
0.024602291002134614 -0.04773516444499114
-0.010854770152579518 -0.29022507313764817
0.060059352156848746 -0.4114700274839767
0.13097347446627702 -0.3811587888973946
0.2550731885077765 -0.1992913573779018
0.3259873108172047 0.04319855131475525
0.16643053562099114 0.04319855131475525
0.006873760424777549 -0.07804640303157327
-0.20586860650350725 -0.13866888020473753
-0.400882442854435 -0.10835764161815539
-0.5072536263185774 0.1947547442476659
-0.5072536263185774 0.43724465294032294
-0.47179656516386326 0.4978671301134872
-0.5249821568959344 0.43724465294032294
-0.6136248097827197 0.3766221757671587
-0.684538932092148 0.4675558915269051
-0.6490818709374339 0.6191120844598157
-0.5604392180506486 0.7100458002195621
-0.5781677486280057 0.5888008458732336
-0.666810401514791 0.5888008458732336
-0.6490818709374339 0.3766221757671587
-0.5427106874732915 0.22506598283424803
-0.4363395040091491 -0.017423925858409007
-0.34769685112236376 -0.017423925858409007
-0.4363395040091491 -0.017423925858409007
-0.47179656516386326 0.04319855131475525
-0.5072536263185774 -0.16898011879131966
-0.5427106874732915 -0.25991383455106604
-0.4540680345865062 -0.16898011879131966
-0.4363395040091491 -0.07804640303157327
-0.47179656516386326 -0.10835764161815539
-0.5427106874732915 -0.07804640303157327
-0.6136248097827197 0.13413226707450165
-0.5604392180506486 0.3159996985939944
-0.4540680345865062 0.4069334143537408
-0.400882442854435 0.3159996985939944
-0.400882442854435 0.2553772214208302
-0.4363395040091491 0.22506598283424803
-0.4540680345865062 0.34631093718057654
-0.47179656516386326 0.3766221757671587
-0.400882442854435 0.34631093718057654
-0.400882442854435 0.07350978990133739
-0.36542538169972083 -0.25991383455106604
-0.3831539122770779 -0.502403743243723
-0.4540680345865062 -0.44178126607055884
-0.5072536263185774 -0.22960259596448393
-0.4540680345865062 -0.04773516444499114
-0.41861097343179204 -0.10835764161815539
-0.5072536263185774 -0.1992913573779018
-0.5781677486280057 -0.16898011879131966
-0.5604392180506486 0.04319855131475525
-0.41861097343179204 0.2553772214208302
0.024602291002134614 0.4069334143537408
0.5210011471681325 0.22506598283424803
1.1237711867982727 -0.13866888020473753
1.6201700429642705 -0.6842711747632159
2.081111837975554 -1.0480060378022014
2.77252453049248 -1.2601847079082764
3.304380447813192 -1.5026746166009335
3.552579875896191 -1.7754757638801726
3.4107516312773343 -2.1695218655057404
2.825710122224551 -2.4726342513715616
2.1342974297076256 -2.745435398650801
1.5669844512321993 -2.745435398650801
0.8401146975605597 -2.6241904443044723
-0.22359713708086432 -2.3817005356118153
-1.3582230940317166 -2.048276911159412
-2.3687493369410695 -1.8057870024667546
-2.7942340707976387 -1.5936083323606798
-2.581491703869354 -1.1086285149753656
-2.1028213782807135 -0.5933374590034695
-1.6596081138467866 -0.29022507313764817
-1.4291372163411449 -0.1992913573779018
-1.198666318835503 -0.25991383455106604
-1.0213810130619323 -0.29022507313764817
-0.7909101155562904 -0.1992913573779018
-0.5072536263185774 -0.10835764161815539
-0.27678272881293553 0.04319855131475525
-0.22359713708086432 0.04319855131475525
-0.22359713708086432 -0.07804640303157327
-0.3122397899676496 -0.1992913573779018
-0.41861097343179204 -0.10835764161815539
-0.4540680345865062 0.012887312728173124
-0.3831539122770779 0.10382102848791952
-0.3122397899676496 0.13413226707450165
-0.27678272881293553 0.012887312728173124
-0.20586860650350725 -0.04773516444499114
-0.08176889246200779 0.07350978990133739
0.006873760424777549 0.10382102848791952
0.024602291002134614 0.07350978990133739
-0.06404036188465072 0.10382102848791952
-0.1704115453487931 0.012887312728173124
-0.15268301477143606 -0.017423925858409007
-0.11722595361672192 0.07350978990133739
0.060059352156848746 0.13413226707450165
0.09551641331156288 0.13413226707450165
0.11324494388891995 0.07350978990133739
0.11324494388891995 -0.04773516444499114
0.16643053562099114 -0.04773516444499114
0.20188759677570528 -0.04773516444499114
0.27280171908513356 -0.017423925858409007
0.396901433126633 0.04319855131475525
0.43235849428134715 -0.04773516444499114
0.43235849428134715 -0.16898011879131966
0.4678155554360613 -0.13866888020473753
0.5387296777454895 -0.07804640303157327
0.645100861209632 0.04319855131475525
0.8046576364058455 0.012887312728173124
0.8401146975605597 0.10382102848791952
0.8578432281379167 -0.16898011879131966
0.8401146975605597 -0.22960259596448393
0.8401146975605597 -0.22960259596448393
0.8578432281379167 -0.16898011879131966
0.8755717587152738 -0.07804640303157327
0.928757350447345 -0.10835764161815539
0.9642144116020591 -0.1992913573779018
1.0528570644888444 -0.3811587888973946
1.1060426562209156 -0.1992913573779018
1.230142370262415 -0.13866888020473753
1.2833279619944864 -0.10835764161815539
1.3010564925718433 -0.1992913573779018
1.2478709008397721 -0.3205363117242303
1.1769567785303439 -0.29022507313764817
1.2478709008397721 -0.1992913573779018
1.3542420843039147 -0.04773516444499114
1.4251562066133427 -0.04773516444499114
1.4074276760359858 -0.017423925858409007
1.3896991454586287 -0.10835764161815539
1.3719706148812716 -0.16898011879131966
1.2833279619944864 -0.13866888020473753
1.3010564925718433 -0.04773516444499114
1.2833279619944864 0.012887312728173124
1.2478709008397721 -0.04773516444499114
1.1414997173756298 0.012887312728173124
1.0705855950662015 0.012887312728173124
1.0174000033341304 0.04319855131475525
0.9464858810247021 0.16444350566108376
0.8933002892926308 0.22506598283424803
0.7869291058284884 0.13413226707450165
0.6273723306322748 0.16444350566108376
0.5387296777454895 0.16444350566108376
0.5032726165907754 0.2553772214208302
0.5387296777454895 0.2553772214208302
0.6096438000549178 0.4675558915269051
0.5210011471681325 0.4069334143537408
0.43235849428134715 0.3766221757671587
0.2550731885077765 0.3159996985939944
0.13097347446627702 0.2553772214208302
0.09551641331156288 0.28568846000741227
