-0.48685186172485395 -0.12301693874606799
-0.45494146207952413 -0.17992975105968145
-0.41239426255241773 -0.24822512583601763
-0.36984706302531134 -0.2823728132241857
-0.34857346326175814 -0.3620507504632446
-0.3379366633799815 -0.46449381262774886
-0.32729986349820495 -0.4986415000159169
-0.3060262637346517 -0.5555543123295303
-0.2741158640893219 -0.4986415000159169
-0.2209318646804389 -0.4986415000159169
-0.16774786527155588 -0.5555543123295303
-0.1571110653897793 -0.6238496871058665
-0.1464742655080027 -0.6124671246431439
-0.16774786527155588 -0.646614812031312
-0.1252006657444495 -0.5897019997176984
-0.08265346621734307 -0.5214066249413623
-0.06137986645378987 -0.5214066249413623
-0.06137986645378987 -0.5783194372549758
-0.11456386586267288 -0.6010845621804212
-0.18902146503510908 -0.646614812031312
-0.2102950647986623 -0.6238496871058665
-0.2315686645622155 -0.5783194372549758
-0.2634790642075453 -0.5669368747922531
-0.2741158640893219 -0.5441717498668077
-0.2847526639710985 -0.5555543123295303
-0.3060262637346517 -0.5214066249413623
-0.2634790642075453 -0.4986415000159169
-0.2315686645622155 -0.5100240624786396
-0.2102950647986623 -0.532789187404085
-0.25284226432576873 -0.5783194372549758
-0.2953894638528751 -0.6124671246431439
-0.32729986349820495 -0.5783194372549758
-0.3379366633799815 -0.5555543123295303
-0.25284226432576873 -0.4986415000159169
-0.1996582649168857 -0.5100240624786396
-0.1571110653897793 -0.5555543123295303
-0.1571110653897793 -0.5783194372549758
-0.1358374656262261 -0.5555543123295303
-0.1252006657444495 -0.5100240624786396
-0.10392706598089628 -0.47587637509047154
-0.1358374656262261 -0.4872589375531942
-0.2209318646804389 -0.4986415000159169
-0.34857346326175814 -0.47587637509047154
-0.42303106243419436 -0.4531112501650261
-0.44430466219774756 -0.40758100031413536
-0.46557826196130075 -0.3506681880005219
-0.48685186172485395 -0.3392856255377992
-0.5187622613701838 -0.3506681880005219
-0.5825830606608433 -0.3165205006123538
-0.5506726610155136 -0.24822512583601763
-0.4974886616066305 -0.19131231352240416
-0.44430466219774756 -0.1002518138206226
-0.4762150618430773 -0.05472156396973182
-0.4974886616066305 -0.03195643904428644
-0.5825830606608433 0.024956373269327037
-0.59321986054262 0.138781997896554
-0.5506726610155136 0.2753727474492263
-0.42303106243419436 0.44611118439006675
-0.2953894638528751 0.5713193714800163
-0.06137986645378987 0.7079101210326887
0.11944573153641236 0.8558834330480838
0.39600252846260403 1.0266218699889242
0.7151065249159021 1.2087428693924873
1.1086681205416364 1.368098743870605
1.491592916285594 1.4933069309605547
1.8000601128571154 1.6071325555877816
2.002159310610871 1.6412802429759497
2.2361689080099563 1.7095756177522858
2.4914521051725944 1.7323407426777313
2.8105561016258926 1.7551058676031766
3.140296897960967 1.6526628054386723
3.2679384965422864 1.550219743274168
3.182844097488074 1.5388371808114454
2.991381699616095 1.6185151180505042
2.7680089020987864 1.7551058676031766
2.533999304699701 1.9713745543949077
2.268079307655286 2.073817616559412
1.8851545119113282 2.153495553798471
1.4490457167584876 2.10796530394758
0.9916633218420937 1.9713745543949077
0.5236441270439233 1.81201867991679
0.09817213177285916 1.584367430662336
-0.2315686645622155 1.3567161814078823
-0.5719462607790667 1.1404474946161511
-0.859139857587035 0.9241788078244199
-1.0931494549861203 0.7306752459581342
-1.2207910535674396 0.5599368090172937
-1.2739750529763225 0.42334605946462134
-1.2739750529763225 0.22984249759833553
-1.2846118528580992 -0.009191314118841047
-1.2739750529763225 -0.22546000091057225
-1.1144230547496734 -0.3279030630750765
-0.9655078564048011 -0.44172868770230345
-0.805955858178152 -0.5214066249413623
-0.699587859360386 -0.5783194372549758
-0.6570406598332795 -0.6352322495685893
-0.6676774597150562 -0.7149101868076481
-0.6676774597150562 -0.7262927492703708
-0.6251302601879498 -0.7490578741958162
-0.59321986054262 -0.7490578741958162
-0.5187622613701838 -0.7832055615839842
-0.5400358611337369 -0.8059706865094297
-0.5081254614884072 -0.8742660612857658
-0.5400358611337369 -0.8742660612857658
-0.5400358611337369 -0.8515009363603204
-0.5187622613701838 -0.8173532489721523
-0.5293990612519603 -0.8628834988230432
-0.5293990612519603 -0.8970311862112113
-0.5506726610155136 -0.9311788735993793
-0.5825830606608433 -0.9539439985248247
-0.5719462607790667 -0.9311788735993793
-0.5293990612519603 -0.9653265609875474
-0.46557826196130075 -0.9767091234502701
-0.44430466219774756 -0.9880916859129928
-0.4762150618430773 -1.0450044982266062
-0.5293990612519603 -1.0677696231520517
-0.5825830606608433 -1.0450044982266062
-0.5825830606608433 -0.9994742483757155
-0.5400358611337369 -1.0222393733011608
-0.5719462607790667 -1.0791521856147743
-0.5613094608972902 -1.1474475603911105
-0.5613094608972902 -1.1474475603911105
-0.5719462607790667 -1.170212685316556
-0.4974886616066305 -1.1588301228538331
-0.4762150618430773 -1.204360372704724
-0.45494146207952413 -1.2726557474810603
-0.44430466219774756 -1.2726557474810603
-0.42303106243419436 -1.3068034348692283
-0.41239426255241773 -1.2954208724065055
-0.36984706302531134 -1.2954208724065055
-0.3060262637346517 -1.3409511222573962
-0.3060262637346517 -1.3978639345710098
-0.34857346326175814 -1.4547767468846233
-0.4017574626706411 -1.4320116219591779
-0.39112066278886454 -1.4092464970337324
-0.3804838629070879 -1.3750988096455643
-0.34857346326175814 -1.4320116219591779
-0.39112066278886454 -1.466159309347346
-0.3804838629070879 -1.5686023715118502
-0.41239426255241773 -1.5686023715118502
-0.39112066278886454 -1.5572198090491276
-0.3804838629070879 -1.5572198090491276
-0.3379366633799815 -1.614132621362741
-0.32729986349820495 -1.6255151838254638
-0.3379366633799815 -1.6938105586017997
-0.34857346326175814 -1.7279582459899678
-0.32729986349820495 -1.7051931210645226
-0.2953894638528751 -1.7165756835272452
-0.2634790642075453 -1.7734884958408588
-0.2422054644439921 -1.841783870617195
-0.2634790642075453 -1.9100792453935311
-0.2102950647986623 -1.9100792453935311
-0.16774786527155588 -1.8645489955426402
-0.08265346621734307 -1.875931558005363
-0.00819586704490686 -1.9328443703189764
-0.00819586704490686 -1.98975718263259
0.023714532600422944 -2.0466699949462033
0.05562493224575275 -2.0808176823343714
0.11944573153641236 -2.0466699949462033
0.19390333070884858 -2.012522307558035
0.2683609298812848 -2.012522307558035
0.3109081294083912 -2.069435119871649
0.3321817291719444 -2.069435119871649
0.342818529053721 -2.0808176823343714
0.39600252846260403 -2.0808176823343714
0.5236441270439233 -2.023904870020758
0.5874649263345828 -2.023904870020758
0.6512857256252425 -1.98975718263259
0.6300121258616893 -2.035287432483481
0.6725593253887957 -2.001139745095313
0.6831961252705723 -1.9442269327816992
0.6938329251523488 -1.8531664330799176
0.7682905243247851 -1.762105933378136
0.7682905243247851 -1.7848710583035814
0.7576537244430085 -1.7165756835272452
0.7470169245612319 -1.6710454336763545
0.7470169245612319 -1.5458372465864048
0.7470169245612319 -1.466159309347346
0.7470169245612319 -1.3978639345710098
0.6938329251523488 -1.3750988096455643
0.6300121258616893 -1.3295685597946736
0.5981017262163595 -1.2726557474810603
0.5555545266892531 -1.204360372704724
0.5130073271621466 -1.1360649979283879
0.50237052728037 -1.0791521856147743
0.41727612822615723 -1.0791521856147743
0.3534553289354976 -1.0791521856147743
0.289634529644838 -1.0336219357638836
0.2683609298812848 -0.9539439985248247
0.25772412999950817 -0.8970311862112113
0.289634529644838 -0.8970311862112113
0.236450530235955 -0.8970311862112113
0.19390333070884858 -0.9311788735993793
0.14071933129996556 -0.8970311862112113
0.06626173212752935 -0.8515009363603204
0.04498813236397615 -0.794588124046707
0.03435133248219955 -0.7718229991212616
-0.00819586704490686 -0.7832055615839842
-0.00819586704490686 -0.8173532489721523
-0.07201666633556647 -0.7718229991212616
-0.10392706598089628 -0.7376753117330935
-0.1464742655080027 -0.7149101868076481
-0.1252006657444495 -0.6693799369567573
-0.16774786527155588 -0.7149101868076481
-0.2102950647986623 -0.7035276243449254
-0.18902146503510908 -0.7262927492703708
-0.18902146503510908 -0.6921450618822027
-0.16774786527155588 -0.6693799369567573
-0.1571110653897793 -0.6807624994194801
-0.18902146503510908 -0.7035276243449254
-0.2422054644439921 -0.7262927492703708
-0.25284226432576873 -0.7376753117330935
-0.2422054644439921 -0.7035276243449254
-0.2102950647986623 -0.6579973744940346
-0.17838466515333248 -0.6693799369567573
-0.2209318646804389 -0.6693799369567573
-0.2315686645622155 -0.6693799369567573
-0.2847526639710985 -0.7035276243449254
-0.3166630636164283 -0.6807624994194801
-0.2422054644439921 -0.6579973744940346
-0.2102950647986623 -0.646614812031312
-0.1996582649168857 -0.6921450618822027
-0.2422054644439921 -0.7149101868076481
-0.2422054644439921 -0.6921450618822027
-0.2634790642075453 -0.6579973744940346
-0.25284226432576873 -0.6352322495685893
-0.2315686645622155 -0.6352322495685893
-0.25284226432576873 -0.6921450618822027
-0.25284226432576873 -0.7149101868076481
-0.2953894638528751 -0.6921450618822027
-0.2953894638528751 -0.6238496871058665
-0.25284226432576873 -0.6010845621804212
-0.2634790642075453 -0.5897019997176984
-0.2741158640893219 -0.6238496871058665
-0.2953894638528751 -0.7035276243449254
-0.3060262637346517 -0.6693799369567573
-0.3060262637346517 -0.646614812031312
-0.2634790642075453 -0.6010845621804212
-0.25284226432576873 -0.6010845621804212
-0.2634790642075453 -0.6352322495685893
-0.3060262637346517 -0.6579973744940346
-0.3379366633799815 -0.646614812031312
-0.34857346326175814 -0.646614812031312
-0.32729986349820495 -0.6124671246431439
-0.3166630636164283 -0.6124671246431439
-0.3166630636164283 -0.6579973744940346
-0.32729986349820495 -0.6921450618822027
-0.4017574626706411 -0.7376753117330935
-0.4017574626706411 -0.6807624994194801
-0.34857346326175814 -0.6238496871058665
-0.3060262637346517 -0.6010845621804212
-0.3060262637346517 -0.646614812031312
-0.36984706302531134 -0.6807624994194801
-0.4017574626706411 -0.6693799369567573
-0.41239426255241773 -0.646614812031312
-0.3804838629070879 -0.6010845621804212
-0.3592102631435347 -0.6124671246431439
-0.3804838629070879 -0.6579973744940346
-0.4017574626706411 -0.6579973744940346
-0.41239426255241773 -0.6579973744940346
-0.3804838629070879 -0.646614812031312
-0.39112066278886454 -0.6010845621804212
-0.4017574626706411 -0.646614812031312
-0.45494146207952413 -0.6693799369567573
-0.4974886616066305 -0.7149101868076481
-0.5187622613701838 -0.6921450618822027
-0.4974886616066305 -0.6921450618822027
-0.43366786231597093 -0.6124671246431439
-0.4017574626706411 -0.6352322495685893
-0.39112066278886454 -0.6807624994194801
-0.45494146207952413 -0.7035276243449254
-0.48685186172485395 -0.7149101868076481
-0.4974886616066305 -0.6807624994194801
-0.4762150618430773 -0.6807624994194801
-0.44430466219774756 -0.6693799369567573
-0.45494146207952413 -0.6693799369567573
-0.46557826196130075 -0.6921450618822027
-0.46557826196130075 -0.6921450618822027
-0.44430466219774756 -0.6693799369567573
-0.41239426255241773 -0.646614812031312
-0.42303106243419436 -0.6693799369567573
-0.4762150618430773 -0.6807624994194801
-0.48685186172485395 -0.7035276243449254
-0.5081254614884072 -0.6807624994194801
-0.4974886616066305 -0.6579973744940346
-0.43366786231597093 -0.6352322495685893
-0.44430466219774756 -0.646614812031312
-0.46557826196130075 -0.6579973744940346
-0.5081254614884072 -0.6807624994194801
-0.5613094608972902 -0.7149101868076481
-0.5613094608972902 -0.7035276243449254
-0.4974886616066305 -0.6693799369567573
-0.44430466219774756 -0.6693799369567573
-0.43366786231597093 -0.6807624994194801
-0.4974886616066305 -0.7262927492703708
-0.5825830606608433 -0.7262927492703708
-0.6038566604243966 -0.6693799369567573
-0.5400358611337369 -0.6693799369567573
-0.5187622613701838 -0.646614812031312
-0.4974886616066305 -0.6921450618822027
-0.5187622613701838 -0.7149101868076481
-0.5613094608972902 -0.7376753117330935
-0.5613094608972902 -0.7035276243449254
-0.5293990612519603 -0.646614812031312
-0.4974886616066305 -0.646614812031312
-0.48685186172485395 -0.6807624994194801
-0.5400358611337369 -0.6807624994194801
-0.5400358611337369 -0.7376753117330935
-0.5293990612519603 -0.6807624994194801
-0.5081254614884072 -0.6693799369567573
-0.5081254614884072 -0.6124671246431439
-0.5187622613701838 -0.6579973744940346
-0.5187622613701838 -0.6579973744940346
-0.5293990612519603 -0.7035276243449254
-0.4762150618430773 -0.6693799369567573
-0.43366786231597093 -0.6238496871058665
-0.41239426255241773 -0.6010845621804212
-0.45494146207952413 -0.6579973744940346
-0.5293990612519603 -0.7035276243449254
-0.5613094608972902 -0.6693799369567573
-0.5293990612519603 -0.6238496871058665
-0.4762150618430773 -0.6010845621804212
-0.44430466219774756 -0.6352322495685893
-0.46557826196130075 -0.6124671246431439
-0.5081254614884072 -0.6238496871058665
-0.5293990612519603 -0.6579973744940346
-0.5187622613701838 -0.6352322495685893
-0.5081254614884072 -0.6238496871058665
-0.5293990612519603 -0.6238496871058665
-0.5613094608972902 -0.6693799369567573
-0.5400358611337369 -0.7035276243449254
-0.5187622613701838 -0.6693799369567573
-0.4974886616066305 -0.6124671246431439
-0.4974886616066305 -0.6010845621804212
-0.5081254614884072 -0.6238496871058665
-0.5081254614884072 -0.6352322495685893
-0.5613094608972902 -0.6693799369567573
-0.5400358611337369 -0.6579973744940346
-0.5293990612519603 -0.6124671246431439
-0.46557826196130075 -0.5897019997176984
-0.45494146207952413 -0.6238496871058665
-0.48685186172485395 -0.6238496871058665
-0.5081254614884072 -0.6238496871058665
-0.5825830606608433 -0.6579973744940346
-0.5825830606608433 -0.5897019997176984
-0.5293990612519603 -0.5669368747922531
-0.4974886616066305 -0.5555543123295303
-0.48685186172485395 -0.5669368747922531
-0.5081254614884072 -0.5669368747922531
-0.5293990612519603 -0.5897019997176984
-0.5506726610155136 -0.5669368747922531
-0.5187622613701838 -0.5783194372549758
-0.48685186172485395 -0.5555543123295303
-0.48685186172485395 -0.6124671246431439
-0.5187622613701838 -0.6238496871058665
-0.5506726610155136 -0.6124671246431439
-0.5506726610155136 -0.5897019997176984
-0.5400358611337369 -0.5669368747922531
-0.5081254614884072 -0.5555543123295303
-0.5400358611337369 -0.5897019997176984
-0.5293990612519603 -0.646614812031312
-0.5293990612519603 -0.6238496871058665
-0.5081254614884072 -0.6124671246431439
-0.5081254614884072 -0.5555543123295303
-0.4762150618430773 -0.532789187404085
-0.5187622613701838 -0.5555543123295303
-0.5400358611337369 -0.6352322495685893
-0.5506726610155136 -0.6352322495685893
-0.5081254614884072 -0.6124671246431439
-0.45494146207952413 -0.5555543123295303
-0.45494146207952413 -0.5669368747922531
-0.4974886616066305 -0.6124671246431439
-0.5081254614884072 -0.6352322495685893
-0.5293990612519603 -0.646614812031312
-0.5081254614884072 -0.6238496871058665
-0.45494146207952413 -0.6010845621804212
-0.43366786231597093 -0.5897019997176984
-0.44430466219774756 -0.6010845621804212
-0.46557826196130075 -0.646614812031312
-0.5293990612519603 -0.6238496871058665
-0.5293990612519603 -0.6010845621804212
-0.4762150618430773 -0.5555543123295303
-0.4762150618430773 -0.5214066249413623
-0.45494146207952413 -0.5783194372549758
-0.48685186172485395 -0.6124671246431439
-0.5081254614884072 -0.6010845621804212
-0.5293990612519603 -0.5669368747922531
-0.46557826196130075 -0.5669368747922531
-0.4762150618430773 -0.5783194372549758
-0.5081254614884072 -0.5897019997176984
-0.48685186172485395 -0.6579973744940346
-0.5081254614884072 -0.6579973744940346
-0.46557826196130075 -0.6352322495685893
-0.45494146207952413 -0.5669368747922531
-0.48685186172485395 -0.5555543123295303
-0.4974886616066305 -0.6010845621804212
-0.5293990612519603 -0.5897019997176984
-0.5187622613701838 -0.5897019997176984
-0.48685186172485395 -0.5669368747922531
-0.44430466219774756 -0.5555543123295303
-0.4017574626706411 -0.5897019997176984
-0.4017574626706411 -0.646614812031312
-0.3592102631435347 -0.646614812031312
-0.3592102631435347 -0.646614812031312
-0.34857346326175814 -0.6124671246431439
-0.3060262637346517 -0.5555543123295303
-0.3166630636164283 -0.5555543123295303
-0.3060262637346517 -0.532789187404085
-0.36984706302531134 -0.5897019997176984
-0.39112066278886454 -0.6238496871058665
-0.42303106243419436 -0.6010845621804212
-0.3804838629070879 -0.532789187404085
-0.3166630636164283 -0.5555543123295303
-0.3379366633799815 -0.5441717498668077
-0.3379366633799815 -0.5897019997176984
-0.34857346326175814 -0.6352322495685893
-0.32729986349820495 -0.6010845621804212
-0.2953894638528751 -0.6238496871058665
-0.2847526639710985 -0.6124671246431439
-0.25284226432576873 -0.6579973744940346
-0.2634790642075453 -0.6921450618822027
-0.32729986349820495 -0.6693799369567573
-0.32729986349820495 -0.6238496871058665
-0.3060262637346517 -0.5783194372549758
-0.2741158640893219 -0.6124671246431439
-0.2847526639710985 -0.6124671246431439
-0.32729986349820495 -0.6693799369567573
-0.39112066278886454 -0.646614812031312
-0.4017574626706411 -0.6238496871058665
-0.4017574626706411 -0.6124671246431439
-0.39112066278886454 -0.6352322495685893
-0.3804838629070879 -0.6921450618822027
-0.43366786231597093 -0.7262927492703708
-0.46557826196130075 -0.7262927492703708
-0.5081254614884072 -0.6579973744940346
-0.5187622613701838 -0.5897019997176984
-0.48685186172485395 -0.6124671246431439
-0.4762150618430773 -0.6352322495685893
-0.46557826196130075 -0.6579973744940346
-0.48685186172485395 -0.6807624994194801
-0.4974886616066305 -0.646614812031312
-0.4974886616066305 -0.6238496871058665
-0.44430466219774756 -0.646614812031312
-0.44430466219774756 -0.6352322495685893
-0.46557826196130075 -0.6238496871058665
-0.4974886616066305 -0.6352322495685893
-0.45494146207952413 -0.5897019997176984
-0.43366786231597093 -0.5555543123295303
-0.4017574626706411 -0.5669368747922531
-0.45494146207952413 -0.5897019997176984
-0.44430466219774756 -0.532789187404085
-0.45494146207952413 -0.46449381262774886
-0.48685186172485395 -0.3506681880005219
-0.5293990612519603 -0.3620507504632446
-0.4762150618430773 -0.4531112501650261
-0.4017574626706411 -0.6352322495685893
-0.16774786527155588 -0.8173532489721523
0.10880893165463576 -1.0108568108384381
0.37472892869905083 -1.2612731850183374
0.6087385260981361 -1.5913674964372957
0.8002009239701149 -1.9556094952444218
1.140578520186966 -2.3426166189769932
1.5554137155762535 -2.661328367933229
2.1191641093104137 -2.8662144922622375
2.7148249026899034 -2.9345098670385736
3.2998488961876165 -2.991422679352187
3.927420089212436 -3.059718054128523
4.448623283419489 -3.1849262412184727
4.725180080345681 -3.2646041784575317
4.842184879045224 -3.2646041784575317
4.831548079163447 -3.2190739286066408
4.661359281055021 -3.2190739286066408
4.257160885547511 -3.1963088036811955
3.470037694296042 -3.1507785538303046
2.4382681057637114 -3.139395991367582
1.5554137155762535 -3.025570366740355
0.9597529221967639 -2.9117447421131284
0.6725593253887957 -2.661328367933229
0.6193753259799126 -2.4222945562160523
0.5555545266892531 -2.1149653697225395
0.4598233277532636 -1.8986966829308083
0.2789977297630614 -1.7051931210645226
0.16199293106351878 -1.5572198090491276
0.05562493224575275 -1.3864813721082871
0.0024409328368697417 -1.2726557474810603
-0.07201666633556647 -1.1360649979283879
-0.1571110653897793 -1.0563870606893289
-0.2209318646804389 -0.942561436062102
-0.3060262637346517 -0.8059706865094297
-0.3379366633799815 -0.6807624994194801
-0.4017574626706411 -0.5897019997176984
-0.43366786231597093 -0.4986415000159169
-0.5081254614884072 -0.4986415000159169
-0.5400358611337369 -0.37343331292596726
-0.5825830606608433 -0.2823728132241857
-0.5825830606608433 -0.17992975105968145
-0.646403859951503 -0.12301693874606799
-0.7314982590057157 -0.12301693874606799
-0.7846822584145988 -0.13439950120879068
-0.8272294579417052 -0.12301693874606799
-0.8272294579417052 -0.06610412643245452
-0.805955858178152 0.002191248343881648
-0.8165926580599286 0.013573810806604343
-0.8697766574688116 0.024956373269327037
-0.9016870571141414 -0.03195643904428644
-0.8910502572323649 0.04772149819477243
-0.8910502572323649 0.08186918558294051
-0.8804134573505882 0.12739943543383128
-0.8272294579417052 0.12739943543383128
-0.8697766574688116 0.1046343105083859
-0.9016870571141414 0.05910406065749512
-0.9229606568776946 0.11601687297110859
-0.9229606568776946 0.15016456035927667
-0.9229606568776946 0.22984249759833553
-0.8804134573505882 0.2639901849865036
-0.8910502572323649 0.28675530991194903
-0.9229606568776946 0.28675530991194903
-0.9761446562865776 0.28675530991194903
-0.9761446562865776 0.3436681222255625
-0.9867814561683542 0.38919837207645325
-0.9655078564048011 0.434728621927344
-0.9548710565230244 0.44611118439006675
-0.9867814561683542 0.42334605946462134
-1.0293286556954606 0.4916414342409575
-1.0399654555772373 0.548554246554571
-1.0506022554590138 0.6054670588681844
-1.0293286556954606 0.6282321837936299
-1.0293286556954606 0.6282321837936299
-1.0612390553407904 0.6168496213309071
-1.0931494549861203 0.6851449961072433
-1.0825126551043436 0.7420578084208568
-1.0931494549861203 0.8331183081226383
-1.0506022554590138 0.8558834330480838
-1.0931494549861203 0.8900311204362519
-1.12505985463145 0.9014136828989745
-1.1356966545132268 0.9241788078244199
-1.15697025427678 1.0038567450634788
-1.15697025427678 1.0607695573770923
-1.1463334543950032 1.106299807227983
-1.1676070541585564 1.0835346823025376
-1.2207910535674396 1.0949172447652604
-1.2527014532127694 1.072152119839815
-1.2420646533309927 1.1176823696907057
-1.2420646533309927 1.1518300570788738
-1.2207910535674396 1.2087428693924873
-1.2207910535674396 1.1518300570788738
-1.2527014532127694 1.1176823696907057
-1.2739750529763225 1.072152119839815
-1.2846118528580992 1.106299807227983
-1.2527014532127694 1.106299807227983
-1.231427853449216 1.0835346823025376
-1.2633382530945458 1.0266218699889242
-1.2420646533309927 0.958326495212588
-1.2420646533309927 0.9355613702871426
-1.2207910535674396 0.8786485579735291
-1.2101542536856629 0.8786485579735291
-1.1995174538038862 0.7762054958090249
-1.1463334543950032 0.6965275585699661
-1.12505985463145 0.5940844964054618
-1.15697025427678 0.5371716840918483
-1.1144230547496734 0.5713193714800163
-1.0399654555772373 0.5713193714800163
-0.9761446562865776 0.4688763093155121
-0.9442342566412478 0.400580934539176
-0.9229606568776946 0.2639901849865036
-0.912323856995918 0.17292968528472208
-0.859139857587035 0.138781997896554
-0.7740454585328223 0.11601687297110859
-0.7208614591239392 0.04772149819477243
-0.6783142595968328 -0.04333900150700913
-0.646403859951503 -0.07748668889517721
-0.6144934603061731 -0.15716462613423607
-0.5400358611337369 -0.19131231352240416
-0.46557826196130075 -0.22546000091057225
-0.41239426255241773 -0.2596076882987403
-0.36984706302531134 -0.2823728132241857
-0.36984706302531134 -0.3961984378514127
-0.39112066278886454 -0.3961984378514127
-0.3379366633799815 -0.41896356277685803
-0.3060262637346517 -0.37343331292596726
-0.2741158640893219 -0.38481587538868994
-0.3060262637346517 -0.4531112501650261
-0.34857346326175814 -0.5100240624786396
-0.34857346326175814 -0.532789187404085
-0.32729986349820495 -0.532789187404085
-0.3060262637346517 -0.5100240624786396
-0.2315686645622155 -0.5100240624786396
-0.2634790642075453 -0.532789187404085
-0.2847526639710985 -0.5783194372549758
-0.32729986349820495 -0.5783194372549758
-0.34857346326175814 -0.5897019997176984
-0.32729986349820495 -0.532789187404085
-0.2847526639710985 -0.5441717498668077
-0.25284226432576873 -0.5441717498668077
-0.2847526639710985 -0.6124671246431439
-0.32729986349820495 -0.5441717498668077
-0.3379366633799815 -0.5555543123295303
-0.3166630636164283 -0.532789187404085
-0.2953894638528751 -0.5100240624786396
-0.3060262637346517 -0.5441717498668077
-0.3166630636164283 -0.5669368747922531
-0.3060262637346517 -0.5783194372549758
-0.32729986349820495 -0.5214066249413623
-0.34857346326175814 -0.47587637509047154
-0.34857346326175814 -0.46449381262774886
-0.34857346326175814 -0.5214066249413623
-0.3592102631435347 -0.5555543123295303
-0.39112066278886454 -0.5441717498668077
-0.36984706302531134 -0.5214066249413623
-0.3592102631435347 -0.46449381262774886
-0.32729986349820495 -0.4531112501650261
-0.3592102631435347 -0.47587637509047154
-0.36984706302531134 -0.4986415000159169
-0.4017574626706411 -0.5100240624786396
-0.39112066278886454 -0.4872589375531942
-0.3804838629070879 -0.43034612523958077
-0.3060262637346517 -0.43034612523958077
-0.3379366633799815 -0.4531112501650261
-0.41239426255241773 -0.47587637509047154
-0.42303106243419436 -0.46449381262774886
-0.41239426255241773 -0.4531112501650261
-0.36984706302531134 -0.40758100031413536
-0.2953894638528751 -0.3961984378514127
-0.3592102631435347 -0.40758100031413536
-0.36984706302531134 -0.4872589375531942
-0.39112066278886454 -0.4872589375531942
-0.39112066278886454 -0.4531112501650261
-0.3592102631435347 -0.3961984378514127
-0.3379366633799815 -0.3620507504632446
-0.2953894638528751 -0.3961984378514127
-0.3060262637346517 -0.41896356277685803
-0.3592102631435347 -0.44172868770230345
-0.3592102631435347 -0.41896356277685803
-0.3166630636164283 -0.37343331292596726
-0.2847526639710985 -0.3620507504632446
-0.2741158640893219 -0.3961984378514127
-0.2953894638528751 -0.4531112501650261
-0.3166630636164283 -0.4531112501650261
-0.3592102631435347 -0.41896356277685803
-0.2953894638528751 -0.3961984378514127
-0.2634790642075453 -0.40758100031413536
-0.2741158640893219 -0.44172868770230345
-0.2847526639710985 -0.4872589375531942
-0.2953894638528751 -0.47587637509047154
-0.2953894638528751 -0.46449381262774886
-0.25284226432576873 -0.40758100031413536
-0.2315686645622155 -0.44172868770230345
-0.2741158640893219 -0.47587637509047154
-0.2953894638528751 -0.5214066249413623
-0.3060262637346517 -0.5100240624786396
-0.2953894638528751 -0.4986415000159169
-0.2422054644439921 -0.43034612523958077
-0.25284226432576873 -0.44172868770230345
-0.2741158640893219 -0.4986415000159169
-0.2847526639710985 -0.5441717498668077
-0.3379366633799815 -0.532789187404085
-0.2953894638528751 -0.5555543123295303
-0.2422054644439921 -0.47587637509047154
-0.17838466515333248 -0.5214066249413623
-0.1464742655080027 -0.5441717498668077
-0.2209318646804389 -0.5783194372549758
-0.2209318646804389 -0.5897019997176984
-0.2102950647986623 -0.5555543123295303
-0.17838466515333248 -0.532789187404085
-0.11456386586267288 -0.5100240624786396
-0.11456386586267288 -0.5555543123295303
-0.1358374656262261 -0.6010845621804212
-0.18902146503510908 -0.5897019997176984
-0.17838466515333248 -0.6010845621804212
-0.1358374656262261 -0.5783194372549758
-0.10392706598089628 -0.5669368747922531
-0.06137986645378987 -0.6352322495685893
-0.09329026609911968 -0.6693799369567573
-0.1252006657444495 -0.6921450618822027
-0.18902146503510908 -0.6693799369567573
-0.18902146503510908 -0.6124671246431439
-0.1571110653897793 -0.6352322495685893
-0.16774786527155588 -0.6579973744940346
-0.17838466515333248 -0.6807624994194801
-0.17838466515333248 -0.6807624994194801
-0.1996582649168857 -0.6579973744940346
-0.1996582649168857 -0.6010845621804212
-0.17838466515333248 -0.6238496871058665
-0.2102950647986623 -0.646614812031312
-0.2102950647986623 -0.6807624994194801
-0.2422054644439921 -0.7035276243449254
-0.2634790642075453 -0.646614812031312
-0.2741158640893219 -0.6352322495685893
-0.3166630636164283 -0.6579973744940346
-0.3166630636164283 -0.6693799369567573
-0.3379366633799815 -0.7490578741958162
-0.3379366633799815 -0.7262927492703708
-0.32729986349820495 -0.7035276243449254
-0.32729986349820495 -0.6693799369567573
-0.2634790642075453 -0.646614812031312
-0.2953894638528751 -0.6921450618822027
-0.34857346326175814 -0.6807624994194801
-0.39112066278886454 -0.7035276243449254
-0.3804838629070879 -0.6352322495685893
-0.3166630636164283 -0.6693799369567573
-0.2741158640893219 -0.6238496871058665
-0.3060262637346517 -0.6579973744940346
-0.3592102631435347 -0.7035276243449254
-0.3804838629070879 -0.6807624994194801
-0.3592102631435347 -0.6693799369567573
-0.3060262637346517 -0.6124671246431439
-0.3060262637346517 -0.6579973744940346
-0.3060262637346517 -0.6352322495685893
-0.3379366633799815 -0.6693799369567573
-0.34857346326175814 -0.646614812031312
-0.3166630636164283 -0.6124671246431439
-0.2422054644439921 -0.5100240624786396
-0.2102950647986623 -0.4986415000159169
-0.2209318646804389 -0.6352322495685893
-0.1464742655080027 -0.8173532489721523
0.013077732718646344 -1.0222393733011608
0.3215449292901678 -1.3637162471828417
0.6300121258616893 -1.6824279961390771
0.9597529221967639 -2.001139745095313
1.1831257197140725 -2.2970863691261028
1.4703193165220407 -2.5930329931568927
1.842607312384222 -2.763771430097733
2.310626507182392 -2.9003621796504055
2.8956505006801057 -2.9686575544267417
3.4594008944142653 -2.991422679352187
4.033788088030202 -3.0483354916658003
4.480533683064819 -3.1166308664421365
4.703906480582128 -3.0824831790539684
4.799637679518117 -2.980040116889464
4.810274479399894 -2.9003621796504055
4.682632880818574 -2.8775970547249603
4.203976886138627 -2.9117447421131284
3.2892120963058398 -2.923127304575851
2.214895308246403 -2.7979191174859013
1.3745881175860515 -2.695476055321397
0.9491161223149873 -2.4905899309923885
0.8321113236154447 -2.319851494051548
0.7363801246794552 -2.137730494647985
0.6300121258616893 -1.9100792453935311
0.5555545266892531 -1.7507233709154133
0.4810969275168168 -1.6255151838254638
0.3853657285808274 -1.5116895591982367
0.2789977297630614 -1.4092464970337324
0.18326653082707198 -1.3068034348692283
0.07689853200930595 -1.2385080600928922
0.03435133248219955 -1.1815952477792786
-0.00819586704490686 -0.9994742483757155
-0.029469466808460063 -0.8515009363603204
-0.06137986645378987 -0.7718229991212616
-0.16774786527155588 -0.6807624994194801
-0.2422054644439921 -0.6124671246431439
-0.2953894638528751 -0.5214066249413623
-0.34857346326175814 -0.38481587538868994
-0.3804838629070879 -0.27099025076146305
-0.43366786231597093 -0.20269487598512687
-0.46557826196130075 -0.20269487598512687
-0.5613094608972902 -0.20269487598512687
-0.6038566604243966 -0.1002518138206226
-0.646403859951503 -0.08886925135789991
-0.5825830606608433 -0.020573876581563743
-0.5825830606608433 -0.009191314118841047
-0.5825830606608433 0.024956373269327037
-0.646403859951503 0.024956373269327037
-0.7102246592421626 0.04772149819477243
-0.6889510594786094 0.07048662312021782
-0.6783142595968328 0.0932517480456632
-0.6251302601879498 0.138781997896554
-0.6251302601879498 0.15016456035927667
-0.6783142595968328 0.12739943543383128
-0.7102246592421626 0.16154712282199937
-0.7102246592421626 0.18431224774744476
-0.6889510594786094 0.24122506006105823
-0.6676774597150562 0.2639901849865036
-0.6570406598332795 0.2753727474492263
-0.6676774597150562 0.2753727474492263
-0.7102246592421626 0.2981378723746717
-0.7102246592421626 0.400580934539176
-0.6889510594786094 0.42334605946462134
-0.6570406598332795 0.4688763093155121
-0.6676774597150562 0.434728621927344
-0.7208614591239392 0.44611118439006675
-0.7421350588874924 0.45749374685278943
-0.7634086586510456 0.5030239967036803
-0.7314982590057157 0.548554246554571
-0.7208614591239392 0.6282321837936299
-0.7314982590057157 0.6168496213309071
-0.7634086586510456 0.6737624336445206
-0.7953190582963754 0.6851449961072433
-0.7846822584145988 0.7420578084208568
-0.7740454585328223 0.8217357456599157
-0.7421350588874924 0.844500870585361
-0.7846822584145988 0.8900311204362519
-0.8272294579417052 0.8900311204362519
-0.859139857587035 0.9355613702871426
-0.8697766574688116 1.0038567450634788
-0.859139857587035 1.0607695573770923
-0.8272294579417052 1.0949172447652604
-0.7953190582963754 1.1176823696907057
-0.8804134573505882 1.0835346823025376
-0.912323856995918 1.106299807227983
-0.9442342566412478 1.1518300570788738
-0.9335974567594713 1.22012543185521
-0.9016870571141414 1.254273119243378
-0.8910502572323649 1.2087428693924873
-0.912323856995918 1.1973603069297645
-0.9335974567594713 1.1859777444670419
-0.9229606568776946 1.1973603069297645
-0.9016870571141414 1.22012543185521
-0.859139857587035 1.2087428693924873
-0.8804134573505882 1.1518300570788738
-0.8378662578234818 1.1176823696907057
-0.8378662578234818 1.0266218699889242
-0.8378662578234818 1.0493869949143695
-0.805955858178152 0.992474182600756
-0.7740454585328223 0.9469439327498653
-0.752771858769269 0.844500870585361
-0.752771858769269 0.7648229333463021
-0.7421350588874924 0.6851449961072433
-0.6783142595968328 0.6965275585699661
-0.646403859951503 0.6965275585699661
-0.59321986054262 0.6282321837936299
-0.6038566604243966 0.5599368090172937
-0.5613094608972902 0.41196349700189866
-0.5719462607790667 0.3322855597628398
-0.5187622613701838 0.28675530991194903
-0.43366786231597093 0.21845993513561285
-0.3379366633799815 0.18431224774744476
-0.32729986349820495 0.04772149819477243
-0.2741158640893219 -0.03195643904428644
-0.2953894638528751 -0.12301693874606799
-0.2741158640893219 -0.1457820636715134
-0.2209318646804389 -0.16854718859695877
-0.1571110653897793 -0.20269487598512687
-0.1252006657444495 -0.2596076882987403
-0.18902146503510908 -0.3279030630750765
-0.2209318646804389 -0.38481587538868994
-0.2102950647986623 -0.3620507504632446
-0.1996582649168857 -0.3961984378514127
-0.17838466515333248 -0.3961984378514127
-0.1464742655080027 -0.44172868770230345
-0.1571110653897793 -0.47587637509047154
-0.17838466515333248 -0.5100240624786396
-0.16774786527155588 -0.5214066249413623
-0.1571110653897793 -0.47587637509047154
-0.17838466515333248 -0.4986415000159169
-0.2102950647986623 -0.5100240624786396
-0.2634790642075453 -0.5669368747922531
-0.2422054644439921 -0.5897019997176984
-0.2315686645622155 -0.6010845621804212
-0.2422054644439921 -0.5214066249413623
-0.1996582649168857 -0.4986415000159169
-0.2634790642075453 -0.5100240624786396
-0.3060262637346517 -0.5555543123295303
-0.3060262637346517 -0.5669368747922531
-0.2847526639710985 -0.5783194372549758
-0.2634790642075453 -0.4986415000159169
-0.1996582649168857 -0.4872589375531942
-0.2422054644439921 -0.5555543123295303
-0.2741158640893219 -0.5669368747922531
-0.3166630636164283 -0.5783194372549758
-0.3379366633799815 -0.5555543123295303
-0.32729986349820495 -0.4872589375531942
-0.2209318646804389 -0.4872589375531942
-0.2422054644439921 -0.5214066249413623
-0.2422054644439921 -0.5214066249413623
-0.2741158640893219 -0.5555543123295303
-0.2953894638528751 -0.5441717498668077
-0.32729986349820495 -0.4986415000159169
-0.2634790642075453 -0.47587637509047154
-0.25284226432576873 -0.4872589375531942
-0.3060262637346517 -0.532789187404085
-0.3166630636164283 -0.532789187404085
-0.32729986349820495 -0.5214066249413623
-0.2953894638528751 -0.47587637509047154
-0.3060262637346517 -0.47587637509047154
-0.3166630636164283 -0.47587637509047154
-0.34857346326175814 -0.532789187404085
-0.36984706302531134 -0.5214066249413623
-0.34857346326175814 -0.4872589375531942
-0.3060262637346517 -0.4531112501650261
-0.2847526639710985 -0.40758100031413536
-0.3060262637346517 -0.4531112501650261
-0.32729986349820495 -0.44172868770230345
-0.3804838629070879 -0.40758100031413536
-0.3592102631435347 -0.3506681880005219
-0.3592102631435347 -0.2937553756869084
-0.3379366633799815 -0.24822512583601763
-0.3804838629070879 -0.23684256337329493
-0.43366786231597093 -0.27099025076146305
-0.46557826196130075 -0.24822512583601763
-0.5187622613701838 -0.13439950120879068
-0.4974886616066305 -0.06610412643245452
-0.5187622613701838 0.013573810806604343
-0.5825830606608433 0.1046343105083859
-0.646403859951503 0.15016456035927667
-0.646403859951503 0.22984249759833553
-0.5613094608972902 0.3436681222255625
-0.39112066278886454 0.5371716840918483
-0.1996582649168857 0.6965275585699661
0.013077732718646344 0.9127962453616972
0.236450530235955 1.1404474946161511
0.5768281264528062 1.3339510564824368
1.0235737214874234 1.5388371808114454
1.5341401158127004 1.7323407426777313
2.0340697102562006 1.7892535549913446
2.5127257049361478 1.7323407426777313
3.0126552993796483 1.6640453679013951
3.3423960957147227 1.5616023057368908
3.470037694296042 1.595749993125059
3.4274904947689357 1.7209581802150085
3.3530328955964994 1.8234012423795127
3.2466648967787335 1.9827571168576306
3.044565699024978 2.10796530394758
2.7892825018623393 2.153495553798471
2.5127257049361478 2.119347866410303
2.1936217084828495 2.0282873667085215
1.8851545119113282 1.81201867991679
1.523503315930924 1.5046894934232773
1.140578520186966 1.1518300570788738
0.7151065249159021 0.844500870585361
0.3002713295266146 0.5940844964054618
-0.06137986645378987 0.41196349700189866
-0.32729986349820495 0.21845993513561285
-0.5506726610155136 0.03633893573204973
-0.7953190582963754 -0.1116343762833453
-0.912323856995918 -0.23684256337329493
-0.912323856995918 -0.3506681880005219
-0.8485030577052585 -0.38481587538868994
-0.752771858769269 -0.46449381262774886
-0.6889510594786094 -0.5783194372549758
-0.7314982590057157 -0.6124671246431439
-0.699587859360386 -0.6693799369567573
-0.7314982590057157 -0.6693799369567573
-0.7208614591239392 -0.646614812031312
-0.7102246592421626 -0.6352322495685893
-0.6783142595968328 -0.6807624994194801
-0.6783142595968328 -0.7149101868076481
-0.6889510594786094 -0.7490578741958162
-0.699587859360386 -0.7832055615839842
-0.6889510594786094 -0.7604404366585389
-0.6676774597150562 -0.7718229991212616
-0.6570406598332795 -0.8059706865094297
-0.6676774597150562 -0.8401183738975978
-0.6889510594786094 -0.8970311862112113
-0.6889510594786094 -0.8856486237484885
-0.6357670600697264 -0.8742660612857658
-0.6357670600697264 -0.8856486237484885
-0.6570406598332795 -0.9084137486739339
-0.6889510594786094 -0.9539439985248247
-0.699587859360386 -0.9767091234502701
-0.699587859360386 -0.942561436062102
-0.6676774597150562 -0.942561436062102
-0.646403859951503 -0.9311788735993793
-0.6038566604243966 -1.0108568108384381
-0.59321986054262 -1.0450044982266062
-0.6038566604243966 -1.0791521856147743
-0.5719462607790667 -1.0791521856147743
-0.5613094608972902 -1.0336219357638836
-0.5187622613701838 -1.0450044982266062
-0.5293990612519603 -1.090534748077497
-0.5400358611337369 -1.1929778102420012
-0.5400358611337369 -1.204360372704724
-0.5400358611337369 -1.1815952477792786
-0.5506726610155136 -1.1360649979283879
-0.5081254614884072 -1.1815952477792786
-0.5613094608972902 -1.1929778102420012
-0.5613094608972902 -1.2840383099437829
-0.5400358611337369 -1.318185997331951
-0.5187622613701838 -1.2954208724065055
-0.4974886616066305 -1.3068034348692283
-0.4974886616066305 -1.3637162471828417
-0.4974886616066305 -1.3864813721082871
-0.5081254614884072 -1.4547767468846233
-0.5187622613701838 -1.500306996735514
-0.48685186172485395 -1.4889244342727914
-0.43366786231597093 -1.4889244342727914
-0.3804838629070879 -1.5116895591982367
-0.4017574626706411 -1.5913674964372957
-0.43366786231597093 -1.6596628712136319
-0.41239426255241773 -1.6938105586017997
-0.3804838629070879 -1.6824279961390771
-0.2953894638528751 -1.6368977462881864
-0.25284226432576873 -1.6824279961390771
-0.18902146503510908 -1.6824279961390771
-0.2102950647986623 -1.7734884958408588
-0.2209318646804389 -1.7848710583035814
-0.1996582649168857 -1.8190187456917495
-0.1571110653897793 -1.8076361832290269
-0.09329026609911968 -1.7734884958408588
0.013077732718646344 -1.7734884958408588
0.023714532600422944 -1.8190187456917495
0.03435133248219955 -1.8531664330799176
0.09817213177285916 -1.830401308154472
0.17262973094529538 -1.7734884958408588
0.22581373035417837 -1.7734884958408588
0.2789977297630614 -1.7279582459899678
0.3215449292901678 -1.7734884958408588
0.37472892869905083 -1.7051931210645226
0.37472892869905083 -1.648280308750909
0.4279129281079338 -1.5913674964372957
0.449186527871487 -1.5572198090491276
0.4810969275168168 -1.5116895591982367
0.4810969275168168 -1.4889244342727914
0.49173372739859345 -1.4092464970337324
0.4810969275168168 -1.352333684720119
0.50237052728037 -1.2385080600928922
0.5130073271621466 -1.170212685316556
0.50237052728037 -1.1474475603911105
0.41727612822615723 -1.1019173105402198
0.3640921288172742 -1.0791521856147743
0.3321817291719444 -1.0108568108384381
0.3534553289354976 -0.9197963111366566
0.342818529053721 -0.8628834988230432
0.289634529644838 -0.8059706865094297
0.20454013059062517 -0.8287358114348751
0.16199293106351878 -0.794588124046707
0.14071933129996556 -0.7604404366585389
0.13008253141818896 -0.7149101868076481
0.17262973094529538 -0.646614812031312
0.15135613118174218 -0.6579973744940346
0.08753533189108256 -0.7035276243449254
0.04498813236397615 -0.6807624994194801
0.023714532600422944 -0.6124671246431439
0.023714532600422944 -0.5669368747922531
0.0024409328368697417 -0.5214066249413623
-0.050743066572013266 -0.5214066249413623
-0.07201666633556647 -0.5669368747922531
-0.11456386586267288 -0.5783194372549758
-0.1252006657444495 -0.532789187404085
-0.1252006657444495 -0.4986415000159169
-0.11456386586267288 -0.4531112501650261
-0.1571110653897793 -0.47587637509047154
-0.18902146503510908 -0.5100240624786396
-0.18902146503510908 -0.4986415000159169
-0.18902146503510908 -0.47587637509047154
-0.18902146503510908 -0.44172868770230345
-0.17838466515333248 -0.41896356277685803
-0.1996582649168857 -0.44172868770230345
-0.2315686645622155 -0.46449381262774886
-0.2422054644439921 -0.44172868770230345
-0.2315686645622155 -0.4531112501650261
-0.18902146503510908 -0.38481587538868994
-0.16774786527155588 -0.37343331292596726
-0.16774786527155588 -0.44172868770230345
-0.18902146503510908 -0.47587637509047154
-0.2315686645622155 -0.5100240624786396
-0.2634790642075453 -0.44172868770230345
-0.2209318646804389 -0.40758100031413536
-0.2209318646804389 -0.38481587538868994
-0.18902146503510908 -0.40758100031413536
-0.2209318646804389 -0.4531112501650261
-0.25284226432576873 -0.4531112501650261
-0.2847526639710985 -0.44172868770230345
-0.2634790642075453 -0.3961984378514127
-0.2209318646804389 -0.40758100031413536
-0.1996582649168857 -0.40758100031413536
-0.2315686645622155 -0.44172868770230345
-0.25284226432576873 -0.46449381262774886
-0.25284226432576873 -0.40758100031413536
-0.2422054644439921 -0.38481587538868994
-0.2315686645622155 -0.41896356277685803
-0.2209318646804389 -0.4531112501650261
-0.2422054644439921 -0.43034612523958077
-0.2741158640893219 -0.46449381262774886
-0.2634790642075453 -0.41896356277685803
-0.2422054644439921 -0.3620507504632446
-0.2102950647986623 -0.37343331292596726
-0.18902146503510908 -0.3506681880005219
-0.2315686645622155 -0.41896356277685803
-0.2741158640893219 -0.4531112501650261
-0.2741158640893219 -0.41896356277685803
-0.2741158640893219 -0.38481587538868994
-0.2209318646804389 -0.37343331292596726
-0.2102950647986623 -0.40758100031413536
-0.25284226432576873 -0.41896356277685803
-0.2953894638528751 -0.41896356277685803
-0.3166630636164283 -0.41896356277685803
-0.3060262637346517 -0.3961984378514127
-0.2741158640893219 -0.3620507504632446
-0.25284226432576873 -0.37343331292596726
-0.2847526639710985 -0.41896356277685803
-0.2953894638528751 -0.43034612523958077
-0.3166630636164283 -0.38481587538868994
-0.2953894638528751 -0.3620507504632446
-0.2847526639710985 -0.3506681880005219
-0.3060262637346517 -0.3620507504632446
-0.3166630636164283 -0.43034612523958077
-0.32729986349820495 -0.46449381262774886
-0.32729986349820495 -0.43034612523958077
-0.3166630636164283 -0.3620507504632446
-0.2741158640893219 -0.3392856255377992
-0.32729986349820495 -0.40758100031413536
-0.32729986349820495 -0.43034612523958077
-0.3804838629070879 -0.43034612523958077
-0.34857346326175814 -0.44172868770230345
-0.3166630636164283 -0.3961984378514127
-0.3166630636164283 -0.3961984378514127
-0.34857346326175814 -0.40758100031413536
-0.39112066278886454 -0.47587637509047154
-0.39112066278886454 -0.4531112501650261
-0.3592102631435347 -0.43034612523958077
-0.3379366633799815 -0.3620507504632446
-0.3060262637346517 -0.3961984378514127
-0.3060262637346517 -0.40758100031413536
-0.3166630636164283 -0.4531112501650261
-0.34857346326175814 -0.46449381262774886
-0.39112066278886454 -0.41896356277685803
-0.36984706302531134 -0.40758100031413536
-0.34857346326175814 -0.3620507504632446
-0.3379366633799815 -0.38481587538868994
-0.36984706302531134 -0.43034612523958077
-0.3804838629070879 -0.47587637509047154
-0.39112066278886454 -0.43034612523958077
-0.39112066278886454 -0.3961984378514127
-0.3592102631435347 -0.38481587538868994
-0.4017574626706411 -0.41896356277685803
-0.42303106243419436 -0.41896356277685803
-0.4017574626706411 -0.41896356277685803
-0.42303106243419436 -0.38481587538868994
-0.3379366633799815 -0.3392856255377992
-0.3166630636164283 -0.3506681880005219
-0.3379366633799815 -0.38481587538868994
-0.39112066278886454 -0.43034612523958077
-0.4017574626706411 -0.43034612523958077
-0.41239426255241773 -0.43034612523958077
-0.36984706302531134 -0.37343331292596726
-0.3379366633799815 -0.3392856255377992
-0.34857346326175814 -0.3620507504632446
-0.3804838629070879 -0.40758100031413536
-0.4017574626706411 -0.41896356277685803
-0.4017574626706411 -0.41896356277685803
-0.41239426255241773 -0.40758100031413536
-0.36984706302531134 -0.38481587538868994
-0.39112066278886454 -0.43034612523958077
-0.39112066278886454 -0.43034612523958077
-0.39112066278886454 -0.41896356277685803
-0.39112066278886454 -0.3961984378514127
-0.39112066278886454 -0.3620507504632446
-0.34857346326175814 -0.3392856255377992
-0.36984706302531134 -0.38481587538868994
-0.39112066278886454 -0.40758100031413536
-0.42303106243419436 -0.43034612523958077
-0.3804838629070879 -0.3961984378514127
-0.36984706302531134 -0.3620507504632446
-0.3592102631435347 -0.3279030630750765
-0.36984706302531134 -0.38481587538868994
-0.39112066278886454 -0.43034612523958077
-0.43366786231597093 -0.43034612523958077
-0.43366786231597093 -0.41896356277685803
-0.3804838629070879 -0.3620507504632446
-0.34857346326175814 -0.3506681880005219
-0.34857346326175814 -0.38481587538868994
-0.4017574626706411 -0.3961984378514127
-0.4017574626706411 -0.41896356277685803
-0.42303106243419436 -0.38481587538868994
-0.39112066278886454 -0.3392856255377992
-0.3804838629070879 -0.3165205006123538
-0.36984706302531134 -0.38481587538868994
-0.3379366633799815 -0.41896356277685803
-0.39112066278886454 -0.44172868770230345
-0.3804838629070879 -0.41896356277685803
-0.3592102631435347 -0.3620507504632446
-0.39112066278886454 -0.3506681880005219
-0.3592102631435347 -0.3279030630750765
-0.4017574626706411 -0.40758100031413536
-0.43366786231597093 -0.3961984378514127
-0.42303106243419436 -0.3620507504632446
-0.3804838629070879 -0.3279030630750765
-0.3592102631435347 -0.3506681880005219
-0.39112066278886454 -0.3279030630750765
-0.4017574626706411 -0.3506681880005219
-0.41239426255241773 -0.40758100031413536
-0.4017574626706411 -0.37343331292596726
-0.4017574626706411 -0.3392856255377992
-0.3592102631435347 -0.3165205006123538
-0.32729986349820495 -0.3392856255377992
-0.3592102631435347 -0.3506681880005219
-0.41239426255241773 -0.38481587538868994
-0.41239426255241773 -0.3620507504632446
-0.4017574626706411 -0.3392856255377992
-0.3592102631435347 -0.2823728132241857
-0.34857346326175814 -0.3392856255377992
-0.3592102631435347 -0.37343331292596726
-0.3804838629070879 -0.3506681880005219
-0.39112066278886454 -0.3506681880005219
-0.3592102631435347 -0.3051379381496311
-0.36984706302531134 -0.2937553756869084
-0.3804838629070879 -0.3279030630750765
-0.3804838629070879 -0.3506681880005219
-0.39112066278886454 -0.3392856255377992
-0.3592102631435347 -0.3392856255377992
-0.36984706302531134 -0.2937553756869084
-0.32729986349820495 -0.3051379381496311
-0.39112066278886454 -0.3051379381496311
-0.36984706302531134 -0.3506681880005219
-0.36984706302531134 -0.3961984378514127
-0.36984706302531134 -0.3506681880005219
-0.3166630636164283 -0.2823728132241857
-0.3166630636164283 -0.2823728132241857
-0.32729986349820495 -0.3279030630750765
-0.3592102631435347 -0.3051379381496311
-0.39112066278886454 -0.3279030630750765
-0.4017574626706411 -0.3279030630750765
-0.3804838629070879 -0.2937553756869084
-0.32729986349820495 -0.27099025076146305
-0.3166630636164283 -0.2823728132241857
-0.3379366633799815 -0.3165205006123538
-0.3379366633799815 -0.3165205006123538
-0.36984706302531134 -0.2823728132241857
-0.3804838629070879 -0.24822512583601763
-0.3379366633799815 -0.27099025076146305
-0.2953894638528751 -0.27099025076146305
-0.3060262637346517 -0.3165205006123538
-0.3166630636164283 -0.3165205006123538
-0.32729986349820495 -0.2937553756869084
-0.3166630636164283 -0.24822512583601763
-0.3060262637346517 -0.22546000091057225
-0.3166630636164283 -0.3165205006123538
-0.3592102631435347 -0.3165205006123538
-0.34857346326175814 -0.3392856255377992
-0.3379366633799815 -0.3165205006123538
-0.2847526639710985 -0.2823728132241857
-0.2741158640893219 -0.22546000091057225
-0.3060262637346517 -0.2596076882987403
-0.3166630636164283 -0.3051379381496311
-0.36984706302531134 -0.27099025076146305
-0.36984706302531134 -0.2937553756869084
-0.3166630636164283 -0.24822512583601763
-0.2741158640893219 -0.23684256337329493
-0.25284226432576873 -0.2596076882987403
-0.3060262637346517 -0.2937553756869084
-0.3379366633799815 -0.2596076882987403
-0.36984706302531134 -0.2823728132241857
-0.3379366633799815 -0.24822512583601763
-0.2953894638528751 -0.20269487598512687
-0.3166630636164283 -0.2596076882987403
-0.32729986349820495 -0.2596076882987403
-0.32729986349820495 -0.27099025076146305
-0.3060262637346517 -0.2596076882987403
-0.3166630636164283 -0.17992975105968145
-0.3060262637346517 -0.19131231352240416
-0.2953894638528751 -0.22546000091057225
-0.2953894638528751 -0.27099025076146305
-0.3166630636164283 -0.2937553756869084
-0.32729986349820495 -0.24822512583601763
-0.2847526639710985 -0.23684256337329493
-0.2634790642075453 -0.22546000091057225
-0.2953894638528751 -0.2596076882987403
-0.2847526639710985 -0.2823728132241857
-0.3379366633799815 -0.27099025076146305
-0.3166630636164283 -0.2596076882987403
-0.2847526639710985 -0.21407743844784954
-0.25284226432576873 -0.22546000091057225
-0.2634790642075453 -0.3051379381496311
-0.2741158640893219 -0.3279030630750765
-0.2847526639710985 -0.3392856255377992
-0.2422054644439921 -0.2937553756869084
-0.2209318646804389 -0.24822512583601763
-0.1571110653897793 -0.2596076882987403
-0.1464742655080027 -0.27099025076146305
-0.1571110653897793 -0.3392856255377992
-0.16774786527155588 -0.3392856255377992
-0.16774786527155588 -0.3051379381496311
-0.1358374656262261 -0.2937553756869084
-0.09329026609911968 -0.2596076882987403
-0.07201666633556647 -0.2937553756869084
-0.07201666633556647 -0.2937553756869084
-0.1252006657444495 -0.3392856255377992
-0.10392706598089628 -0.3506681880005219
-0.08265346621734307 -0.3165205006123538
-0.050743066572013266 -0.3051379381496311
-0.050743066572013266 -0.3392856255377992
-0.09329026609911968 -0.3392856255377992
-0.1358374656262261 -0.37343331292596726
-0.1358374656262261 -0.3051379381496311
-0.1358374656262261 -0.3165205006123538
-0.1358374656262261 -0.23684256337329493
-0.11456386586267288 -0.2937553756869084
-0.1252006657444495 -0.3051379381496311
-0.1464742655080027 -0.3392856255377992
-0.1464742655080027 -0.3051379381496311
-0.1358374656262261 -0.27099025076146305
-0.1252006657444495 -0.24822512583601763
-0.17838466515333248 -0.24822512583601763
-0.2102950647986623 -0.2937553756869084
-0.2209318646804389 -0.3051379381496311
-0.2315686645622155 -0.27099025076146305
-0.2315686645622155 -0.24822512583601763
-0.2422054644439921 -0.23684256337329493
-0.2847526639710985 -0.24822512583601763
-0.3060262637346517 -0.27099025076146305
-0.34857346326175814 -0.3279030630750765
-0.2953894638528751 -0.2823728132241857
-0.25284226432576873 -0.27099025076146305
-0.18902146503510908 -0.27099025076146305
-0.2209318646804389 -0.2937553756869084
-0.2634790642075453 -0.2937553756869084
-0.2847526639710985 -0.2937553756869084
-0.3166630636164283 -0.24822512583601763
-0.3060262637346517 -0.21407743844784954
-0.2953894638528751 -0.19131231352240416
-0.25284226432576873 -0.21407743844784954
-0.25284226432576873 -0.22546000091057225
-0.2741158640893219 -0.27099025076146305
-0.2634790642075453 -0.22546000091057225
-0.25284226432576873 -0.16854718859695877
-0.2634790642075453 -0.19131231352240416
-0.2634790642075453 -0.20269487598512687
-0.25284226432576873 -0.20269487598512687
-0.2741158640893219 -0.19131231352240416
-0.25284226432576873 -0.13439950120879068
-0.2315686645622155 -0.08886925135789991
-0.2209318646804389 -0.03195643904428644
-0.2634790642075453 -0.020573876581563743
-0.3060262637346517 -0.06610412643245452
-0.34857346326175814 -0.16854718859695877
-0.3060262637346517 -0.21407743844784954
-0.18902146503510908 -0.37343331292596726
-0.01883266692668346 -0.646614812031312
0.16199293106351878 -1.0108568108384381
0.3534553289354976 -1.3750988096455643
0.5449177268074764 -1.7279582459899678
0.6938329251523488 -2.023904870020758
0.9491161223149873 -2.2629386817379347
1.2469465190047322 -2.433677118678775
1.651144914512243 -2.615798118082338
2.0872537096650836 -2.775153992560456
2.544636104581478 -2.8548319297995146
3.0126552993796483 -2.8548319297995146
3.523221693704925 -2.763771430097733
3.969967288739542 -2.6727109303959518
4.32098168483817 -2.5702678682314475
4.5762648820008085 -2.547502743306002
4.661359281055021 -2.5019724934551113
4.703906480582128 -2.4109119937533294
4.650722481173244 -2.3426166189769932
4.448623283419489 -2.308468931588825
4.0231512881484255 -2.251556119275212
3.4062168950053824 -2.274321244200657
2.6829145030445734 -2.2287909943497666
1.970248910965541 -2.103582807259817
1.5128665160491472 -1.98975718263259
1.2682201187682853 -1.8531664330799176
1.1512153200687427 -1.6824279961390771
0.9810265219603171 -1.5116895591982367
0.8533849233789979 -1.3864813721082871
0.7470169245612319 -1.2385080600928922
0.7044697250341254 -1.1019173105402198
0.661922525507019 -0.9653265609875474
0.5981017262163595 -0.8628834988230432
0.4810969275168168 -0.8401183738975978
0.342818529053721 -0.7490578741958162
0.21517693047240177 -0.6238496871058665
0.20454013059062517 -0.4872589375531942
0.16199293106351878 -0.40758100031413536
0.11944573153641236 -0.3620507504632446
0.04498813236397615 -0.2937553756869084
-0.050743066572013266 -0.24822512583601763
-0.06137986645378987 -0.1116343762833453
-0.08265346621734307 -0.020573876581563743
-0.09329026609911968 0.04772149819477243
-0.1571110653897793 0.11601687297110859
-0.2422054644439921 0.16154712282199937
-0.36984706302531134 0.20707737267289014
-0.42303106243419436 0.28675530991194903
-0.44430466219774756 0.3436681222255625
-0.41239426255241773 0.434728621927344
-0.46557826196130075 0.434728621927344
-0.5293990612519603 0.41196349700189866
-0.5719462607790667 0.434728621927344
-0.6357670600697264 0.5030239967036803
-0.6251302601879498 0.5371716840918483
-0.6251302601879498 0.548554246554571
-0.6038566604243966 0.5371716840918483
-0.646403859951503 0.5599368090172937
-0.6570406598332795 0.5371716840918483
-0.6783142595968328 0.5713193714800163
-0.646403859951503 0.6168496213309071
-0.6357670600697264 0.6168496213309071
-0.6889510594786094 0.6396147462563525
-0.7102246592421626 0.6168496213309071
-0.7102246592421626 0.6396147462563525
-0.7208614591239392 0.6851449961072433
-0.7102246592421626 0.7079101210326887
-0.6676774597150562 0.7762054958090249
-0.6570406598332795 0.7762054958090249
-0.6889510594786094 0.7534403708835795
-0.7421350588874924 0.7648229333463021
-0.7314982590057157 0.8217357456599157
-0.752771858769269 0.844500870585361
-0.7208614591239392 0.8900311204362519
-0.7102246592421626 0.9014136828989745
-0.752771858769269 0.8786485579735291
-0.7634086586510456 0.9014136828989745
-0.7634086586510456 0.9469439327498653
-0.7634086586510456 0.992474182600756
-0.7634086586510456 1.0380044324516469
-0.7421350588874924 1.0607695573770923
-0.805955858178152 1.0380044324516469
-0.805955858178152 1.0493869949143695
-0.8165926580599286 1.0949172447652604
-0.805955858178152 1.1973603069297645
-0.752771858769269 1.254273119243378
-0.752771858769269 1.2428905567806554
-0.7740454585328223 1.254273119243378
-0.8378662578234818 1.254273119243378
-0.8485030577052585 1.3111859315569916
-0.8272294579417052 1.3567161814078823
-0.7953190582963754 1.3908638687960504
-0.7846822584145988 1.402246431258773
-0.8272294579417052 1.4136289937214959
-0.8485030577052585 1.447776681109664
-0.9016870571141414 1.4705418060351092
-0.8697766574688116 1.5616023057368908
-0.8910502572323649 1.6071325555877816
-0.8910502572323649 1.584367430662336
-0.912323856995918 1.550219743274168
-0.9335974567594713 1.5729848681996135
-0.9229606568776946 1.595749993125059
-0.912323856995918 1.6526628054386723
-0.912323856995918 1.6981930552895632
-0.9335974567594713 1.6754279303641177
-0.9867814561683542 1.6526628054386723
-0.9867814561683542 1.6526628054386723
-1.0080550559319075 1.6526628054386723
-0.9655078564048011 1.6754279303641177
-0.9016870571141414 1.6640453679013951
-0.9016870571141414 1.629897680513227
-0.9442342566412478 1.5729848681996135
-0.9867814561683542 1.550219743274168
-0.9974182560501308 1.5388371808114454
-0.9442342566412478 1.550219743274168
-0.9016870571141414 1.5160720558860001
-0.8910502572323649 1.481924368497832
-0.8697766574688116 1.3794813063333278
-0.8485030577052585 1.2998033690942687
-0.8378662578234818 1.254273119243378
-0.8165926580599286 1.2656556817061007
-0.7740454585328223 1.22012543185521
-0.7208614591239392 1.1632126195415966
-0.7314982590057157 1.0835346823025376
-0.7314982590057157 1.0038567450634788
-0.6570406598332795 0.9697090576753107
-0.6038566604243966 0.9810916201380334
-0.5400358611337369 0.9355613702871426
-0.48685186172485395 0.8900311204362519
-0.48685186172485395 0.7762054958090249
-0.4974886616066305 0.7079101210326887
-0.45494146207952413 0.6851449961072433
-0.4017574626706411 0.662379871181798
-0.3379366633799815 0.6396147462563525
-0.3060262637346517 0.5371716840918483
-0.2741158640893219 0.44611118439006675
-0.25284226432576873 0.400580934539176
-0.2422054644439921 0.3664332471510079
-0.2102950647986623 0.38919837207645325
-0.11456386586267288 0.3436681222255625
-0.09329026609911968 0.3095204348373944
-0.09329026609911968 0.25260762252378094
-0.09329026609911968 0.16154712282199937
-0.08265346621734307 0.17292968528472208
-0.07201666633556647 0.17292968528472208
-0.01883266692668346 0.17292968528472208
-0.01883266692668346 0.15016456035927667
-0.04010626669023667 0.08186918558294051
-0.06137986645378987 0.03633893573204973
-0.09329026609911968 0.03633893573204973
-0.04010626669023667 0.024956373269327037
0.013077732718646344 0.05910406065749512
-0.00819586704490686 0.024956373269327037
0.013077732718646344 0.03633893573204973
-0.029469466808460063 0.013573810806604343
-0.09329026609911968 0.013573810806604343
-0.11456386586267288 0.03633893573204973
-0.06137986645378987 0.03633893573204973
-0.06137986645378987 -0.009191314118841047
-0.08265346621734307 0.002191248343881648
-0.10392706598089628 -0.020573876581563743
-0.1252006657444495 -0.03195643904428644
-0.10392706598089628 0.03633893573204973
-0.11456386586267288 0.04772149819477243
-0.1252006657444495 0.013573810806604343
-0.1464742655080027 -0.03195643904428644
-0.18902146503510908 -0.04333900150700913
-0.18902146503510908 0.002191248343881648
-0.1571110653897793 0.013573810806604343
-0.11456386586267288 0.05910406065749512
-0.1464742655080027 0.002191248343881648
-0.18902146503510908 0.002191248343881648
-0.2209318646804389 -0.020573876581563743
-0.2209318646804389 0.013573810806604343
-0.2102950647986623 0.04772149819477243
-0.16774786527155588 0.05910406065749512
-0.16774786527155588 0.03633893573204973
-0.2315686645622155 0.013573810806604343
-0.2315686645622155 -0.020573876581563743
-0.25284226432576873 0.013573810806604343
-0.2634790642075453 0.07048662312021782
-0.2209318646804389 0.08186918558294051
-0.2209318646804389 0.04772149819477243
-0.2422054644439921 0.013573810806604343
-0.25284226432576873 0.013573810806604343
-0.2315686645622155 0.024956373269327037
-0.2634790642075453 0.04772149819477243
-0.2315686645622155 0.0932517480456632
-0.25284226432576873 0.05910406065749512
-0.25284226432576873 0.013573810806604343
-0.2634790642075453 0.002191248343881648
-0.2634790642075453 0.03633893573204973
-0.2422054644439921 0.07048662312021782
-0.2102950647986623 0.1046343105083859
-0.2102950647986623 0.05910406065749512
-0.2634790642075453 0.002191248343881648
-0.34857346326175814 0.024956373269327037
-0.36984706302531134 0.013573810806604343
-0.2953894638528751 0.03633893573204973
-0.2741158640893219 0.08186918558294051
-0.2634790642075453 0.05910406065749512
-0.25284226432576873 0.04772149819477243
-0.25284226432576873 -0.009191314118841047
-0.2741158640893219 0.04772149819477243
-0.25284226432576873 0.03633893573204973
-0.2422054644439921 0.08186918558294051
-0.2209318646804389 0.07048662312021782
-0.2209318646804389 0.024956373269327037
-0.2422054644439921 0.002191248343881648
-0.2315686645622155 0.013573810806604343
-0.1996582649168857 0.04772149819477243
-0.16774786527155588 0.05910406065749512
-0.1996582649168857 0.024956373269327037
-0.2315686645622155 -0.03195643904428644
-0.25284226432576873 -0.05472156396973182
-0.2422054644439921 -0.04333900150700913
-0.17838466515333248 0.024956373269327037
-0.16774786527155588 0.024956373269327037
-0.1571110653897793 0.024956373269327037
-0.18902146503510908 -0.03195643904428644
-0.2315686645622155 -0.06610412643245452
-0.25284226432576873 -0.05472156396973182
-0.2102950647986623 -0.03195643904428644
-0.16774786527155588 -0.009191314118841047
-0.16774786527155588 -0.04333900150700913
-0.18902146503510908 -0.07748668889517721
-0.2102950647986623 -0.07748668889517721
-0.2209318646804389 -0.1002518138206226
-0.2209318646804389 -0.05472156396973182
-0.1996582649168857 -0.04333900150700913
-0.2102950647986623 -0.06610412643245452
-0.2102950647986623 -0.1002518138206226
-0.2102950647986623 -0.12301693874606799
-0.2315686645622155 -0.12301693874606799
-0.2315686645622155 -0.07748668889517721
-0.2422054644439921 -0.07748668889517721
-0.2422054644439921 -0.06610412643245452
-0.2315686645622155 -0.12301693874606799
-0.2315686645622155 -0.15716462613423607
-0.25284226432576873 -0.16854718859695877
-0.2315686645622155 -0.1002518138206226
-0.2102950647986623 -0.1002518138206226
-0.1996582649168857 -0.08886925135789991
-0.2422054644439921 -0.16854718859695877
-0.25284226432576873 -0.17992975105968145
-0.25284226432576873 -0.15716462613423607
-0.2209318646804389 -0.12301693874606799
-0.1571110653897793 -0.08886925135789991
-0.17838466515333248 -0.13439950120879068
-0.2209318646804389 -0.17992975105968145
-0.2634790642075453 -0.21407743844784954
-0.2422054644439921 -0.16854718859695877
-0.25284226432576873 -0.12301693874606799
-0.18902146503510908 -0.13439950120879068
-0.1571110653897793 -0.15716462613423607
-0.1571110653897793 -0.19131231352240416
-0.1996582649168857 -0.23684256337329493
-0.1996582649168857 -0.20269487598512687
-0.1464742655080027 -0.20269487598512687
-0.11456386586267288 -0.17992975105968145
-0.09329026609911968 -0.19131231352240416
-0.10392706598089628 -0.19131231352240416
-0.09329026609911968 -0.23684256337329493
-0.10392706598089628 -0.22546000091057225
-0.050743066572013266 -0.20269487598512687
-0.06137986645378987 -0.17992975105968145
-0.07201666633556647 -0.20269487598512687
-0.06137986645378987 -0.22546000091057225
-0.09329026609911968 -0.23684256337329493
-0.09329026609911968 -0.24822512583601763
-0.04010626669023667 -0.21407743844784954
-0.04010626669023667 -0.20269487598512687
-0.029469466808460063 -0.21407743844784954
-0.06137986645378987 -0.2823728132241857
-0.11456386586267288 -0.2937553756869084
-0.11456386586267288 -0.2596076882987403
-0.050743066572013266 -0.23684256337329493
-0.00819586704490686 -0.19131231352240416
-0.00819586704490686 -0.21407743844784954
-0.029469466808460063 -0.24822512583601763
-0.07201666633556647 -0.2823728132241857
-0.09329026609911968 -0.2937553756869084
-0.09329026609911968 -0.23684256337329493
-0.1252006657444495 -0.22546000091057225
-0.09329026609911968 -0.24822512583601763
-0.10392706598089628 -0.2596076882987403
-0.1358374656262261 -0.3165205006123538
-0.17838466515333248 -0.2937553756869084
-0.2102950647986623 -0.22546000091057225
-0.2209318646804389 -0.21407743844784954
-0.25284226432576873 -0.2823728132241857
-0.2741158640893219 -0.3051379381496311
-0.2741158640893219 -0.3279030630750765
-0.2953894638528751 -0.3051379381496311
-0.2315686645622155 -0.2823728132241857
-0.1996582649168857 -0.2823728132241857
-0.1996582649168857 -0.2596076882987403
-0.2741158640893219 -0.24822512583601763
-0.2953894638528751 -0.2937553756869084
-0.2953894638528751 -0.27099025076146305
-0.2741158640893219 -0.23684256337329493
-0.2422054644439921 -0.24822512583601763
-0.2315686645622155 -0.21407743844784954
-0.2634790642075453 -0.27099025076146305
-0.2953894638528751 -0.2823728132241857
-0.32729986349820495 -0.27099025076146305
-0.2847526639710985 -0.24822512583601763
-0.2634790642075453 -0.20269487598512687
-0.25284226432576873 -0.20269487598512687
-0.2847526639710985 -0.23684256337329493
-0.3060262637346517 -0.2823728132241857
-0.2953894638528751 -0.24822512583601763
-0.2634790642075453 -0.17992975105968145
-0.2209318646804389 -0.12301693874606799
-0.2315686645622155 -0.1002518138206226
-0.2209318646804389 -0.08886925135789991
-0.2847526639710985 -0.13439950120879068
-0.3060262637346517 -0.1457820636715134
-0.2741158640893219 -0.16854718859695877
-0.16774786527155588 -0.2823728132241857
-0.029469466808460063 -0.4986415000159169
0.17262973094529538 -0.8401183738975978
0.3853657285808274 -1.1929778102420012
0.6087385260981361 -1.5458372465864048
0.8214745237336681 -1.8190187456917495
1.087394520778083 -2.069435119871649
1.3001305184136152 -2.365381743902439
1.5128665160491472 -2.615798118082338
1.8213337126206686 -2.7979191174859013
2.1936217084828495 -2.9003621796504055
2.6190937037539137 -2.957274991964019
3.097749698433861 -2.9686575544267417
3.5019480939413716 -3.025570366740355
3.874236089803553 -3.014187804277632
4.118882487084415 -2.980040116889464
4.278434485311064 -2.9003621796504055
4.331618484719947 -2.8548319297995146
4.2997080850746165 -2.809301679948624
4.065698487675531 -2.7865365550231784
3.6508632922862443 -2.7865365550231784
3.1083864983156375 -2.7182411802468422
2.533999304699701 -2.627180680545061
2.0127961104926477 -2.5019724934551113
1.5873241152215833 -2.3426166189769932
1.2682201187682853 -2.2060258694243213
1.0235737214874234 -2.035287432483481
0.9172057226696575 -1.8531664330799176
0.9278425225514341 -1.5799849339745728
0.9597529221967639 -1.3409511222573962
0.9172057226696575 -1.1929778102420012
0.8321113236154447 -1.0791521856147743
0.6831961252705723 -1.0108568108384381
0.5236441270439233 -0.9539439985248247
0.4279129281079338 -0.8287358114348751
0.3853657285808274 -0.7490578741958162
0.3109081294083912 -0.5783194372549758
0.25772412999950817 -0.5214066249413623
0.19390333070884858 -0.44172868770230345
0.03435133248219955 -0.3620507504632446
-0.01883266692668346 -0.23684256337329493
-0.050743066572013266 -0.16854718859695877
-0.07201666633556647 -0.07748668889517721
-0.1358374656262261 -0.020573876581563743
-0.17838466515333248 0.03633893573204973
-0.2953894638528751 0.08186918558294051
-0.3592102631435347 0.19569481021016746
-0.41239426255241773 0.3322855597628398
-0.43366786231597093 0.400580934539176
-0.5081254614884072 0.41196349700189866
-0.5825830606608433 0.42334605946462134
-0.6570406598332795 0.42334605946462134
-0.6783142595968328 0.48025887177823484
-0.6889510594786094 0.5371716840918483
-0.646403859951503 0.6168496213309071
-0.646403859951503 0.6168496213309071
-0.6570406598332795 0.5827019339427391
-0.6783142595968328 0.6168496213309071
-0.7208614591239392 0.6396147462563525
-0.7208614591239392 0.6509973087190752
-0.7208614591239392 0.6965275585699661
-0.699587859360386 0.7192926834954114
-0.7208614591239392 0.7079101210326887
-0.7634086586510456 0.7192926834954114
-0.7846822584145988 0.7762054958090249
-0.7421350588874924 0.810353183197193
-0.7314982590057157 0.8672659955108064
-0.7208614591239392 0.8558834330480838
-0.7421350588874924 0.8558834330480838
-0.7953190582963754 0.8900311204362519
-0.8165926580599286 0.9241788078244199
-0.8378662578234818 0.992474182600756
-0.7846822584145988 1.0380044324516469
-0.7953190582963754 1.0493869949143695
-0.805955858178152 1.0607695573770923
-0.8165926580599286 1.072152119839815
-0.8272294579417052 1.106299807227983
-0.8485030577052585 1.1973603069297645
-0.7846822584145988 1.2315079943179326
-0.8165926580599286 1.2428905567806554
-0.8910502572323649 1.1973603069297645
-0.9442342566412478 1.2315079943179326
-0.9229606568776946 1.3111859315569916
-0.912323856995918 1.4136289937214959
-0.8378662578234818 1.481924368497832
-0.8378662578234818 1.5046894934232773
-0.9229606568776946 1.5274546183487228
-0.9867814561683542 1.5388371808114454
-1.0293286556954606 1.595749993125059
-0.9867814561683542 1.6526628054386723
-0.9655078564048011 1.7209581802150085
-0.9761446562865776 1.777870992528622
-0.9761446562865776 1.743723305140454
-1.0293286556954606 1.7209581802150085
-1.0612390553407904 1.81201867991679
-1.0399654555772373 1.8347838048422356
-1.0399654555772373 1.8575489297676808
-1.0506022554590138 1.891696617155849
-1.0718758552225671 1.8461663673049582
-1.0506022554590138 1.8803140546931263
-1.0931494549861203 1.891696617155849
-1.0612390553407904 1.9486094294694625
-1.0080550559319075 1.959991991932185
-1.0186918558136842 1.9486094294694625
-1.0931494549861203 1.9144617420812944
-1.12505985463145 1.8689314922304037
-1.1144230547496734 1.8575489297676808
-1.0931494549861203 1.8803140546931263
-1.0825126551043436 1.9030791796185718
-1.0506022554590138 1.8575489297676808
-1.0399654555772373 1.8347838048422356
-1.0825126551043436 1.7664884300658994
-1.0931494549861203 1.743723305140454
-1.0931494549861203 1.7209581802150085
-1.0399654555772373 1.6754279303641177
-0.9867814561683542 1.6071325555877816
-0.9974182560501308 1.5160720558860001
-0.9974182560501308 1.4250115561842185
-0.9974182560501308 1.402246431258773
-0.9335974567594713 1.3908638687960504
-0.912323856995918 1.3339510564824368
-0.8910502572323649 1.2315079943179326
-0.8804134573505882 1.1404474946161511
-0.8804134573505882 1.0380044324516469
-0.8272294579417052 1.0038567450634788
-0.7208614591239392 0.9241788078244199
-0.6357670600697264 0.9014136828989745
-0.6144934603061731 0.7534403708835795
-0.6357670600697264 0.6396147462563525
-0.646403859951503 0.5713193714800163
-0.6357670600697264 0.5144065591664029
-0.5187622613701838 0.44611118439006675
-0.48685186172485395 0.38919837207645325
-0.39112066278886454 0.3095204348373944
-0.36984706302531134 0.2981378723746717
-0.41239426255241773 0.17292968528472208
-0.4017574626706411 0.12739943543383128
-0.36984706302531134 0.15016456035927667
-0.3379366633799815 0.1046343105083859
-0.2953894638528751 0.05910406065749512
-0.2847526639710985 -0.009191314118841047
-0.3060262637346517 -0.06610412643245452
-0.2847526639710985 -0.08886925135789991
-0.2953894638528751 -0.08886925135789991
-0.2634790642075453 -0.07748668889517721
-0.2422054644439921 -0.13439950120879068
-0.2102950647986623 -0.17992975105968145
-0.2634790642075453 -0.21407743844784954
-0.2847526639710985 -0.17992975105968145
-0.2741158640893219 -0.17992975105968145
-0.25284226432576873 -0.12301693874606799
-0.3060262637346517 -0.1457820636715134
-0.2847526639710985 -0.19131231352240416
-0.3166630636164283 -0.19131231352240416
-0.32729986349820495 -0.20269487598512687
-0.2953894638528751 -0.16854718859695877
-0.2847526639710985 -0.13439950120879068
-0.2634790642075453 -0.16854718859695877
-0.2315686645622155 -0.17992975105968145
-0.2634790642075453 -0.19131231352240416
-0.3060262637346517 -0.19131231352240416
-0.3060262637346517 -0.15716462613423607
-0.3060262637346517 -0.15716462613423607
-0.2741158640893219 -0.15716462613423607
-0.2847526639710985 -0.20269487598512687
-0.32729986349820495 -0.17992975105968145
-0.34857346326175814 -0.17992975105968145
-0.34857346326175814 -0.17992975105968145
-0.2953894638528751 -0.13439950120879068
-0.2847526639710985 -0.16854718859695877
-0.3166630636164283 -0.22546000091057225
-0.36984706302531134 -0.23684256337329493
-0.3592102631435347 -0.21407743844784954
-0.34857346326175814 -0.16854718859695877
-0.2953894638528751 -0.12301693874606799
-0.2847526639710985 -0.1116343762833453
-0.3166630636164283 -0.15716462613423607
-0.3804838629070879 -0.15716462613423607
-0.39112066278886454 -0.1457820636715134
-0.3804838629070879 -0.15716462613423607
-0.34857346326175814 -0.13439950120879068
-0.3379366633799815 -0.16854718859695877
-0.36984706302531134 -0.20269487598512687
-0.41239426255241773 -0.21407743844784954
-0.42303106243419436 -0.19131231352240416
-0.41239426255241773 -0.15716462613423607
-0.36984706302531134 -0.1116343762833453
-0.41239426255241773 -0.1116343762833453
-0.42303106243419436 -0.20269487598512687
-0.42303106243419436 -0.21407743844784954
-0.3804838629070879 -0.17992975105968145
-0.34857346326175814 -0.15716462613423607
-0.3166630636164283 -0.12301693874606799
-0.3166630636164283 -0.1457820636715134
-0.34857346326175814 -0.16854718859695877
-0.3804838629070879 -0.21407743844784954
-0.42303106243419436 -0.19131231352240416
-0.4017574626706411 -0.1457820636715134
-0.3804838629070879 -0.1116343762833453
-0.3804838629070879 -0.16854718859695877
-0.3804838629070879 -0.23684256337329493
-0.39112066278886454 -0.19131231352240416
-0.41239426255241773 -0.20269487598512687
-0.4017574626706411 -0.15716462613423607
-0.3592102631435347 -0.1457820636715134
-0.32729986349820495 -0.15716462613423607
-0.3592102631435347 -0.16854718859695877
-0.39112066278886454 -0.2596076882987403
-0.4017574626706411 -0.23684256337329493
-0.43366786231597093 -0.20269487598512687
-0.4017574626706411 -0.20269487598512687
-0.39112066278886454 -0.19131231352240416
-0.3379366633799815 -0.22546000091057225
-0.3592102631435347 -0.23684256337329493
-0.36984706302531134 -0.22546000091057225
-0.36984706302531134 -0.20269487598512687
-0.3166630636164283 -0.21407743844784954
-0.3166630636164283 -0.22546000091057225
-0.34857346326175814 -0.2596076882987403
-0.3804838629070879 -0.2823728132241857
-0.36984706302531134 -0.2596076882987403
-0.32729986349820495 -0.20269487598512687
-0.3060262637346517 -0.15716462613423607
-0.3166630636164283 -0.19131231352240416
-0.34857346326175814 -0.24822512583601763
-0.39112066278886454 -0.27099025076146305
-0.41239426255241773 -0.27099025076146305
-0.3379366633799815 -0.23684256337329493
-0.32729986349820495 -0.23684256337329493
-0.34857346326175814 -0.23684256337329493
-0.3060262637346517 -0.2937553756869084
-0.34857346326175814 -0.27099025076146305
-0.3379366633799815 -0.2596076882987403
-0.3060262637346517 -0.20269487598512687
-0.3166630636164283 -0.23684256337329493
-0.32729986349820495 -0.27099025076146305
-0.3379366633799815 -0.2823728132241857
-0.3804838629070879 -0.2937553756869084
-0.3804838629070879 -0.2596076882987403
-0.32729986349820495 -0.27099025076146305
-0.2953894638528751 -0.23684256337329493
-0.2847526639710985 -0.27099025076146305
-0.3379366633799815 -0.3051379381496311
-0.34857346326175814 -0.3392856255377992
-0.36984706302531134 -0.3279030630750765
-0.3060262637346517 -0.3165205006123538
-0.2741158640893219 -0.24822512583601763
-0.2741158640893219 -0.2937553756869084
-0.2953894638528751 -0.3506681880005219
-0.32729986349820495 -0.3620507504632446
-0.3166630636164283 -0.3392856255377992
-0.2847526639710985 -0.3165205006123538
-0.1996582649168857 -0.27099025076146305
-0.1571110653897793 -0.2596076882987403
-0.17838466515333248 -0.27099025076146305
-0.18902146503510908 -0.3051379381496311
-0.2102950647986623 -0.2596076882987403
-0.1996582649168857 -0.22546000091057225
-0.16774786527155588 -0.19131231352240416
-0.16774786527155588 -0.21407743844784954
-0.1464742655080027 -0.22546000091057225
-0.18902146503510908 -0.22546000091057225
-0.1996582649168857 -0.21407743844784954
-0.1996582649168857 -0.16854718859695877
-0.16774786527155588 -0.15716462613423607
-0.1571110653897793 -0.15716462613423607
-0.1571110653897793 -0.20269487598512687
-0.1571110653897793 -0.27099025076146305
-0.1571110653897793 -0.2823728132241857
-0.1996582649168857 -0.27099025076146305
-0.1571110653897793 -0.2937553756869084
-0.17838466515333248 -0.2823728132241857
-0.2102950647986623 -0.3279030630750765
-0.2102950647986623 -0.3392856255377992
-0.2102950647986623 -0.3392856255377992
-0.2102950647986623 -0.2823728132241857
-0.2209318646804389 -0.2937553756869084
-0.2422054644439921 -0.3506681880005219
-0.2422054644439921 -0.3620507504632446
-0.2634790642075453 -0.43034612523958077
-0.2953894638528751 -0.3961984378514127
-0.2741158640893219 -0.3506681880005219
-0.2422054644439921 -0.3165205006123538
-0.3060262637346517 -0.3279030630750765
-0.3166630636164283 -0.3961984378514127
-0.36984706302531134 -0.4531112501650261
-0.41239426255241773 -0.38481587538868994
-0.36984706302531134 -0.3620507504632446
-0.2953894638528751 -0.3279030630750765
-0.25284226432576873 -0.3620507504632446
-0.25284226432576873 -0.38481587538868994
-0.2741158640893219 -0.3961984378514127
-0.2953894638528751 -0.3506681880005219
-0.3060262637346517 -0.3506681880005219
-0.2741158640893219 -0.3279030630750765
-0.2634790642075453 -0.3279030630750765
-0.2847526639710985 -0.3961984378514127
-0.3060262637346517 -0.38481587538868994
-0.3060262637346517 -0.38481587538868994
-0.2847526639710985 -0.37343331292596726
-0.2634790642075453 -0.3279030630750765
-0.25284226432576873 -0.3620507504632446
-0.2634790642075453 -0.3620507504632446
-0.2741158640893219 -0.38481587538868994
-0.2634790642075453 -0.3620507504632446
-0.2422054644439921 -0.2823728132241857
-0.1996582649168857 -0.21407743844784954
-0.2102950647986623 -0.20269487598512687
-0.2634790642075453 -0.17992975105968145
-0.2847526639710985 -0.16854718859695877
-0.3166630636164283 -0.1457820636715134
-0.2741158640893219 -0.1457820636715134
-0.1358374656262261 -0.15716462613423607
0.0024409328368697417 -0.3165205006123538
0.15135613118174218 -0.47587637509047154
0.3109081294083912 -0.6921450618822027
0.5130073271621466 -0.9311788735993793
0.7895641240883383 -1.1815952477792786
1.0980313206598598 -1.4206290594964552
1.385224917467828 -1.7507233709154133
1.7362393135664558 -2.0466699949462033
2.1298009091921903 -2.2629386817379347
2.5765465042268074 -2.3767643063651613
3.0126552993796483 -2.4905899309923885
3.5125848938231483 -2.547502743306002
4.001877688384872 -2.6727109303959518
4.4379864835377125 -2.775153992560456
4.693269680700351 -2.9003621796504055
4.78900087963634 -3.00280524181491
4.767727279872787 -2.991422679352187
4.629448881409692 -3.00280524181491
4.310344884956393 -3.0824831790539684
3.7785048908675636 -3.105248303979414
3.076476098670308 -3.139395991367582
2.299989707300616 -3.0824831790539684
1.6830553141575728 -2.9686575544267417
1.1618521199505194 -2.843449367336792
0.8321113236154447 -2.70685861778412
0.6512857256252425 -2.5588853057687246
0.5874649263345828 -2.353999181439716
0.5661913265710297 -2.058052557408926
0.5981017262163595 -1.7507233709154133
0.5981017262163595 -1.5344546841236821
0.5449177268074764 -1.3864813721082871
0.4279129281079338 -1.2954208724065055
0.3109081294083912 -1.1588301228538331
0.22581373035417837 -1.0450044982266062
0.17262973094529538 -0.9084137486739339
0.13008253141818896 -0.7718229991212616
0.07689853200930595 -0.6693799369567573
0.06626173212752935 -0.5897019997176984
0.013077732718646344 -0.5100240624786396
-0.04010626669023667 -0.4531112501650261
-0.11456386586267288 -0.3392856255377992
-0.1252006657444495 -0.2596076882987403
-0.1571110653897793 -0.21407743844784954
-0.2209318646804389 -0.1457820636715134
-0.3166630636164283 -0.1116343762833453
-0.3804838629070879 0.013573810806604343
-0.3804838629070879 0.11601687297110859
-0.41239426255241773 0.17292968528472208
-0.43366786231597093 0.21845993513561285
-0.5187622613701838 0.19569481021016746
-0.5613094608972902 0.15016456035927667
-0.5825830606608433 0.24122506006105823
-0.5719462607790667 0.28675530991194903
-0.5506726610155136 0.37781580961373057
-0.5293990612519603 0.35505068468828516
-0.5506726610155136 0.35505068468828516
-0.59321986054262 0.3322855597628398
-0.646403859951503 0.3436681222255625
-0.6144934603061731 0.400580934539176
-0.5825830606608433 0.44611118439006675
-0.5719462607790667 0.44611118439006675
-0.5825830606608433 0.41196349700189866
-0.59321986054262 0.38919837207645325
-0.59321986054262 0.45749374685278943
-0.6038566604243966 0.5257891216291256
-0.59321986054262 0.5940844964054618
-0.6144934603061731 0.5827019339427391
-0.6357670600697264 0.5371716840918483
-0.6570406598332795 0.5599368090172937
-0.6676774597150562 0.5371716840918483
-0.646403859951503 0.6737624336445206
-0.6144934603061731 0.7079101210326887
-0.6251302601879498 0.7534403708835795
-0.646403859951503 0.7192926834954114
-0.6889510594786094 0.7306752459581342
-0.7102246592421626 0.7648229333463021
-0.6783142595968328 0.8331183081226383
-0.6357670600697264 0.8786485579735291
-0.6570406598332795 0.8331183081226383
-0.699587859360386 0.8900311204362519
-0.752771858769269 0.8900311204362519
-0.7740454585328223 0.9469439327498653
-0.7953190582963754 1.0380044324516469
-0.7634086586510456 1.0835346823025376
-0.7208614591239392 1.0835346823025376
-0.7102246592421626 1.106299807227983
-0.7314982590057157 1.0949172447652604
-0.752771858769269 1.1632126195415966
-0.7421350588874924 1.254273119243378
-0.752771858769269 1.2770382441688235
-0.7740454585328223 1.3453336189451597
-0.7953190582963754 1.3453336189451597
-0.8485030577052585 1.3339510564824368
-0.8485030577052585 1.4136289937214959
-0.8272294579417052 1.481924368497832
-0.7740454585328223 1.5046894934232773
-0.805955858178152 1.5160720558860001
-0.8485030577052585 1.5274546183487228
-0.9016870571141414 1.5274546183487228
-0.9016870571141414 1.5274546183487228
-0.8910502572323649 1.595749993125059
-0.8378662578234818 1.6526628054386723
-0.8378662578234818 1.6071325555877816
-0.8804134573505882 1.584367430662336
-0.9016870571141414 1.550219743274168
-0.912323856995918 1.5616023057368908
-0.8804134573505882 1.5616023057368908
-0.859139857587035 1.5616023057368908
-0.8378662578234818 1.5160720558860001
-0.859139857587035 1.4250115561842185
-0.8378662578234818 1.368098743870605
-0.8485030577052585 1.2998033690942687
-0.8485030577052585 1.2656556817061007
-0.7846822584145988 1.2315079943179326
-0.752771858769269 1.1290649321534285
-0.7421350588874924 1.0835346823025376
-0.7421350588874924 0.9697090576753107
-0.699587859360386 0.9469439327498653
-0.6676774597150562 0.9127962453616972
-0.6144934603061731 0.8786485579735291
-0.5613094608972902 0.7875880582717476
-0.59321986054262 0.6737624336445206
-0.5825830606608433 0.5940844964054618
-0.5613094608972902 0.548554246554571
-0.5081254614884072 0.5257891216291256
-0.43366786231597093 0.48025887177823484
-0.3804838629070879 0.400580934539176
-0.3804838629070879 0.3095204348373944
-0.36984706302531134 0.20707737267289014
-0.34857346326175814 0.138781997896554
-0.3060262637346517 0.12739943543383128
-0.2634790642075453 0.11601687297110859
-0.16774786527155588 0.03633893573204973
-0.1996582649168857 -0.03195643904428644
-0.1996582649168857 -0.1002518138206226
-0.2315686645622155 -0.08886925135789991
-0.2102950647986623 -0.1116343762833453
-0.18902146503510908 -0.1002518138206226
-0.1464742655080027 -0.12301693874606799
-0.1358374656262261 -0.21407743844784954
-0.1571110653897793 -0.23684256337329493
-0.1464742655080027 -0.2823728132241857
-0.1464742655080027 -0.27099025076146305
-0.1464742655080027 -0.24822512583601763
-0.1358374656262261 -0.24822512583601763
-0.17838466515333248 -0.3506681880005219
-0.18902146503510908 -0.3392856255377992
-0.18902146503510908 -0.3165205006123538
-0.16774786527155588 -0.3051379381496311
-0.1464742655080027 -0.2596076882987403
-0.1358374656262261 -0.27099025076146305
-0.17838466515333248 -0.3165205006123538
-0.2209318646804389 -0.3620507504632446
-0.2102950647986623 -0.37343331292596726
-0.2102950647986623 -0.3165205006123538
-0.18902146503510908 -0.2937553756869084
-0.17838466515333248 -0.3051379381496311
-0.16774786527155588 -0.3620507504632446
-0.1996582649168857 -0.38481587538868994
-0.2209318646804389 -0.38481587538868994
-0.2209318646804389 -0.3506681880005219
-0.2102950647986623 -0.3279030630750765
-0.1996582649168857 -0.3165205006123538
-0.1996582649168857 -0.3506681880005219
-0.1996582649168857 -0.3620507504632446
-0.18902146503510908 -0.3506681880005219
-0.1996582649168857 -0.3165205006123538
-0.18902146503510908 -0.27099025076146305
-0.16774786527155588 -0.3051379381496311
-0.1996582649168857 -0.2823728132241857
-0.2102950647986623 -0.3506681880005219
-0.2422054644439921 -0.3620507504632446
-0.2315686645622155 -0.3165205006123538
-0.2209318646804389 -0.2596076882987403
-0.18902146503510908 -0.27099025076146305
-0.2209318646804389 -0.2937553756869084
-0.2102950647986623 -0.3279030630750765
-0.2209318646804389 -0.3506681880005219
-0.2422054644439921 -0.3279030630750765
-0.2102950647986623 -0.24822512583601763
-0.2315686645622155 -0.27099025076146305
-0.2102950647986623 -0.3051379381496311
-0.2422054644439921 -0.3165205006123538
-0.2315686645622155 -0.2937553756869084
-0.2102950647986623 -0.23684256337329493
-0.2102950647986623 -0.22546000091057225
-0.2102950647986623 -0.3051379381496311
-0.2634790642075453 -0.2937553756869084
-0.2634790642075453 -0.3279030630750765
-0.2847526639710985 -0.3051379381496311
-0.2315686645622155 -0.27099025076146305
-0.1996582649168857 -0.21407743844784954
-0.2102950647986623 -0.22546000091057225
-0.1996582649168857 -0.22546000091057225
-0.2422054644439921 -0.2823728132241857
-0.25284226432576873 -0.3051379381496311
-0.2315686645622155 -0.24822512583601763
-0.1996582649168857 -0.22546000091057225
-0.1571110653897793 -0.22546000091057225
-0.16774786527155588 -0.2596076882987403
-0.16774786527155588 -0.3051379381496311
-0.1996582649168857 -0.2937553756869084
-0.18902146503510908 -0.24822512583601763
-0.16774786527155588 -0.21407743844784954
-0.1358374656262261 -0.24822512583601763
-0.1358374656262261 -0.2823728132241857
-0.16774786527155588 -0.3506681880005219
-0.1464742655080027 -0.3051379381496311
-0.1252006657444495 -0.2823728132241857
-0.11456386586267288 -0.22546000091057225
-0.09329026609911968 -0.24822512583601763
-0.1571110653897793 -0.2823728132241857
-0.1996582649168857 -0.3165205006123538
-0.2102950647986623 -0.3165205006123538
-0.17838466515333248 -0.3051379381496311
-0.1358374656262261 -0.2596076882987403
-0.11456386586267288 -0.2937553756869084
-0.1358374656262261 -0.3392856255377992
-0.1571110653897793 -0.3279030630750765
-0.18902146503510908 -0.3165205006123538
-0.18902146503510908 -0.2937553756869084
-0.1464742655080027 -0.2596076882987403
-0.1358374656262261 -0.2823728132241857
-0.1358374656262261 -0.3392856255377992
-0.1464742655080027 -0.3392856255377992
-0.16774786527155588 -0.3620507504632446
-0.16774786527155588 -0.3165205006123538
-0.1464742655080027 -0.2823728132241857
-0.17838466515333248 -0.3051379381496311
-0.18902146503510908 -0.3279030630750765
-0.2209318646804389 -0.37343331292596726
-0.2102950647986623 -0.3279030630750765
-0.2102950647986623 -0.3051379381496311
-0.1358374656262261 -0.27099025076146305
-0.11456386586267288 -0.2823728132241857
-0.1464742655080027 -0.3620507504632446
-0.18902146503510908 -0.38481587538868994
-0.2102950647986623 -0.3620507504632446
-0.18902146503510908 -0.3506681880005219
-0.1571110653897793 -0.2937553756869084
-0.16774786527155588 -0.3165205006123538
-0.16774786527155588 -0.37343331292596726
-0.1996582649168857 -0.37343331292596726
-0.1996582649168857 -0.3620507504632446
-0.2102950647986623 -0.37343331292596726
-0.17838466515333248 -0.3279030630750765
-0.17838466515333248 -0.3392856255377992
-0.16774786527155588 -0.3961984378514127
-0.2102950647986623 -0.40758100031413536
-0.2102950647986623 -0.40758100031413536
-0.16774786527155588 -0.3279030630750765
-0.1358374656262261 -0.3165205006123538
-0.1252006657444495 -0.3279030630750765
-0.17838466515333248 -0.38481587538868994
-0.18902146503510908 -0.43034612523958077
-0.16774786527155588 -0.44172868770230345
-0.1252006657444495 -0.37343331292596726
-0.08265346621734307 -0.3392856255377992
-0.01883266692668346 -0.3165205006123538
-0.01883266692668346 -0.3620507504632446
-0.08265346621734307 -0.3506681880005219
-0.06137986645378987 -0.3392856255377992
-0.050743066572013266 -0.27099025076146305
-0.04010626669023667 -0.24822512583601763
-0.01883266692668346 -0.2596076882987403
-0.01883266692668346 -0.24822512583601763
-0.050743066572013266 -0.3051379381496311
-0.07201666633556647 -0.2596076882987403
-0.04010626669023667 -0.20269487598512687
0.023714532600422944 -0.17992975105968145
0.023714532600422944 -0.21407743844784954
0.023714532600422944 -0.2823728132241857
-0.029469466808460063 -0.3620507504632446
-0.06137986645378987 -0.3165205006123538
-0.029469466808460063 -0.3392856255377992
-0.01883266692668346 -0.3051379381496311
-0.029469466808460063 -0.3165205006123538
-0.08265346621734307 -0.38481587538868994
-0.1358374656262261 -0.41896356277685803
-0.1571110653897793 -0.41896356277685803
-0.1252006657444495 -0.38481587538868994
-0.11456386586267288 -0.3392856255377992
-0.08265346621734307 -0.3506681880005219
-0.09329026609911968 -0.3620507504632446
-0.1358374656262261 -0.41896356277685803
-0.17838466515333248 -0.3961984378514127
-0.1464742655080027 -0.38481587538868994
-0.1358374656262261 -0.37343331292596726
-0.11456386586267288 -0.3620507504632446
-0.16774786527155588 -0.41896356277685803
-0.2209318646804389 -0.43034612523958077
-0.2209318646804389 -0.43034612523958077
-0.2102950647986623 -0.40758100031413536
-0.2209318646804389 -0.3506681880005219
-0.18902146503510908 -0.3620507504632446
-0.18902146503510908 -0.43034612523958077
-0.18902146503510908 -0.43034612523958077
-0.2315686645622155 -0.43034612523958077
-0.1996582649168857 -0.3961984378514127
-0.1464742655080027 -0.3961984378514127
-0.11456386586267288 -0.38481587538868994
-0.1571110653897793 -0.40758100031413536
-0.2209318646804389 -0.44172868770230345
-0.2741158640893219 -0.44172868770230345
-0.2315686645622155 -0.43034612523958077
-0.1996582649168857 -0.38481587538868994
-0.1571110653897793 -0.38481587538868994
-0.16774786527155588 -0.47587637509047154
-0.2102950647986623 -0.4872589375531942
-0.1996582649168857 -0.46449381262774886
-0.18902146503510908 -0.4531112501650261
-0.1358374656262261 -0.40758100031413536
-0.1464742655080027 -0.40758100031413536
-0.1464742655080027 -0.4986415000159169
-0.18902146503510908 -0.46449381262774886
-0.18902146503510908 -0.46449381262774886
-0.1571110653897793 -0.3961984378514127
-0.09329026609911968 -0.3392856255377992
-0.1252006657444495 -0.3279030630750765
-0.11456386586267288 -0.3279030630750765
-0.1358374656262261 -0.3620507504632446
-0.1571110653897793 -0.41896356277685803
-0.10392706598089628 -0.47587637509047154
0.06626173212752935 -0.6238496871058665
0.3002713295266146 -0.8970311862112113
0.5236441270439233 -1.204360372704724
0.7257433247976787 -1.5458372465864048
0.8640217232607745 -1.8873141204680857
1.0342105213692 -2.1263479321852623
1.3214041181771683 -2.2970863691261028
1.6298713147486898 -2.4905899309923885
1.9383385113202114 -2.649945805470506
2.299989707300616 -2.7865365550231784
2.6722777031627967 -2.843449367336792
3.0020184994978716 -2.809301679948624
3.384943295241829 -2.8206842424113465
3.714684091576904 -2.7979191174859013
4.065698487675531 -2.8662144922622375
4.331618484719947 -2.8889796171876827
4.501807282828373 -2.8206842424113465
4.6081752816461385 -2.7182411802468422
4.703906480582128 -2.6727109303959518
4.6081752816461385 -2.649945805470506
4.310344884956393 -2.661328367933229
3.682773691931574 -2.684093492858674
2.8637401010347756 -2.627180680545061
2.0872537096650836 -2.5019724934551113
1.5766873153398069 -2.365381743902439
1.2682201187682853 -2.28570380666338
1.119304920423413 -2.2174084318870437
0.9810265219603171 -2.1149653697225395
0.8852953230243277 -1.8531664330799176
0.8214745237336681 -1.6938105586017997
0.7789273242065616 -1.5116895591982367
0.7682905243247851 -1.4320116219591779
0.7044697250341254 -1.3750988096455643
0.5981017262163595 -1.318185997331951
0.50237052728037 -1.2271254976301693
0.39600252846260403 -1.1360649979283879
0.342818529053721 -0.9767091234502701
0.289634529644838 -0.9084137486739339
0.22581373035417837 -0.8742660612857658
0.17262973094529538 -0.7262927492703708
0.10880893165463576 -0.646614812031312
0.06626173212752935 -0.5214066249413623
0.04498813236397615 -0.41896356277685803
0.013077732718646344 -0.3620507504632446
-0.09329026609911968 -0.2823728132241857
-0.18902146503510908 -0.22546000091057225
-0.2634790642075453 -0.1457820636715134
-0.2953894638528751 -0.009191314118841047
-0.3166630636164283 0.03633893573204973
-0.3166630636164283 0.07048662312021782
-0.36984706302531134 0.07048662312021782
-0.43366786231597093 0.08186918558294051
-0.48685186172485395 0.1046343105083859
-0.4974886616066305 0.15016456035927667
-0.4974886616066305 0.17292968528472208
-0.48685186172485395 0.20707737267289014
-0.5506726610155136 0.20707737267289014
-0.5506726610155136 0.17292968528472208
-0.5400358611337369 0.21845993513561285
-0.5187622613701838 0.2981378723746717
-0.4974886616066305 0.35505068468828516
-0.48685186172485395 0.3436681222255625
-0.48685186172485395 0.2981378723746717
-0.5506726610155136 0.2981378723746717
-0.5825830606608433 0.3209029973001171
-0.5719462607790667 0.37781580961373057
-0.5506726610155136 0.434728621927344
-0.5506726610155136 0.42334605946462134
-0.5400358611337369 0.41196349700189866
-0.5719462607790667 0.42334605946462134
-0.6144934603061731 0.42334605946462134
-0.59321986054262 0.48025887177823484
-0.6038566604243966 0.548554246554571
-0.5719462607790667 0.5713193714800163
-0.6144934603061731 0.5371716840918483
-0.6570406598332795 0.5257891216291256
-0.6357670600697264 0.5827019339427391
-0.6570406598332795 0.6282321837936299
-0.6357670600697264 0.7192926834954114
-0.6251302601879498 0.6965275585699661
-0.6676774597150562 0.6737624336445206
-0.6889510594786094 0.6851449961072433
-0.699587859360386 0.7420578084208568
-0.6570406598332795 0.7875880582717476
-0.646403859951503 0.8672659955108064
-0.6676774597150562 0.9014136828989745
-0.6783142595968328 0.9127962453616972
-0.7314982590057157 0.9014136828989745
-0.7634086586510456 0.9355613702871426
-0.7740454585328223 1.0038567450634788
-0.7102246592421626 1.1404474946161511
-0.699587859360386 1.1290649321534285
-0.7208614591239392 1.1290649321534285
-0.752771858769269 1.1404474946161511
-0.7846822584145988 1.1745951820043192
-0.7740454585328223 1.2428905567806554
-0.7846822584145988 1.3225684940197142
-0.805955858178152 1.3225684940197142
-0.7740454585328223 1.3111859315569916
-0.7953190582963754 1.2656556817061007
-0.8485030577052585 1.3225684940197142
-0.8485030577052585 1.3908638687960504
-0.8378662578234818 1.4591592435723866
-0.8485030577052585 1.436394118646941
-0.8697766574688116 1.436394118646941
-0.8910502572323649 1.3908638687960504
-0.8804134573505882 1.402246431258773
-0.8804134573505882 1.436394118646941
-0.8485030577052585 1.4591592435723866
-0.8485030577052585 1.4136289937214959
-0.8272294579417052 1.3794813063333278
-0.8910502572323649 1.3567161814078823
-0.8910502572323649 1.3225684940197142
-0.859139857587035 1.2998033690942687
-0.8165926580599286 1.3339510564824368
-0.7634086586510456 1.2428905567806554
-0.7740454585328223 1.1404474946161511
-0.7740454585328223 1.0607695573770923
-0.7740454585328223 0.9810916201380334
-0.7421350588874924 1.0152393075262014
-0.699587859360386 0.9697090576753107
-0.6570406598332795 0.9469439327498653
-0.6251302601879498 0.8558834330480838
-0.5613094608972902 0.7762054958090249
-0.5506726610155136 0.7306752459581342
-0.5293990612519603 0.6965275585699661
-0.45494146207952413 0.6396147462563525
-0.43366786231597093 0.5827019339427391
-0.39112066278886454 0.48025887177823484
-0.4017574626706411 0.38919837207645325
-0.3592102631435347 0.3322855597628398
-0.3166630636164283 0.2981378723746717
-0.2209318646804389 0.2639901849865036
-0.1571110653897793 0.20707737267289014
-0.17838466515333248 0.1046343105083859
-0.17838466515333248 0.03633893573204973
-0.16774786527155588 -0.009191314118841047
-0.1464742655080027 0.002191248343881648
-0.10392706598089628 -0.009191314118841047
-0.09329026609911968 -0.06610412643245452
-0.07201666633556647 -0.12301693874606799
-0.050743066572013266 -0.1457820636715134
-0.07201666633556647 -0.17992975105968145
-0.06137986645378987 -0.17992975105968145
-0.08265346621734307 -0.1457820636715134
-0.04010626669023667 -0.20269487598512687
-0.06137986645378987 -0.27099025076146305
-0.09329026609911968 -0.2596076882987403
-0.09329026609911968 -0.2937553756869084
-0.08265346621734307 -0.24822512583601763
-0.07201666633556647 -0.22546000091057225
-0.08265346621734307 -0.2596076882987403
-0.10392706598089628 -0.2823728132241857
-0.1252006657444495 -0.3279030630750765
-0.1464742655080027 -0.3165205006123538
-0.1571110653897793 -0.2823728132241857
-0.1252006657444495 -0.27099025076146305
-0.08265346621734307 -0.2937553756869084
-0.11456386586267288 -0.3051379381496311
-0.1464742655080027 -0.3279030630750765
-0.18902146503510908 -0.3392856255377992
-0.16774786527155588 -0.2937553756869084
-0.1464742655080027 -0.23684256337329493
-0.10392706598089628 -0.2937553756869084
-0.09329026609911968 -0.3392856255377992
-0.11456386586267288 -0.37343331292596726
-0.1464742655080027 -0.3506681880005219
-0.1464742655080027 -0.3165205006123538
-0.1252006657444495 -0.27099025076146305
-0.1358374656262261 -0.27099025076146305
-0.1571110653897793 -0.2937553756869084
-0.17838466515333248 -0.3165205006123538
-0.17838466515333248 -0.3506681880005219
-0.16774786527155588 -0.3165205006123538
-0.1358374656262261 -0.21407743844784954
-0.1358374656262261 -0.2596076882987403
-0.1571110653897793 -0.24822512583601763
-0.2102950647986623 -0.3165205006123538
-0.2422054644439921 -0.24822512583601763
-0.2102950647986623 -0.2823728132241857
-0.1996582649168857 -0.23684256337329493
-0.16774786527155588 -0.23684256337329493
-0.17838466515333248 -0.27099025076146305
-0.2209318646804389 -0.2937553756869084
-0.2634790642075453 -0.2596076882987403
-0.2102950647986623 -0.24822512583601763
-0.18902146503510908 -0.23684256337329493
-0.16774786527155588 -0.22546000091057225
-0.17838466515333248 -0.22546000091057225
-0.1996582649168857 -0.24822512583601763
-0.2315686645622155 -0.24822512583601763
-0.2422054644439921 -0.22546000091057225
-0.2102950647986623 -0.21407743844784954
-0.18902146503510908 -0.21407743844784954
-0.2209318646804389 -0.24822512583601763
-0.2422054644439921 -0.2596076882987403
-0.2634790642075453 -0.22546000091057225
-0.2209318646804389 -0.19131231352240416
-0.2102950647986623 -0.20269487598512687
-0.18902146503510908 -0.20269487598512687
-0.2209318646804389 -0.27099025076146305
-0.2741158640893219 -0.27099025076146305
-0.2634790642075453 -0.2596076882987403
-0.2102950647986623 -0.20269487598512687
-0.1996582649168857 -0.21407743844784954
-0.17838466515333248 -0.20269487598512687
-0.18902146503510908 -0.23684256337329493
-0.25284226432576873 -0.2937553756869084
-0.2634790642075453 -0.24822512583601763
-0.25284226432576873 -0.2596076882987403
-0.18902146503510908 -0.22546000091057225
-0.16774786527155588 -0.23684256337329493
-0.18902146503510908 -0.27099025076146305
-0.17838466515333248 -0.27099025076146305
-0.1996582649168857 -0.2596076882987403
-0.1996582649168857 -0.24822512583601763
-0.18902146503510908 -0.21407743844784954
-0.18902146503510908 -0.23684256337329493
-0.1996582649168857 -0.27099025076146305
-0.2209318646804389 -0.2823728132241857
-0.2102950647986623 -0.2596076882987403
-0.1996582649168857 -0.2823728132241857
-0.17838466515333248 -0.21407743844784954
-0.1571110653897793 -0.22546000091057225
-0.2102950647986623 -0.2937553756869084
-0.2422054644439921 -0.3392856255377992
-0.2209318646804389 -0.2937553756869084
-0.18902146503510908 -0.27099025076146305
-0.16774786527155588 -0.23684256337329493
-0.1464742655080027 -0.2596076882987403
-0.1571110653897793 -0.2823728132241857
-0.1996582649168857 -0.3165205006123538
-0.25284226432576873 -0.3279030630750765
-0.2209318646804389 -0.2596076882987403
-0.17838466515333248 -0.22546000091057225
-0.1571110653897793 -0.2937553756869084
-0.17838466515333248 -0.2823728132241857
-0.18902146503510908 -0.3051379381496311
-0.2209318646804389 -0.2596076882987403
-0.2209318646804389 -0.2937553756869084
-0.2315686645622155 -0.24822512583601763
-0.2102950647986623 -0.23684256337329493
-0.2102950647986623 -0.27099025076146305
-0.2315686645622155 -0.3279030630750765
-0.2315686645622155 -0.3392856255377992
-0.25284226432576873 -0.2823728132241857
-0.2422054644439921 -0.21407743844784954
-0.2209318646804389 -0.21407743844784954
-0.2209318646804389 -0.2823728132241857
-0.2422054644439921 -0.3165205006123538
-0.2102950647986623 -0.2823728132241857
-0.1996582649168857 -0.27099025076146305
-0.17838466515333248 -0.2596076882987403
-0.16774786527155588 -0.27099025076146305
-0.1996582649168857 -0.2937553756869084
-0.2315686645622155 -0.3051379381496311
-0.2315686645622155 -0.3620507504632446
-0.1571110653897793 -0.27099025076146305
-0.08265346621734307 -0.24822512583601763
-0.04010626669023667 -0.22546000091057225
-0.01883266692668346 -0.2823728132241857
-0.07201666633556647 -0.2823728132241857
-0.10392706598089628 -0.2596076882987403
-0.08265346621734307 -0.17992975105968145
-0.01883266692668346 -0.13439950120879068
-0.01883266692668346 -0.1457820636715134
-0.04010626669023667 -0.16854718859695877
-0.08265346621734307 -0.17992975105968145
-0.06137986645378987 -0.16854718859695877
-0.09329026609911968 -0.12301693874606799
-0.029469466808460063 -0.08886925135789991
0.013077732718646344 -0.1457820636715134
0.013077732718646344 -0.19131231352240416
-0.00819586704490686 -0.21407743844784954
-0.050743066572013266 -0.24822512583601763
-0.06137986645378987 -0.20269487598512687
-0.06137986645378987 -0.21407743844784954
-0.07201666633556647 -0.27099025076146305
-0.10392706598089628 -0.2823728132241857
-0.1571110653897793 -0.3165205006123538
-0.1358374656262261 -0.2823728132241857
-0.1358374656262261 -0.24822512583601763
-0.1252006657444495 -0.22546000091057225
-0.1358374656262261 -0.20269487598512687
-0.2102950647986623 -0.2596076882987403
-0.1996582649168857 -0.2937553756869084
-0.2315686645622155 -0.3051379381496311
-0.18902146503510908 -0.27099025076146305
-0.17838466515333248 -0.24822512583601763
-0.1571110653897793 -0.21407743844784954
-0.1571110653897793 -0.27099025076146305
-0.2102950647986623 -0.2937553756869084
-0.25284226432576873 -0.3051379381496311
-0.2953894638528751 -0.2937553756869084
-0.2315686645622155 -0.2823728132241857
-0.1464742655080027 -0.22546000091057225
-0.1571110653897793 -0.27099025076146305
-0.2209318646804389 -0.3051379381496311
-0.25284226432576873 -0.2937553756869084
-0.2634790642075453 -0.3051379381496311
-0.2209318646804389 -0.27099025076146305
-0.18902146503510908 -0.2823728132241857
-0.2102950647986623 -0.3392856255377992
-0.2209318646804389 -0.37343331292596726
-0.2315686645622155 -0.3392856255377992
-0.2422054644439921 -0.3165205006123538
-0.2102950647986623 -0.2823728132241857
-0.16774786527155588 -0.3051379381496311
-0.16774786527155588 -0.3392856255377992
-0.16774786527155588 -0.3279030630750765
-0.17838466515333248 -0.2937553756869084
-0.1571110653897793 -0.24822512583601763
-0.1571110653897793 -0.16854718859695877
-0.1571110653897793 -0.15716462613423607
-0.16774786527155588 -0.3165205006123538
-0.07201666633556647 -0.4986415000159169
0.06626173212752935 -0.7490578741958162
0.3215449292901678 -1.0450044982266062
0.5981017262163595 -1.3637162471828417
0.8002009239701149 -1.6596628712136319
0.9491161223149873 -1.9669920577071445
1.1086681205416364 -2.2174084318870437
1.3426777179407217 -2.319851494051548
1.6405081146304665 -2.433677118678775
2.002159310610871 -2.5247376183805565
2.310626507182392 -2.615798118082338
2.587183304108584 -2.70685861778412
2.8637401010347756 -2.7523888676350103
3.1615704977245205 -2.775153992560456
3.629589692522691 -2.649945805470506
4.118882487084415 -2.4905899309923885
4.406076083892383 -2.4450596811414975
4.469896883183043 -2.467824806066943
4.289071285192841 -2.5019724934551113
3.810415290512893 -2.5019724934551113
3.033928899143201 -2.365381743902439
2.2255321081281796 -2.240173556812489
1.6298713147486898 -2.1604956195734304
1.2682201187682853 -2.092200244797094
1.0767577208963066 -1.98975718263259
0.9703897220785406 -1.830401308154472
0.9278425225514341 -1.6255151838254638
0.9172057226696575 -1.4433941844219005
0.9172057226696575 -1.3637162471828417
0.8852953230243277 -1.2726557474810603
0.8002009239701149 -1.2157429351674467
0.7151065249159021 -1.090534748077497
0.5768281264528062 -0.9539439985248247
0.5130073271621466 -0.7832055615839842
0.4066393283443806 -0.7149101868076481
0.3002713295266146 -0.6238496871058665
0.21517693047240177 -0.5214066249413623
0.15135613118174218 -0.3961984378514127
0.09817213177285916 -0.27099025076146305
0.0024409328368697417 -0.16854718859695877
-0.07201666633556647 -0.07748668889517721
-0.1571110653897793 -0.03195643904428644
-0.2209318646804389 0.002191248343881648
-0.3060262637346517 0.05910406065749512
-0.3166630636164283 0.138781997896554
-0.36984706302531134 0.24122506006105823
-0.41239426255241773 0.28675530991194903
-0.48685186172485395 0.22984249759833553
-0.5293990612519603 0.22984249759833553
-0.5187622613701838 0.24122506006105823
-0.46557826196130075 0.3436681222255625
-0.42303106243419436 0.3664332471510079
-0.44430466219774756 0.400580934539176
-0.5081254614884072 0.3664332471510079
-0.5293990612519603 0.400580934539176
-0.5400358611337369 0.42334605946462134
-0.5400358611337369 0.4688763093155121
-0.5081254614884072 0.5144065591664029
-0.4974886616066305 0.5144065591664029
-0.5293990612519603 0.4916414342409575
-0.5825830606608433 0.5030239967036803
-0.6038566604243966 0.5371716840918483
-0.59321986054262 0.5713193714800163
-0.5825830606608433 0.662379871181798
-0.5081254614884072 0.6509973087190752
-0.5825830606608433 0.6737624336445206
-0.5719462607790667 0.662379871181798
-0.6251302601879498 0.7079101210326887
-0.6251302601879498 0.7648229333463021
-0.6038566604243966 0.8558834330480838
-0.6144934603061731 0.8672659955108064
-0.6144934603061731 0.8672659955108064
-0.6889510594786094 0.8558834330480838
-0.7102246592421626 0.9241788078244199
-0.6676774597150562 1.0152393075262014
-0.6676774597150562 1.0949172447652604
-0.646403859951503 1.1290649321534285
-0.6783142595968328 1.1518300570788738
-0.7102246592421626 1.1745951820043192
-0.752771858769269 1.1745951820043192
-0.7740454585328223 1.254273119243378
-0.7421350588874924 1.3339510564824368
-0.7634086586510456 1.3453336189451597
-0.7846822584145988 1.3111859315569916
-0.7740454585328223 1.3339510564824368
-0.7953190582963754 1.368098743870605
-0.8165926580599286 1.447776681109664
-0.7846822584145988 1.481924368497832
-0.7953190582963754 1.481924368497832
-0.805955858178152 1.4933069309605547
-0.8272294579417052 1.4591592435723866
-0.8378662578234818 1.4933069309605547
-0.8272294579417052 1.4933069309605547
-0.8165926580599286 1.5616023057368908
-0.8378662578234818 1.5388371808114454
-0.8378662578234818 1.4705418060351092
-0.8485030577052585 1.3908638687960504
-0.859139857587035 1.3794813063333278
-0.8378662578234818 1.3339510564824368
-0.7740454585328223 1.3567161814078823
-0.752771858769269 1.3225684940197142
-0.7421350588874924 1.2087428693924873
-0.805955858178152 1.1745951820043192
-0.7740454585328223 1.106299807227983
-0.7421350588874924 1.0493869949143695
-0.646403859951503 1.0266218699889242
-0.5719462607790667 0.9469439327498653
-0.5293990612519603 0.7762054958090249
-0.4974886616066305 0.7079101210326887
-0.4974886616066305 0.662379871181798
-0.4762150618430773 0.6168496213309071
-0.41239426255241773 0.6054670588681844
-0.36984706302531134 0.4916414342409575
-0.2741158640893219 0.35505068468828516
-0.25284226432576873 0.2753727474492263
-0.2422054644439921 0.21845993513561285
-0.18902146503510908 0.18431224774744476
-0.09329026609911968 0.15016456035927667
-0.07201666633556647 0.12739943543383128
-0.050743066572013266 0.03633893573204973
-0.04010626669023667 -0.020573876581563743
-0.07201666633556647 -0.04333900150700913
-0.06137986645378987 -0.05472156396973182
-0.050743066572013266 -0.020573876581563743
-0.06137986645378987 -0.05472156396973182
-0.06137986645378987 -0.1116343762833453
-0.07201666633556647 -0.19131231352240416
-0.06137986645378987 -0.15716462613423607
-0.06137986645378987 -0.15716462613423607
-0.029469466808460063 -0.08886925135789991
-0.050743066572013266 -0.16854718859695877
-0.08265346621734307 -0.20269487598512687
-0.10392706598089628 -0.2596076882987403
-0.11456386586267288 -0.20269487598512687
-0.08265346621734307 -0.19131231352240416
-0.050743066572013266 -0.13439950120879068
-0.029469466808460063 -0.16854718859695877
-0.07201666633556647 -0.21407743844784954
-0.11456386586267288 -0.2596076882987403
-0.1358374656262261 -0.24822512583601763
-0.1252006657444495 -0.24822512583601763
-0.050743066572013266 -0.20269487598512687
-0.04010626669023667 -0.19131231352240416
-0.06137986645378987 -0.21407743844784954
-0.10392706598089628 -0.23684256337329493
-0.1358374656262261 -0.22546000091057225
-0.1252006657444495 -0.19131231352240416
-0.11456386586267288 -0.17992975105968145
-0.09329026609911968 -0.19131231352240416
-0.11456386586267288 -0.17992975105968145
-0.1252006657444495 -0.20269487598512687
-0.16774786527155588 -0.21407743844784954
-0.1464742655080027 -0.1457820636715134
-0.1358374656262261 -0.13439950120879068
-0.11456386586267288 -0.12301693874606799
-0.1358374656262261 -0.17992975105968145
-0.16774786527155588 -0.22546000091057225
-0.18902146503510908 -0.16854718859695877
-0.17838466515333248 -0.12301693874606799
-0.1571110653897793 -0.1116343762833453
-0.16774786527155588 -0.1002518138206226
-0.1996582649168857 -0.1457820636715134
-0.2102950647986623 -0.17992975105968145
-0.2315686645622155 -0.1457820636715134
-0.2102950647986623 -0.13439950120879068
-0.17838466515333248 -0.1002518138206226
-0.1571110653897793 -0.08886925135789991
-0.18902146503510908 -0.08886925135789991
-0.2315686645622155 -0.12301693874606799
-0.2741158640893219 -0.12301693874606799
-0.2422054644439921 -0.08886925135789991
-0.2102950647986623 -0.07748668889517721
-0.1571110653897793 -0.08886925135789991
-0.16774786527155588 -0.13439950120879068
-0.18902146503510908 -0.1457820636715134
-0.2209318646804389 -0.1002518138206226
-0.2209318646804389 -0.05472156396973182
-0.1996582649168857 -0.009191314118841047
-0.17838466515333248 0.002191248343881648
-0.17838466515333248 -0.009191314118841047
-0.2102950647986623 0.002191248343881648
-0.2422054644439921 -0.020573876581563743
-0.2315686645622155 0.03633893573204973
-0.25284226432576873 0.1046343105083859
-0.2315686645622155 0.1046343105083859
-0.2847526639710985 0.1046343105083859
-0.34857346326175814 0.12739943543383128
-0.4017574626706411 0.19569481021016746
-0.39112066278886454 0.2753727474492263
-0.41239426255241773 0.38919837207645325
-0.44430466219774756 0.45749374685278943
-0.4762150618430773 0.5713193714800163
-0.44430466219774756 0.6965275585699661
-0.3592102631435347 0.8786485579735291
-0.1252006657444495 1.1632126195415966
0.11944573153641236 1.402246431258773
0.4279129281079338 1.6185151180505042
0.7895641240883383 1.8234012423795127
1.1937625195958492 1.9827571168576306
1.6085977149851367 2.0624350540966896
2.055343310019754 2.187643241186639
2.533999304699701 2.2900863033511434
2.8956505006801057 2.2559386159629753
3.172207297606297 2.153495553798471
3.310485696069393 2.073817616559412
3.1934808973698505 2.10796530394758
3.033928899143201 2.2559386159629753
2.831829701389446 2.4266770529038157
2.640367303517467 2.5860329273819334
2.480815305290818 2.6087980523073786
2.16171130883752 2.52912011506832
1.7681497132117856 2.2445560535002524
1.3107673182953918 2.005522241783076
0.8002009239701149 1.7095756177522858
0.3640921288172742 1.3908638687960504
0.013077732718646344 1.0607695573770923
-0.2741158640893219 0.7989706207344702
-0.48685186172485395 0.6396147462563525
-0.646403859951503 0.548554246554571
-0.752771858769269 0.4688763093155121
-0.805955858178152 0.35505068468828516
-0.8485030577052585 0.21845993513561285
-0.8485030577052585 0.07048662312021782
-0.8272294579417052 -0.04333900150700913
-0.7102246592421626 -0.1002518138206226
-0.6038566604243966 -0.13439950120879068
-0.5293990612519603 -0.19131231352240416
-0.5081254614884072 -0.23684256337329493
-0.5293990612519603 -0.3392856255377992
-0.5613094608972902 -0.3392856255377992
-0.5187622613701838 -0.3506681880005219
-0.4762150618430773 -0.37343331292596726
-0.42303106243419436 -0.3961984378514127
-0.45494146207952413 -0.3961984378514127
-0.4974886616066305 -0.44172868770230345
-0.48685186172485395 -0.4531112501650261
-0.48685186172485395 -0.44172868770230345
-0.4017574626706411 -0.43034612523958077
-0.36984706302531134 -0.41896356277685803
-0.3592102631435347 -0.47587637509047154
-0.4017574626706411 -0.532789187404085
-0.41239426255241773 -0.5214066249413623
-0.42303106243419436 -0.4986415000159169
-0.4017574626706411 -0.46449381262774886
-0.39112066278886454 -0.4986415000159169
-0.42303106243419436 -0.5783194372549758
-0.43366786231597093 -0.646614812031312
-0.41239426255241773 -0.6579973744940346
-0.3592102631435347 -0.646614812031312
-0.32729986349820495 -0.646614812031312
-0.2953894638528751 -0.6921450618822027
-0.3060262637346517 -0.7262927492703708
-0.3166630636164283 -0.7604404366585389
-0.2953894638528751 -0.794588124046707
-0.2847526639710985 -0.7832055615839842
-0.2634790642075453 -0.7718229991212616
-0.2315686645622155 -0.7832055615839842
-0.2102950647986623 -0.8287358114348751
-0.2634790642075453 -0.8287358114348751
-0.25284226432576873 -0.8401183738975978
-0.2209318646804389 -0.8173532489721523
-0.2102950647986623 -0.7832055615839842
-0.2209318646804389 -0.8401183738975978
-0.2634790642075453 -0.9084137486739339
-0.2634790642075453 -0.942561436062102
-0.2741158640893219 -0.9539439985248247
-0.25284226432576873 -0.9539439985248247
-0.1996582649168857 -0.9197963111366566
-0.2102950647986623 -0.9767091234502701
-0.2209318646804389 -1.0336219357638836
-0.2209318646804389 -1.1132998730029424
-0.18902146503510908 -1.1474475603911105
-0.1571110653897793 -1.1474475603911105
-0.09329026609911968 -1.1360649979283879
-0.029469466808460063 -1.204360372704724
-0.04010626669023667 -1.2612731850183374
-0.07201666633556647 -1.3295685597946736
0.0024409328368697417 -1.3637162471828417
0.023714532600422944 -1.3295685597946736
0.10880893165463576 -1.3068034348692283
0.15135613118174218 -1.3637162471828417
0.17262973094529538 -1.3978639345710098
0.18326653082707198 -1.4433941844219005
0.20454013059062517 -1.4775418718100686
0.3002713295266146 -1.4547767468846233
0.3853657285808274 -1.4433941844219005
0.5130073271621466 -1.4547767468846233
0.5130073271621466 -1.5116895591982367
0.5449177268074764 -1.4775418718100686
0.5768281264528062 -1.466159309347346
0.6300121258616893 -1.4206290594964552
0.7151065249159021 -1.352333684720119
0.8002009239701149 -1.352333684720119
0.8427481234972213 -1.3295685597946736
0.8002009239701149 -1.3409511222573962
0.7789273242065616 -1.2612731850183374
0.8214745237336681 -1.1474475603911105
0.8640217232607745 -1.0336219357638836
0.8746585231425511 -1.0108568108384381
0.8852953230243277 -0.9653265609875474
0.8108377238518915 -0.9539439985248247
0.7257433247976787 -0.8628834988230432
0.6831961252705723 -0.7832055615839842
0.6831961252705723 -0.6579973744940346
0.6831961252705723 -0.646614812031312
0.6512857256252425 -0.6124671246431439
0.5555545266892531 -0.5783194372549758
0.49173372739859345 -0.5897019997176984
0.4385497279897104 -0.5100240624786396
0.4279129281079338 -0.4531112501650261
0.4279129281079338 -0.40758100031413536
0.3853657285808274 -0.41896356277685803
0.3321817291719444 -0.44172868770230345
0.2470873301177316 -0.37343331292596726
0.236450530235955 -0.3506681880005219
0.22581373035417837 -0.3165205006123538
0.19390333070884858 -0.3279030630750765
0.11944573153641236 -0.3165205006123538
0.09817213177285916 -0.3506681880005219
0.08753533189108256 -0.3165205006123538
0.05562493224575275 -0.24822512583601763
0.023714532600422944 -0.27099025076146305
0.023714532600422944 -0.2596076882987403
0.013077732718646344 -0.27099025076146305
-0.04010626669023667 -0.3279030630750765
-0.04010626669023667 -0.27099025076146305
-0.00819586704490686 -0.24822512583601763
-0.01883266692668346 -0.22546000091057225
-0.029469466808460063 -0.23684256337329493
-0.06137986645378987 -0.24822512583601763
-0.07201666633556647 -0.27099025076146305
-0.09329026609911968 -0.27099025076146305
-0.06137986645378987 -0.27099025076146305
-0.07201666633556647 -0.19131231352240416
-0.050743066572013266 -0.21407743844784954
-0.08265346621734307 -0.23684256337329493
-0.10392706598089628 -0.2596076882987403
-0.1358374656262261 -0.24822512583601763
-0.1571110653897793 -0.23684256337329493
-0.08265346621734307 -0.20269487598512687
-0.029469466808460063 -0.19131231352240416
-0.029469466808460063 -0.20269487598512687
-0.11456386586267288 -0.23684256337329493
-0.1571110653897793 -0.2596076882987403
-0.1252006657444495 -0.24822512583601763
-0.07201666633556647 -0.20269487598512687
-0.04010626669023667 -0.23684256337329493
-0.11456386586267288 -0.23684256337329493
-0.1464742655080027 -0.23684256337329493
-0.11456386586267288 -0.21407743844784954
-0.1571110653897793 -0.20269487598512687
-0.1252006657444495 -0.15716462613423607
-0.10392706598089628 -0.20269487598512687
-0.1464742655080027 -0.20269487598512687
-0.1464742655080027 -0.24822512583601763
-0.18902146503510908 -0.24822512583601763
-0.16774786527155588 -0.20269487598512687
-0.11456386586267288 -0.16854718859695877
-0.11456386586267288 -0.16854718859695877
-0.1358374656262261 -0.22546000091057225
-0.1996582649168857 -0.22546000091057225
-0.1996582649168857 -0.22546000091057225
-0.2209318646804389 -0.24822512583601763
-0.18902146503510908 -0.19131231352240416
-0.1464742655080027 -0.22546000091057225
-0.1358374656262261 -0.2596076882987403
-0.17838466515333248 -0.2596076882987403
-0.17838466515333248 -0.27099025076146305
-0.17838466515333248 -0.22546000091057225
-0.18902146503510908 -0.21407743844784954
-0.16774786527155588 -0.21407743844784954
-0.18902146503510908 -0.23684256337329493
-0.1996582649168857 -0.2596076882987403
-0.2102950647986623 -0.24822512583601763
-0.2102950647986623 -0.21407743844784954
-0.2315686645622155 -0.23684256337329493
-0.2209318646804389 -0.22546000091057225
-0.1996582649168857 -0.2823728132241857
-0.2102950647986623 -0.2823728132241857
-0.2422054644439921 -0.2823728132241857
-0.2209318646804389 -0.24822512583601763
-0.17838466515333248 -0.21407743844784954
-0.1571110653897793 -0.22546000091057225
-0.18902146503510908 -0.2823728132241857
-0.2209318646804389 -0.2937553756869084
-0.25284226432576873 -0.3165205006123538
-0.2315686645622155 -0.27099025076146305
-0.18902146503510908 -0.23684256337329493
-0.17838466515333248 -0.23684256337329493
-0.1996582649168857 -0.2596076882987403
-0.2422054644439921 -0.2596076882987403
-0.2953894638528751 -0.27099025076146305
-0.2847526639710985 -0.2823728132241857
-0.2102950647986623 -0.23684256337329493
-0.16774786527155588 -0.24822512583601763
-0.2102950647986623 -0.27099025076146305
-0.2634790642075453 -0.2596076882987403
-0.2953894638528751 -0.2937553756869084
-0.2847526639710985 -0.2823728132241857
-0.2634790642075453 -0.23684256337329493
-0.2209318646804389 -0.24822512583601763
-0.2102950647986623 -0.27099025076146305
-0.2209318646804389 -0.3165205006123538
-0.2741158640893219 -0.2937553756869084
-0.25284226432576873 -0.3165205006123538
-0.2422054644439921 -0.23684256337329493
