-0.05425793209249997 -0.15352773616032148
-0.10412434643984986 -0.15352773616032148
-0.10412434643984986 -0.13372636522552456
-0.03763579397671667 -0.10402430882332919
-0.03763579397671667 -0.13372636522552456
-0.02101365586093337 -0.10402430882332919
-0.02101365586093337 -0.13372636522552456
-0.03763579397671667 -0.11392499429072765
-0.02101365586093337 -0.10402430882332919
0.012230620370633228 -0.07432225242113384
0.012230620370633228 -0.06442156695373538
0.028852758486416528 -0.10402430882332919
-0.03763579397671667 -0.10402430882332919
-0.05425793209249997 -0.10402430882332919
-0.07088007020828327 -0.08422293788853229
-0.03763579397671667 -0.09412362335593075
-0.004391517745150069 -0.13372636522552456
-0.004391517745150069 -0.11392499429072765
-0.004391517745150069 -0.13372636522552456
-0.08750220832406656 -0.13372636522552456
-0.02101365586093337 -0.10402430882332919
-0.004391517745150069 -0.09412362335593075
0.045474896602199825 -0.11392499429072765
0.045474896602199825 -0.12382567975812611
-0.004391517745150069 -0.15352773616032148
-0.02101365586093337 -0.143627050692923
-0.02101365586093337 -0.10402430882332919
0.028852758486416528 -0.09412362335593075
0.045474896602199825 -0.10402430882332919
0.028852758486416528 -0.08422293788853229
0.028852758486416528 -0.12382567975812611
-0.12074648455563317 -0.10402430882332919
-0.02101365586093337 -0.09412362335593075
-0.05425793209249997 -0.08422293788853229
0.045474896602199825 -0.10402430882332919
0.045474896602199825 -0.09412362335593075
-0.004391517745150069 -0.12382567975812611
-0.03763579397671667 -0.13372636522552456
-0.03763579397671667 -0.10402430882332919
0.045474896602199825 -0.09412362335593075
0.06209703471798313 -0.09412362335593075
0.09534131094954972 -0.10402430882332919
0.07871917283376642 -0.12382567975812611
0.012230620370633228 -0.10402430882332919
0.012230620370633228 -0.08422293788853229
0.07871917283376642 -0.07432225242113384
0.07871917283376642 -0.10402430882332919
0.06209703471798313 -0.10402430882332919
0.028852758486416528 -0.09412362335593075
0.012230620370633228 -0.08422293788853229
0.012230620370633228 -0.06442156695373538
0.06209703471798313 -0.06442156695373538
0.09534131094954972 -0.07432225242113384
0.09534131094954972 -0.07432225242113384
0.06209703471798313 -0.10402430882332919
0.028852758486416528 -0.10402430882332919
0.012230620370633228 -0.09412362335593075
0.045474896602199825 -0.08422293788853229
0.09534131094954972 -0.08422293788853229
0.07871917283376642 -0.08422293788853229
0.045474896602199825 -0.12382567975812611
-0.02101365586093337 -0.12382567975812611
0.012230620370633228 -0.10402430882332919
0.07871917283376642 -0.08422293788853229
0.09534131094954972 -0.08422293788853229
0.12858558718111632 -0.09412362335593075
0.09534131094954972 -0.10402430882332919
0.045474896602199825 -0.10402430882332919
0.07871917283376642 -0.08422293788853229
0.11196344906533302 -0.04462019601893847
0.12858558718111632 -0.05452088148633693
0.07871917283376642 -0.06442156695373538
0.11196344906533302 -0.07432225242113384
0.06209703471798313 -0.07432225242113384
0.06209703471798313 -0.06442156695373538
0.06209703471798313 -0.03471951055154002
0.11196344906533302 -0.05452088148633693
0.09534131094954972 -0.07432225242113384
0.06209703471798313 -0.07432225242113384
0.028852758486416528 -0.07432225242113384
0.07871917283376642 -0.05452088148633693
0.09534131094954972 -0.03471951055154002
0.11196344906533302 -0.01491813961674311
0.11196344906533302 -0.005017454149344655
0.09534131094954972 -0.024818825084141564
0.045474896602199825 -0.024818825084141564
0.12858558718111632 0.0048832313180537995
0.1618298634126829 0.02468460225285071
0.278184830223166 0.02468460225285071
0.24494055399159942 0.02468460225285071
0.278184830223166 0.04448597318764762
0.24494055399159942 0.04448597318764762
0.3114291064547326 0.08408871505724143
0.3945397970336491 0.10389008599203835
0.4111619351494324 0.09398940052463989
0.42778407326521567 0.09398940052463989
0.4610283494967823 0.07418802958984298
0.5275169019599155 0.07418802958984298
0.5940054544230486 0.09398940052463989
0.610627592538832 0.12369145692683525
0.6438718687703986 0.11379077145943679
0.6604940068861819 0.10389008599203835
0.6937382831177484 0.11379077145943679
0.6937382831177484 0.09398940052463989
0.776848973696665 0.10389008599203835
0.8433375261597982 0.11379077145943679
0.9098260786229313 0.1335921423942337
0.9264482167387147 0.11379077145943679
0.9098260786229313 0.11379077145943679
0.893203940507148 0.12369145692683525
0.893203940507148 0.1335921423942337
0.8267153880440149 0.15339351332903062
0.7103604212335318 0.12369145692683525
0.5441390400756988 0.10389008599203835
0.3779176589178658 0.08408871505724143
0.2283184158758161 0.07418802958984298
0.17845200152846621 0.12369145692683525
0.11196344906533302 0.11379077145943679
0.06209703471798313 0.09398940052463989
-0.05425793209249997 0.08408871505724143
-0.08750220832406656 0.034585287720249165
-0.15399076078719975 0.034585287720249165
-0.10412434643984986 0.06428734412244452
-0.07088007020828327 0.09398940052463989
-0.05425793209249997 0.07418802958984298
-0.05425793209249997 0.05438665865504607
-0.10412434643984986 0.02468460225285071
-0.12074648455563317 0.014783916785452253
-0.17061289890298306 0.05438665865504607
-0.15399076078719975 0.06428734412244452
-0.07088007020828327 0.06428734412244452
-0.05425793209249997 0.06428734412244452
-0.07088007020828327 0.034585287720249165
-0.13736862267141645 0.05438665865504607
-0.08750220832406656 0.07418802958984298
-0.02101365586093337 0.10389008599203835
0.028852758486416528 0.08408871505724143
-0.004391517745150069 0.09398940052463989
-0.05425793209249997 0.05438665865504607
-0.12074648455563317 0.05438665865504607
-0.10412434643984986 0.05438665865504607
-0.07088007020828327 0.08408871505724143
-0.03763579397671667 0.05438665865504607
-0.03763579397671667 0.05438665865504607
-0.03763579397671667 0.02468460225285071
-0.08750220832406656 0.02468460225285071
-0.10412434643984986 0.05438665865504607
-0.07088007020828327 0.08408871505724143
-0.02101365586093337 0.07418802958984298
-0.004391517745150069 0.02468460225285071
-0.004391517745150069 0.04448597318764762
-0.05425793209249997 0.034585287720249165
-0.03763579397671667 0.05438665865504607
-0.03763579397671667 0.08408871505724143
-0.03763579397671667 0.08408871505724143
-0.03763579397671667 0.08408871505724143
-0.08750220832406656 0.05438665865504607
-0.08750220832406656 0.04448597318764762
-0.07088007020828327 0.0048832313180537995
0.045474896602199825 -0.06442156695373538
0.2116962777600328 -0.1931304780299153
0.4942726257283489 -0.31193870363869675
0.8267153880440149 -0.46044898564967357
1.1591581503596808 -0.6188599531280489
1.674444431948963 -0.8366750334108148
2.1398642991908954 -1.0643907991609793
2.4723070615065614 -1.25250382304155
2.505551337738128 -1.361411363182933
2.4058185090434283 -1.3713120486503314
2.4723070615065614 -1.3515106777155343
2.7050169951275276 -1.321808621313339
2.8878605144011438 -1.3020072503785423
3.1371925861378935 -1.2822058794437452
3.2535475529483766 -1.2624045085089484
3.3699025197588597 -1.2426031375741515
3.453013210337776 -1.1831990247697608
3.569368177148259 -1.1633976538349637
3.669101005842959 -1.12379491196537
3.7023452820745257 -1.0841921700957762
3.552746039032476 -1.0445894282261823
3.1870590004852435 -0.9950860008891901
2.6052841664328277 -0.905979831682604
2.0401314704961955 -0.8267743479434163
1.5248451889069135 -0.7277674932694318
0.9763146310860645 -0.6782640659324396
0.3280512445705159 -0.6386613240628457
-0.40332283252394924 -0.5495551548562596
-0.9850976665763647 -0.4505483001822751
-1.3507847051235973 -0.3515414455082906
-1.4671396719340803 -0.2822366472365014
-1.4338953957025138 -0.20303116349731373
-1.2842961526604642 -0.143627050692923
-1.167941185849981 -0.08422293788853229
-1.1845633239657642 0.0048832313180537995
-1.0515862190394978 0.08408871505724143
-1.001719804692148 0.16329419879642906
-0.8853648378816649 0.2226983116008198
-0.7357655948396152 0.2623010534704136
-0.6526549042606987 0.2722017389378121
-0.6027884899133488 0.2821024244052105
-0.5529220755659989 0.31180448080740586
-0.5196777993344324 0.3316058517422028
-0.5362999374502156 0.3415065372096012
-0.503055661218649 0.3316058517422028
-0.5529220755659989 0.3415065372096012
-0.6027884899133488 0.3514072226769997
-0.5861663517975655 0.3415065372096012
-0.5362999374502156 0.36130790814439817
-0.5362999374502156 0.3712085936117966
-0.5695442136817822 0.3712085936117966
-0.6027884899133488 0.36130790814439817
-0.6360327661449154 0.36130790814439817
-0.6360327661449154 0.4207120209487889
-0.5861663517975655 0.4306127064161873
-0.5529220755659989 0.4306127064161873
-0.5695442136817822 0.4207120209487889
-0.5861663517975655 0.4108113354813904
-0.6360327661449154 0.4207120209487889
-0.6027884899133488 0.4306127064161873
-0.6027884899133488 0.4405133918835858
-0.6360327661449154 0.4306127064161873
-0.6360327661449154 0.4108113354813904
-0.6360327661449154 0.40091065001399195
-0.6526549042606987 0.40091065001399195
-0.6194106280291322 0.40091065001399195
-0.6194106280291322 0.4603147628183827
-0.6027884899133488 0.4207120209487889
-0.6360327661449154 0.4207120209487889
-0.669277042376482 0.4108113354813904
-0.719143456723832 0.4207120209487889
-0.669277042376482 0.4306127064161873
-0.6526549042606987 0.4603147628183827
-0.6027884899133488 0.45041407735098427
-0.5861663517975655 0.45041407735098427
-0.6027884899133488 0.4603147628183827
-0.6526549042606987 0.47021544828578116
-0.6194106280291322 0.47021544828578116
-0.5861663517975655 0.48011613375317963
-0.5529220755659989 0.48011613375317963
-0.5695442136817822 0.4603147628183827
-0.5861663517975655 0.45041407735098427
-0.6027884899133488 0.45041407735098427
-0.6027884899133488 0.4405133918835858
-0.5529220755659989 0.4603147628183827
-0.5695442136817822 0.4603147628183827
-0.5695442136817822 0.45041407735098427
-0.5695442136817822 0.4405133918835858
-0.6027884899133488 0.4207120209487889
-0.5861663517975655 0.4306127064161873
-0.5196777993344324 0.45041407735098427
-0.4698113849870824 0.4108113354813904
-0.503055661218649 0.4306127064161873
-0.48643352310286575 0.4207120209487889
-0.5196777993344324 0.4306127064161873
-0.45318924687129913 0.4306127064161873
-0.43656710875551585 0.47021544828578116
-0.40332283252394924 0.47021544828578116
-0.38670069440816596 0.45041407735098427
-0.3700785562923826 0.4405133918835858
-0.4199449706397325 0.4306127064161873
-0.40332283252394924 0.4306127064161873
-0.35345641817659934 0.4207120209487889
-0.3202121419450327 0.45041407735098427
-0.3202121419450327 0.4207120209487889
-0.3202121419450327 0.38110927907919506
-0.3700785562923826 0.38110927907919506
-0.30359000382924944 0.40091065001399195
-0.27034572759768283 0.39100996454659354
-0.20385717513454965 0.40091065001399195
-0.18723503701876634 0.3514072226769997
-0.20385717513454965 0.3514072226769997
-0.23710145136611624 0.3316058517422028
-0.18723503701876634 0.36130790814439817
-0.18723503701876634 0.39100996454659354
-0.10412434643984986 0.3514072226769997
-0.05425793209249997 0.36130790814439817
-0.07088007020828327 0.3415065372096012
-0.10412434643984986 0.32170516627480433
-0.08750220832406656 0.3415065372096012
-0.004391517745150069 0.3514072226769997
-0.02101365586093337 0.3415065372096012
-0.004391517745150069 0.3415065372096012
0.028852758486416528 0.30190379534000744
-0.004391517745150069 0.29200310987260897
0.06209703471798313 0.32170516627480433
0.12858558718111632 0.32170516627480433
0.1618298634126829 0.31180448080740586
0.14520772529689963 0.29200310987260897
0.14520772529689963 0.23259899706821824
0.11196344906533302 0.21279762613342135
0.14520772529689963 0.2226983116008198
0.2116962777600328 0.2524003680030152
0.24494055399159942 0.21279762613342135
0.2116962777600328 0.19299625519862443
0.17845200152846621 0.16329419879642906
0.19507413964424952 0.16329419879642906
0.24494055399159942 0.18309556973122598
0.2948069683389493 0.2226983116008198
0.2948069683389493 0.17319488426382754
0.3114291064547326 0.17319488426382754
0.2948069683389493 0.15339351332903062
0.19507413964424952 0.12369145692683525
0.2615626921073827 0.1335921423942337
0.2615626921073827 0.1335921423942337
0.2948069683389493 0.15339351332903062
0.2948069683389493 0.1335921423942337
0.2948069683389493 0.09398940052463989
0.278184830223166 0.07418802958984298
0.3114291064547326 0.11379077145943679
0.2615626921073827 0.12369145692683525
0.2948069683389493 0.12369145692683525
0.3280512445705159 0.09398940052463989
0.3114291064547326 0.06428734412244452
0.278184830223166 0.02468460225285071
0.24494055399159942 0.05438665865504607
0.3280512445705159 0.10389008599203835
0.3114291064547326 0.08408871505724143
0.278184830223166 0.05438665865504607
0.2948069683389493 0.05438665865504607
0.2615626921073827 0.034585287720249165
0.2615626921073827 0.07418802958984298
0.278184830223166 0.12369145692683525
0.2948069683389493 0.11379077145943679
0.2615626921073827 0.08408871505724143
0.2116962777600328 0.06428734412244452
0.14520772529689963 0.05438665865504607
0.14520772529689963 0.08408871505724143
0.17845200152846621 0.10389008599203835
0.2116962777600328 0.10389008599203835
0.19507413964424952 0.10389008599203835
0.14520772529689963 0.06428734412244452
0.14520772529689963 0.06428734412244452
0.14520772529689963 0.07418802958984298
0.11196344906533302 0.10389008599203835
0.14520772529689963 0.08408871505724143
0.1618298634126829 0.06428734412244452
0.12858558718111632 0.06428734412244452
0.09534131094954972 0.07418802958984298
0.12858558718111632 0.11379077145943679
0.09534131094954972 0.14349282786163217
0.12858558718111632 0.12369145692683525
0.11196344906533302 0.12369145692683525
0.06209703471798313 0.10389008599203835
0.028852758486416528 0.08408871505724143
0.06209703471798313 0.10389008599203835
0.045474896602199825 0.11379077145943679
0.07871917283376642 0.11379077145943679
0.028852758486416528 0.12369145692683525
-0.004391517745150069 0.07418802958984298
-0.07088007020828327 0.08408871505724143
-0.05425793209249997 0.07418802958984298
-0.004391517745150069 0.11379077145943679
-0.02101365586093337 0.11379077145943679
-0.02101365586093337 0.09398940052463989
-0.07088007020828327 0.06428734412244452
-0.13736862267141645 0.06428734412244452
-0.15399076078719975 0.08408871505724143
-0.08750220832406656 0.10389008599203835
-0.10412434643984986 0.08408871505724143
-0.08750220832406656 0.07418802958984298
-0.10412434643984986 0.06428734412244452
-0.12074648455563317 0.05438665865504607
-0.12074648455563317 0.10389008599203835
-0.12074648455563317 0.10389008599203835
-0.12074648455563317 0.10389008599203835
-0.12074648455563317 0.09398940052463989
-0.17061289890298306 0.05438665865504607
-0.17061289890298306 0.05438665865504607
-0.15399076078719975 0.07418802958984298
-0.13736862267141645 0.07418802958984298
-0.20385717513454965 0.06428734412244452
-0.13736862267141645 0.07418802958984298
-0.15399076078719975 0.06428734412244452
-0.17061289890298306 0.02468460225285071
-0.17061289890298306 0.034585287720249165
-0.12074648455563317 0.05438665865504607
-0.10412434643984986 0.05438665865504607
-0.07088007020828327 0.02468460225285071
-0.12074648455563317 0.0048832313180537995
-0.13736862267141645 0.02468460225285071
-0.12074648455563317 0.034585287720249165
-0.05425793209249997 0.04448597318764762
-0.05425793209249997 0.06428734412244452
-0.05425793209249997 0.05438665865504607
-0.08750220832406656 0.02468460225285071
-0.12074648455563317 0.05438665865504607
-0.07088007020828327 0.05438665865504607
-0.03763579397671667 0.06428734412244452
-0.004391517745150069 0.06428734412244452
-0.004391517745150069 0.034585287720249165
-0.03763579397671667 0.014783916785452253
-0.05425793209249997 0.02468460225285071
0.028852758486416528 0.02468460225285071
-0.004391517745150069 0.02468460225285071
0.012230620370633228 0.014783916785452253
-0.02101365586093337 0.02468460225285071
-0.004391517745150069 0.0048832313180537995
-0.03763579397671667 -0.024818825084141564
-0.004391517745150069 0.014783916785452253
0.045474896602199825 0.02468460225285071
0.028852758486416528 0.0048832313180537995
0.028852758486416528 0.02468460225285071
0.045474896602199825 -0.005017454149344655
0.012230620370633228 0.014783916785452253
0.028852758486416528 0.02468460225285071
0.045474896602199825 0.05438665865504607
0.06209703471798313 0.04448597318764762
0.07871917283376642 0.02468460225285071
0.06209703471798313 0.02468460225285071
0.028852758486416528 0.014783916785452253
0.028852758486416528 0.02468460225285071
0.06209703471798313 0.04448597318764762
0.09534131094954972 0.02468460225285071
0.07871917283376642 0.0048832313180537995
0.06209703471798313 -0.005017454149344655
0.045474896602199825 -0.024818825084141564
0.06209703471798313 0.014783916785452253
0.07871917283376642 0.02468460225285071
0.09534131094954972 0.0048832313180537995
0.045474896602199825 -0.024818825084141564
0.09534131094954972 -0.04462019601893847
0.07871917283376642 -0.04462019601893847
0.07871917283376642 -0.005017454149344655
0.12858558718111632 0.02468460225285071
0.12858558718111632 0.0048832313180537995
0.14520772529689963 0.014783916785452253
0.06209703471798313 0.0048832313180537995
0.012230620370633228 0.014783916785452253
0.07871917283376642 0.014783916785452253
0.1618298634126829 0.04448597318764762
0.2116962777600328 0.02468460225285071
0.1618298634126829 0.02468460225285071
0.11196344906533302 -0.01491813961674311
0.07871917283376642 -0.03471951055154002
0.12858558718111632 -0.005017454149344655
0.1618298634126829 0.034585287720249165
0.1618298634126829 0.0048832313180537995
0.1618298634126829 -0.005017454149344655
0.12858558718111632 -0.024818825084141564
0.11196344906533302 -0.024818825084141564
0.11196344906533302 -0.005017454149344655
0.14520772529689963 0.0048832313180537995
0.14520772529689963 -0.01491813961674311
0.12858558718111632 -0.03471951055154002
0.09534131094954972 -0.03471951055154002
0.07871917283376642 -0.05452088148633693
0.09534131094954972 -0.01491813961674311
0.17845200152846621 0.014783916785452253
0.2116962777600328 0.0048832313180537995
0.1618298634126829 -0.01491813961674311
0.11196344906533302 -0.04462019601893847
0.12858558718111632 -0.03471951055154002
0.1618298634126829 0.0048832313180537995
0.1618298634126829 -0.005017454149344655
0.2116962777600328 -0.01491813961674311
0.1618298634126829 -0.04462019601893847
0.12858558718111632 -0.03471951055154002
0.045474896602199825 -0.05452088148633693
0.07871917283376642 -0.03471951055154002
0.12858558718111632 -0.01491813961674311
0.1618298634126829 -0.03471951055154002
0.1618298634126829 -0.03471951055154002
0.14520772529689963 -0.03471951055154002
0.09534131094954972 -0.05452088148633693
0.1618298634126829 -0.03471951055154002
0.1618298634126829 -0.005017454149344655
0.19507413964424952 -0.005017454149344655
0.12858558718111632 -0.024818825084141564
0.11196344906533302 -0.03471951055154002
0.07871917283376642 -0.03471951055154002
0.11196344906533302 -0.01491813961674311
0.17845200152846621 0.014783916785452253
0.1618298634126829 0.0048832313180537995
0.1618298634126829 -0.01491813961674311
0.11196344906533302 -0.04462019601893847
0.09534131094954972 -0.06442156695373538
0.14520772529689963 -0.05452088148633693
0.2283184158758161 0.0048832313180537995
0.19507413964424952 -0.024818825084141564
0.1618298634126829 -0.06442156695373538
0.17845200152846621 -0.07432225242113384
0.1618298634126829 -0.07432225242113384
0.17845200152846621 -0.05452088148633693
0.2116962777600328 -0.05452088148633693
0.24494055399159942 -0.05452088148633693
0.2615626921073827 -0.07432225242113384
0.24494055399159942 -0.04462019601893847
0.3114291064547326 -0.024818825084141564
0.3612955208020825 0.014783916785452253
0.3945397970336491 0.04448597318764762
0.444406211380999 0.04448597318764762
0.4610283494967823 0.034585287720249165
0.4610283494967823 0.0048832313180537995
0.47765048761256557 0.0048832313180537995
0.5773833163072654 -0.005017454149344655
0.6771161450019652 0.0048832313180537995
0.6937382831177484 -0.01491813961674311
0.7269825593493151 -0.03471951055154002
0.7269825593493151 -0.06442156695373538
0.7436046974650984 -0.07432225242113384
0.7436046974650984 -0.04462019601893847
0.8433375261597982 -0.03471951055154002
0.9264482167387147 -0.04462019601893847
0.9929367692018478 -0.05452088148633693
0.9763146310860645 -0.05452088148633693
0.9763146310860645 -0.05452088148633693
1.0261810454334144 -0.01491813961674311
1.0095589073176312 -0.01491813961674311
0.9763146310860645 -0.01491813961674311
0.7934711118124482 -0.024818825084141564
0.610627592538832 -0.06442156695373538
0.47765048761256557 -0.08422293788853229
0.3612955208020825 -0.05452088148633693
0.278184830223166 -0.05452088148633693
0.2116962777600328 -0.07432225242113384
0.045474896602199825 -0.11392499429072765
-0.05425793209249997 -0.13372636522552456
-0.03763579397671667 -0.13372636522552456
-0.02101365586093337 -0.13372636522552456
0.045474896602199825 -0.11392499429072765
0.045474896602199825 -0.12382567975812611
0.06209703471798313 -0.12382567975812611
0.045474896602199825 -0.12382567975812611
0.045474896602199825 -0.143627050692923
0.07871917283376642 -0.12382567975812611
0.045474896602199825 -0.09412362335593075
0.06209703471798313 -0.09412362335593075
0.028852758486416528 -0.09412362335593075
0.028852758486416528 -0.11392499429072765
0.012230620370633228 -0.12382567975812611
0.028852758486416528 -0.10402430882332919
0.06209703471798313 -0.09412362335593075
0.028852758486416528 -0.11392499429072765
-0.02101365586093337 -0.13372636522552456
-0.05425793209249997 -0.143627050692923
-0.07088007020828327 -0.15352773616032148
0.012230620370633228 -0.13372636522552456
0.06209703471798313 -0.11392499429072765
0.06209703471798313 -0.12382567975812611
0.045474896602199825 -0.16342842162771992
-0.03763579397671667 -0.16342842162771992
-0.03763579397671667 -0.17332910709511837
-0.004391517745150069 -0.15352773616032148
0.07871917283376642 -0.12382567975812611
0.09534131094954972 -0.143627050692923
0.045474896602199825 -0.13372636522552456
0.012230620370633228 -0.16342842162771992
0.012230620370633228 -0.143627050692923
0.028852758486416528 -0.143627050692923
0.06209703471798313 -0.13372636522552456
0.028852758486416528 -0.12382567975812611
-0.02101365586093337 -0.10402430882332919
-0.02101365586093337 -0.12382567975812611
-0.02101365586093337 -0.12382567975812611
-0.004391517745150069 -0.12382567975812611
0.06209703471798313 -0.22283253443211065
0.11196344906533302 -0.3416407600408921
0.2116962777600328 -0.46044898564967357
0.4610283494967823 -0.5891578967258535
0.8267153880440149 -0.7277674932694318
1.2921352552859473 -0.9158805171500024
1.7907993987594462 -1.1534969683675653
2.222974989769812 -1.3812127341177298
2.389196370927645 -1.5792264434656988
2.389196370927645 -1.6386305562700896
2.2562192660013785 -1.6287298708026912
2.4224406471592115 -1.6089284998678943
2.6219063045486113 -1.5792264434656988
2.8047498238222275 -1.5693257579983004
2.954349066864277 -1.5693257579983004
3.0208376193274105 -1.559425072530902
3.0873261717905436 -1.5297230161287065
3.17043686236946 -1.4901202742591129
3.336658243527293 -1.4307161614547221
3.453013210337776 -1.410914790519925
3.453013210337776 -1.410914790519925
3.353280381643076 -1.3515106777155343
3.12057044802211 -1.3119079358459407
2.7715055475906607 -1.2426031375741515
2.3227078184645116 -1.143596282900167
1.890532227454146 -1.0742914846283778
1.45835663644378 -1.0247880572913854
1.0261810454334144 -0.9950860008891901
0.4610283494967823 -0.8960791462152056
-0.20385717513454965 -0.8168736624760179
-0.7025213186080486 -0.6782640659324396
-1.1014526333868477 -0.6089592676606503
-1.4006511194709472 -0.5495551548562596
-1.4837618100498637 -0.5000517275192674
-1.3674068432393807 -0.4307469292474782
-1.1845633239657642 -0.33174007457349364
-1.0515862190394978 -0.24263390536690757
-1.001719804692148 -0.1931304780299153
-0.9186091141132315 -0.143627050692923
-0.9352312522290148 -0.09412362335593075
-0.8188762854185317 -0.03471951055154002
-0.6858991804922653 0.05438665865504607
-0.5529220755659989 0.10389008599203835
-0.5196777993344324 0.08408871505724143
-0.48643352310286575 0.08408871505724143
-0.48643352310286575 0.08408871505724143
-0.5196777993344324 0.08408871505724143
-0.48643352310286575 0.12369145692683525
-0.503055661218649 0.12369145692683525
-0.4199449706397325 0.1335921423942337
-0.45318924687129913 0.11379077145943679
-0.503055661218649 0.12369145692683525
-0.5362999374502156 0.12369145692683525
-0.5362999374502156 0.1335921423942337
-0.5362999374502156 0.17319488426382754
-0.503055661218649 0.14349282786163217
-0.5196777993344324 0.16329419879642906
-0.5362999374502156 0.14349282786163217
-0.5861663517975655 0.17319488426382754
-0.5695442136817822 0.17319488426382754
-0.5695442136817822 0.20289694066602287
-0.5529220755659989 0.21279762613342135
-0.6027884899133488 0.17319488426382754
-0.6027884899133488 0.17319488426382754
-0.6027884899133488 0.14349282786163217
-0.5695442136817822 0.16329419879642906
-0.5695442136817822 0.19299625519862443
-0.5362999374502156 0.19299625519862443
-0.5529220755659989 0.19299625519862443
-0.6027884899133488 0.16329419879642906
-0.6027884899133488 0.14349282786163217
-0.6027884899133488 0.16329419879642906
-0.6027884899133488 0.21279762613342135
-0.6027884899133488 0.18309556973122598
-0.669277042376482 0.16329419879642906
-0.6194106280291322 0.15339351332903062
-0.6027884899133488 0.16329419879642906
-0.6027884899133488 0.20289694066602287
-0.5695442136817822 0.21279762613342135
-0.6027884899133488 0.20289694066602287
-0.6194106280291322 0.21279762613342135
-0.5861663517975655 0.18309556973122598
-0.5861663517975655 0.19299625519862443
-0.5529220755659989 0.21279762613342135
-0.5362999374502156 0.2226983116008198
-0.5196777993344324 0.2424996825356167
-0.5196777993344324 0.21279762613342135
-0.5861663517975655 0.16329419879642906
-0.6194106280291322 0.17319488426382754
-0.5861663517975655 0.18309556973122598
-0.48643352310286575 0.19299625519862443
-0.5196777993344324 0.19299625519862443
-0.5362999374502156 0.17319488426382754
-0.5529220755659989 0.15339351332903062
-0.5861663517975655 0.16329419879642906
-0.5695442136817822 0.15339351332903062
-0.4698113849870824 0.17319488426382754
-0.4199449706397325 0.18309556973122598
-0.503055661218649 0.15339351332903062
-0.48643352310286575 0.16329419879642906
-0.48643352310286575 0.17319488426382754
-0.4199449706397325 0.17319488426382754
-0.38670069440816596 0.20289694066602287
-0.33683428006081606 0.20289694066602287
-0.33683428006081606 0.18309556973122598
-0.3700785562923826 0.1335921423942337
-0.33683428006081606 0.14349282786163217
-0.30359000382924944 0.15339351332903062
-0.28696786571346616 0.16329419879642906
-0.27034572759768283 0.14349282786163217
-0.30359000382924944 0.15339351332903062
-0.28696786571346616 0.10389008599203835
-0.30359000382924944 0.10389008599203835
-0.20385717513454965 0.17319488426382754
-0.18723503701876634 0.19299625519862443
-0.17061289890298306 0.14349282786163217
-0.15399076078719975 0.16329419879642906
-0.17061289890298306 0.11379077145943679
-0.17061289890298306 0.11379077145943679
-0.15399076078719975 0.14349282786163217
-0.10412434643984986 0.14349282786163217
-0.03763579397671667 0.15339351332903062
-0.05425793209249997 0.1335921423942337
-0.07088007020828327 0.10389008599203835
-0.08750220832406656 0.10389008599203835
-0.02101365586093337 0.10389008599203835
-0.004391517745150069 0.12369145692683525
-0.004391517745150069 0.08408871505724143
0.012230620370633228 0.04448597318764762
-0.004391517745150069 0.014783916785452253
-0.004391517745150069 -0.005017454149344655
-0.02101365586093337 -0.005017454149344655
0.06209703471798313 0.0048832313180537995
0.09534131094954972 -0.024818825084141564
0.06209703471798313 -0.024818825084141564
0.09534131094954972 -0.07432225242113384
0.045474896602199825 -0.09412362335593075
0.045474896602199825 -0.06442156695373538
0.12858558718111632 -0.07432225242113384
0.14520772529689963 -0.08422293788853229
0.14520772529689963 -0.10402430882332919
0.14520772529689963 -0.13372636522552456
0.12858558718111632 -0.10402430882332919
0.17845200152846621 -0.10402430882332919
0.2116962777600328 -0.10402430882332919
0.19507413964424952 -0.12382567975812611
0.17845200152846621 -0.12382567975812611
0.14520772529689963 -0.143627050692923
0.17845200152846621 -0.16342842162771992
0.1618298634126829 -0.143627050692923
0.2283184158758161 -0.15352773616032148
0.2116962777600328 -0.16342842162771992
0.19507413964424952 -0.1931304780299153
0.14520772529689963 -0.1931304780299153
0.11196344906533302 -0.18322979256251684
0.1618298634126829 -0.17332910709511837
0.17845200152846621 -0.18322979256251684
0.19507413964424952 -0.1931304780299153
0.17845200152846621 -0.20303116349731373
0.1618298634126829 -0.2327332198995091
0.17845200152846621 -0.1931304780299153
0.1618298634126829 -0.17332910709511837
0.19507413964424952 -0.17332910709511837
0.17845200152846621 -0.15352773616032148
0.17845200152846621 -0.2129318489647122
0.1618298634126829 -0.20303116349731373
0.12858558718111632 -0.17332910709511837
0.1618298634126829 -0.15352773616032148
0.19507413964424952 -0.16342842162771992
0.12858558718111632 -0.1931304780299153
0.11196344906533302 -0.2327332198995091
0.09534131094954972 -0.2327332198995091
0.07871917283376642 -0.2129318489647122
0.11196344906533302 -0.2129318489647122
0.17845200152846621 -0.2129318489647122
0.14520772529689963 -0.20303116349731373
0.09534131094954972 -0.2327332198995091
0.09534131094954972 -0.24263390536690757
0.045474896602199825 -0.22283253443211065
0.06209703471798313 -0.2129318489647122
0.06209703471798313 -0.1931304780299153
0.11196344906533302 -0.2129318489647122
0.045474896602199825 -0.2129318489647122
0.012230620370633228 -0.24263390536690757
-0.02101365586093337 -0.24263390536690757
-0.02101365586093337 -0.2129318489647122
-0.03763579397671667 -0.16342842162771992
-0.004391517745150069 -0.17332910709511837
-0.02101365586093337 -0.17332910709511837
-0.08750220832406656 -0.20303116349731373
-0.08750220832406656 -0.1931304780299153
-0.07088007020828327 -0.15352773616032148
-0.05425793209249997 -0.17332910709511837
-0.05425793209249997 -0.20303116349731373
-0.08750220832406656 -0.2129318489647122
-0.10412434643984986 -0.20303116349731373
-0.18723503701876634 -0.22283253443211065
-0.17061289890298306 -0.18322979256251684
-0.18723503701876634 -0.18322979256251684
-0.18723503701876634 -0.1931304780299153
-0.18723503701876634 -0.252534590834306
-0.20385717513454965 -0.2327332198995091
-0.22047931325033296 -0.22283253443211065
-0.20385717513454965 -0.2129318489647122
-0.22047931325033296 -0.1931304780299153
-0.18723503701876634 -0.2129318489647122
-0.23710145136611624 -0.2129318489647122
-0.27034572759768283 -0.22283253443211065
-0.30359000382924944 -0.22283253443211065
-0.23710145136611624 -0.1931304780299153
-0.23710145136611624 -0.18322979256251684
-0.25372358948189955 -0.20303116349731373
-0.25372358948189955 -0.22283253443211065
-0.27034572759768283 -0.252534590834306
-0.30359000382924944 -0.24263390536690757
-0.27034572759768283 -0.22283253443211065
-0.22047931325033296 -0.2129318489647122
-0.27034572759768283 -0.22283253443211065
-0.27034572759768283 -0.2327332198995091
-0.27034572759768283 -0.2723359617691029
-0.25372358948189955 -0.2822366472365014
-0.25372358948189955 -0.2723359617691029
-0.23710145136611624 -0.252534590834306
-0.22047931325033296 -0.2624352763017045
-0.22047931325033296 -0.2723359617691029
-0.22047931325033296 -0.29213733270389985
-0.27034572759768283 -0.2723359617691029
-0.23710145136611624 -0.252534590834306
-0.20385717513454965 -0.22283253443211065
-0.17061289890298306 -0.24263390536690757
-0.13736862267141645 -0.2822366472365014
-0.13736862267141645 -0.2723359617691029
-0.17061289890298306 -0.2624352763017045
-0.13736862267141645 -0.2822366472365014
-0.12074648455563317 -0.24263390536690757
-0.13736862267141645 -0.2624352763017045
-0.07088007020828327 -0.2822366472365014
-0.08750220832406656 -0.29213733270389985
-0.10412434643984986 -0.2822366472365014
-0.10412434643984986 -0.2624352763017045
-0.07088007020828327 -0.2723359617691029
-0.05425793209249997 -0.2624352763017045
-0.004391517745150069 -0.2723359617691029
-0.02101365586093337 -0.2822366472365014
-0.03763579397671667 -0.2822366472365014
-0.004391517745150069 -0.2822366472365014
-0.02101365586093337 -0.2624352763017045
0.028852758486416528 -0.252534590834306
0.028852758486416528 -0.2624352763017045
-0.02101365586093337 -0.29213733270389985
-0.10412434643984986 -0.29213733270389985
-0.02101365586093337 -0.24263390536690757
0.012230620370633228 -0.2327332198995091
0.045474896602199825 -0.2327332198995091
0.045474896602199825 -0.2624352763017045
0.06209703471798313 -0.2822366472365014
0.028852758486416528 -0.29213733270389985
0.045474896602199825 -0.2723359617691029
0.07871917283376642 -0.252534590834306
0.06209703471798313 -0.2723359617691029
0.07871917283376642 -0.2624352763017045
0.045474896602199825 -0.29213733270389985
0.012230620370633228 -0.3020380181712983
0.06209703471798313 -0.2723359617691029
0.07871917283376642 -0.2624352763017045
0.06209703471798313 -0.29213733270389985
0.09534131094954972 -0.2822366472365014
0.09534131094954972 -0.29213733270389985
0.06209703471798313 -0.2624352763017045
0.09534131094954972 -0.2624352763017045
0.12858558718111632 -0.22283253443211065
0.12858558718111632 -0.252534590834306
0.07871917283376642 -0.24263390536690757
0.09534131094954972 -0.2822366472365014
0.06209703471798313 -0.2624352763017045
0.09534131094954972 -0.2327332198995091
0.11196344906533302 -0.252534590834306
0.14520772529689963 -0.2327332198995091
0.12858558718111632 -0.2822366472365014
0.14520772529689963 -0.29213733270389985
0.09534131094954972 -0.29213733270389985
0.09534131094954972 -0.2723359617691029
0.1618298634126829 -0.252534590834306
0.19507413964424952 -0.252534590834306
0.17845200152846621 -0.2822366472365014
0.12858558718111632 -0.31193870363869675
0.09534131094954972 -0.2822366472365014
0.12858558718111632 -0.2723359617691029
0.19507413964424952 -0.2723359617691029
0.1618298634126829 -0.252534590834306
0.14520772529689963 -0.252534590834306
0.1618298634126829 -0.29213733270389985
0.11196344906533302 -0.2723359617691029
0.14520772529689963 -0.2327332198995091
0.1618298634126829 -0.24263390536690757
0.14520772529689963 -0.22283253443211065
0.17845200152846621 -0.2624352763017045
0.11196344906533302 -0.3020380181712983
0.06209703471798313 -0.3020380181712983
0.11196344906533302 -0.2624352763017045
0.14520772529689963 -0.2723359617691029
0.14520772529689963 -0.2624352763017045
0.1618298634126829 -0.2822366472365014
0.17845200152846621 -0.29213733270389985
0.12858558718111632 -0.2822366472365014
0.1618298634126829 -0.2822366472365014
0.1618298634126829 -0.2822366472365014
0.1618298634126829 -0.2723359617691029
0.17845200152846621 -0.29213733270389985
0.19507413964424952 -0.29213733270389985
0.12858558718111632 -0.2822366472365014
0.17845200152846621 -0.252534590834306
0.2116962777600328 -0.24263390536690757
0.17845200152846621 -0.252534590834306
0.1618298634126829 -0.2723359617691029
0.12858558718111632 -0.2723359617691029
0.14520772529689963 -0.2624352763017045
0.19507413964424952 -0.252534590834306
0.24494055399159942 -0.2624352763017045
0.24494055399159942 -0.252534590834306
0.19507413964424952 -0.2624352763017045
0.17845200152846621 -0.2822366472365014
0.17845200152846621 -0.29213733270389985
0.19507413964424952 -0.2723359617691029
0.17845200152846621 -0.2624352763017045
0.24494055399159942 -0.3020380181712983
0.19507413964424952 -0.29213733270389985
0.11196344906533302 -0.31193870363869675
0.12858558718111632 -0.29213733270389985
0.17845200152846621 -0.29213733270389985
0.2283184158758161 -0.2624352763017045
0.17845200152846621 -0.2624352763017045
0.24494055399159942 -0.2723359617691029
0.2116962777600328 -0.2723359617691029
0.17845200152846621 -0.2723359617691029
0.2116962777600328 -0.24263390536690757
0.2283184158758161 -0.22283253443211065
0.2615626921073827 -0.2327332198995091
0.2615626921073827 -0.24263390536690757
0.2615626921073827 -0.2723359617691029
0.2948069683389493 -0.2624352763017045
0.3280512445705159 -0.22283253443211065
0.3945397970336491 -0.2327332198995091
0.42778407326521567 -0.20303116349731373
0.4111619351494324 -0.2129318489647122
0.3779176589178658 -0.2327332198995091
0.3779176589178658 -0.2327332198995091
0.42778407326521567 -0.2129318489647122
0.5441390400756988 -0.20303116349731373
0.5940054544230486 -0.2129318489647122
0.6272497306546153 -0.2327332198995091
0.6604940068861819 -0.252534590834306
0.7103604212335318 -0.2624352763017045
0.7602268355808817 -0.2327332198995091
0.776848973696665 -0.2327332198995091
0.8599596642755815 -0.2129318489647122
0.8599596642755815 -0.22283253443211065
0.8765818023913647 -0.2327332198995091
0.893203940507148 -0.24263390536690757
0.943070354854498 -0.22283253443211065
0.9929367692018478 -0.20303116349731373
0.9763146310860645 -0.2327332198995091
0.9929367692018478 -0.2129318489647122
0.9264482167387147 -0.2624352763017045
0.8100932499282316 -0.2723359617691029
0.6771161450019652 -0.2723359617691029
0.5773833163072654 -0.252534590834306
0.4942726257283489 -0.2723359617691029
0.3779176589178658 -0.3020380181712983
0.2116962777600328 -0.31193870363869675
0.12858558718111632 -0.31193870363869675
0.045474896602199825 -0.29213733270389985
0.06209703471798313 -0.29213733270389985
0.045474896602199825 -0.2723359617691029
0.012230620370633228 -0.29213733270389985
0.028852758486416528 -0.29213733270389985
0.012230620370633228 -0.29213733270389985
0.09534131094954972 -0.2723359617691029
0.06209703471798313 -0.2723359617691029
0.06209703471798313 -0.2624352763017045
0.028852758486416528 -0.3020380181712983
0.028852758486416528 -0.3020380181712983
-0.02101365586093337 -0.3218393891060952
-0.004391517745150069 -0.3020380181712983
-0.004391517745150069 -0.3020380181712983
0.028852758486416528 -0.3020380181712983
0.012230620370633228 -0.3020380181712983
0.012230620370633228 -0.3416407600408921
-0.004391517745150069 -0.3020380181712983
0.012230620370633228 -0.2723359617691029
0.045474896602199825 -0.29213733270389985
0.09534131094954972 -0.29213733270389985
0.012230620370633228 -0.33174007457349364
-0.004391517745150069 -0.3416407600408921
-0.05425793209249997 -0.3218393891060952
0.028852758486416528 -0.3020380181712983
0.045474896602199825 -0.2822366472365014
0.07871917283376642 -0.2822366472365014
0.07871917283376642 -0.2822366472365014
0.045474896602199825 -0.33174007457349364
0.045474896602199825 -0.29213733270389985
0.045474896602199825 -0.2624352763017045
0.07871917283376642 -0.31193870363869675
0.06209703471798313 -0.31193870363869675
0.09534131094954972 -0.3218393891060952
0.07871917283376642 -0.33174007457349364
0.06209703471798313 -0.33174007457349364
0.07871917283376642 -0.3020380181712983
0.09534131094954972 -0.3218393891060952
0.11196344906533302 -0.29213733270389985
0.07871917283376642 -0.3218393891060952
0.07871917283376642 -0.33174007457349364
0.07871917283376642 -0.3713428164430875
0.09534131094954972 -0.4307469292474782
0.17845200152846621 -0.5297537839214628
0.3114291064547326 -0.6287606385954473
0.4942726257283489 -0.7376681787368303
0.8100932499282316 -0.8960791462152056
1.1425360122438974 -1.0643907991609793
1.60795587948583 -1.2723051939763468
2.106620022959329 -1.450517532389519
2.3725742328118615 -1.6287298708026912
2.4390627852749946 -1.7178360400092774
2.339329956580295 -1.7475380964114726
2.389196370927645 -1.7178360400092774
2.5720398902012613 -1.6980346690744803
2.7382612713590944 -1.7079353545418787
2.8878605144011438 -1.688133983607082
3.004215481211627 -1.6782332981396835
3.0873261717905436 -1.6782332981396835
3.0873261717905436 -1.6188291853352927
3.17043686236946 -1.599027814400496
3.286791829179943 -1.559425072530902
3.3699025197588597 -1.5198223306613081
3.336658243527293 -1.5099216451939097
3.27016969106416 -1.5099216451939097
3.054081895558977 -1.4010141050525267
2.6883948570117444 -1.3020072503785423
2.222974989769812 -1.2327024521067529
1.8074215368752296 -1.1534969683675653
1.4084902220964304 -1.1138942264979717
0.9596924929702813 -1.0742914846283778
0.3612955208020825 -0.9752846299543931
-0.28696786571346616 -0.8663770898130102
-0.7025213186080486 -0.7574695496716272
-1.0349640809237146 -0.6782640659324396
-1.3009182907762473 -0.6584626949976427
-1.3840289813551638 -0.5990585821932519
-1.2676740145446808 -0.5396544693888612
-1.1180747715026311 -0.48025035658447046
-0.9684755284605814 -0.3812435019104859
-0.9186091141132315 -0.3218393891060952
-0.8687426997658816 -0.3218393891060952
-0.8188762854185317 -0.2822366472365014
-0.8022541473027484 -0.2129318489647122
-0.6526549042606987 -0.143627050692923
-0.5362999374502156 -0.10402430882332919
-0.48643352310286575 -0.07432225242113384
-0.4698113849870824 -0.07432225242113384
-0.43656710875551585 -0.08422293788853229
-0.45318924687129913 -0.06442156695373538
-0.4199449706397325 -0.024818825084141564
-0.4199449706397325 0.0048832313180537995
-0.45318924687129913 0.014783916785452253
-0.48643352310286575 -0.005017454149344655
-0.4698113849870824 -0.024818825084141564
-0.45318924687129913 -0.005017454149344655
-0.4199449706397325 0.0048832313180537995
-0.40332283252394924 0.02468460225285071
-0.40332283252394924 0.034585287720249165
-0.40332283252394924 -0.005017454149344655
-0.4698113849870824 -0.005017454149344655
-0.48643352310286575 0.0048832313180537995
-0.4698113849870824 0.034585287720249165
-0.43656710875551585 0.05438665865504607
-0.43656710875551585 0.034585287720249165
-0.48643352310286575 0.0048832313180537995
-0.5196777993344324 -0.024818825084141564
-0.5362999374502156 0.0048832313180537995
-0.5362999374502156 0.014783916785452253
-0.5196777993344324 0.04448597318764762
-0.4698113849870824 0.04448597318764762
-0.48643352310286575 0.034585287720249165
-0.503055661218649 0.02468460225285071
-0.5196777993344324 0.034585287720249165
-0.503055661218649 0.05438665865504607
-0.48643352310286575 0.08408871505724143
-0.4698113849870824 0.06428734412244452
-0.5196777993344324 0.06428734412244452
-0.503055661218649 0.04448597318764762
-0.5362999374502156 0.05438665865504607
-0.5196777993344324 0.034585287720249165
-0.48643352310286575 0.05438665865504607
-0.4698113849870824 0.05438665865504607
-0.45318924687129913 0.02468460225285071
-0.48643352310286575 0.034585287720249165
-0.5196777993344324 0.034585287720249165
-0.45318924687129913 0.07418802958984298
-0.43656710875551585 0.08408871505724143
-0.40332283252394924 0.07418802958984298
-0.43656710875551585 0.04448597318764762
-0.503055661218649 0.0048832313180537995
-0.503055661218649 0.05438665865504607
-0.4698113849870824 0.06428734412244452
-0.4199449706397325 0.09398940052463989
-0.4199449706397325 0.10389008599203835
-0.43656710875551585 0.07418802958984298
-0.4199449706397325 0.05438665865504607
-0.40332283252394924 0.034585287720249165
-0.40332283252394924 0.08408871505724143
-0.35345641817659934 0.11379077145943679
-0.33683428006081606 0.09398940052463989
-0.3202121419450327 0.09398940052463989
-0.30359000382924944 0.09398940052463989
-0.28696786571346616 0.06428734412244452
-0.23710145136611624 0.09398940052463989
-0.20385717513454965 0.08408871505724143
-0.20385717513454965 0.09398940052463989
-0.22047931325033296 0.08408871505724143
-0.25372358948189955 0.034585287720249165
-0.22047931325033296 0.07418802958984298
-0.23710145136611624 0.08408871505724143
-0.18723503701876634 0.07418802958984298
-0.15399076078719975 0.09398940052463989
-0.13736862267141645 0.07418802958984298
-0.12074648455563317 0.034585287720249165
-0.13736862267141645 0.06428734412244452
-0.08750220832406656 0.08408871505724143
-0.07088007020828327 0.07418802958984298
0.012230620370633228 0.06428734412244452
-0.004391517745150069 0.0048832313180537995
-0.02101365586093337 -0.03471951055154002
-0.02101365586093337 -0.005017454149344655
-0.004391517745150069 0.0048832313180537995
0.07871917283376642 -0.01491813961674311
0.07871917283376642 -0.024818825084141564
0.06209703471798313 -0.07432225242113384
0.045474896602199825 -0.09412362335593075
0.045474896602199825 -0.10402430882332919
0.12858558718111632 -0.11392499429072765
0.09534131094954972 -0.07432225242113384
0.14520772529689963 -0.08422293788853229
0.1618298634126829 -0.11392499429072765
0.1618298634126829 -0.143627050692923
0.14520772529689963 -0.13372636522552456
0.2116962777600328 -0.15352773616032148
0.2116962777600328 -0.143627050692923
0.24494055399159942 -0.143627050692923
0.24494055399159942 -0.2129318489647122
0.17845200152846621 -0.22283253443211065
0.19507413964424952 -0.20303116349731373
0.19507413964424952 -0.2129318489647122
0.24494055399159942 -0.20303116349731373
0.2283184158758161 -0.22283253443211065
0.24494055399159942 -0.2723359617691029
0.24494055399159942 -0.3020380181712983
0.19507413964424952 -0.2822366472365014
0.2283184158758161 -0.2624352763017045
0.2283184158758161 -0.2327332198995091
0.24494055399159942 -0.2327332198995091
0.2615626921073827 -0.24263390536690757
0.2116962777600328 -0.2624352763017045
0.2615626921073827 -0.2624352763017045
0.2116962777600328 -0.2129318489647122
0.2283184158758161 -0.20303116349731373
0.2283184158758161 -0.20303116349731373
0.2116962777600328 -0.22283253443211065
0.2116962777600328 -0.252534590834306
0.14520772529689963 -0.24263390536690757
0.19507413964424952 -0.22283253443211065
0.19507413964424952 -0.2327332198995091
0.2283184158758161 -0.22283253443211065
0.2116962777600328 -0.2723359617691029
0.17845200152846621 -0.3218393891060952
0.1618298634126829 -0.3020380181712983
0.14520772529689963 -0.2822366472365014
0.1618298634126829 -0.2822366472365014
0.14520772529689963 -0.2723359617691029
0.14520772529689963 -0.2822366472365014
0.07871917283376642 -0.29213733270389985
0.09534131094954972 -0.2822366472365014
0.11196344906533302 -0.2624352763017045
0.14520772529689963 -0.24263390536690757
0.07871917283376642 -0.24263390536690757
0.045474896602199825 -0.24263390536690757
0.045474896602199825 -0.2624352763017045
0.028852758486416528 -0.2624352763017045
0.028852758486416528 -0.2624352763017045
0.045474896602199825 -0.22283253443211065
0.045474896602199825 -0.2327332198995091
0.012230620370633228 -0.2624352763017045
-0.05425793209249997 -0.29213733270389985
-0.03763579397671667 -0.2822366472365014
-0.03763579397671667 -0.252534590834306
-0.03763579397671667 -0.24263390536690757
-0.004391517745150069 -0.24263390536690757
-0.03763579397671667 -0.2723359617691029
-0.12074648455563317 -0.2822366472365014
-0.13736862267141645 -0.2723359617691029
-0.15399076078719975 -0.2327332198995091
-0.12074648455563317 -0.22283253443211065
-0.12074648455563317 -0.24263390536690757
-0.15399076078719975 -0.2624352763017045
-0.17061289890298306 -0.2624352763017045
-0.17061289890298306 -0.2624352763017045
-0.17061289890298306 -0.24263390536690757
-0.18723503701876634 -0.2327332198995091
-0.22047931325033296 -0.2624352763017045
-0.25372358948189955 -0.2723359617691029
-0.23710145136611624 -0.31193870363869675
-0.20385717513454965 -0.2822366472365014
-0.20385717513454965 -0.2723359617691029
-0.20385717513454965 -0.2624352763017045
-0.23710145136611624 -0.2624352763017045
-0.23710145136611624 -0.31193870363869675
-0.23710145136611624 -0.3218393891060952
-0.25372358948189955 -0.3020380181712983
-0.25372358948189955 -0.2723359617691029
-0.20385717513454965 -0.2723359617691029
-0.22047931325033296 -0.2723359617691029
-0.18723503701876634 -0.2822366472365014
-0.27034572759768283 -0.3218393891060952
-0.23710145136611624 -0.31193870363869675
-0.20385717513454965 -0.2723359617691029
-0.13736862267141645 -0.2822366472365014
-0.17061289890298306 -0.29213733270389985
-0.15399076078719975 -0.3218393891060952
-0.18723503701876634 -0.3515414455082906
-0.23710145136611624 -0.31193870363869675
-0.18723503701876634 -0.3020380181712983
-0.12074648455563317 -0.31193870363869675
-0.10412434643984986 -0.31193870363869675
-0.12074648455563317 -0.3416407600408921
-0.17061289890298306 -0.3713428164430875
-0.17061289890298306 -0.3416407600408921
-0.12074648455563317 -0.33174007457349364
-0.07088007020828327 -0.3218393891060952
-0.02101365586093337 -0.33174007457349364
-0.05425793209249997 -0.33174007457349364
-0.12074648455563317 -0.361442130975689
-0.10412434643984986 -0.3416407600408921
-0.03763579397671667 -0.33174007457349364
-0.03763579397671667 -0.3218393891060952
-0.03763579397671667 -0.3218393891060952
-0.004391517745150069 -0.3416407600408921
-0.004391517745150069 -0.33174007457349364
-0.02101365586093337 -0.3713428164430875
0.012230620370633228 -0.33174007457349364
0.028852758486416528 -0.33174007457349364
0.045474896602199825 -0.3515414455082906
-0.004391517745150069 -0.3515414455082906
-0.03763579397671667 -0.39114418737788437
-0.07088007020828327 -0.3713428164430875
0.028852758486416528 -0.361442130975689
0.06209703471798313 -0.361442130975689
0.028852758486416528 -0.33174007457349364
-0.03763579397671667 -0.3515414455082906
-0.03763579397671667 -0.3812435019104859
-0.02101365586093337 -0.3515414455082906
0.045474896602199825 -0.3515414455082906
0.12858558718111632 -0.33174007457349364
0.09534131094954972 -0.33174007457349364
0.028852758486416528 -0.33174007457349364
0.028852758486416528 -0.3812435019104859
0.012230620370633228 -0.3713428164430875
0.045474896602199825 -0.3515414455082906
0.09534131094954972 -0.3416407600408921
0.07871917283376642 -0.3515414455082906
0.045474896602199825 -0.3713428164430875
0.012230620370633228 -0.39114418737788437
0.012230620370633228 -0.39114418737788437
0.06209703471798313 -0.3713428164430875
0.12858558718111632 -0.361442130975689
0.09534131094954972 -0.3713428164430875
0.06209703471798313 -0.3812435019104859
0.028852758486416528 -0.40104487284528284
-0.004391517745150069 -0.39114418737788437
0.06209703471798313 -0.361442130975689
0.11196344906533302 -0.3416407600408921
0.12858558718111632 -0.3515414455082906
0.07871917283376642 -0.3713428164430875
0.06209703471798313 -0.3713428164430875
0.06209703471798313 -0.3713428164430875
0.11196344906533302 -0.3416407600408921
0.11196344906533302 -0.3713428164430875
0.06209703471798313 -0.3416407600408921
0.11196344906533302 -0.39114418737788437
0.045474896602199825 -0.39114418737788437
0.06209703471798313 -0.39114418737788437
0.09534131094954972 -0.3812435019104859
0.09534131094954972 -0.3713428164430875
0.11196344906533302 -0.361442130975689
0.07871917283376642 -0.3812435019104859
0.028852758486416528 -0.42084624378007973
0.07871917283376642 -0.40104487284528284
0.11196344906533302 -0.3713428164430875
0.12858558718111632 -0.361442130975689
0.1618298634126829 -0.3416407600408921
0.11196344906533302 -0.3713428164430875
0.11196344906533302 -0.3713428164430875
0.09534131094954972 -0.3713428164430875
0.12858558718111632 -0.33174007457349364
0.1618298634126829 -0.3218393891060952
0.17845200152846621 -0.33174007457349364
0.1618298634126829 -0.33174007457349364
0.14520772529689963 -0.39114418737788437
0.12858558718111632 -0.3812435019104859
0.11196344906533302 -0.361442130975689
0.12858558718111632 -0.3416407600408921
0.14520772529689963 -0.3713428164430875
0.045474896602199825 -0.39114418737788437
0.028852758486416528 -0.3812435019104859
0.11196344906533302 -0.39114418737788437
0.14520772529689963 -0.3812435019104859
0.12858558718111632 -0.3812435019104859
0.11196344906533302 -0.361442130975689
0.14520772529689963 -0.3713428164430875
0.09534131094954972 -0.3812435019104859
0.09534131094954972 -0.3812435019104859
0.17845200152846621 -0.3515414455082906
0.1618298634126829 -0.33174007457349364
0.14520772529689963 -0.361442130975689
0.11196344906533302 -0.361442130975689
0.09534131094954972 -0.3812435019104859
0.09534131094954972 -0.3713428164430875
0.09534131094954972 -0.361442130975689
0.1618298634126829 -0.3416407600408921
0.17845200152846621 -0.3515414455082906
0.19507413964424952 -0.361442130975689
0.14520772529689963 -0.361442130975689
0.12858558718111632 -0.3713428164430875
0.24494055399159942 -0.3218393891060952
0.2948069683389493 -0.3416407600408921
0.3114291064547326 -0.3218393891060952
0.3280512445705159 -0.3515414455082906
0.3114291064547326 -0.361442130975689
0.3280512445705159 -0.33174007457349364
0.3779176589178658 -0.3020380181712983
0.42778407326521567 -0.2822366472365014
0.4610283494967823 -0.2822366472365014
0.4942726257283489 -0.31193870363869675
0.5940054544230486 -0.3020380181712983
0.6438718687703986 -0.3218393891060952
0.6937382831177484 -0.3020380181712983
0.776848973696665 -0.29213733270389985
0.8100932499282316 -0.29213733270389985
0.7934711118124482 -0.3416407600408921
0.8267153880440149 -0.3515414455082906
0.8267153880440149 -0.361442130975689
0.8599596642755815 -0.3416407600408921
0.9596924929702813 -0.31193870363869675
1.0095589073176312 -0.33174007457349364
0.9929367692018478 -0.3416407600408921
0.9596924929702813 -0.3515414455082906
0.9098260786229313 -0.3416407600408921
0.893203940507148 -0.33174007457349364
0.8765818023913647 -0.33174007457349364
0.6771161450019652 -0.33174007457349364
0.5441390400756988 -0.361442130975689
0.3945397970336491 -0.361442130975689
0.278184830223166 -0.3416407600408921
0.2283184158758161 -0.33174007457349364
0.12858558718111632 -0.3416407600408921
0.012230620370633228 -0.3515414455082906
-0.03763579397671667 -0.3812435019104859
-0.07088007020828327 -0.42084624378007973
-0.03763579397671667 -0.39114418737788437
0.012230620370633228 -0.3812435019104859
0.07871917283376642 -0.40104487284528284
0.06209703471798313 -0.3713428164430875
0.045474896602199825 -0.42084624378007973
-0.004391517745150069 -0.40104487284528284
-0.03763579397671667 -0.41094555831268126
0.012230620370633228 -0.41094555831268126
0.07871917283376642 -0.39114418737788437
0.09534131094954972 -0.40104487284528284
0.012230620370633228 -0.41094555831268126
-0.004391517745150069 -0.4307469292474782
-0.004391517745150069 -0.42084624378007973
0.07871917283376642 -0.3812435019104859
0.07871917283376642 -0.3713428164430875
0.09534131094954972 -0.39114418737788437
0.06209703471798313 -0.42084624378007973
0.012230620370633228 -0.42084624378007973
-0.004391517745150069 -0.41094555831268126
0.045474896602199825 -0.39114418737788437
0.045474896602199825 -0.39114418737788437
0.06209703471798313 -0.39114418737788437
0.045474896602199825 -0.4307469292474782
0.045474896602199825 -0.4406476147148766
-0.004391517745150069 -0.4505483001822751
0.012230620370633228 -0.42084624378007973
0.07871917283376642 -0.41094555831268126
0.07871917283376642 -0.42084624378007973
0.06209703471798313 -0.4505483001822751
0.012230620370633228 -0.470349671117072
0.028852758486416528 -0.4307469292474782
0.028852758486416528 -0.3713428164430875
0.012230620370633228 -0.3713428164430875
0.06209703471798313 -0.3812435019104859
0.09534131094954972 -0.46044898564967357
0.06209703471798313 -0.5594558403236581
0.19507413964424952 -0.6683633804650411
0.444406211380999 -0.7871716060738225
0.8100932499282316 -0.8960791462152056
1.2588909790543805 -1.103993541030573
1.6910665700647465 -1.3515106777155343
2.106620022959329 -1.599027814400496
2.3559520946960784 -1.7376374109440742
2.3725742328118615 -1.7871408382810665
2.3725742328118615 -1.7871408382810665
2.5387956139696946 -1.7475380964114726
2.7548834094748775 -1.7673394673462695
2.8546162381695774 -1.757438781878871
2.9875933430958437 -1.7376374109440742
3.0873261717905436 -1.6782332981396835
3.2036811386010267 -1.6386305562700896
3.27016969106416 -1.6188291853352927
3.353280381643076 -1.5792264434656988
3.436391072221993 -1.5693257579983004
3.386524657874643 -1.5198223306613081
3.236925414832593 -1.4307161614547221
2.9211047906327106 -1.361411363182933
2.4224406471592115 -1.2822058794437452
1.8739100893383627 -1.2228017666393545
1.3752459458648638 -1.1732983393023622
0.8765818023913647 -1.0940928555631746
0.24494055399159942 -0.9851853154217917
-0.38670069440816596 -0.8960791462152056
-0.9850976665763647 -0.7970722915412211
-1.3175404288920307 -0.7574695496716272
-1.3840289813551638 -0.6683633804650411
-1.2011854620815476 -0.5891578967258535
-0.9684755284605814 -0.5198530984540642
-0.8853648378816649 -0.4406476147148766
-0.9019869759974481 -0.361442130975689
-0.8022541473027484 -0.29213733270389985
-0.7025213186080486 -0.2624352763017045
-0.6027884899133488 -0.1931304780299153
-0.5196777993344324 -0.16342842162771992
-0.43656710875551585 -0.16342842162771992
-0.38670069440816596 -0.11392499429072765
-0.4199449706397325 -0.12382567975812611
-0.45318924687129913 -0.15352773616032148
-0.4698113849870824 -0.12382567975812611
-0.4698113849870824 -0.11392499429072765
-0.43656710875551585 -0.09412362335593075
-0.4698113849870824 -0.09412362335593075
-0.4698113849870824 -0.12382567975812611
-0.4698113849870824 -0.15352773616032148
-0.48643352310286575 -0.12382567975812611
-0.48643352310286575 -0.09412362335593075
-0.4698113849870824 -0.08422293788853229
-0.45318924687129913 -0.06442156695373538
-0.4698113849870824 -0.07432225242113384
-0.503055661218649 -0.07432225242113384
-0.5529220755659989 -0.08422293788853229
-0.5362999374502156 -0.04462019601893847
-0.503055661218649 -0.04462019601893847
-0.503055661218649 -0.024818825084141564
-0.503055661218649 -0.06442156695373538
-0.5362999374502156 -0.08422293788853229
-0.5529220755659989 -0.07432225242113384
-0.5362999374502156 -0.04462019601893847
-0.5196777993344324 -0.01491813961674311
-0.48643352310286575 -0.024818825084141564
-0.5362999374502156 -0.03471951055154002
-0.5861663517975655 -0.07432225242113384
-0.5695442136817822 -0.05452088148633693
-0.5362999374502156 -0.03471951055154002
-0.5196777993344324 -0.04462019601893847
-0.5695442136817822 -0.04462019601893847
-0.5861663517975655 -0.07432225242113384
-0.5861663517975655 -0.04462019601893847
-0.5695442136817822 -0.005017454149344655
-0.5362999374502156 -0.024818825084141564
-0.48643352310286575 -0.005017454149344655
-0.43656710875551585 0.0048832313180537995
-0.503055661218649 -0.01491813961674311
-0.5529220755659989 -0.04462019601893847
-0.5695442136817822 -0.024818825084141564
-0.503055661218649 0.0048832313180537995
-0.48643352310286575 0.0048832313180537995
-0.43656710875551585 -0.005017454149344655
-0.45318924687129913 -0.005017454149344655
-0.45318924687129913 -0.024818825084141564
-0.48643352310286575 -0.024818825084141564
-0.45318924687129913 0.02468460225285071
-0.38670069440816596 0.05438665865504607
-0.38670069440816596 0.02468460225285071
-0.38670069440816596 -0.005017454149344655
-0.40332283252394924 0.014783916785452253
-0.40332283252394924 0.034585287720249165
-0.33683428006081606 0.04448597318764762
-0.3202121419450327 0.04448597318764762
-0.3202121419450327 0.05438665865504607
-0.35345641817659934 0.02468460225285071
-0.3202121419450327 0.014783916785452253
-0.33683428006081606 0.04448597318764762
-0.27034572759768283 0.034585287720249165
-0.23710145136611624 0.034585287720249165
-0.22047931325033296 0.034585287720249165
-0.23710145136611624 -0.01491813961674311
-0.20385717513454965 -0.024818825084141564
-0.20385717513454965 -0.005017454149344655
-0.15399076078719975 -0.01491813961674311
-0.12074648455563317 -0.005017454149344655
-0.10412434643984986 -0.01491813961674311
-0.12074648455563317 -0.03471951055154002
-0.12074648455563317 -0.06442156695373538
-0.08750220832406656 -0.04462019601893847
-0.07088007020828327 -0.04462019601893847
-0.004391517745150069 -0.04462019601893847
0.028852758486416528 -0.05452088148633693
0.028852758486416528 -0.05452088148633693
0.012230620370633228 -0.08422293788853229
0.028852758486416528 -0.10402430882332919
0.06209703471798313 -0.09412362335593075
0.11196344906533302 -0.11392499429072765
0.11196344906533302 -0.12382567975812611
0.11196344906533302 -0.15352773616032148
0.12858558718111632 -0.17332910709511837
0.09534131094954972 -0.18322979256251684
0.12858558718111632 -0.16342842162771992
0.2116962777600328 -0.18322979256251684
0.2283184158758161 -0.1931304780299153
0.19507413964424952 -0.2129318489647122
0.17845200152846621 -0.2822366472365014
0.19507413964424952 -0.24263390536690757
0.19507413964424952 -0.2327332198995091
0.2116962777600328 -0.22283253443211065
0.2283184158758161 -0.2327332198995091
0.2116962777600328 -0.252534590834306
0.1618298634126829 -0.252534590834306
0.14520772529689963 -0.252534590834306
0.17845200152846621 -0.2327332198995091
0.19507413964424952 -0.22283253443211065
0.2283184158758161 -0.24263390536690757
0.19507413964424952 -0.252534590834306
0.17845200152846621 -0.2822366472365014
0.19507413964424952 -0.2624352763017045
0.2116962777600328 -0.22283253443211065
0.24494055399159942 -0.2129318489647122
0.2615626921073827 -0.2327332198995091
0.17845200152846621 -0.2624352763017045
0.14520772529689963 -0.2822366472365014
0.12858558718111632 -0.2624352763017045
0.1618298634126829 -0.2327332198995091
0.2116962777600328 -0.2129318489647122
0.2116962777600328 -0.2327332198995091
0.14520772529689963 -0.2327332198995091
0.11196344906533302 -0.252534590834306
0.09534131094954972 -0.24263390536690757
0.12858558718111632 -0.2129318489647122
0.1618298634126829 -0.2327332198995091
0.12858558718111632 -0.2624352763017045
0.09534131094954972 -0.2822366472365014
0.045474896602199825 -0.3218393891060952
0.028852758486416528 -0.29213733270389985
0.06209703471798313 -0.29213733270389985
0.09534131094954972 -0.2822366472365014
0.09534131094954972 -0.29213733270389985
0.028852758486416528 -0.29213733270389985
0.028852758486416528 -0.2822366472365014
0.045474896602199825 -0.29213733270389985
0.012230620370633228 -0.252534590834306
0.028852758486416528 -0.2624352763017045
0.028852758486416528 -0.24263390536690757
-0.02101365586093337 -0.2822366472365014
-0.08750220832406656 -0.2723359617691029
-0.05425793209249997 -0.2822366472365014
-0.07088007020828327 -0.22283253443211065
-0.05425793209249997 -0.2129318489647122
-0.02101365586093337 -0.252534590834306
-0.08750220832406656 -0.24263390536690757
-0.10412434643984986 -0.2624352763017045
-0.10412434643984986 -0.252534590834306
-0.13736862267141645 -0.22283253443211065
-0.12074648455563317 -0.22283253443211065
-0.15399076078719975 -0.252534590834306
-0.18723503701876634 -0.2822366472365014
-0.18723503701876634 -0.2822366472365014
-0.23710145136611624 -0.2624352763017045
-0.23710145136611624 -0.2624352763017045
-0.20385717513454965 -0.24263390536690757
-0.22047931325033296 -0.2723359617691029
-0.27034572759768283 -0.2723359617691029
-0.30359000382924944 -0.2822366472365014
-0.28696786571346616 -0.2822366472365014
-0.23710145136611624 -0.2624352763017045
-0.25372358948189955 -0.24263390536690757
-0.27034572759768283 -0.24263390536690757
-0.30359000382924944 -0.2327332198995091
-0.30359000382924944 -0.2723359617691029
-0.35345641817659934 -0.252534590834306
-0.28696786571346616 -0.252534590834306
-0.22047931325033296 -0.252534590834306
-0.27034572759768283 -0.2723359617691029
-0.27034572759768283 -0.2723359617691029
-0.28696786571346616 -0.29213733270389985
-0.30359000382924944 -0.2723359617691029
-0.22047931325033296 -0.24263390536690757
-0.20385717513454965 -0.2723359617691029
-0.17061289890298306 -0.2723359617691029
-0.17061289890298306 -0.29213733270389985
-0.20385717513454965 -0.3218393891060952
-0.23710145136611624 -0.29213733270389985
-0.20385717513454965 -0.29213733270389985
-0.18723503701876634 -0.3020380181712983
-0.18723503701876634 -0.29213733270389985
-0.20385717513454965 -0.29213733270389985
-0.15399076078719975 -0.3020380181712983
-0.15399076078719975 -0.2822366472365014
-0.13736862267141645 -0.252534590834306
-0.10412434643984986 -0.2624352763017045
-0.08750220832406656 -0.2624352763017045
-0.13736862267141645 -0.3020380181712983
-0.15399076078719975 -0.29213733270389985
-0.13736862267141645 -0.29213733270389985
-0.08750220832406656 -0.2822366472365014
-0.05425793209249997 -0.31193870363869675
-0.05425793209249997 -0.2822366472365014
-0.07088007020828327 -0.31193870363869675
-0.03763579397671667 -0.33174007457349364
-0.13736862267141645 -0.31193870363869675
-0.12074648455563317 -0.29213733270389985
-0.03763579397671667 -0.29213733270389985
-0.02101365586093337 -0.3020380181712983
-0.05425793209249997 -0.3020380181712983
-0.03763579397671667 -0.29213733270389985
-0.05425793209249997 -0.2822366472365014
-0.004391517745150069 -0.2624352763017045
-0.004391517745150069 -0.2624352763017045
-0.004391517745150069 -0.2624352763017045
-0.05425793209249997 -0.29213733270389985
-0.02101365586093337 -0.2822366472365014
-0.004391517745150069 -0.3020380181712983
0.012230620370633228 -0.2822366472365014
0.06209703471798313 -0.2723359617691029
0.045474896602199825 -0.2822366472365014
0.028852758486416528 -0.3218393891060952
0.028852758486416528 -0.33174007457349364
0.012230620370633228 -0.33174007457349364
0.012230620370633228 -0.29213733270389985
0.045474896602199825 -0.29213733270389985
0.06209703471798313 -0.2723359617691029
0.06209703471798313 -0.31193870363869675
0.012230620370633228 -0.3020380181712983
0.028852758486416528 -0.3020380181712983
0.045474896602199825 -0.2822366472365014
0.07871917283376642 -0.2723359617691029
0.07871917283376642 -0.252534590834306
0.028852758486416528 -0.29213733270389985
0.06209703471798313 -0.3020380181712983
0.045474896602199825 -0.29213733270389985
0.028852758486416528 -0.2624352763017045
0.07871917283376642 -0.29213733270389985
0.045474896602199825 -0.2822366472365014
0.012230620370633228 -0.3218393891060952
0.012230620370633228 -0.31193870363869675
0.045474896602199825 -0.3218393891060952
0.09534131094954972 -0.31193870363869675
0.09534131094954972 -0.31193870363869675
0.07871917283376642 -0.31193870363869675
0.06209703471798313 -0.3218393891060952
0.06209703471798313 -0.33174007457349364
0.028852758486416528 -0.31193870363869675
0.07871917283376642 -0.29213733270389985
0.09534131094954972 -0.2723359617691029
0.09534131094954972 -0.29213733270389985
0.07871917283376642 -0.29213733270389985
0.045474896602199825 -0.3020380181712983
0.045474896602199825 -0.3020380181712983
0.06209703471798313 -0.2723359617691029
0.09534131094954972 -0.2723359617691029
0.06209703471798313 -0.29213733270389985
0.07871917283376642 -0.3218393891060952
0.06209703471798313 -0.3218393891060952
0.045474896602199825 -0.29213733270389985
0.09534131094954972 -0.2822366472365014
0.12858558718111632 -0.2723359617691029
0.11196344906533302 -0.31193870363869675
0.06209703471798313 -0.3218393891060952
0.06209703471798313 -0.33174007457349364
0.028852758486416528 -0.31193870363869675
0.07871917283376642 -0.31193870363869675
0.09534131094954972 -0.2822366472365014
0.07871917283376642 -0.29213733270389985
0.07871917283376642 -0.3218393891060952
0.06209703471798313 -0.31193870363869675
0.06209703471798313 -0.2822366472365014
0.14520772529689963 -0.2624352763017045
0.1618298634126829 -0.2723359617691029
0.12858558718111632 -0.2723359617691029
0.12858558718111632 -0.3020380181712983
0.06209703471798313 -0.31193870363869675
0.07871917283376642 -0.31193870363869675
0.09534131094954972 -0.29213733270389985
0.1618298634126829 -0.29213733270389985
0.14520772529689963 -0.2822366472365014
0.14520772529689963 -0.3020380181712983
0.11196344906533302 -0.31193870363869675
0.09534131094954972 -0.3218393891060952
0.17845200152846621 -0.2723359617691029
0.2283184158758161 -0.2723359617691029
0.2283184158758161 -0.29213733270389985
0.2615626921073827 -0.2723359617691029
0.278184830223166 -0.2723359617691029
0.278184830223166 -0.24263390536690757
0.3280512445705159 -0.2129318489647122
0.3779176589178658 -0.22283253443211065
0.3945397970336491 -0.2129318489647122
0.3779176589178658 -0.22283253443211065
0.3779176589178658 -0.252534590834306
0.42778407326521567 -0.20303116349731373
0.5275169019599155 -0.2129318489647122
0.6438718687703986 -0.20303116349731373
0.7103604212335318 -0.2129318489647122
0.6771161450019652 -0.24263390536690757
0.6771161450019652 -0.2624352763017045
0.7103604212335318 -0.2129318489647122
0.776848973696665 -0.2129318489647122
0.8267153880440149 -0.22283253443211065
0.8433375261597982 -0.24263390536690757
0.8765818023913647 -0.252534590834306
0.9098260786229313 -0.2624352763017045
0.9264482167387147 -0.24263390536690757
0.9763146310860645 -0.2129318489647122
0.9763146310860645 -0.2129318489647122
0.9596924929702813 -0.20303116349731373
0.8765818023913647 -0.24263390536690757
0.6937382831177484 -0.252534590834306
0.5275169019599155 -0.22283253443211065
0.444406211380999 -0.2129318489647122
0.3945397970336491 -0.24263390536690757
0.278184830223166 -0.2624352763017045
0.11196344906533302 -0.2723359617691029
-0.004391517745150069 -0.2822366472365014
-0.03763579397671667 -0.2822366472365014
-0.004391517745150069 -0.2624352763017045
0.06209703471798313 -0.2624352763017045
0.06209703471798313 -0.2723359617691029
0.012230620370633228 -0.29213733270389985
-0.004391517745150069 -0.33174007457349364
-0.07088007020828327 -0.31193870363869675
-0.02101365586093337 -0.29213733270389985
0.012230620370633228 -0.2822366472365014
-0.05425793209249997 -0.29213733270389985
-0.08750220832406656 -0.29213733270389985
-0.03763579397671667 -0.29213733270389985
-0.03763579397671667 -0.2822366472365014
-0.004391517745150069 -0.2624352763017045
0.028852758486416528 -0.2723359617691029
-0.004391517745150069 -0.2822366472365014
-0.004391517745150069 -0.29213733270389985
-0.03763579397671667 -0.29213733270389985
-0.02101365586093337 -0.2822366472365014
0.028852758486416528 -0.2723359617691029
0.028852758486416528 -0.2822366472365014
0.028852758486416528 -0.2822366472365014
0.012230620370633228 -0.31193870363869675
-0.03763579397671667 -0.3020380181712983
-0.05425793209249997 -0.2822366472365014
0.012230620370633228 -0.29213733270389985
-0.004391517745150069 -0.29213733270389985
-0.02101365586093337 -0.31193870363869675
-0.03763579397671667 -0.33174007457349364
-0.03763579397671667 -0.3416407600408921
-0.05425793209249997 -0.29213733270389985
0.012230620370633228 -0.29213733270389985
0.06209703471798313 -0.2624352763017045
0.012230620370633228 -0.2624352763017045
-0.004391517745150069 -0.2723359617691029
-0.03763579397671667 -0.2723359617691029
-0.004391517745150069 -0.252534590834306
0.028852758486416528 -0.252534590834306
0.09534131094954972 -0.3020380181712983
0.045474896602199825 -0.40104487284528284
0.12858558718111632 -0.5099524129866658
0.2615626921073827 -0.5891578967258535
0.5940054544230486 -0.688164751399838
0.943070354854498 -0.8267743479434163
1.342001669633297 -1.0049866863565886
1.8240436749910127 -1.2327024521067529
2.1897307135382453 -1.4406168469221206
2.3227078184645116 -1.5693257579983004
2.2894635422329452 -1.599027814400496
2.339329956580295 -1.559425072530902
2.4723070615065614 -1.5495243870635036
2.7050169951275276 -1.5198223306613081
2.837994100053794 -1.5198223306613081
2.9709712049800605 -1.5099216451939097
3.054081895558977 -1.4604182178569174
3.1371925861378935 -1.410914790519925
3.2036811386010267 -1.3713120486503314
3.3200361054115097 -1.3515106777155343
3.3200361054115097 -1.321808621313339
3.2036811386010267 -1.2723051939763468
2.9875933430958437 -1.2228017666393545
2.5886620283170445 -1.12379491196537
2.006887194264629 -1.0643907991609793
1.491600912675347 -1.0049866863565886
1.0095589073176312 -0.9752846299543931
0.42778407326521567 -0.905979831682604
-0.20385717513454965 -0.8564764043456117
-0.7025213186080486 -0.7475688642042287
-1.0848304952710646 -0.6584626949976427
-1.3341625670078139 -0.5990585821932519
-1.4338953957025138 -0.5495551548562596
-1.4172732575867304 -0.5099524129866658
-1.3009182907762473 -0.40104487284528284
-1.0848304952710646 -0.33174007457349364
-0.9850976665763647 -0.24263390536690757
-0.9186091141132315 -0.17332910709511837
-0.8521205616500983 -0.143627050692923
-0.7523877329553985 -0.09412362335593075
-0.6194106280291322 -0.05452088148633693
-0.5362999374502156 -0.024818825084141564
-0.5196777993344324 0.0048832313180537995
-0.503055661218649 0.0048832313180537995
-0.5362999374502156 -0.024818825084141564
-0.5196777993344324 -0.01491813961674311
-0.5362999374502156 -0.005017454149344655
-0.503055661218649 0.014783916785452253
-0.5196777993344324 0.014783916785452253
-0.5362999374502156 0.014783916785452253
-0.5861663517975655 -0.005017454149344655
-0.6027884899133488 -0.01491813961674311
-0.6194106280291322 -0.01491813961674311
-0.6027884899133488 0.04448597318764762
-0.5362999374502156 0.06428734412244452
-0.5362999374502156 0.05438665865504607
-0.6194106280291322 0.05438665865504607
-0.6526549042606987 0.034585287720249165
-0.669277042376482 0.04448597318764762
-0.5861663517975655 0.08408871505724143
-0.5861663517975655 0.07418802958984298
-0.6526549042606987 0.06428734412244452
-0.669277042376482 0.034585287720249165
-0.7025213186080486 0.034585287720249165
-0.6858991804922653 0.04448597318764762
-0.669277042376482 0.08408871505724143
-0.669277042376482 0.09398940052463989
-0.6526549042606987 0.06428734412244452
-0.6526549042606987 0.04448597318764762
-0.6526549042606987 0.04448597318764762
-0.6858991804922653 0.034585287720249165
-0.669277042376482 0.07418802958984298
-0.669277042376482 0.08408871505724143
-0.6360327661449154 0.07418802958984298
-0.6858991804922653 0.07418802958984298
-0.669277042376482 0.06428734412244452
-0.6526549042606987 0.08408871505724143
-0.6526549042606987 0.11379077145943679
-0.5861663517975655 0.12369145692683525
-0.6194106280291322 0.1335921423942337
-0.6194106280291322 0.09398940052463989
-0.6027884899133488 0.09398940052463989
-0.7025213186080486 0.08408871505724143
-0.669277042376482 0.10389008599203835
-0.6027884899133488 0.09398940052463989
-0.6194106280291322 0.09398940052463989
-0.5362999374502156 0.09398940052463989
-0.5529220755659989 0.06428734412244452
-0.6027884899133488 0.07418802958984298
-0.5861663517975655 0.08408871505724143
-0.5861663517975655 0.07418802958984298
-0.6194106280291322 0.09398940052463989
-0.5861663517975655 0.05438665865504607
-0.5861663517975655 0.05438665865504607
-0.5861663517975655 0.06428734412244452
-0.5362999374502156 0.09398940052463989
-0.48643352310286575 0.11379077145943679
-0.503055661218649 0.12369145692683525
-0.503055661218649 0.09398940052463989
-0.48643352310286575 0.08408871505724143
-0.5196777993344324 0.10389008599203835
-0.48643352310286575 0.10389008599203835
-0.43656710875551585 0.11379077145943679
-0.45318924687129913 0.09398940052463989
-0.45318924687129913 0.07418802958984298
-0.4698113849870824 0.06428734412244452
-0.45318924687129913 0.07418802958984298
-0.43656710875551585 0.08408871505724143
-0.35345641817659934 0.08408871505724143
-0.3202121419450327 0.08408871505724143
-0.35345641817659934 0.05438665865504607
-0.3700785562923826 0.02468460225285071
-0.35345641817659934 0.04448597318764762
-0.28696786571346616 0.05438665865504607
-0.25372358948189955 0.04448597318764762
-0.25372358948189955 0.04448597318764762
-0.27034572759768283 0.034585287720249165
-0.3202121419450327 0.04448597318764762
-0.27034572759768283 0.05438665865504607
-0.25372358948189955 0.05438665865504607
-0.18723503701876634 0.06428734412244452
-0.18723503701876634 0.02468460225285071
-0.18723503701876634 -0.005017454149344655
-0.18723503701876634 0.014783916785452253
-0.13736862267141645 0.014783916785452253
-0.07088007020828327 -0.01491813961674311
-0.004391517745150069 -0.005017454149344655
-0.05425793209249997 -0.024818825084141564
-0.02101365586093337 -0.05452088148633693
-0.03763579397671667 -0.08422293788853229
-0.03763579397671667 -0.07432225242113384
-0.02101365586093337 -0.06442156695373538
0.028852758486416528 -0.10402430882332919
0.045474896602199825 -0.10402430882332919
0.028852758486416528 -0.12382567975812611
0.028852758486416528 -0.16342842162771992
0.045474896602199825 -0.10402430882332919
0.045474896602199825 -0.12382567975812611
0.06209703471798313 -0.09412362335593075
0.09534131094954972 -0.13372636522552456
0.07871917283376642 -0.143627050692923
0.07871917283376642 -0.15352773616032148
0.07871917283376642 -0.143627050692923
0.11196344906533302 -0.12382567975812611
0.14520772529689963 -0.143627050692923
0.17845200152846621 -0.143627050692923
0.17845200152846621 -0.1931304780299153
0.14520772529689963 -0.1931304780299153
0.14520772529689963 -0.16342842162771992
0.12858558718111632 -0.16342842162771992
0.14520772529689963 -0.15352773616032148
0.1618298634126829 -0.18322979256251684
0.11196344906533302 -0.18322979256251684
0.09534131094954972 -0.20303116349731373
0.09534131094954972 -0.18322979256251684
0.11196344906533302 -0.15352773616032148
0.1618298634126829 -0.17332910709511837
0.1618298634126829 -0.17332910709511837
0.12858558718111632 -0.1931304780299153
0.09534131094954972 -0.18322979256251684
0.045474896602199825 -0.17332910709511837
0.11196344906533302 -0.11392499429072765
0.14520772529689963 -0.13372636522552456
0.14520772529689963 -0.12382567975812611
0.12858558718111632 -0.143627050692923
0.06209703471798313 -0.17332910709511837
0.012230620370633228 -0.143627050692923
0.045474896602199825 -0.13372636522552456
0.09534131094954972 -0.12382567975812611
0.07871917283376642 -0.13372636522552456
0.06209703471798313 -0.18322979256251684
0.012230620370633228 -0.17332910709511837
0.028852758486416528 -0.15352773616032148
0.06209703471798313 -0.11392499429072765
0.045474896602199825 -0.15352773616032148
0.045474896602199825 -0.16342842162771992
0.012230620370633228 -0.18322979256251684
-0.05425793209249997 -0.15352773616032148
-0.05425793209249997 -0.143627050692923
-0.004391517745150069 -0.10402430882332919
0.012230620370633228 -0.10402430882332919
-0.02101365586093337 -0.09412362335593075
-0.05425793209249997 -0.12382567975812611
-0.12074648455563317 -0.13372636522552456
-0.08750220832406656 -0.11392499429072765
-0.08750220832406656 -0.08422293788853229
-0.08750220832406656 -0.10402430882332919
-0.08750220832406656 -0.12382567975812611
-0.12074648455563317 -0.13372636522552456
-0.17061289890298306 -0.16342842162771992
-0.17061289890298306 -0.16342842162771992
-0.13736862267141645 -0.13372636522552456
-0.13736862267141645 -0.143627050692923
-0.18723503701876634 -0.143627050692923
-0.18723503701876634 -0.18322979256251684
-0.23710145136611624 -0.17332910709511837
-0.25372358948189955 -0.17332910709511837
-0.23710145136611624 -0.13372636522552456
-0.18723503701876634 -0.15352773616032148
-0.20385717513454965 -0.15352773616032148
-0.23710145136611624 -0.16342842162771992
-0.27034572759768283 -0.17332910709511837
-0.27034572759768283 -0.15352773616032148
-0.27034572759768283 -0.12382567975812611
-0.27034572759768283 -0.12382567975812611
-0.25372358948189955 -0.13372636522552456
-0.27034572759768283 -0.15352773616032148
-0.30359000382924944 -0.1931304780299153
-0.27034572759768283 -0.16342842162771992
-0.20385717513454965 -0.143627050692923
-0.20385717513454965 -0.15352773616032148
-0.20385717513454965 -0.16342842162771992
-0.27034572759768283 -0.17332910709511837
-0.28696786571346616 -0.2129318489647122
-0.22047931325033296 -0.16342842162771992
-0.20385717513454965 -0.16342842162771992
-0.20385717513454965 -0.17332910709511837
-0.20385717513454965 -0.1931304780299153
-0.23710145136611624 -0.2129318489647122
-0.20385717513454965 -0.2129318489647122
-0.18723503701876634 -0.18322979256251684
-0.15399076078719975 -0.143627050692923
-0.12074648455563317 -0.15352773616032148
-0.15399076078719975 -0.16342842162771992
-0.15399076078719975 -0.16342842162771992
-0.18723503701876634 -0.20303116349731373
-0.18723503701876634 -0.17332910709511837
-0.17061289890298306 -0.15352773616032148
-0.10412434643984986 -0.16342842162771992
-0.10412434643984986 -0.17332910709511837
-0.12074648455563317 -0.2129318489647122
-0.18723503701876634 -0.20303116349731373
-0.13736862267141645 -0.18322979256251684
-0.10412434643984986 -0.17332910709511837
-0.07088007020828327 -0.20303116349731373
-0.05425793209249997 -0.1931304780299153
-0.08750220832406656 -0.22283253443211065
-0.13736862267141645 -0.2327332198995091
-0.12074648455563317 -0.20303116349731373
-0.07088007020828327 -0.17332910709511837
-0.03763579397671667 -0.18322979256251684
-0.08750220832406656 -0.20303116349731373
-0.05425793209249997 -0.2129318489647122
-0.07088007020828327 -0.1931304780299153
-0.07088007020828327 -0.18322979256251684
-0.07088007020828327 -0.16342842162771992
-0.05425793209249997 -0.16342842162771992
-0.02101365586093337 -0.16342842162771992
-0.004391517745150069 -0.18322979256251684
-0.05425793209249997 -0.2129318489647122
-0.03763579397671667 -0.2129318489647122
-0.03763579397671667 -0.18322979256251684
0.028852758486416528 -0.18322979256251684
0.028852758486416528 -0.20303116349731373
-0.004391517745150069 -0.2129318489647122
-0.05425793209249997 -0.20303116349731373
-0.05425793209249997 -0.1931304780299153
0.012230620370633228 -0.18322979256251684
0.045474896602199825 -0.22283253443211065
0.045474896602199825 -0.20303116349731373
0.028852758486416528 -0.22283253443211065
0.012230620370633228 -0.2129318489647122
-0.004391517745150069 -0.17332910709511837
-0.004391517745150069 -0.16342842162771992
0.028852758486416528 -0.17332910709511837
0.09534131094954972 -0.18322979256251684
0.06209703471798313 -0.1931304780299153
0.012230620370633228 -0.17332910709511837
-0.02101365586093337 -0.1931304780299153
0.012230620370633228 -0.16342842162771992
0.07871917283376642 -0.1931304780299153
0.06209703471798313 -0.2129318489647122
0.028852758486416528 -0.2129318489647122
-0.03763579397671667 -0.2129318489647122
-0.02101365586093337 -0.20303116349731373
0.028852758486416528 -0.1931304780299153
0.09534131094954972 -0.18322979256251684
0.11196344906533302 -0.22283253443211065
0.045474896602199825 -0.22283253443211065
0.012230620370633228 -0.22283253443211065
0.028852758486416528 -0.18322979256251684
0.06209703471798313 -0.16342842162771992
0.07871917283376642 -0.17332910709511837
0.07871917283376642 -0.18322979256251684
0.028852758486416528 -0.18322979256251684
-0.004391517745150069 -0.20303116349731373
0.028852758486416528 -0.17332910709511837
0.045474896602199825 -0.18322979256251684
0.11196344906533302 -0.18322979256251684
0.07871917283376642 -0.1931304780299153
0.06209703471798313 -0.20303116349731373
0.06209703471798313 -0.1931304780299153
0.06209703471798313 -0.20303116349731373
0.09534131094954972 -0.18322979256251684
0.09534131094954972 -0.1931304780299153
0.09534131094954972 -0.17332910709511837
0.11196344906533302 -0.22283253443211065
0.12858558718111632 -0.22283253443211065
0.12858558718111632 -0.2129318489647122
0.1618298634126829 -0.1931304780299153
0.17845200152846621 -0.18322979256251684
0.1618298634126829 -0.18322979256251684
0.14520772529689963 -0.18322979256251684
0.09534131094954972 -0.20303116349731373
0.11196344906533302 -0.18322979256251684
0.17845200152846621 -0.15352773616032148
0.2283184158758161 -0.17332910709511837
0.19507413964424952 -0.17332910709511837
0.19507413964424952 -0.18322979256251684
0.1618298634126829 -0.18322979256251684
0.2116962777600328 -0.18322979256251684
0.2948069683389493 -0.16342842162771992
0.3280512445705159 -0.143627050692923
0.3446733826862992 -0.143627050692923
0.3612955208020825 -0.16342842162771992
0.3280512445705159 -0.16342842162771992
0.3612955208020825 -0.15352773616032148
0.4610283494967823 -0.13372636522552456
0.5275169019599155 -0.13372636522552456
0.5607611781914821 -0.12382567975812611
0.6272497306546153 -0.15352773616032148
0.6771161450019652 -0.16342842162771992
0.7103604212335318 -0.15352773616032148
0.776848973696665 -0.13372636522552456
0.8267153880440149 -0.11392499429072765
0.8765818023913647 -0.143627050692923
0.8433375261597982 -0.17332910709511837
0.8433375261597982 -0.20303116349731373
0.893203940507148 -0.15352773616032148
0.9929367692018478 -0.15352773616032148
1.0261810454334144 -0.13372636522552456
1.0760474597807643 -0.15352773616032148
1.0261810454334144 -0.15352773616032148
0.943070354854498 -0.17332910709511837
0.7934711118124482 -0.18322979256251684
0.6771161450019652 -0.16342842162771992
0.5773833163072654 -0.15352773616032148
0.4111619351494324 -0.18322979256251684
0.2948069683389493 -0.20303116349731373
0.14520772529689963 -0.2129318489647122
0.045474896602199825 -0.1931304780299153
0.012230620370633228 -0.18322979256251684
0.028852758486416528 -0.16342842162771992
0.045474896602199825 -0.17332910709511837
0.045474896602199825 -0.20303116349731373
0.012230620370633228 -0.1931304780299153
0.045474896602199825 -0.20303116349731373
0.06209703471798313 -0.17332910709511837
0.11196344906533302 -0.1931304780299153
0.07871917283376642 -0.2129318489647122
0.07871917283376642 -0.22283253443211065
0.012230620370633228 -0.22283253443211065
0.045474896602199825 -0.22283253443211065
0.045474896602199825 -0.2129318489647122
0.06209703471798313 -0.20303116349731373
0.07871917283376642 -0.20303116349731373
0.06209703471798313 -0.22283253443211065
0.012230620370633228 -0.24263390536690757
0.012230620370633228 -0.252534590834306
0.028852758486416528 -0.18322979256251684
0.07871917283376642 -0.1931304780299153
0.07871917283376642 -0.20303116349731373
0.028852758486416528 -0.24263390536690757
0.012230620370633228 -0.22283253443211065
0.028852758486416528 -0.18322979256251684
0.07871917283376642 -0.18322979256251684
0.11196344906533302 -0.17332910709511837
0.045474896602199825 -0.20303116349731373
0.07871917283376642 -0.2327332198995091
0.06209703471798313 -0.22283253443211065
0.045474896602199825 -0.2129318489647122
0.07871917283376642 -0.1931304780299153
0.12858558718111632 -0.20303116349731373
0.12858558718111632 -0.2129318489647122
0.11196344906533302 -0.24263390536690757
0.09534131094954972 -0.252534590834306
0.06209703471798313 -0.22283253443211065
0.06209703471798313 -0.2129318489647122
0.12858558718111632 -0.2129318489647122
0.12858558718111632 -0.24263390536690757
0.12858558718111632 -0.31193870363869675
0.12858558718111632 -0.39114418737788437
0.278184830223166 -0.470349671117072
0.5607611781914821 -0.5396544693888612
0.8765818023913647 -0.6782640659324396
1.2921352552859473 -0.8465757188782133
1.724310846296313 -1.0940928555631746
2.173108575422462 -1.3317093067807375
2.4723070615065614 -1.5000209597265113
2.4556849233907783 -1.5198223306613081
2.4058185090434283 -1.5099216451939097
2.4556849233907783 -1.5297230161287065
2.6052841664328277 -1.5297230161287065
2.7382612713590944 -1.559425072530902
2.8878605144011438 -1.5198223306613081
3.0374597574431936 -1.4802195887917144
3.1538147242536767 -1.4406168469221206
3.2036811386010267 -1.4208154759873237
3.3034139672957266 -1.410914790519925
3.336658243527293 -1.3812127341177298
3.3699025197588597 -1.321808621313339
3.27016969106416 -1.2624045085089484
2.9875933430958437 -1.1930997102371592
2.4224406471592115 -1.1336955974327685
1.774177260643663 -1.054490113693581
1.1757802884754642 -1.014887371823987
0.6937382831177484 -0.9356818880847994
0.12858558718111632 -0.8168736624760179
-0.40332283252394924 -0.7277674932694318
-0.9019869759974481 -0.6485620095302442
-1.2510518764288974 -0.6089592676606503
-1.500383948165647 -0.5495551548562596
-1.4172732575867304 -0.4505483001822751
-1.2178076001973308 -0.3713428164430875
-1.0349640809237146 -0.3218393891060952
-0.9186091141132315 -0.252534590834306
-0.9019869759974481 -0.20303116349731373
-0.8687426997658816 -0.15352773616032148
-0.7357655948396152 -0.06442156695373538
-0.5861663517975655 -0.024818825084141564
-0.4698113849870824 0.0048832313180537995
-0.40332283252394924 0.02468460225285071
-0.40332283252394924 0.014783916785452253
-0.38670069440816596 0.014783916785452253
-0.40332283252394924 0.04448597318764762
-0.38670069440816596 0.07418802958984298
-0.33683428006081606 0.08408871505724143
-0.35345641817659934 0.10389008599203835
-0.4199449706397325 0.06428734412244452
-0.43656710875551585 0.06428734412244452
-0.43656710875551585 0.09398940052463989
-0.4199449706397325 0.12369145692683525
-0.40332283252394924 0.10389008599203835
-0.38670069440816596 0.11379077145943679
-0.43656710875551585 0.10389008599203835
-0.45318924687129913 0.06428734412244452
-0.45318924687129913 0.09398940052463989
-0.45318924687129913 0.10389008599203835
-0.45318924687129913 0.10389008599203835
-0.4698113849870824 0.09398940052463989
-0.4698113849870824 0.08408871505724143
-0.5196777993344324 0.10389008599203835
-0.5196777993344324 0.1335921423942337
-0.4698113849870824 0.14349282786163217
-0.45318924687129913 0.17319488426382754
-0.43656710875551585 0.14349282786163217
-0.5196777993344324 0.15339351332903062
-0.5362999374502156 0.12369145692683525
-0.5196777993344324 0.15339351332903062
-0.503055661218649 0.17319488426382754
-0.45318924687129913 0.17319488426382754
-0.45318924687129913 0.16329419879642906
-0.48643352310286575 0.14349282786163217
-0.5196777993344324 0.12369145692683525
-0.503055661218649 0.16329419879642906
-0.48643352310286575 0.16329419879642906
-0.4698113849870824 0.15339351332903062
-0.45318924687129913 0.15339351332903062
-0.45318924687129913 0.1335921423942337
-0.503055661218649 0.1335921423942337
-0.48643352310286575 0.14349282786163217
-0.48643352310286575 0.16329419879642906
-0.43656710875551585 0.17319488426382754
-0.43656710875551585 0.17319488426382754
-0.43656710875551585 0.15339351332903062
-0.4698113849870824 0.15339351332903062
-0.45318924687129913 0.18309556973122598
-0.4199449706397325 0.17319488426382754
-0.38670069440816596 0.19299625519862443
-0.4199449706397325 0.19299625519862443
-0.3700785562923826 0.17319488426382754
-0.45318924687129913 0.15339351332903062
-0.45318924687129913 0.15339351332903062
-0.38670069440816596 0.18309556973122598
-0.35345641817659934 0.18309556973122598
-0.3700785562923826 0.19299625519862443
-0.3700785562923826 0.1335921423942337
-0.35345641817659934 0.15339351332903062
-0.35345641817659934 0.15339351332903062
-0.30359000382924944 0.15339351332903062
-0.30359000382924944 0.14349282786163217
-0.28696786571346616 0.15339351332903062
-0.27034572759768283 0.15339351332903062
-0.28696786571346616 0.12369145692683525
-0.27034572759768283 0.14349282786163217
-0.23710145136611624 0.15339351332903062
-0.22047931325033296 0.15339351332903062
-0.20385717513454965 0.15339351332903062
-0.22047931325033296 0.15339351332903062
-0.23710145136611624 0.12369145692683525
-0.17061289890298306 0.1335921423942337
-0.13736862267141645 0.14349282786163217
-0.07088007020828327 0.12369145692683525
-0.10412434643984986 0.1335921423942337
-0.13736862267141645 0.12369145692683525
-0.12074648455563317 0.10389008599203835
-0.08750220832406656 0.08408871505724143
-0.03763579397671667 0.09398940052463989
-0.03763579397671667 0.10389008599203835
-0.02101365586093337 0.09398940052463989
-0.05425793209249997 0.06428734412244452
-0.03763579397671667 0.04448597318764762
0.012230620370633228 0.02468460225285071
0.06209703471798313 0.034585287720249165
0.09534131094954972 0.04448597318764762
0.12858558718111632 0.034585287720249165
0.09534131094954972 0.0048832313180537995
0.11196344906533302 -0.005017454149344655
0.11196344906533302 -0.005017454149344655
0.17845200152846621 0.014783916785452253
0.1618298634126829 -0.005017454149344655
0.2116962777600328 -0.03471951055154002
0.17845200152846621 -0.05452088148633693
0.1618298634126829 -0.06442156695373538
0.2116962777600328 -0.06442156695373538
0.2116962777600328 -0.06442156695373538
0.3114291064547326 -0.09412362335593075
0.278184830223166 -0.10402430882332919
0.2283184158758161 -0.11392499429072765
0.19507413964424952 -0.12382567975812611
0.2615626921073827 -0.143627050692923
0.24494055399159942 -0.11392499429072765
0.3280512445705159 -0.143627050692923
0.3280512445705159 -0.17332910709511837
0.2948069683389493 -0.17332910709511837
0.278184830223166 -0.1931304780299153
0.2948069683389493 -0.18322979256251684
0.3280512445705159 -0.16342842162771992
0.3446733826862992 -0.17332910709511837
0.3446733826862992 -0.15352773616032148
0.3280512445705159 -0.17332910709511837
0.2948069683389493 -0.18322979256251684
0.3280512445705159 -0.143627050692923
0.3280512445705159 -0.11392499429072765
0.3945397970336491 -0.12382567975812611
0.3612955208020825 -0.15352773616032148
0.3446733826862992 -0.17332910709511837
0.278184830223166 -0.18322979256251684
0.3280512445705159 -0.17332910709511837
0.3114291064547326 -0.143627050692923
0.3114291064547326 -0.16342842162771992
0.3280512445705159 -0.17332910709511837
0.3114291064547326 -0.17332910709511837
0.2615626921073827 -0.18322979256251684
0.2948069683389493 -0.18322979256251684
0.2948069683389493 -0.143627050692923
0.3446733826862992 -0.17332910709511837
0.3280512445705159 -0.15352773616032148
0.278184830223166 -0.16342842162771992
0.2283184158758161 -0.16342842162771992
0.2615626921073827 -0.11392499429072765
0.278184830223166 -0.10402430882332919
0.2948069683389493 -0.10402430882332919
0.2615626921073827 -0.11392499429072765
0.24494055399159942 -0.12382567975812611
0.2116962777600328 -0.11392499429072765
0.2116962777600328 -0.10402430882332919
0.24494055399159942 -0.09412362335593075
0.2283184158758161 -0.12382567975812611
0.2283184158758161 -0.12382567975812611
0.19507413964424952 -0.13372636522552456
0.14520772529689963 -0.143627050692923
0.14520772529689963 -0.143627050692923
0.17845200152846621 -0.11392499429072765
0.14520772529689963 -0.15352773616032148
0.1618298634126829 -0.143627050692923
0.11196344906533302 -0.15352773616032148
0.07871917283376642 -0.16342842162771992
0.07871917283376642 -0.13372636522552456
0.09534131094954972 -0.13372636522552456
0.06209703471798313 -0.11392499429072765
0.028852758486416528 -0.12382567975812611
0.028852758486416528 -0.12382567975812611
-0.004391517745150069 -0.15352773616032148
-0.02101365586093337 -0.12382567975812611
-0.02101365586093337 -0.10402430882332919
-0.02101365586093337 -0.13372636522552456
0.012230620370633228 -0.16342842162771992
-0.02101365586093337 -0.16342842162771992
-0.07088007020828327 -0.18322979256251684
-0.10412434643984986 -0.16342842162771992
-0.05425793209249997 -0.15352773616032148
-0.03763579397671667 -0.17332910709511837
-0.08750220832406656 -0.17332910709511837
-0.07088007020828327 -0.2129318489647122
-0.12074648455563317 -0.1931304780299153
-0.13736862267141645 -0.18322979256251684
-0.13736862267141645 -0.17332910709511837
-0.10412434643984986 -0.1931304780299153
-0.05425793209249997 -0.16342842162771992
-0.10412434643984986 -0.17332910709511837
-0.15399076078719975 -0.20303116349731373
-0.08750220832406656 -0.17332910709511837
-0.07088007020828327 -0.143627050692923
-0.02101365586093337 -0.18322979256251684
-0.08750220832406656 -0.18322979256251684
-0.12074648455563317 -0.20303116349731373
-0.13736862267141645 -0.1931304780299153
-0.12074648455563317 -0.20303116349731373
-0.05425793209249997 -0.18322979256251684
-0.004391517745150069 -0.20303116349731373
-0.03763579397671667 -0.20303116349731373
-0.05425793209249997 -0.22283253443211065
-0.07088007020828327 -0.24263390536690757
-0.02101365586093337 -0.2327332198995091
-0.004391517745150069 -0.2129318489647122
0.012230620370633228 -0.20303116349731373
-0.02101365586093337 -0.2129318489647122
-0.03763579397671667 -0.24263390536690757
-0.08750220832406656 -0.2327332198995091
-0.05425793209249997 -0.22283253443211065
-0.02101365586093337 -0.1931304780299153
0.028852758486416528 -0.18322979256251684
0.045474896602199825 -0.18322979256251684
0.06209703471798313 -0.2129318489647122
0.06209703471798313 -0.2129318489647122
0.06209703471798313 -0.20303116349731373
0.09534131094954972 -0.2129318489647122
0.09534131094954972 -0.22283253443211065
0.09534131094954972 -0.2129318489647122
0.045474896602199825 -0.22283253443211065
0.06209703471798313 -0.252534590834306
0.028852758486416528 -0.24263390536690757
0.06209703471798313 -0.2327332198995091
0.09534131094954972 -0.22283253443211065
0.09534131094954972 -0.24263390536690757
0.11196344906533302 -0.2624352763017045
0.07871917283376642 -0.252534590834306
0.11196344906533302 -0.252534590834306
0.14520772529689963 -0.2129318489647122
0.14520772529689963 -0.2327332198995091
0.12858558718111632 -0.22283253443211065
0.12858558718111632 -0.2624352763017045
0.12858558718111632 -0.24263390536690757
0.14520772529689963 -0.2327332198995091
0.1618298634126829 -0.2129318489647122
0.19507413964424952 -0.22283253443211065
0.17845200152846621 -0.2327332198995091
0.1618298634126829 -0.2624352763017045
0.14520772529689963 -0.2624352763017045
0.14520772529689963 -0.24263390536690757
0.1618298634126829 -0.252534590834306
0.19507413964424952 -0.2624352763017045
0.1618298634126829 -0.2822366472365014
0.12858558718111632 -0.29213733270389985
0.14520772529689963 -0.2822366472365014
0.1618298634126829 -0.2822366472365014
0.14520772529689963 -0.252534590834306
0.17845200152846621 -0.2624352763017045
0.1618298634126829 -0.24263390536690757
0.17845200152846621 -0.2723359617691029
0.14520772529689963 -0.2624352763017045
0.1618298634126829 -0.252534590834306
0.2116962777600328 -0.2129318489647122
0.2283184158758161 -0.24263390536690757
0.2283184158758161 -0.2327332198995091
0.2283184158758161 -0.2624352763017045
0.17845200152846621 -0.2624352763017045
0.2283184158758161 -0.2822366472365014
0.2615626921073827 -0.2624352763017045
0.278184830223166 -0.2723359617691029
0.24494055399159942 -0.2822366472365014
0.2116962777600328 -0.2822366472365014
0.19507413964424952 -0.31193870363869675
0.2283184158758161 -0.29213733270389985
0.2283184158758161 -0.2723359617691029
0.2615626921073827 -0.2822366472365014
0.24494055399159942 -0.2624352763017045
0.2116962777600328 -0.3020380181712983
0.14520772529689963 -0.3218393891060952
0.19507413964424952 -0.3020380181712983
0.17845200152846621 -0.2723359617691029
0.2283184158758161 -0.2822366472365014
0.24494055399159942 -0.252534590834306
0.24494055399159942 -0.29213733270389985
0.2116962777600328 -0.2822366472365014
0.24494055399159942 -0.2723359617691029
0.2116962777600328 -0.24263390536690757
0.24494055399159942 -0.2624352763017045
0.2615626921073827 -0.2723359617691029
0.2283184158758161 -0.2822366472365014
0.2116962777600328 -0.29213733270389985
0.2615626921073827 -0.31193870363869675
0.278184830223166 -0.2822366472365014
0.3280512445705159 -0.2723359617691029
0.2615626921073827 -0.3020380181712983
0.19507413964424952 -0.29213733270389985
0.19507413964424952 -0.29213733270389985
0.19507413964424952 -0.3020380181712983
0.24494055399159942 -0.2822366472365014
0.2283184158758161 -0.2723359617691029
0.2283184158758161 -0.2624352763017045
0.24494055399159942 -0.2624352763017045
0.2283184158758161 -0.2822366472365014
0.2948069683389493 -0.2624352763017045
0.3446733826862992 -0.2327332198995091
0.3446733826862992 -0.24263390536690757
0.3779176589178658 -0.2624352763017045
0.3612955208020825 -0.2624352763017045
0.3779176589178658 -0.252534590834306
0.42778407326521567 -0.24263390536690757
0.47765048761256557 -0.18322979256251684
0.5108947638441322 -0.2129318489647122
0.5108947638441322 -0.252534590834306
0.5108947638441322 -0.22283253443211065
0.5275169019599155 -0.252534590834306
0.5940054544230486 -0.22283253443211065
0.7103604212335318 -0.1931304780299153
0.7602268355808817 -0.2327332198995091
0.776848973696665 -0.24263390536690757
0.8267153880440149 -0.2624352763017045
0.7934711118124482 -0.2624352763017045
0.9098260786229313 -0.2327332198995091
0.893203940507148 -0.2327332198995091
0.9596924929702813 -0.2129318489647122
0.9763146310860645 -0.2327332198995091
0.9929367692018478 -0.252534590834306
0.9763146310860645 -0.2723359617691029
1.0428031835491978 -0.24263390536690757
1.0760474597807643 -0.22283253443211065
1.0926695978965477 -0.24263390536690757
1.0095589073176312 -0.2327332198995091
0.893203940507148 -0.2723359617691029
0.7436046974650984 -0.3020380181712983
0.610627592538832 -0.29213733270389985
0.5275169019599155 -0.2624352763017045
0.4610283494967823 -0.29213733270389985
0.3114291064547326 -0.29213733270389985
0.19507413964424952 -0.31193870363869675
0.06209703471798313 -0.33174007457349364
0.06209703471798313 -0.31193870363869675
0.06209703471798313 -0.2822366472365014
0.07871917283376642 -0.2822366472365014
0.07871917283376642 -0.29213733270389985
0.045474896602199825 -0.29213733270389985
0.012230620370633228 -0.3020380181712983
0.09534131094954972 -0.2822366472365014
0.1618298634126829 -0.2723359617691029
0.14520772529689963 -0.252534590834306
0.09534131094954972 -0.29213733270389985
0.06209703471798313 -0.31193870363869675
0.045474896602199825 -0.3218393891060952
0.07871917283376642 -0.3020380181712983
0.11196344906533302 -0.29213733270389985
0.12858558718111632 -0.29213733270389985
0.12858558718111632 -0.29213733270389985
0.07871917283376642 -0.29213733270389985
0.028852758486416528 -0.3218393891060952
0.06209703471798313 -0.3218393891060952
0.11196344906533302 -0.2822366472365014
0.11196344906533302 -0.2723359617691029
0.09534131094954972 -0.29213733270389985
0.07871917283376642 -0.29213733270389985
0.012230620370633228 -0.3020380181712983
0.045474896602199825 -0.29213733270389985
0.07871917283376642 -0.24263390536690757
0.09534131094954972 -0.2822366472365014
0.11196344906533302 -0.2723359617691029
0.11196344906533302 -0.3020380181712983
0.09534131094954972 -0.2822366472365014
0.12858558718111632 -0.29213733270389985
0.1618298634126829 -0.29213733270389985
0.2116962777600328 -0.3020380181712983
0.17845200152846621 -0.31193870363869675
0.12858558718111632 -0.31193870363869675
0.06209703471798313 -0.3218393891060952
0.045474896602199825 -0.2822366472365014
0.09534131094954972 -0.2822366472365014
0.1618298634126829 -0.2822366472365014
0.14520772529689963 -0.3416407600408921
0.14520772529689963 -0.42084624378007973
0.2283184158758161 -0.5099524129866658
0.3779176589178658 -0.5990585821932519
0.6438718687703986 -0.6782640659324396
0.9929367692018478 -0.8069729770086195
1.3586238077490804 -0.9851853154217917
1.8572879512225793 -1.2228017666393545
2.2063528516540285 -1.4406168469221206
2.4058185090434283 -1.5792264434656988
2.3725742328118615 -1.6287298708026912
2.3559520946960784 -1.648531241737488
2.4390627852749946 -1.6188291853352927
2.6052841664328277 -1.6386305562700896
2.7548834094748775 -1.6386305562700896
2.8712383762853606 -1.5891271289330973
2.9709712049800605 -1.559425072530902
3.054081895558977 -1.5396237015961052
3.054081895558977 -1.5198223306613081
3.1538147242536767 -1.5000209597265113
3.2535475529483766 -1.4604182178569174
3.2535475529483766 -1.4307161614547221
3.236925414832593 -1.3812127341177298
3.054081895558977 -1.3317093067807375
2.671772718895961 -1.2723051939763468
2.1398642991908954 -1.2030003957045576
1.5747116032542634 -1.143596282900167
1.1425360122438974 -1.0742914846283778
0.7103604212335318 -0.9851853154217917
0.19507413964424952 -0.9257812026174009
-0.30359000382924944 -0.8366750334108148
-0.8022541473027484 -0.7772709206064241
-1.1180747715026311 -0.707966122334635
-1.3009182907762473 -0.6287606385954473
-1.3341625670078139 -0.5594558403236581
-1.167941185849981 -0.5198530984540642
-1.0183419428079312 -0.48025035658447046
-0.9518533903447981 -0.42084624378007973
-0.9518533903447981 -0.39114418737788437
-0.8687426997658816 -0.31193870363869675
-0.7856320091869651 -0.22283253443211065
-0.6526549042606987 -0.20303116349731373
-0.5861663517975655 -0.16342842162771992
-0.503055661218649 -0.143627050692923
-0.4698113849870824 -0.12382567975812611
-0.4199449706397325 -0.09412362335593075
-0.4199449706397325 -0.09412362335593075
-0.43656710875551585 -0.09412362335593075
-0.4698113849870824 -0.05452088148633693
-0.43656710875551585 -0.08422293788853229
-0.4199449706397325 -0.08422293788853229
-0.3700785562923826 -0.024818825084141564
-0.35345641817659934 -0.01491813961674311
-0.40332283252394924 -0.024818825084141564
-0.38670069440816596 -0.04462019601893847
-0.4698113849870824 -0.03471951055154002
-0.5362999374502156 -0.03471951055154002
-0.5196777993344324 -0.03471951055154002
-0.45318924687129913 0.0048832313180537995
-0.40332283252394924 -0.01491813961674311
-0.48643352310286575 -0.01491813961674311
-0.5362999374502156 -0.04462019601893847
-0.5362999374502156 -0.03471951055154002
-0.5362999374502156 -0.024818825084141564
-0.5362999374502156 0.014783916785452253
-0.5362999374502156 -0.01491813961674311
-0.5362999374502156 -0.024818825084141564
-0.5196777993344324 -0.024818825084141564
-0.5362999374502156 -0.024818825084141564
-0.503055661218649 0.0048832313180537995
-0.48643352310286575 0.02468460225285071
-0.5196777993344324 0.034585287720249165
-0.5529220755659989 0.02468460225285071
-0.5695442136817822 0.0048832313180537995
-0.6027884899133488 0.014783916785452253
-0.5861663517975655 0.034585287720249165
-0.6027884899133488 0.034585287720249165
-0.5695442136817822 0.014783916785452253
-0.6194106280291322 0.0048832313180537995
-0.6027884899133488 0.014783916785452253
-0.6027884899133488 -0.005017454149344655
-0.6027884899133488 0.02468460225285071
-0.5362999374502156 0.02468460225285071
-0.503055661218649 0.02468460225285071
-0.5362999374502156 0.014783916785452253
-0.5529220755659989 -0.01491813961674311
-0.6360327661449154 -0.01491813961674311
-0.6360327661449154 0.0048832313180537995
-0.6027884899133488 0.034585287720249165
-0.5362999374502156 0.034585287720249165
-0.5196777993344324 0.014783916785452253
-0.5362999374502156 0.014783916785452253
-0.5695442136817822 0.0048832313180537995
-0.5362999374502156 0.06428734412244452
-0.5196777993344324 0.06428734412244452
-0.5529220755659989 0.034585287720249165
-0.5529220755659989 0.04448597318764762
-0.5695442136817822 0.014783916785452253
-0.6027884899133488 -0.005017454149344655
-0.5529220755659989 0.014783916785452253
-0.5362999374502156 0.02468460225285071
-0.45318924687129913 0.0048832313180537995
-0.4698113849870824 -0.01491813961674311
-0.503055661218649 -0.01491813961674311
-0.48643352310286575 -0.01491813961674311
-0.4698113849870824 0.0048832313180537995
-0.4199449706397325 -0.005017454149344655
-0.40332283252394924 0.0048832313180537995
-0.3700785562923826 -0.01491813961674311
-0.38670069440816596 -0.03471951055154002
-0.38670069440816596 -0.024818825084141564
-0.3202121419450327 -0.005017454149344655
-0.3202121419450327 0.02468460225285071
-0.30359000382924944 -0.005017454149344655
-0.30359000382924944 -0.005017454149344655
-0.30359000382924944 -0.04462019601893847
-0.30359000382924944 -0.04462019601893847
-0.28696786571346616 -0.024818825084141564
-0.25372358948189955 -0.024818825084141564
-0.23710145136611624 -0.03471951055154002
-0.22047931325033296 -0.08422293788853229
-0.25372358948189955 -0.09412362335593075
-0.27034572759768283 -0.09412362335593075
-0.20385717513454965 -0.11392499429072765
-0.17061289890298306 -0.09412362335593075
-0.10412434643984986 -0.12382567975812611
-0.10412434643984986 -0.13372636522552456
-0.08750220832406656 -0.15352773616032148
-0.13736862267141645 -0.15352773616032148
-0.05425793209249997 -0.13372636522552456
-0.05425793209249997 -0.13372636522552456
-0.004391517745150069 -0.15352773616032148
-0.004391517745150069 -0.17332910709511837
-0.004391517745150069 -0.18322979256251684
-0.004391517745150069 -0.18322979256251684
-0.004391517745150069 -0.17332910709511837
0.012230620370633228 -0.17332910709511837
0.045474896602199825 -0.18322979256251684
0.028852758486416528 -0.2129318489647122
0.045474896602199825 -0.22283253443211065
0.045474896602199825 -0.252534590834306
0.06209703471798313 -0.2327332198995091
0.07871917283376642 -0.2129318489647122
0.07871917283376642 -0.22283253443211065
0.06209703471798313 -0.2723359617691029
0.028852758486416528 -0.2723359617691029
0.045474896602199825 -0.2723359617691029
0.11196344906533302 -0.24263390536690757
0.11196344906533302 -0.24263390536690757
0.09534131094954972 -0.252534590834306
0.09534131094954972 -0.2723359617691029
0.07871917283376642 -0.2624352763017045
0.045474896602199825 -0.24263390536690757
0.07871917283376642 -0.22283253443211065
0.045474896602199825 -0.2327332198995091
0.06209703471798313 -0.20303116349731373
0.06209703471798313 -0.22283253443211065
0.045474896602199825 -0.2327332198995091
0.028852758486416528 -0.2327332198995091
0.028852758486416528 -0.24263390536690757
0.028852758486416528 -0.22283253443211065
0.028852758486416528 -0.2327332198995091
0.045474896602199825 -0.2327332198995091
-0.004391517745150069 -0.252534590834306
-0.02101365586093337 -0.24263390536690757
-0.03763579397671667 -0.2624352763017045
-0.02101365586093337 -0.22283253443211065
0.045474896602199825 -0.2129318489647122
0.012230620370633228 -0.2129318489647122
0.012230620370633228 -0.24263390536690757
-0.03763579397671667 -0.24263390536690757
0.012230620370633228 -0.2129318489647122
0.028852758486416528 -0.1931304780299153
0.012230620370633228 -0.1931304780299153
-0.05425793209249997 -0.2129318489647122
-0.12074648455563317 -0.18322979256251684
-0.17061289890298306 -0.20303116349731373
-0.12074648455563317 -0.15352773616032148
-0.13736862267141645 -0.16342842162771992
-0.08750220832406656 -0.17332910709511837
-0.10412434643984986 -0.2129318489647122
-0.17061289890298306 -0.22283253443211065
-0.20385717513454965 -0.2129318489647122
-0.20385717513454965 -0.1931304780299153
-0.18723503701876634 -0.18322979256251684
-0.22047931325033296 -0.18322979256251684
-0.20385717513454965 -0.22283253443211065
-0.25372358948189955 -0.2327332198995091
-0.25372358948189955 -0.22283253443211065
-0.28696786571346616 -0.24263390536690757
-0.25372358948189955 -0.1931304780299153
-0.28696786571346616 -0.2129318489647122
-0.30359000382924944 -0.22283253443211065
-0.35345641817659934 -0.2129318489647122
-0.3202121419450327 -0.22283253443211065
-0.30359000382924944 -0.17332910709511837
-0.30359000382924944 -0.20303116349731373
-0.28696786571346616 -0.1931304780299153
-0.33683428006081606 -0.18322979256251684
-0.3700785562923826 -0.20303116349731373
-0.40332283252394924 -0.2129318489647122
-0.4199449706397325 -0.1931304780299153
-0.40332283252394924 -0.18322979256251684
-0.38670069440816596 -0.18322979256251684
-0.40332283252394924 -0.22283253443211065
-0.4199449706397325 -0.252534590834306
-0.4199449706397325 -0.24263390536690757
-0.38670069440816596 -0.2129318489647122
-0.3700785562923826 -0.1931304780299153
-0.3700785562923826 -0.20303116349731373
-0.40332283252394924 -0.22283253443211065
-0.43656710875551585 -0.2624352763017045
-0.48643352310286575 -0.24263390536690757
-0.45318924687129913 -0.22283253443211065
-0.4199449706397325 -0.2129318489647122
-0.40332283252394924 -0.20303116349731373
-0.48643352310286575 -0.2129318489647122
-0.45318924687129913 -0.2327332198995091
-0.4698113849870824 -0.2327332198995091
-0.40332283252394924 -0.2129318489647122
-0.38670069440816596 -0.17332910709511837
-0.3202121419450327 -0.2129318489647122
-0.33683428006081606 -0.22283253443211065
-0.3700785562923826 -0.24263390536690757
-0.38670069440816596 -0.252534590834306
-0.3700785562923826 -0.2327332198995091
-0.3202121419450327 -0.1931304780299153
-0.28696786571346616 -0.20303116349731373
-0.30359000382924944 -0.2129318489647122
-0.35345641817659934 -0.2327332198995091
-0.33683428006081606 -0.2624352763017045
-0.28696786571346616 -0.2327332198995091
-0.27034572759768283 -0.2327332198995091
-0.28696786571346616 -0.24263390536690757
-0.27034572759768283 -0.2327332198995091
-0.27034572759768283 -0.2327332198995091
-0.25372358948189955 -0.2327332198995091
-0.20385717513454965 -0.22283253443211065
-0.13736862267141645 -0.17332910709511837
-0.13736862267141645 -0.18322979256251684
-0.17061289890298306 -0.20303116349731373
-0.20385717513454965 -0.20303116349731373
-0.25372358948189955 -0.2129318489647122
-0.23710145136611624 -0.2129318489647122
-0.20385717513454965 -0.17332910709511837
-0.20385717513454965 -0.20303116349731373
-0.23710145136611624 -0.2327332198995091
-0.25372358948189955 -0.24263390536690757
-0.27034572759768283 -0.252534590834306
-0.18723503701876634 -0.2327332198995091
-0.12074648455563317 -0.2129318489647122
-0.10412434643984986 -0.2327332198995091
-0.12074648455563317 -0.22283253443211065
-0.18723503701876634 -0.2723359617691029
-0.25372358948189955 -0.2723359617691029
-0.20385717513454965 -0.2327332198995091
-0.12074648455563317 -0.20303116349731373
-0.10412434643984986 -0.2327332198995091
-0.08750220832406656 -0.22283253443211065
-0.10412434643984986 -0.22283253443211065
-0.12074648455563317 -0.2327332198995091
-0.12074648455563317 -0.22283253443211065
-0.12074648455563317 -0.1931304780299153
-0.10412434643984986 -0.22283253443211065
-0.15399076078719975 -0.2129318489647122
-0.13736862267141645 -0.24263390536690757
-0.17061289890298306 -0.252534590834306
-0.15399076078719975 -0.24263390536690757
-0.10412434643984986 -0.2129318489647122
-0.07088007020828327 -0.24263390536690757
-0.03763579397671667 -0.2327332198995091
-0.07088007020828327 -0.24263390536690757
-0.07088007020828327 -0.2624352763017045
-0.08750220832406656 -0.24263390536690757
-0.05425793209249997 -0.252534590834306
-0.08750220832406656 -0.2327332198995091
-0.07088007020828327 -0.22283253443211065
-0.07088007020828327 -0.252534590834306
-0.08750220832406656 -0.2624352763017045
-0.12074648455563317 -0.24263390536690757
-0.05425793209249997 -0.20303116349731373
-0.004391517745150069 -0.22283253443211065
-0.02101365586093337 -0.2129318489647122
-0.05425793209249997 -0.2129318489647122
-0.08750220832406656 -0.2129318489647122
-0.08750220832406656 -0.22283253443211065
-0.07088007020828327 -0.1931304780299153
-0.02101365586093337 -0.20303116349731373
0.028852758486416528 -0.2129318489647122
-0.004391517745150069 -0.2129318489647122
-0.004391517745150069 -0.24263390536690757
0.045474896602199825 -0.2129318489647122
-0.004391517745150069 -0.22283253443211065
0.012230620370633228 -0.2327332198995091
0.028852758486416528 -0.2327332198995091
-0.004391517745150069 -0.22283253443211065
-0.004391517745150069 -0.252534590834306
0.028852758486416528 -0.2129318489647122
0.11196344906533302 -0.1931304780299153
0.028852758486416528 -0.2129318489647122
-0.03763579397671667 -0.2129318489647122
-0.07088007020828327 -0.2327332198995091
-0.05425793209249997 -0.22283253443211065
0.012230620370633228 -0.20303116349731373
0.045474896602199825 -0.1931304780299153
0.11196344906533302 -0.20303116349731373
0.06209703471798313 -0.18322979256251684
0.028852758486416528 -0.2129318489647122
-0.03763579397671667 -0.2129318489647122
-0.02101365586093337 -0.1931304780299153
-0.004391517745150069 -0.17332910709511837
0.06209703471798313 -0.18322979256251684
0.028852758486416528 -0.2129318489647122
0.045474896602199825 -0.2129318489647122
0.06209703471798313 -0.20303116349731373
0.09534131094954972 -0.1931304780299153
0.09534131094954972 -0.16342842162771992
0.11196344906533302 -0.20303116349731373
0.11196344906533302 -0.2129318489647122
0.12858558718111632 -0.2129318489647122
0.14520772529689963 -0.1931304780299153
0.2116962777600328 -0.143627050692923
0.24494055399159942 -0.13372636522552456
0.278184830223166 -0.13372636522552456
0.2948069683389493 -0.12382567975812611
0.3446733826862992 -0.143627050692923
0.2948069683389493 -0.13372636522552456
0.3446733826862992 -0.11392499429072765
0.42778407326521567 -0.10402430882332919
0.47765048761256557 -0.10402430882332919
0.5275169019599155 -0.13372636522552456
0.5108947638441322 -0.15352773616032148
0.5773833163072654 -0.16342842162771992
0.6272497306546153 -0.13372636522552456
0.6604940068861819 -0.13372636522552456
0.7103604212335318 -0.16342842162771992
0.7103604212335318 -0.15352773616032148
0.7103604212335318 -0.2129318489647122
0.7436046974650984 -0.18322979256251684
0.7934711118124482 -0.143627050692923
0.9098260786229313 -0.12382567975812611
0.943070354854498 -0.12382567975812611
0.9264482167387147 -0.15352773616032148
0.8599596642755815 -0.16342842162771992
0.7602268355808817 -0.16342842162771992
0.610627592538832 -0.15352773616032148
0.4942726257283489 -0.143627050692923
0.3779176589178658 -0.15352773616032148
0.24494055399159942 -0.143627050692923
0.17845200152846621 -0.16342842162771992
0.09534131094954972 -0.18322979256251684
-0.05425793209249997 -0.18322979256251684
-0.10412434643984986 -0.18322979256251684
-0.10412434643984986 -0.1931304780299153
-0.07088007020828327 -0.1931304780299153
-0.08750220832406656 -0.22283253443211065
-0.05425793209249997 -0.1931304780299153
-0.02101365586093337 -0.18322979256251684
-0.02101365586093337 -0.17332910709511837
-0.03763579397671667 -0.20303116349731373
-0.05425793209249997 -0.2129318489647122
-0.08750220832406656 -0.22283253443211065
-0.13736862267141645 -0.2129318489647122
-0.07088007020828327 -0.1931304780299153
-0.08750220832406656 -0.17332910709511837
-0.03763579397671667 -0.17332910709511837
-0.07088007020828327 -0.20303116349731373
-0.08750220832406656 -0.1931304780299153
-0.08750220832406656 -0.18322979256251684
-0.08750220832406656 -0.17332910709511837
-0.07088007020828327 -0.13372636522552456
-0.05425793209249997 -0.16342842162771992
-0.07088007020828327 -0.18322979256251684
-0.07088007020828327 -0.2129318489647122
-0.15399076078719975 -0.18322979256251684
-0.08750220832406656 -0.20303116349731373
-0.07088007020828327 -0.17332910709511837
-0.03763579397671667 -0.2129318489647122
-0.02101365586093337 -0.1931304780299153
-0.02101365586093337 -0.2129318489647122
-0.02101365586093337 -0.2129318489647122
0.012230620370633228 -0.20303116349731373
-0.004391517745150069 -0.1931304780299153
-0.03763579397671667 -0.1931304780299153
-0.02101365586093337 -0.20303116349731373
-0.02101365586093337 -0.22283253443211065
-0.05425793209249997 -0.18322979256251684
0.012230620370633228 -0.143627050692923
0.012230620370633228 -0.13372636522552456
0.045474896602199825 -0.1931304780299153
0.028852758486416528 -0.29213733270389985
0.11196344906533302 -0.3812435019104859
0.3114291064547326 -0.5297537839214628
0.6771161450019652 -0.6287606385954473
1.1092917360123309 -0.7970722915412211
1.5913337413700466 -1.014887371823987
2.0235093323804123 -1.25250382304155
2.2562192660013785 -1.4208154759873237
2.2063528516540285 -1.5000209597265113
2.1564864373066785 -1.5099216451939097
2.3227078184645116 -1.4604182178569174
2.4889291996223446 -1.4604182178569174
2.6385284426643945 -1.4703189033243158
2.837994100053794 -1.450517532389519
2.9377269287484937 -1.4307161614547221
3.0208376193274105 -1.361411363182933
3.1538147242536767 -1.3317093067807375
3.236925414832593 -1.3119079358459407
3.2036811386010267 -1.2822058794437452
3.17043686236946 -1.2426031375741515
2.8712383762853606 -1.2030003957045576
2.389196370927645 -1.103993541030573
1.8406658131067961 -1.0247880572913854
1.3586238077490804 -0.9554832590195963
0.8267153880440149 -0.905979831682604
0.19507413964424952 -0.8564764043456117
-0.503055661218649 -0.7673702351390257
-0.9684755284605814 -0.6386613240628457
-1.3341625670078139 -0.5396544693888612
-1.450517533818297 -0.48025035658447046
-1.3674068432393807 -0.41094555831268126
-1.2178076001973308 -0.3515414455082906
-1.0682083571552812 -0.2723359617691029
-0.9352312522290148 -0.18322979256251684
-0.9019869759974481 -0.08422293788853229
-0.8022541473027484 -0.03471951055154002
-0.7357655948396152 0.0048832313180537995
-0.6194106280291322 0.05438665865504607
-0.5861663517975655 0.05438665865504607
-0.503055661218649 0.08408871505724143
-0.43656710875551585 0.11379077145943679
-0.45318924687129913 0.11379077145943679
-0.503055661218649 0.08408871505724143
-0.5362999374502156 0.09398940052463989
-0.5362999374502156 0.09398940052463989
-0.48643352310286575 0.14349282786163217
-0.4199449706397325 0.15339351332903062
-0.4698113849870824 0.14349282786163217
-0.4698113849870824 0.14349282786163217
-0.503055661218649 0.08408871505724143
-0.5362999374502156 0.1335921423942337
-0.5362999374502156 0.14349282786163217
-0.5861663517975655 0.18309556973122598
-0.5695442136817822 0.18309556973122598
-0.6027884899133488 0.17319488426382754
-0.5861663517975655 0.16329419879642906
-0.5861663517975655 0.18309556973122598
-0.6194106280291322 0.20289694066602287
-0.5529220755659989 0.23259899706821824
-0.5529220755659989 0.23259899706821824
-0.6027884899133488 0.20289694066602287
-0.6194106280291322 0.16329419879642906
-0.6194106280291322 0.18309556973122598
-0.6027884899133488 0.19299625519862443
-0.5695442136817822 0.2424996825356167
-0.5861663517975655 0.21279762613342135
-0.6194106280291322 0.20289694066602287
-0.6194106280291322 0.20289694066602287
