-0.8805830829706117 0.17184894038916493
-0.8338582787195682 0.2434135710780652
-0.8221770776568073 0.37222990631808567
-0.7637710723430029 0.44379453700698596
-0.7053650670291984 0.5153591676958862
-0.6703214638409157 0.5582979461092263
-0.6235966595898722 0.5010462415581062
-0.6703214638409157 0.37222990631808567
-0.6936838659664375 0.2720394233536253
-0.740408670217481 0.186161866526945
-0.7637710723430029 0.1575360142513849
-0.7637710723430029 0.1575360142513849
-0.7637710723430029 0.14322308811360482
-0.7754522734057637 0.10028430970026467
-0.7988146755312855 0.11459723583804472
-0.7637710723430029 0.14322308811360482
-0.7871334744685247 0.11459723583804472
-0.7637710723430029 0.14322308811360482
-0.8104958765940464 0.12891016197582478
-0.8221770776568073 9.382673580429338e-05
-0.845539479782329 -0.10009665622865607
-0.8922642840333727 -0.07147080395309598
-0.9389890882844162 -0.10009665622865607
-0.9857138925354597 -0.14303543464199625
-0.962351490409938 -0.1859742130553364
-1.0090762946609815 -0.30047762215757684
-1.044119897849264 -0.38635517898425714
-1.0324386967865034 -0.4006681051220372
-1.044119897849264 -0.45791980967315743
-1.055801098912025 -0.5151715142242776
-1.1025259031630685 -0.5581102926376178
-1.0908447021003078 -0.5437973664998377
-1.1025259031630685 -0.6439878494642981
-1.1258883052885904 -0.7012395540154183
-1.172613109539634 -0.7441783324287584
-1.2427003159161993 -0.7871171108420987
-1.3011063212300038 -0.7871171108420987
-1.371193527606569 -0.7584912585665385
-1.3595123265438083 -0.7012395540154183
-1.3127875222927645 -0.6869266278776383
-1.277743919104482 -0.6439878494642981
-1.2543815169789603 -0.6726137017398582
-1.3011063212300038 -0.6869266278776383
-1.2427003159161993 -0.6869266278776383
-1.277743919104482 -0.7441783324287584
-1.266062718041721 -0.8157429631176587
-1.277743919104482 -0.901620519944339
-1.277743919104482 -0.9731851506332393
-1.2310191148534384 -0.9159334460821191
-1.1959755116651558 -0.9159334460821191
-1.1375695063513513 -0.872994667668779
-1.1258883052885904 -0.8157429631176587
-1.1375695063513513 -0.7728041847043186
-1.0908447021003078 -0.7728041847043186
-1.0791635010375469 -0.7298654062909784
-1.0090762946609815 -0.7441783324287584
-0.9740326914726989 -0.7441783324287584
-0.9389890882844162 -0.7441783324287584
-0.8689018819078509 -0.7728041847043186
-0.7988146755312855 -0.7728041847043186
-0.7754522734057637 -0.7012395540154183
-0.7871334744685247 -0.6296749233265181
-0.740408670217481 -0.5151715142242776
-0.740408670217481 -0.38635517898425714
-0.7287274691547202 -0.31479054829535685
-0.6586402627781549 -0.28616469601979677
-0.6235966595898722 -0.343416400570917
-0.6002342574643504 -0.4006681051220372
-0.5535094532133069 -0.4149810312598172
-0.5535094532133069 -0.4006681051220372
-0.5651906542760677 -0.38635517898425714
-0.5535094532133069 -0.2575388437442367
-0.5885530564015895 -0.2575388437442367
-0.5885530564015895 -0.20028713919311644
-0.5768718553388287 -0.2146000653308965
-0.5651906542760677 -0.12872250850421618
-0.5885530564015895 -0.1573483607797763
-0.5651906542760677 -0.14303543464199625
-0.5768718553388287 -0.17166128691755633
-0.5651906542760677 -0.12872250850421618
-0.5651906542760677 -0.14303543464199625
-0.5184658500250242 -0.07147080395309598
-0.4717410457739806 -0.04284495167753587
-0.4717410457739806 9.382673580429338e-05
-0.46005984471121975 -0.08578373009087603
-0.49510344789950245 -0.08578373009087603
-0.49510344789950245 -0.11440958236643613
-0.5067846489622633 -0.10009665622865607
-0.5535094532133069 -0.014219099401975759
-0.6119154585271113 0.0573455312869245
-0.6586402627781549 0.10028430970026467
-0.6586402627781549 0.14322308811360482
-0.6586402627781549 0.12891016197582478
-0.635277860652633 0.07165845742470456
-0.6002342574643504 0.08597138356248461
-0.6235966595898722 0.08597138356248461
-0.646959061715394 0.11459723583804472
-0.6703214638409157 0.10028430970026467
-0.6586402627781549 0.10028430970026467
-0.6002342574643504 0.14322308811360482
-0.5768718553388287 0.08597138356248461
-0.530147051087785 0.0573455312869245
-0.4717410457739806 0.0287196790113644
-0.46005984471121975 0.043032605149144455
-0.4717410457739806 -0.014219099401975759
-0.541828252150546 -0.05715787781531592
-0.5535094532133069 -0.11440958236643613
-0.5885530564015895 -0.11440958236643613
-0.6235966595898722 -0.08578373009087603
-0.5885530564015895 -0.11440958236643613
-0.541828252150546 -0.10009665622865607
-0.4717410457739806 -0.028532025539755812
-0.530147051087785 0.014406752873584347
-0.5768718553388287 9.382673580429338e-05
-0.6586402627781549 0.0287196790113644
-0.7754522734057637 0.043032605149144455
-0.7988146755312855 0.043032605149144455
-0.8104958765940464 0.07165845742470456
-0.7637710723430029 0.0287196790113644
-0.7287274691547202 9.382673580429338e-05
-0.6936838659664375 -0.028532025539755812
-0.6820026649036767 -0.04284495167753587
-0.6235966595898722 9.382673580429338e-05
-0.635277860652633 0.014406752873584347
-0.6002342574643504 0.08597138356248461
-0.6235966595898722 0.043032605149144455
-0.6235966595898722 0.0287196790113644
-0.6820026649036767 -0.05715787781531592
-0.6820026649036767 -0.12872250850421618
-0.6586402627781549 -0.2146000653308965
-0.6820026649036767 -0.24322591760645662
-0.6820026649036767 -0.22891299146867655
-0.635277860652633 -0.12872250850421618
-0.6235966595898722 -0.05715787781531592
-0.5651906542760677 -0.08578373009087603
-0.541828252150546 -0.1573483607797763
-0.530147051087785 -0.07147080395309598
-0.49510344789950245 -0.014219099401975759
-0.436697442585698 -0.04284495167753587
-0.3899726383346544 -0.08578373009087603
-0.4250162415229371 -0.08578373009087603
-0.46005984471121975 -0.12872250850421618
-0.49510344789950245 -0.04284495167753587
-0.5184658500250242 0.014406752873584347
-0.5184658500250242 0.0287196790113644
-0.44837864364845886 -0.12872250850421618
-0.33156663302085 -0.2146000653308965
-0.2848418287698064 -0.20028713919311644
-0.16802981814219756 -0.2146000653308965
-0.07458020964011043 -0.10009665622865607
-0.09794261176563221 -0.14303543464199625
-0.07458020964011043 -0.12872250850421618
-0.06289900857734955 -0.028532025539755812
-0.03953660645182777 0.10028430970026467
-0.016174204326305994 0.12891016197582478
-0.004493003263545106 0.12891016197582478
-0.016174204326305994 0.12891016197582478
-0.07458020964011043 0.22910064494028515
-0.13298621495391488 0.4008557585936458
-0.2030734213304802 0.45810746314476597
-0.226435823456002 0.5153591676958862
-0.29652302983256734 0.4294816108692059
-0.3198854319580891 0.30066527562918544
-0.26147942664428464 0.25772649721584523
-0.24979822558152376 0.17184894038916493
-0.21475462239324108 0.22910064494028515
-0.17971101920495844 0.25772649721584523
-0.13298621495391488 0.30066527562918544
-0.08626141070287133 0.31497820176696545
-0.08626141070287133 0.44379453700698596
-0.09794261176563221 0.47242038928254604
-0.19139222026771932 0.4867333154203261
-0.29652302983256734 0.5153591676958862
-0.36661023620913263 0.4008557585936458
-0.4133350404601762 0.17184894038916493
-0.44837864364845886 0.0573455312869245
-0.4834222468367415 -0.14303543464199625
-0.541828252150546 -0.1859742130553364
-0.6235966595898722 -0.1573483607797763
-0.6703214638409157 -0.08578373009087603
-0.7053650670291984 -0.04284495167753587
-0.752089871280242 -0.04284495167753587
-0.740408670217481 -0.04284495167753587
-0.6820026649036767 -0.05715787781531592
-0.6119154585271113 -0.14303543464199625
-0.5651906542760677 -0.11440958236643613
-0.6119154585271113 -0.11440958236643613
-0.7053650670291984 -0.04284495167753587
-0.752089871280242 0.0287196790113644
-0.8221770776568073 0.014406752873584347
-0.845539479782329 0.0573455312869245
-0.7871334744685247 0.014406752873584347
-0.752089871280242 -0.07147080395309598
-0.7170462680919593 -0.1859742130553364
-0.7170462680919593 -0.30047762215757684
-0.7170462680919593 -0.2575388437442367
-0.7754522734057637 -0.2575388437442367
-0.7170462680919593 -0.11440958236643613
-0.740408670217481 -0.014219099401975759
-0.7170462680919593 0.07165845742470456
-0.7170462680919593 0.014406752873584347
-0.6820026649036767 0.014406752873584347
-0.6936838659664375 -0.1859742130553364
-0.6936838659664375 -0.28616469601979677
-0.7053650670291984 -0.31479054829535685
-0.740408670217481 -0.3291034744331369
-0.7287274691547202 -0.28616469601979677
-0.740408670217481 -0.4006681051220372
-0.7871334744685247 -0.6869266278776383
-0.752089871280242 -1.2165048949755002
-0.6586402627781549 -1.8462736450378225
-0.46005984471121975 -2.476042395100145
-0.15634861707943665 -3.0199335883357867
0.19408741480339 -3.606763559984769
0.5328422456234557 -4.136341827082631
0.7431038647531517 -4.5514166850782525
0.7664662668786736 -4.680233020318273
0.7431038647531517 -4.479852054389353
0.7898286690041953 -4.036151344118171
1.023452690259413 -3.5495118554336487
1.455657129581566 -2.9483689576468866
2.074760785907893 -2.1611580200689837
2.588733632669372 -1.1449402642866
2.8690824581756336 0.11459723583804472
2.705545643296981 1.3741347359626894
2.1331667912216976 2.4619171224339733
1.1052210976987393 3.163250503185196
-0.06289900857734955 3.335005616838557
-1.160931908476873 3.0344341679451756
-2.0370219881839398 2.390352491745073
-2.4925888296316145 1.7176449632694106
-2.7729376551378757 1.0449374347937481
-2.8780684647027237 0.6155496506603466
-2.9831992742675717 0.25772649721584523
-3.1000112848951806 0.0287196790113644
-3.2285044965855505 -0.20028713919311644
-3.35699770827592 -0.38635517898425714
-3.450447316778007 -0.5008585880864975
-3.4971721210290507 -0.5581102926376178
-3.5088533220918117 -0.5724232187753978
-3.5088533220918117 -0.5724232187753978
-3.473809718903529 -0.5294844403620577
-3.4154037135897246 -0.44360688353537736
-3.3920413114642027 -0.4865456619487175
-3.2985917029621157 -0.38635517898425714
-3.146736089146224 -0.31479054829535685
-2.83134366045168 -0.4149810312598172
-2.410820422192288 -0.47223273581093744
-2.001978384995657 -0.47223273581093744
-1.6281799509873085 -0.28616469601979677
-1.2427003159161993 -0.11440958236643613
-1.0090762946609815 0.12891016197582478
-0.8689018819078509 0.28635234949140537
-0.752089871280242 0.3579169801803056
-0.6936838659664375 0.37222990631808567
-0.7287274691547202 0.44379453700698596
-0.7170462680919593 0.45810746314476597
-0.752089871280242 0.44379453700698596
-0.7287274691547202 0.44379453700698596
-0.6820026649036767 0.4294816108692059
-0.6703214638409157 0.38654283245586574
-0.6586402627781549 0.31497820176696545
-0.646959061715394 0.2434135710780652
-0.635277860652633 0.12891016197582478
-0.6002342574643504 0.11459723583804472
-0.5651906542760677 0.08597138356248461
-0.5184658500250242 0.08597138356248461
-0.4717410457739806 0.11459723583804472
-0.4717410457739806 0.07165845742470456
-0.4717410457739806 9.382673580429338e-05
-0.5184658500250242 -0.08578373009087603
-0.5768718553388287 -0.14303543464199625
-0.6002342574643504 -0.14303543464199625
-0.6586402627781549 -0.11440958236643613
-0.7287274691547202 -0.05715787781531592
-0.7637710723430029 -0.05715787781531592
-0.7871334744685247 -0.05715787781531592
-0.740408670217481 -0.04284495167753587
-0.740408670217481 -0.07147080395309598
-0.7170462680919593 -0.08578373009087603
-0.7170462680919593 -0.07147080395309598
-0.740408670217481 -0.10009665622865607
-0.7637710723430029 -0.30047762215757684
-0.8104958765940464 -0.47223273581093744
-0.8104958765940464 -0.6296749233265181
-0.8689018819078509 -0.7441783324287584
-0.9156266861588944 -0.8586817415309989
-0.9973950935982207 -0.9445592983576793
-1.0791635010375469 -0.901620519944339
-1.1142071042258295 -0.8157429631176587
-1.067482299974786 -0.7298654062909784
-1.044119897849264 -0.7155524801531984
-1.0090762946609815 -0.7012395540154183
-0.962351490409938 -0.7584912585665385
-0.9039454850961335 -0.8014300369798787
-0.962351490409938 -0.8014300369798787
-0.9973950935982207 -0.7871171108420987
-1.0324386967865034 -0.8443688153932188
-1.055801098912025 -0.887307593806559
-1.1025259031630685 -0.9302463722198991
-1.149250707414112 -0.9159334460821191
-1.1375695063513513 -0.8157429631176587
-1.067482299974786 -0.7441783324287584
-1.0324386967865034 -0.7871171108420987
-1.0090762946609815 -0.887307593806559
-0.9973950935982207 -1.0018110029087994
-1.0207574957237424 -1.0876885597354797
-0.9389890882844162 -1.0876885597354797
-0.845539479782329 -1.0733756335976996
-0.7170462680919593 -1.0876885597354797
-0.6703214638409157 -1.1020014858732599
-0.6586402627781549 -1.0447497813221396
-0.6820026649036767 -1.0018110029087994
-0.6820026649036767 -0.9445592983576793
-0.6936838659664375 -0.7871171108420987
-0.6235966595898722 -0.6869266278776383
-0.5535094532133069 -0.601049071050958
-0.46005984471121975 -0.5151715142242776
-0.4250162415229371 -0.5867361449131779
-0.34324783408361087 -0.5294844403620577
-0.29652302983256734 -0.5008585880864975
-0.2731606277070455 -0.35772932670869706
-0.2731606277070455 -0.4006681051220372
-0.3198854319580891 -0.4006681051220372
-0.33156663302085 -0.5437973664998377
-0.3082042308953282 -0.5437973664998377
-0.24979822558152376 -0.5294844403620577
-0.21475462239324108 -0.4149810312598172
-0.17971101920495844 -0.2575388437442367
-0.16802981814219756 -0.08578373009087603
-0.14466741601667577 -0.04284495167753587
-0.16802981814219756 -0.07147080395309598
-0.19139222026771932 -0.14303543464199625
-0.21475462239324108 -0.20028713919311644
-0.2030734213304802 -0.20028713919311644
-0.26147942664428464 -0.22891299146867655
-0.21475462239324108 -0.2146000653308965
-0.226435823456002 -0.1573483607797763
-0.21475462239324108 -0.07147080395309598
-0.2030734213304802 -0.04284495167753587
-0.17971101920495844 -0.014219099401975759
-0.2030734213304802 -0.04284495167753587
-0.17971101920495844 -0.08578373009087603
-0.16802981814219756 -0.08578373009087603
-0.15634861707943665 -0.07147080395309598
-0.14466741601667577 -0.028532025539755812
-0.16802981814219756 0.014406752873584347
-0.16802981814219756 0.10028430970026467
-0.15634861707943665 0.12891016197582478
-0.15634861707943665 0.08597138356248461
-0.226435823456002 0.043032605149144455
-0.23811702451876288 -0.014219099401975759
-0.23811702451876288 -0.10009665622865607
-0.26147942664428464 -0.12872250850421618
-0.23811702451876288 -0.17166128691755633
-0.24979822558152376 -0.14303543464199625
-0.21475462239324108 -0.14303543464199625
-0.17971101920495844 -0.11440958236643613
-0.24979822558152376 -0.17166128691755633
-0.3082042308953282 -0.1573483607797763
-0.33156663302085 -0.14303543464199625
-0.3782914372718935 -0.10009665622865607
-0.34324783408361087 9.382673580429338e-05
-0.29652302983256734 0.0287196790113644
-0.24979822558152376 0.186161866526945
-0.16802981814219756 0.12891016197582478
-0.15634861707943665 0.0573455312869245
-0.16802981814219756 -0.11440958236643613
-0.26147942664428464 -0.24322591760645662
-0.29652302983256734 -0.2718517698820167
-0.3198854319580891 -0.31479054829535685
-0.29652302983256734 -0.17166128691755633
-0.2731606277070455 -0.08578373009087603
-0.2848418287698064 9.382673580429338e-05
-0.24979822558152376 0.0287196790113644
-0.2030734213304802 9.382673580429338e-05
-0.16802981814219756 -0.04284495167753587
-0.13298621495391488 -0.10009665622865607
-0.12130501389115399 -0.17166128691755633
-0.12130501389115399 -0.2575388437442367
-0.2030734213304802 -0.2575388437442367
-0.24979822558152376 -0.24322591760645662
-0.29652302983256734 -0.24322591760645662
-0.3082042308953282 -0.1573483607797763
-0.3082042308953282 -0.04284495167753587
-0.2731606277070455 9.382673580429338e-05
-0.23811702451876288 0.08597138356248461
-0.16802981814219756 0.10028430970026467
-0.1096238128283931 0.014406752873584347
-0.07458020964011043 -0.11440958236643613
-0.05121780751458866 -0.2718517698820167
-0.08626141070287133 -0.35772932670869706
-0.05121780751458866 -0.4006681051220372
-0.027855405389066883 -0.22891299146867655
-0.06289900857734955 -0.1573483607797763
0.007188197799215783 -0.04284495167753587
0.05391300205025934 -0.08578373009087603
0.07727540417578112 -0.2575388437442367
0.14736261055234645 -0.3720422528464771
0.21744981692891177 -0.44360688353537736
0.24081221905443356 -0.4006681051220372
0.3342618275565207 -0.30047762215757684
0.35762422968204244 -0.2575388437442367
0.40434903393308597 -0.14303543464199625
0.4277114360586078 -0.04284495167753587
0.45107383818412955 0.0287196790113644
0.46275503924689043 0.014406752873584347
0.45107383818412955 0.043032605149144455
0.43939263712136867 0.043032605149144455
0.4160302349958469 0.17184894038916493
0.35762422968204244 0.2720394233536253
0.3225806264937598 0.37222990631808567
0.2758558222427162 0.44379453700698596
0.21744981692891177 0.45810746314476597
0.17072501267786822 0.4294816108692059
0.12400020842682467 0.3436040540425256
0.07727540417578112 0.25772649721584523
0.12400020842682467 0.186161866526945
0.2057686158661509 0.10028430970026467
0.2641746211799553 0.0287196790113644
0.3809866318075642 -0.014219099401975759
0.4277114360586078 9.382673580429338e-05
0.4160302349958469 0.08597138356248461
0.34594302861928156 0.2434135710780652
0.2057686158661509 0.4151686847314258
0.088956605238542 0.4867333154203261
-0.027855405389066883 0.44379453700698596
-0.016174204326305994 0.4008557585936458
-0.027855405389066883 0.2720394233536253
-0.09794261176563221 0.14322308811360482
-0.12130501389115399 -0.07147080395309598
-0.14466741601667577 -0.14303543464199625
-0.21475462239324108 -0.14303543464199625
-0.26147942664428464 -0.1573483607797763
-0.29652302983256734 -0.05715787781531592
-0.2848418287698064 0.014406752873584347
-0.2848418287698064 0.0287196790113644
-0.23811702451876288 -0.028532025539755812
-0.226435823456002 -0.14303543464199625
-0.26147942664428464 -0.2575388437442367
-0.24979822558152376 -0.30047762215757684
-0.26147942664428464 -0.30047762215757684
-0.3198854319580891 -0.20028713919311644
-0.3198854319580891 -0.14303543464199625
-0.4133350404601762 -0.1859742130553364
-0.40165383939741534 -0.1573483607797763
-0.4717410457739806 -0.1573483607797763
-0.436697442585698 -0.1859742130553364
-0.36661023620913263 -0.14303543464199625
-0.2848418287698064 -0.2575388437442367
-0.23811702451876288 -0.3720422528464771
-0.2731606277070455 -0.4149810312598172
-0.33156663302085 -0.44360688353537736
-0.3198854319580891 -0.45791980967315743
-0.2848418287698064 -0.4149810312598172
-0.24979822558152376 -0.2575388437442367
-0.21475462239324108 -0.31479054829535685
-0.2731606277070455 -0.4865456619487175
-0.3198854319580891 -0.7012395540154183
-0.40165383939741534 -0.872994667668779
-0.44837864364845886 -1.0733756335976996
-0.4133350404601762 -1.402572934766641
-0.2731606277070455 -1.8462736450378225
-0.027855405389066883 -2.490355321237925
0.3342618275565207 -3.1916887019891473
0.6963790605021082 -3.92164793501593
0.9533654838828477 -4.5514166850782525
1.1169022987615003 -4.866301060109413
1.128583499824261 -4.880613986247194
1.0701774945104567 -4.479852054389353
1.1519459019497829 -3.9788996395670506
1.455657129581566 -3.4063825940558483
1.9579487752802842 -2.6907362871668457
2.5536900294810896 -1.946464128002283
3.1027064794308514 -1.0304368551843595
3.324649299623308 0.0287196790113644
3.137750082619134 1.1880666961715487
2.4602404209790025 2.304474934918393
1.350526320016718 2.9628695372562754
0.15904381161510733 3.134624650909636
-0.9389890882844162 2.848366128154035
-1.7333107605521565 2.247223230367273
-2.200558803062592 1.54588984961605
-2.422501623255049 0.9590598779670678
-2.527632432819897 0.5726108722470065
-2.5977196391964625 0.3292911279047455
-2.7612564540751148 0.1575360142513849
-2.9131120678910065 0.043032605149144455
-3.0766488827696588 -0.07147080395309598
-3.263548099773833 -0.2718517698820167
-3.3336353061503985 -0.4149810312598172
-3.345316507213159 -0.4865456619487175
-3.345316507213159 -0.5724232187753978
-3.3219541050876376 -0.6439878494642981
-3.275229300836594 -0.7298654062909784
-3.1934608933972677 -0.7155524801531984
-3.0766488827696588 -0.7298654062909784
-2.95983687214205 -0.6726137017398582
-2.737894051949593 -0.7012395540154183
-2.4925888296316145 -0.6583007756020781
-2.1655151998743096 -0.5724232187753978
-1.791716765865961 -0.5437973664998377
-1.38287472866933 -0.3720422528464771
-1.0324386967865034 -0.20028713919311644
-0.752089871280242 -0.10009665622865607
-0.5651906542760677 0.043032605149144455
-0.4250162415229371 0.1575360142513849
-0.40165383939741534 0.30066527562918544
-0.4250162415229371 0.30066527562918544
-0.34324783408361087 0.3292911279047455
-0.3082042308953282 0.3579169801803056
-0.26147942664428464 0.3579169801803056
-0.21475462239324108 0.2720394233536253
-0.19139222026771932 0.17184894038916493
-0.16802981814219756 0.0573455312869245
-0.2030734213304802 9.382673580429338e-05
-0.23811702451876288 -0.014219099401975759
-0.226435823456002 0.0573455312869245
-0.226435823456002 0.1575360142513849
-0.2030734213304802 0.20047479266472504
-0.2030734213304802 0.28635234949140537
-0.19139222026771932 0.17184894038916493
-0.226435823456002 0.08597138356248461
-0.24979822558152376 -0.014219099401975759
-0.226435823456002 -0.028532025539755812
-0.23811702451876288 -0.07147080395309598
-0.2848418287698064 -0.11440958236643613
-0.33156663302085 -0.10009665622865607
-0.34324783408361087 -0.12872250850421618
-0.36661023620913263 -0.1859742130553364
-0.35492903514637175 -0.2146000653308965
-0.33156663302085 -0.2575388437442367
-0.35492903514637175 -0.20028713919311644
-0.3782914372718935 -0.20028713919311644
-0.3899726383346544 -0.2718517698820167
-0.436697442585698 -0.38635517898425714
-0.49510344789950245 -0.5151715142242776
-0.5067846489622633 -0.5867361449131779
-0.5535094532133069 -0.6439878494642981
-0.5768718553388287 -0.6726137017398582
-0.5885530564015895 -0.7298654062909784
-0.6235966595898722 -0.7584912585665385
-0.6703214638409157 -0.7155524801531984
-0.6820026649036767 -0.7441783324287584
-0.6703214638409157 -0.8157429631176587
-0.6586402627781549 -0.8443688153932188
-0.6703214638409157 -0.7871171108420987
-0.7053650670291984 -0.8586817415309989
-0.6936838659664375 -0.872994667668779
-0.7053650670291984 -0.9445592983576793
-0.7287274691547202 -1.0018110029087994
-0.7287274691547202 -1.0447497813221396
-0.7287274691547202 -1.0876885597354797
-0.6936838659664375 -1.1306273381488199
-0.7287274691547202 -1.1020014858732599
-0.740408670217481 -1.0733756335976996
-0.7170462680919593 -0.9302463722198991
-0.7170462680919593 -0.901620519944339
-0.6936838659664375 -0.901620519944339
-0.6820026649036767 -0.9302463722198991
-0.6703214638409157 -0.9588722244954593
-0.6002342574643504 -1.0018110029087994
-0.541828252150546 -1.0447497813221396
-0.5768718553388287 -1.0018110029087994
-0.5067846489622633 -0.9445592983576793
-0.4250162415229371 -0.887307593806559
-0.36661023620913263 -0.7871171108420987
-0.3082042308953282 -0.6726137017398582
-0.26147942664428464 -0.6726137017398582
-0.24979822558152376 -0.6296749233265181
-0.21475462239324108 -0.7441783324287584
-0.17971101920495844 -0.7728041847043186
-0.12130501389115399 -0.7155524801531984
-0.1096238128283931 -0.6726137017398582
-0.09794261176563221 -0.615361997188738
-0.1096238128283931 -0.5437973664998377
-0.08626141070287133 -0.5008585880864975
-0.07458020964011043 -0.45791980967315743
-0.06289900857734955 -0.4865456619487175
-0.03953660645182777 -0.5151715142242776
0.01886939886197667 -0.47223273581093744
0.04223180098749845 -0.38635517898425714
0.05391300205025934 -0.2575388437442367
0.12400020842682467 -0.17166128691755633
0.12400020842682467 -0.14303543464199625
0.1006378063013029 -0.17166128691755633
0.07727540417578112 -0.2146000653308965
0.06559420311302022 -0.2146000653308965
0.03055059992473756 -0.2718517698820167
0.007188197799215783 -0.2575388437442367
-0.027855405389066883 -0.2146000653308965
-0.016174204326305994 -0.2146000653308965
-0.004493003263545106 -0.12872250850421618
-0.027855405389066883 0.014406752873584347
-0.004493003263545106 0.0287196790113644
0.01886939886197667 -0.028532025539755812
-0.004493003263545106 -0.14303543464199625
0.01886939886197667 -0.20028713919311644
-0.004493003263545106 -0.28616469601979677
-0.03953660645182777 -0.28616469601979677
-0.027855405389066883 -0.17166128691755633
-0.05121780751458866 -0.11440958236643613
-0.08626141070287133 -0.014219099401975759
-0.09794261176563221 0.08597138356248461
-0.09794261176563221 0.12891016197582478
-0.05121780751458866 0.12891016197582478
-0.06289900857734955 0.11459723583804472
-0.05121780751458866 0.12891016197582478
-0.03953660645182777 0.08597138356248461
-0.05121780751458866 0.043032605149144455
-0.06289900857734955 9.382673580429338e-05
-0.15634861707943665 -0.05715787781531592
-0.16802981814219756 -0.07147080395309598
-0.17971101920495844 -0.11440958236643613
-0.13298621495391488 -0.1573483607797763
-0.12130501389115399 -0.2146000653308965
-0.13298621495391488 -0.28616469601979677
-0.13298621495391488 -0.2718517698820167
-0.13298621495391488 -0.22891299146867655
-0.15634861707943665 -0.12872250850421618
-0.14466741601667577 9.382673580429338e-05
-0.15634861707943665 0.014406752873584347
-0.19139222026771932 0.07165845742470456
-0.16802981814219756 0.014406752873584347
-0.17971101920495844 -0.11440958236643613
-0.14466741601667577 -0.14303543464199625
-0.17971101920495844 -0.20028713919311644
-0.15634861707943665 -0.17166128691755633
-0.2030734213304802 -0.2146000653308965
-0.19139222026771932 -0.1573483607797763
-0.15634861707943665 -0.22891299146867655
-0.19139222026771932 -0.1859742130553364
-0.2030734213304802 -0.1859742130553364
-0.2030734213304802 -0.14303543464199625
-0.17971101920495844 -0.14303543464199625
-0.17971101920495844 -0.20028713919311644
-0.21475462239324108 -0.2146000653308965
-0.17971101920495844 -0.20028713919311644
-0.15634861707943665 -0.17166128691755633
-0.17971101920495844 -0.1573483607797763
-0.17971101920495844 -0.11440958236643613
-0.16802981814219756 -0.05715787781531592
-0.19139222026771932 -0.11440958236643613
-0.15634861707943665 -0.14303543464199625
-0.14466741601667577 -0.2146000653308965
-0.15634861707943665 -0.2575388437442367
-0.14466741601667577 -0.2718517698820167
-0.14466741601667577 -0.1859742130553364
-0.16802981814219756 -0.17166128691755633
-0.13298621495391488 -0.12872250850421618
-0.14466741601667577 -0.028532025539755812
-0.12130501389115399 -0.04284495167753587
-0.13298621495391488 -0.05715787781531592
-0.08626141070287133 -0.14303543464199625
-0.12130501389115399 -0.17166128691755633
-0.03953660645182777 -0.2146000653308965
0.03055059992473756 -0.31479054829535685
0.07727540417578112 -0.30047762215757684
0.1006378063013029 -0.343416400570917
0.07727540417578112 -0.28616469601979677
0.03055059992473756 -0.20028713919311644
0.03055059992473756 -0.14303543464199625
0.01886939886197667 -0.12872250850421618
0.03055059992473756 -0.17166128691755633
0.088956605238542 -0.30047762215757684
0.17072501267786822 -0.38635517898425714
0.2758558222427162 -0.5437973664998377
0.3693054307448033 -0.5867361449131779
0.35762422968204244 -0.47223273581093744
0.3926678328703251 -0.343416400570917
0.4160302349958469 -0.04284495167753587
0.45107383818412955 0.17184894038916493
0.4277114360586078 0.4294816108692059
0.45107383818412955 0.6298625767981266
0.45107383818412955 0.5439850199714463
0.43939263712136867 0.44379453700698596
0.3809866318075642 0.3292911279047455
0.31089942543099885 0.3579169801803056
0.2641746211799553 0.3579169801803056
0.2057686158661509 0.3436040540425256
0.1824062137406291 0.25772649721584523
0.21744981692891177 0.21478771880250508
0.24081221905443356 0.14322308811360482
0.31089942543099885 0.14322308811360482
0.3225806264937598 0.2434135710780652
0.34594302861928156 0.30066527562918544
0.34594302861928156 0.37222990631808567
0.3342618275565207 0.2720394233536253
0.22913101799167265 0.20047479266472504
0.19408741480339 0.0573455312869245
0.12400020842682467 0.014406752873584347
0.07727540417578112 -0.04284495167753587
0.03055059992473756 -0.028532025539755812
-0.03953660645182777 0.0287196790113644
-0.09794261176563221 9.382673580429338e-05
-0.15634861707943665 -0.014219099401975759
-0.17971101920495844 0.0287196790113644
-0.23811702451876288 0.0573455312869245
-0.2030734213304802 0.10028430970026467
-0.19139222026771932 0.0287196790113644
-0.19139222026771932 -0.014219099401975759
-0.16802981814219756 -0.08578373009087603
-0.2030734213304802 -0.14303543464199625
-0.2030734213304802 -0.1573483607797763
-0.226435823456002 -0.1573483607797763
-0.26147942664428464 -0.08578373009087603
-0.24979822558152376 -0.14303543464199625
-0.29652302983256734 -0.2575388437442367
-0.3198854319580891 -0.31479054829535685
-0.3082042308953282 -0.343416400570917
-0.3082042308953282 -0.24322591760645662
-0.26147942664428464 -0.22891299146867655
-0.26147942664428464 -0.17166128691755633
-0.21475462239324108 -0.12872250850421618
-0.2030734213304802 -0.2146000653308965
-0.23811702451876288 -0.2575388437442367
-0.23811702451876288 -0.20028713919311644
-0.3198854319580891 -0.2146000653308965
-0.3082042308953282 -0.24322591760645662
-0.29652302983256734 -0.24322591760645662
-0.29652302983256734 -0.24322591760645662
-0.2731606277070455 -0.30047762215757684
-0.26147942664428464 -0.2575388437442367
-0.21475462239324108 -0.3291034744331369
-0.2848418287698064 -0.3720422528464771
-0.2731606277070455 -0.5581102926376178
-0.3198854319580891 -0.8586817415309989
-0.2731606277070455 -1.20219196883772
-0.19139222026771932 -1.6602056052466818
0.007188197799215783 -2.189783872344544
0.34594302861928156 -2.733675065580186
0.8015098700669562 -3.263253332678048
1.2220331083263483 -3.86439623046481
1.5374255370208922 -4.308096940735992
1.6425563465857402 -4.580042537353813
1.6191939444602184 -4.465539128251573
1.5140631348953704 -4.150654753220411
1.5140631348953704 -3.649702338398109
1.7360059550878273 -3.2918791849536078
2.16821039440998 -2.790926770131306
2.7522704475480246 -2.1468450939312036
3.114387680493612 -1.1449402642866
3.231199691121221 0.07165845742470456
2.8924448603011554 1.4456993666515896
2.051398383782371 2.519168826985094
0.8832782775062824 3.134624650909636
-0.35492903514637175 3.0916858724962957
-1.4062371307948518 2.4762300485717534
-2.1538339988115487 1.6890191109938506
-2.632763242384745 0.9018081734159477
-2.854706062577202 0.3292911279047455
-3.0065616763930936 -0.028532025539755812
-3.0883300838324197 -0.2718517698820167
-3.1817796923345067 -0.47223273581093744
-3.1934608933972677 -0.6869266278776383
-3.2285044965855505 -0.8300558892554388
-3.2168232955227896 -0.9302463722198991
-3.2051420944600286 -0.872994667668779
-3.1817796923345067 -0.8014300369798787
-3.170098491271746 -0.6296749233265181
-3.135054888083463 -0.5724232187753978
-3.029924078518615 -0.5437973664998377
-2.936474470016528 -0.7012395540154183
-2.749575253012354 -0.8443688153932188
-2.4575452264433317 -0.887307593806559
-2.0603843903094616 -0.8586817415309989
-1.6515423531128304 -0.7441783324287584
-1.2310191148534384 -0.5437973664998377
-0.9039454850961335 -0.30047762215757684
-0.646959061715394 -0.08578373009087603
-0.44837864364845886 0.14322308811360482
-0.3782914372718935 0.2720394233536253
-0.36661023620913263 0.3579169801803056
-0.35492903514637175 0.47242038928254604
-0.4250162415229371 0.4867333154203261
-0.4250162415229371 0.5153591676958862
-0.436697442585698 0.37222990631808567
-0.4250162415229371 0.28635234949140537
-0.36661023620913263 0.10028430970026467
-0.29652302983256734 0.0573455312869245
-0.21475462239324108 0.08597138356248461
-0.13298621495391488 0.10028430970026467
-0.13298621495391488 0.14322308811360482
-0.13298621495391488 0.186161866526945
-0.1096238128283931 0.2434135710780652
-0.12130501389115399 0.2434135710780652
-0.13298621495391488 0.186161866526945
-0.14466741601667577 0.14322308811360482
-0.2030734213304802 0.11459723583804472
-0.26147942664428464 0.11459723583804472
-0.29652302983256734 0.0287196790113644
-0.35492903514637175 -0.08578373009087603
-0.34324783408361087 -0.1573483607797763
-0.33156663302085 -0.1859742130553364
-0.35492903514637175 -0.20028713919311644
-0.35492903514637175 -0.20028713919311644
-0.3782914372718935 -0.1573483607797763
-0.436697442585698 -0.11440958236643613
-0.4717410457739806 -0.1573483607797763
-0.4717410457739806 -0.2718517698820167
-0.4717410457739806 -0.4149810312598172
-0.49510344789950245 -0.5437973664998377
-0.49510344789950245 -0.6296749233265181
-0.5184658500250242 -0.6296749233265181
-0.5768718553388287 -0.5581102926376178
-0.6119154585271113 -0.5724232187753978
-0.6586402627781549 -0.601049071050958
-0.6586402627781549 -0.6439878494642981
-0.6586402627781549 -0.601049071050958
-0.6820026649036767 -0.6583007756020781
-0.635277860652633 -0.7584912585665385
-0.635277860652633 -0.8586817415309989
-0.646959061715394 -0.9159334460821191
-0.6586402627781549 -0.9874980767710194
-0.6820026649036767 -1.0304368551843595
-0.7170462680919593 -1.0161239290465796
-0.7871334744685247 -1.0161239290465796
-0.7754522734057637 -1.0733756335976996
-0.7754522734057637 -1.0876885597354797
-0.7637710723430029 -1.0590627074599197
-0.752089871280242 -0.9302463722198991
-0.7287274691547202 -0.8300558892554388
-0.752089871280242 -0.7584912585665385
-0.7053650670291984 -0.6869266278776383
-0.740408670217481 -0.7012395540154183
-0.6703214638409157 -0.7012395540154183
-0.5885530564015895 -0.872994667668779
-0.5535094532133069 -1.0447497813221396
-0.5184658500250242 -1.1020014858732599
-0.46005984471121975 -1.1306273381488199
-0.40165383939741534 -1.1020014858732599
-0.2848418287698064 -0.9731851506332393
-0.2030734213304802 -0.8586817415309989
-0.2030734213304802 -0.7584912585665385
-0.16802981814219756 -0.7584912585665385
-0.2030734213304802 -0.7298654062909784
-0.14466741601667577 -0.7155524801531984
-0.14466741601667577 -0.6869266278776383
-0.09794261176563221 -0.6726137017398582
-0.06289900857734955 -0.5867361449131779
-0.05121780751458866 -0.5437973664998377
-0.016174204326305994 -0.4865456619487175
0.007188197799215783 -0.38635517898425714
0.04223180098749845 -0.30047762215757684
0.088956605238542 -0.17166128691755633
0.1006378063013029 -0.028532025539755812
0.12400020842682467 -0.11440958236643613
0.088956605238542 -0.1573483607797763
0.05391300205025934 -0.2718517698820167
0.06559420311302022 -0.31479054829535685
0.03055059992473756 -0.343416400570917
0.05391300205025934 -0.38635517898425714
0.04223180098749845 -0.4006681051220372
0.04223180098749845 -0.4006681051220372
0.05391300205025934 -0.30047762215757684
0.05391300205025934 -0.24322591760645662
0.06559420311302022 -0.10009665622865607
0.05391300205025934 9.382673580429338e-05
0.06559420311302022 0.043032605149144455
0.07727540417578112 0.0573455312869245
0.11231900736406378 9.382673580429338e-05
0.05391300205025934 0.014406752873584347
0.03055059992473756 -0.04284495167753587
-0.004493003263545106 -0.07147080395309598
-0.016174204326305994 -0.2146000653308965
0.007188197799215783 -0.1859742130553364
0.05391300205025934 -0.22891299146867655
0.088956605238542 -0.14303543464199625
0.11231900736406378 -0.08578373009087603
0.12400020842682467 -0.014219099401975759
0.07727540417578112 -0.014219099401975759
0.05391300205025934 0.0287196790113644
0.05391300205025934 0.0573455312869245
0.007188197799215783 0.0573455312869245
-0.016174204326305994 0.043032605149144455
-0.027855405389066883 9.382673580429338e-05
-0.027855405389066883 -0.17166128691755633
-0.03953660645182777 -0.20028713919311644
0.007188197799215783 -0.22891299146867655
0.01886939886197667 -0.2575388437442367
0.03055059992473756 -0.1573483607797763
0.03055059992473756 -0.10009665622865607
0.04223180098749845 -0.05715787781531592
0.007188197799215783 -0.1859742130553364
0.01886939886197667 -0.2146000653308965
-0.027855405389066883 -0.2718517698820167
-0.03953660645182777 -0.2575388437442367
-0.08626141070287133 -0.2718517698820167
-0.12130501389115399 -0.2575388437442367
-0.07458020964011043 -0.22891299146867655
-0.05121780751458866 -0.2146000653308965
-0.027855405389066883 -0.07147080395309598
-0.004493003263545106 0.0287196790113644
0.03055059992473756 0.07165845742470456
0.04223180098749845 0.043032605149144455
0.04223180098749845 -0.10009665622865607
0.01886939886197667 -0.24322591760645662
-0.027855405389066883 -0.4149810312598172
-0.016174204326305994 -0.4149810312598172
-0.08626141070287133 -0.343416400570917
-0.03953660645182777 -0.22891299146867655
-0.05121780751458866 -0.10009665622865607
0.007188197799215783 -0.028532025539755812
0.04223180098749845 -0.04284495167753587
0.04223180098749845 -0.05715787781531592
0.03055059992473756 -0.14303543464199625
0.05391300205025934 -0.20028713919311644
0.04223180098749845 -0.24322591760645662
0.05391300205025934 -0.22891299146867655
0.06559420311302022 -0.2575388437442367
0.05391300205025934 -0.2575388437442367
0.04223180098749845 -0.24322591760645662
0.07727540417578112 -0.2575388437442367
0.1006378063013029 -0.2146000653308965
0.15904381161510733 -0.08578373009087603
0.2057686158661509 0.0287196790113644
0.24081221905443356 0.10028430970026467
0.2641746211799553 -0.04284495167753587
0.24081221905443356 -0.28616469601979677
0.25249342011719444 -0.4865456619487175
0.31089942543099885 -0.5151715142242776
0.3693054307448033 -0.5724232187753978
0.45107383818412955 -0.5581102926376178
0.46275503924689043 -0.45791980967315743
0.4977986424351731 -0.3720422528464771
0.5562046477489775 -0.22891299146867655
0.5912482509372602 -0.10009665622865607
0.6029294520000211 0.0287196790113644
0.6496542562510647 0.0573455312869245
0.6496542562510647 0.14322308811360482
0.6496542562510647 0.10028430970026467
0.6262918541255429 0.17184894038916493
0.5678858488117384 0.21478771880250508
0.4977986424351731 0.2434135710780652
0.3926678328703251 0.14322308811360482
0.31089942543099885 -0.014219099401975759
0.25249342011719444 -0.04284495167753587
0.2641746211799553 -0.10009665622865607
0.2641746211799553 0.014406752873584347
0.35762422968204244 0.17184894038916493
0.43939263712136867 0.31497820176696545
0.5211610445606949 0.4151686847314258
0.5562046477489775 0.4008557585936458
0.5562046477489775 0.31497820176696545
0.5211610445606949 0.2720394233536253
0.3809866318075642 0.21478771880250508
0.2875370233054771 0.22910064494028515
0.2057686158661509 0.14322308811360482
0.13568140948958557 0.0573455312869245
0.11231900736406378 -0.028532025539755812
0.06559420311302022 -0.07147080395309598
0.03055059992473756 -0.07147080395309598
0.007188197799215783 0.0287196790113644
0.01886939886197667 0.12891016197582478
0.007188197799215783 0.0573455312869245
0.007188197799215783 -0.04284495167753587
-0.027855405389066883 -0.14303543464199625
-0.05121780751458866 -0.22891299146867655
-0.12130501389115399 -0.2718517698820167
-0.13298621495391488 -0.31479054829535685
-0.15634861707943665 -0.4149810312598172
-0.15634861707943665 -0.4149810312598172
-0.12130501389115399 -0.343416400570917
-0.12130501389115399 -0.31479054829535685
-0.06289900857734955 -0.28616469601979677
-0.1096238128283931 -0.24322591760645662
-0.08626141070287133 -0.24322591760645662
-0.08626141070287133 -0.30047762215757684
-0.12130501389115399 -0.2575388437442367
-0.15634861707943665 -0.24322591760645662
-0.14466741601667577 -0.14303543464199625
-0.06289900857734955 -0.1573483607797763
-0.08626141070287133 -0.20028713919311644
-0.07458020964011043 -0.28616469601979677
-0.1096238128283931 -0.38635517898425714
-0.14466741601667577 -0.4006681051220372
-0.16802981814219756 -0.38635517898425714
-0.16802981814219756 -0.38635517898425714
-0.15634861707943665 -0.47223273581093744
-0.2030734213304802 -0.5437973664998377
-0.2030734213304802 -0.7012395540154183
-0.2848418287698064 -0.8586817415309989
-0.34324783408361087 -1.0447497813221396
-0.29652302983256734 -1.3310083040777407
-0.19139222026771932 -1.7890219404867023
0.04223180098749845 -2.3329131337223443
0.3693054307448033 -2.9483689576468866
0.7431038647531517 -3.592450633846989
1.0701774945104567 -4.093403048669291
1.3271639178911963 -4.537103758940472
1.3972511242677614 -4.708858872593833
1.3154827168284353 -4.651607168042713
1.2570767115146309 -4.393974497562672
1.3154827168284353 -4.050464270255951
1.560787939146414 -3.6783281906736693
2.063079584845132 -3.2346274804024877
2.6705020401086985 -2.6907362871668457
3.242880892183982 -1.7603960882111422
3.5115485166274825 -0.5151715142242776
3.4648237123764387 0.9018081734159477
2.904126061363916 2.175658599678372
1.9929923784685668 3.063060020220736
0.8365534732552389 3.3063797645629966
-0.2848418287698064 3.063060020220736
-1.0908447021003078 2.5477946792606536
-1.6281799509873085 1.846461298509431
-1.90852877649357 1.2882571791360091
-2.0370219881839398 0.8159306165892674
-2.1655151998743096 0.5010462415581062
-2.294008411564679 0.28635234949140537
-2.445864025380571 0.17184894038916493
-2.621082041321984 0.07165845742470456
-2.749575253012354 9.382673580429338e-05
-2.8663872636399628 -0.12872250850421618
-2.936474470016528 -0.30047762215757684
-2.9715180732048108 -0.4006681051220372
-3.0182428774558545 -0.4149810312598172
-2.936474470016528 -0.38635517898425714
-2.924793268953767 -0.343416400570917
-2.8897496657654846 -0.35772932670869706
-2.819662459388919 -0.5151715142242776
-2.7729376551378757 -0.7012395540154183
-2.644444443447506 -0.8014300369798787
-2.4692264275060927 -0.8586817415309989
-2.1421527977487878 -0.7584912585665385
-1.7800355648032002 -0.615361997188738
-1.4062371307948518 -0.47223273581093744
-1.0207574957237424 -0.4006681051220372
-0.6703214638409157 -0.2718517698820167
-0.44837864364845886 -0.14303543464199625
-0.2848418287698064 -0.08578373009087603
-0.21475462239324108 0.08597138356248461
-0.19139222026771932 0.17184894038916493
-0.17971101920495844 0.22910064494028515
-0.15634861707943665 0.30066527562918544
-0.12130501389115399 0.2720394233536253
-0.12130501389115399 0.28635234949140537
-0.09794261176563221 0.28635234949140537
-0.027855405389066883 0.2434135710780652
-0.004493003263545106 0.21478771880250508
0.04223180098749845 0.2434135710780652
0.06559420311302022 0.28635234949140537
0.06559420311302022 0.25772649721584523
0.06559420311302022 0.22910064494028515
-0.004493003263545106 0.186161866526945
-0.027855405389066883 0.11459723583804472
-0.05121780751458866 0.07165845742470456
-0.07458020964011043 0.07165845742470456
-0.05121780751458866 0.0573455312869245
-0.05121780751458866 0.07165845742470456
0.03055059992473756 -0.07147080395309598
0.03055059992473756 -0.2718517698820167
-0.004493003263545106 -0.4292939573975973
-0.07458020964011043 -0.47223273581093744
-0.1096238128283931 -0.38635517898425714
-0.17971101920495844 -0.2146000653308965
-0.2030734213304802 -0.14303543464199625
-0.2731606277070455 -0.2718517698820167
-0.2731606277070455 -0.343416400570917
-0.26147942664428464 -0.47223273581093744
-0.26147942664428464 -0.5867361449131779
-0.21475462239324108 -0.6583007756020781
-0.2030734213304802 -0.6869266278776383
-0.24979822558152376 -0.6583007756020781
-0.33156663302085 -0.6439878494642981
-0.4133350404601762 -0.6726137017398582
-0.4834222468367415 -0.6869266278776383
-0.5184658500250242 -0.7155524801531984
-0.541828252150546 -0.8157429631176587
-0.5184658500250242 -0.8157429631176587
-0.5184658500250242 -0.7871171108420987
-0.4834222468367415 -0.7584912585665385
-0.49510344789950245 -0.7298654062909784
-0.49510344789950245 -0.8157429631176587
-0.49510344789950245 -0.9302463722198991
-0.541828252150546 -1.0304368551843595
-0.5651906542760677 -1.0876885597354797
-0.530147051087785 -0.9731851506332393
-0.5535094532133069 -0.901620519944339
-0.5184658500250242 -0.8586817415309989
-0.5184658500250242 -0.8586817415309989
-0.46005984471121975 -0.901620519944339
-0.4250162415229371 -0.9302463722198991
-0.40165383939741534 -0.9445592983576793
-0.33156663302085 -1.0733756335976996
-0.3198854319580891 -1.2165048949755002
-0.26147942664428464 -1.3166953779399606
-0.2030734213304802 -1.2737565995266205
-0.15634861707943665 -1.17356611656216
-0.08626141070287133 -0.9874980767710194
-0.03953660645182777 -0.8586817415309989
-0.03953660645182777 -0.7584912585665385
0.007188197799215783 -0.7298654062909784
0.05391300205025934 -0.7298654062909784
0.1006378063013029 -0.6583007756020781
0.13568140948958557 -0.5724232187753978
0.13568140948958557 -0.4006681051220372
0.1824062137406291 -0.14303543464199625
0.22913101799167265 -0.07147080395309598
0.24081221905443356 -0.2146000653308965
0.24081221905443356 -0.4292939573975973
0.25249342011719444 -0.6583007756020781
0.2758558222427162 -0.6726137017398582
0.3225806264937598 -0.6296749233265181
0.3342618275565207 -0.45791980967315743
0.34594302861928156 -0.24322591760645662
0.35762422968204244 -0.10009665622865607
0.35762422968204244 -0.028532025539755812
0.3926678328703251 -0.10009665622865607
0.35762422968204244 -0.20028713919311644
0.3809866318075642 -0.17166128691755633
0.3693054307448033 -0.014219099401975759
0.35762422968204244 0.14322308811360482
0.3225806264937598 0.07165845742470456
0.31089942543099885 -0.04284495167753587
0.299218224368238 -0.1859742130553364
0.2641746211799553 -0.22891299146867655
0.24081221905443356 -0.2718517698820167
0.2758558222427162 -0.3291034744331369
0.31089942543099885 -0.2146000653308965
0.3225806264937598 -0.10009665622865607
0.40434903393308597 0.043032605149144455
0.3926678328703251 0.1575360142513849
0.3926678328703251 0.2720394233536253
0.4277114360586078 0.3292911279047455
0.3926678328703251 0.4008557585936458
0.31089942543099885 0.3436040540425256
0.22913101799167265 0.10028430970026467
0.19408741480339 -0.12872250850421618
0.2057686158661509 -0.20028713919311644
0.22913101799167265 -0.31479054829535685
0.25249342011719444 -0.2718517698820167
0.3225806264937598 -0.2718517698820167
0.35762422968204244 -0.1573483607797763
0.40434903393308597 -0.1573483607797763
0.3809866318075642 -0.05715787781531592
0.3926678328703251 0.014406752873584347
0.34594302861928156 0.08597138356248461
0.2875370233054771 0.08597138356248461
0.25249342011719444 0.0573455312869245
0.22913101799167265 -0.028532025539755812
0.24081221905443356 -0.08578373009087603
0.19408741480339 0.043032605149144455
0.31089942543099885 0.14322308811360482
0.34594302861928156 0.2720394233536253
0.3225806264937598 0.25772649721584523
0.2758558222427162 0.14322308811360482
0.2758558222427162 0.14322308811360482
0.25249342011719444 -0.014219099401975759
0.22913101799167265 -0.14303543464199625
0.21744981692891177 -0.343416400570917
0.24081221905443356 -0.4149810312598172
0.1824062137406291 -0.4006681051220372
0.22913101799167265 -0.3291034744331369
0.25249342011719444 -0.12872250850421618
0.2875370233054771 0.014406752873584347
0.34594302861928156 0.0573455312869245
0.3225806264937598 0.0287196790113644
0.3225806264937598 -0.04284495167753587
0.3225806264937598 0.0573455312869245
0.2875370233054771 0.10028430970026467
0.24081221905443356 0.17184894038916493
0.21744981692891177 0.186161866526945
0.22913101799167265 0.20047479266472504
0.21744981692891177 0.12891016197582478
0.25249342011719444 0.043032605149144455
0.299218224368238 -0.04284495167753587
0.299218224368238 -0.1573483607797763
0.299218224368238 -0.2575388437442367
0.3809866318075642 -0.2575388437442367
0.34594302861928156 -0.22891299146867655
0.3225806264937598 -0.22891299146867655
0.35762422968204244 -0.31479054829535685
0.3342618275565207 -0.31479054829535685
0.3926678328703251 -0.3291034744331369
0.4160302349958469 -0.30047762215757684
0.3926678328703251 -0.22891299146867655
0.4160302349958469 -0.11440958236643613
0.4744362403096513 -0.07147080395309598
0.509479843497934 0.0573455312869245
0.5795670498744994 0.1575360142513849
0.6613354573138255 0.17184894038916493
0.6846978594393474 0.043032605149144455
0.6963790605021082 -0.14303543464199625
0.6730166583765864 -0.2718517698820167
0.6963790605021082 -0.31479054829535685
0.71974146262763 -0.2718517698820167
0.7431038647531517 -0.2718517698820167
0.7898286690041953 -0.2718517698820167
0.8599158753807606 -0.2146000653308965
0.9650466849456086 -0.12872250850421618
0.9767278860083696 0.043032605149144455
1.035133891322174 0.25772649721584523
1.0468150923849349 0.4867333154203261
0.9767278860083696 0.6728013552114668
0.9416842828200869 0.6441755029359066
0.8949594785690433 0.47242038928254604
0.8365534732552389 0.3436040540425256
0.7664662668786736 0.21478771880250508
0.6730166583765864 0.14322308811360482
0.614610653062782 0.186161866526945
0.6262918541255429 0.20047479266472504
0.614610653062782 0.2434135710780652
0.6613354573138255 0.31497820176696545
0.7547850658159126 0.5010462415581062
0.8365534732552389 0.5439850199714463
0.8715970764435216 0.6298625767981266
0.8832782775062824 0.6441755029359066
0.8482346743179997 0.6155496506603466
0.8365534732552389 0.4008557585936458
0.6846978594393474 0.2720394233536253
0.6262918541255429 0.1575360142513849
0.5211610445606949 0.07165845742470456
0.4861174413724122 0.014406752873584347
0.4861174413724122 0.043032605149144455
0.509479843497934 0.07165845742470456
0.4861174413724122 0.17184894038916493
0.46275503924689043 0.14322308811360482
0.4277114360586078 0.07165845742470456
0.3809866318075642 -0.028532025539755812
0.3693054307448033 -0.14303543464199625
0.31089942543099885 -0.22891299146867655
0.2875370233054771 -0.20028713919311644
0.299218224368238 -0.1573483607797763
0.2641746211799553 -0.07147080395309598
0.21744981692891177 -0.04284495167753587
0.19408741480339 -0.08578373009087603
0.2057686158661509 -0.17166128691755633
0.21744981692891177 -0.28616469601979677
0.24081221905443356 -0.343416400570917
0.25249342011719444 -0.2718517698820167
0.2875370233054771 -0.2146000653308965
0.31089942543099885 -0.1859742130553364
0.2758558222427162 -0.1573483607797763
0.2641746211799553 -0.1573483607797763
0.2641746211799553 -0.14303543464199625
0.2641746211799553 -0.11440958236643613
0.2758558222427162 -0.014219099401975759
0.31089942543099885 0.043032605149144455
0.3342618275565207 0.043032605149144455
0.3342618275565207 -0.04284495167753587
0.31089942543099885 -0.20028713919311644
0.25249342011719444 -0.3291034744331369
0.15904381161510733 -0.47223273581093744
0.13568140948958557 -0.5724232187753978
0.12400020842682467 -0.6583007756020781
0.05391300205025934 -0.8300558892554388
0.05391300205025934 -1.0876885597354797
0.07727540417578112 -1.431198787042201
0.299218224368238 -1.7747090143489224
0.6029294520000211 -2.1611580200689837
1.0468150923849349 -2.6334845826157256
1.4673383306443268 -3.1916887019891473
1.8294555635899143 -3.6783281906736693
2.0046735795313277 -4.00752549184261
1.9345863731547623 -4.150654753220411
1.759368357213349 -4.079090122531511
1.6425563465857402 -3.87870915660259
1.7710495582761099 -3.563824781571429
2.1448479922844585 -3.2060016281269275
2.69386444223422 -2.504668247375705
3.2662432943095037 -1.5457021961444415
3.5115485166274825 -0.1859742130553364
3.1844748868701775 1.2166925484471087
2.308384807163111 2.2901620087806127
0.9767278860083696 2.8197402758784746
-0.40165383939741534 2.5048559008473137
-1.5230491414224605 1.774896667820531
-2.2589648083763967 0.9018081734159477
-2.621082041321984 0.1575360142513849
-2.8079812583261585 -0.30047762215757684
-2.819662459388919 -0.5437973664998377
-2.83134366045168 -0.6583007756020781
-2.819662459388919 -0.7155524801531984
-2.8079812583261585 -0.7155524801531984
-2.7963000572633976 -0.7012395540154183
-2.7963000572633976 -0.6583007756020781
-2.7612564540751148 -0.5867361449131779
-2.6794880466357887 -0.5437973664998377
-2.5626760360081797 -0.5437973664998377
-2.445864025380571 -0.5724232187753978
-2.340733215815723 -0.6439878494642981
-2.107109194560505 -0.6726137017398582
-1.8501227711797654 -0.6726137017398582
-1.4179183318576125 -0.5724232187753978
-0.9973950935982207 -0.4006681051220372
-0.6002342574643504 -0.20028713919311644
-0.29652302983256734 0.0573455312869245
-0.05121780751458866 0.31497820176696545
0.13568140948958557 0.44379453700698596
0.21744981692891177 0.5296720938336663
0.2641746211799553 0.5153591676958862
0.31089942543099885 0.44379453700698596
0.3342618275565207 0.3292911279047455
0.31089942543099885 0.28635234949140537
0.35762422968204244 0.28635234949140537
0.3926678328703251 0.3292911279047455
0.3693054307448033 0.4294816108692059
0.35762422968204244 0.4294816108692059
0.3693054307448033 0.4294816108692059
0.3809866318075642 0.31497820176696545
0.46275503924689043 0.3292911279047455
0.4977986424351731 0.25772649721584523
0.5678858488117384 0.4008557585936458
0.5562046477489775 0.4151686847314258
0.4861174413724122 0.38654283245586574
0.4277114360586078 0.28635234949140537
0.3225806264937598 0.07165845742470456
0.2875370233054771 -0.028532025539755812
0.2641746211799553 -0.12872250850421618
0.24081221905443356 -0.1573483607797763
0.2758558222427162 -0.20028713919311644
0.2641746211799553 -0.12872250850421618
0.2758558222427162 -0.1573483607797763
0.2641746211799553 -0.17166128691755633
0.15904381161510733 -0.24322591760645662
0.06559420311302022 -0.343416400570917
-0.03953660645182777 -0.45791980967315743
-0.09794261176563221 -0.5151715142242776
-0.14466741601667577 -0.5581102926376178
-0.15634861707943665 -0.5581102926376178
-0.09794261176563221 -0.5294844403620577
-0.1096238128283931 -0.5724232187753978
-0.06289900857734955 -0.5437973664998377
-0.03953660645182777 -0.5581102926376178
-0.05121780751458866 -0.5581102926376178
-0.03953660645182777 -0.5724232187753978
-0.09794261176563221 -0.6726137017398582
-0.14466741601667577 -0.7012395540154183
-0.2030734213304802 -0.7441783324287584
-0.24979822558152376 -0.7584912585665385
-0.29652302983256734 -0.8014300369798787
-0.2848418287698064 -0.7728041847043186
-0.2731606277070455 -0.7584912585665385
-0.2731606277070455 -0.7298654062909784
-0.226435823456002 -0.6869266278776383
-0.15634861707943665 -0.7298654062909784
-0.1096238128283931 -0.7728041847043186
-0.06289900857734955 -0.8443688153932188
-0.03953660645182777 -0.872994667668779
-0.07458020964011043 -0.8157429631176587
-0.09794261176563221 -0.8300558892554388
-0.12130501389115399 -0.7584912585665385
-0.13298621495391488 -0.7871171108420987
-0.06289900857734955 -0.7441783324287584
0.007188197799215783 -0.7298654062909784
0.07727540417578112 -0.7155524801531984
0.17072501267786822 -0.6583007756020781
0.24081221905443356 -0.615361997188738
0.25249342011719444 -0.5724232187753978
0.34594302861928156 -0.5151715142242776
0.35762422968204244 -0.5008585880864975
0.34594302861928156 -0.4865456619487175
0.3926678328703251 -0.5151715142242776
0.40434903393308597 -0.5294844403620577
0.4160302349958469 -0.5008585880864975
0.40434903393308597 -0.47223273581093744
0.3926678328703251 -0.31479054829535685
0.3926678328703251 -0.2146000653308965
0.4160302349958469 -0.04284495167753587
0.509479843497934 -0.014219099401975759
0.509479843497934 0.014406752873584347
0.43939263712136867 9.382673580429338e-05
0.35762422968204244 0.043032605149144455
0.2758558222427162 0.08597138356248461
0.24081221905443356 0.07165845742470456
0.24081221905443356 0.0573455312869245
0.2875370233054771 0.0573455312869245
0.34594302861928156 0.08597138356248461
0.35762422968204244 0.08597138356248461
0.43939263712136867 0.08597138356248461
0.4861174413724122 0.043032605149144455
0.5211610445606949 0.07165845742470456
0.509479843497934 0.07165845742470456
0.40434903393308597 0.1575360142513849
0.3342618275565207 0.14322308811360482
0.2758558222427162 0.186161866526945
0.2641746211799553 0.20047479266472504
0.22913101799167265 0.10028430970026467
0.17072501267786822 0.12891016197582478
0.17072501267786822 0.10028430970026467
0.12400020842682467 0.12891016197582478
0.12400020842682467 0.1575360142513849
0.14736261055234645 0.22910064494028515
0.1824062137406291 0.22910064494028515
0.22913101799167265 0.30066527562918544
0.3225806264937598 0.25772649721584523
0.35762422968204244 0.20047479266472504
0.3926678328703251 0.12891016197582478
0.34594302861928156 0.043032605149144455
0.2875370233054771 0.0573455312869245
0.21744981692891177 0.08597138356248461
0.15904381161510733 0.14322308811360482
0.11231900736406378 0.186161866526945
0.06559420311302022 0.2720394233536253
0.088956605238542 0.3292911279047455
0.14736261055234645 0.4294816108692059
0.05391300205025934 0.4867333154203261
0.1006378063013029 0.47242038928254604
0.1006378063013029 0.37222990631808567
0.01886939886197667 0.21478771880250508
-0.027855405389066883 0.07165845742470456
-0.08626141070287133 9.382673580429338e-05
-0.09794261176563221 -0.014219099401975759
-0.09794261176563221 0.0573455312869245
-0.004493003263545106 0.08597138356248461
0.11231900736406378 0.14322308811360482
0.14736261055234645 0.20047479266472504
0.17072501267786822 0.21478771880250508
0.17072501267786822 0.22910064494028515
0.14736261055234645 0.186161866526945
0.088956605238542 0.1575360142513849
0.05391300205025934 0.14322308811360482
-0.016174204326305994 0.11459723583804472
-0.004493003263545106 0.10028430970026467
-0.016174204326305994 0.0573455312869245
0.01886939886197667 0.043032605149144455
0.06559420311302022 0.08597138356248461
0.088956605238542 0.12891016197582478
0.11231900736406378 0.20047479266472504
0.12400020842682467 0.28635234949140537
0.14736261055234645 0.38654283245586574
0.12400020842682467 0.3292911279047455
0.1006378063013029 0.30066527562918544
0.1006378063013029 0.2434135710780652
0.07727540417578112 0.31497820176696545
0.088956605238542 0.25772649721584523
0.1006378063013029 0.21478771880250508
0.1824062137406291 0.20047479266472504
0.24081221905443356 0.2434135710780652
0.3225806264937598 0.30066527562918544
0.40434903393308597 0.21478771880250508
0.46275503924689043 0.10028430970026467
0.509479843497934 -0.04284495167753587
0.5562046477489775 -0.1859742130553364
0.5678858488117384 -0.2146000653308965
0.5912482509372602 -0.17166128691755633
0.5795670498744994 -0.1573483607797763
0.614610653062782 -0.08578373009087603
0.6029294520000211 -0.014219099401975759
0.5912482509372602 0.14322308811360482
0.6029294520000211 0.3579169801803056
0.5912482509372602 0.6012367245225665
0.5445234466862167 0.9304340256915078
0.4861174413724122 1.0735632870693084
0.4160302349958469 1.1308149916204284
0.34594302861928156 1.0306245086559682
0.25249342011719444 0.8159306165892674
0.25249342011719444 0.6441755029359066
0.25249342011719444 0.44379453700698596
0.2875370233054771 0.38654283245586574
0.3342618275565207 0.3292911279047455
0.3926678328703251 0.38654283245586574
0.4977986424351731 0.5296720938336663
0.5562046477489775 0.6298625767981266
0.5912482509372602 0.7729918381759272
0.5445234466862167 0.8874952472781676
0.43939263712136867 0.8731823211403875
0.35762422968204244 0.7443659859003671
0.2758558222427162 0.6584884290736868
0.17072501267786822 0.4867333154203261
0.12400020842682467 0.4008557585936458
0.11231900736406378 0.28635234949140537
0.05391300205025934 0.22910064494028515
0.03055059992473756 0.25772649721584523
-0.027855405389066883 0.3292911279047455
-0.06289900857734955 0.4008557585936458
-0.07458020964011043 0.44379453700698596
-0.07458020964011043 0.4294816108692059
-0.03953660645182777 0.3579169801803056
-0.016174204326305994 0.3292911279047455
-0.08626141070287133 0.3292911279047455
-0.03953660645182777 0.31497820176696545
-0.07458020964011043 0.25772649721584523
-0.13298621495391488 0.186161866526945
-0.14466741601667577 0.10028430970026467
-0.23811702451876288 0.0573455312869245
-0.26147942664428464 0.14322308811360482
-0.23811702451876288 0.20047479266472504
-0.21475462239324108 0.22910064494028515
-0.15634861707943665 0.31497820176696545
-0.12130501389115399 0.38654283245586574
-0.09794261176563221 0.44379453700698596
-0.1096238128283931 0.3292911279047455
-0.15634861707943665 0.22910064494028515
-0.2030734213304802 0.10028430970026467
-0.226435823456002 9.382673580429338e-05
-0.23811702451876288 0.07165845742470456
-0.21475462239324108 0.10028430970026467
-0.226435823456002 0.0573455312869245
-0.2030734213304802 0.0287196790113644
-0.17971101920495844 0.0287196790113644
-0.14466741601667577 -0.014219099401975759
-0.13298621495391488 -0.10009665622865607
-0.13298621495391488 -0.2146000653308965
-0.23811702451876288 -0.3720422528464771
-0.36661023620913263 -0.5581102926376178
-0.4133350404601762 -0.887307593806559
-0.35492903514637175 -1.3023824518021805
-0.15634861707943665 -1.8033348666244824
0.13568140948958557 -2.476042395100145
0.5678858488117384 -3.1487499235758074
0.9066406796318042 -3.7785186736381298
1.140264700887022 -4.279471088460432
1.2103519072635873 -4.479852054389353
1.128583499824261 -4.465539128251573
1.0584962934476958 -4.265158162322652
1.1052210976987393 -3.92164793501593
1.350526320016718 -3.578137707709209
1.8177743625271534 -3.0771852928869072
2.390153214602437 -2.447416542824585
2.927488463489438 -1.445511713179981
3.2896056964350255 -0.07147080395309598
3.1727936858074166 1.3741347359626894
2.5653712305438505 2.5621076053984337
1.5724691402091748 3.2634409861496563
0.3342618275565207 3.377944395251897
-0.8221770776568073 3.0487470940829557
-1.5580927446107433 2.4189783440206334
-2.0603843903094616 1.7462708155449709
-2.30568961262744 1.2166925484471087
-2.3874580200667666 0.7873047643137072
-2.4809076285688536 0.5869237983847865
-2.609400840259223 0.38654283245586574
-2.7846188562006366 0.25772649721584523
-2.936474470016528 0.0573455312869245
-3.0182428774558545 -0.08578373009087603
-3.041605279581376 -0.2575388437442367
-2.936474470016528 -0.343416400570917
-2.843024861514441 -0.30047762215757684
-2.8079812583261585 -0.22891299146867655
-2.843024861514441 -0.17166128691755633
-2.9715180732048108 -0.05715787781531592
-2.95983687214205 -0.014219099401975759
-2.936474470016528 -0.12872250850421618
-2.7963000572633976 -0.24322591760645662
-2.539313633882658 -0.3720422528464771
-2.1655151998743096 -0.4292939573975973
-1.698267157363874 -0.44360688353537736
-1.2427003159161993 -0.343416400570917
-0.9156266861588944 -0.17166128691755633
-0.6936838659664375 9.382673580429338e-05
-0.530147051087785 0.2720394233536253
-0.4133350404601762 0.4294816108692059
-0.33156663302085 0.6012367245225665
-0.2848418287698064 0.7014272074870269
-0.2731606277070455 0.7014272074870269
-0.3082042308953282 0.6441755029359066
-0.2848418287698064 0.5439850199714463
-0.2731606277070455 0.47242038928254604
-0.23811702451876288 0.44379453700698596
-0.14466741601667577 0.44379453700698596
-0.027855405389066883 0.4867333154203261
0.11231900736406378 0.5296720938336663
0.22913101799167265 0.5726108722470065
0.21744981692891177 0.5869237983847865
0.1006378063013029 0.5582979461092263
-0.1096238128283931 0.5439850199714463
-0.34324783408361087 0.4867333154203261
-0.4250162415229371 0.47242038928254604
-0.4133350404601762 0.45810746314476597
-0.34324783408361087 0.4151686847314258
-0.26147942664428464 0.37222990631808567
-0.2030734213304802 0.37222990631808567
-0.17971101920495844 0.4008557585936458
-0.17971101920495844 0.3292911279047455
-0.14466741601667577 0.30066527562918544
-0.14466741601667577 0.20047479266472504
-0.2030734213304802 0.12891016197582478
-0.2030734213304802 0.0287196790113644
-0.24979822558152376 9.382673580429338e-05
-0.33156663302085 -0.10009665622865607
-0.33156663302085 -0.08578373009087603
-0.24979822558152376 -0.05715787781531592
-0.226435823456002 -0.05715787781531592
-0.26147942664428464 -0.08578373009087603
-0.2731606277070455 -0.14303543464199625
-0.3782914372718935 -0.11440958236643613
-0.44837864364845886 -0.14303543464199625
-0.4717410457739806 -0.2146000653308965
-0.40165383939741534 -0.22891299146867655
-0.34324783408361087 -0.31479054829535685
-0.29652302983256734 -0.4149810312598172
-0.35492903514637175 -0.4292939573975973
-0.4834222468367415 -0.5437973664998377
-0.635277860652633 -0.6583007756020781
-0.7754522734057637 -0.6296749233265181
-0.85722068084509 -0.601049071050958
-0.8221770776568073 -0.5151715142242776
-0.7637710723430029 -0.44360688353537736
-0.6703214638409157 -0.44360688353537736
-0.6703214638409157 -0.5151715142242776
-0.5885530564015895 -0.5581102926376178
-0.6002342574643504 -0.601049071050958
-0.6235966595898722 -0.5724232187753978
-0.635277860652633 -0.6583007756020781
-0.635277860652633 -0.6869266278776383
-0.6002342574643504 -0.7298654062909784
-0.5651906542760677 -0.6726137017398582
-0.5184658500250242 -0.6296749233265181
-0.44837864364845886 -0.5581102926376178
-0.33156663302085 -0.47223273581093744
-0.24979822558152376 -0.45791980967315743
-0.14466741601667577 -0.4149810312598172
-0.13298621495391488 -0.45791980967315743
-0.12130501389115399 -0.5008585880864975
-0.1096238128283931 -0.5151715142242776
-0.1096238128283931 -0.5437973664998377
-0.09794261176563221 -0.5724232187753978
-0.05121780751458866 -0.47223273581093744
0.05391300205025934 -0.3720422528464771
0.13568140948958557 -0.30047762215757684
0.19408741480339 -0.2146000653308965
0.2057686158661509 -0.12872250850421618
0.1824062137406291 -0.11440958236643613
0.1006378063013029 -0.07147080395309598
0.12400020842682467 -0.05715787781531592
0.11231900736406378 -0.07147080395309598
0.07727540417578112 -0.07147080395309598
-0.016174204326305994 -0.04284495167753587
0.01886939886197667 -0.014219099401975759
-0.004493003263545106 9.382673580429338e-05
0.07727540417578112 -0.04284495167753587
0.14736261055234645 0.043032605149144455
0.1824062137406291 0.1575360142513849
0.19408741480339 0.20047479266472504
0.15904381161510733 0.25772649721584523
0.14736261055234645 0.2720394233536253
0.15904381161510733 0.2434135710780652
0.15904381161510733 0.1575360142513849
0.14736261055234645 0.10028430970026467
0.1006378063013029 0.07165845742470456
0.07727540417578112 0.14322308811360482
0.04223180098749845 0.1575360142513849
0.07727540417578112 0.186161866526945
0.088956605238542 0.22910064494028515
0.13568140948958557 0.25772649721584523
0.2057686158661509 0.22910064494028515
0.25249342011719444 0.186161866526945
0.2641746211799553 0.186161866526945
0.31089942543099885 0.21478771880250508
0.3693054307448033 0.2434135710780652
0.3926678328703251 0.2434135710780652
0.4160302349958469 0.25772649721584523
0.3926678328703251 0.20047479266472504
0.24081221905443356 0.1575360142513849
0.088956605238542 0.1575360142513849
-0.016174204326305994 0.186161866526945
-0.06289900857734955 0.12891016197582478
0.01886939886197667 0.07165845742470456
0.21744981692891177 0.10028430970026467
0.3342618275565207 0.08597138356248461
0.40434903393308597 0.12891016197582478
0.34594302861928156 0.1575360142513849
0.19408741480339 0.20047479266472504
0.05391300205025934 0.2720394233536253
-0.08626141070287133 0.3292911279047455
-0.08626141070287133 0.37222990631808567
-0.07458020964011043 0.4151686847314258
0.03055059992473756 0.3579169801803056
0.11231900736406378 0.3292911279047455
0.2057686158661509 0.25772649721584523
0.2641746211799553 0.20047479266472504
0.2758558222427162 0.20047479266472504
0.22913101799167265 0.2720394233536253
0.21744981692891177 0.28635234949140537
0.12400020842682467 0.25772649721584523
0.13568140948958557 0.20047479266472504
0.17072501267786822 0.11459723583804472
0.2057686158661509 0.0573455312869245
0.24081221905443356 0.043032605149144455
0.1824062137406291 0.0573455312869245
0.19408741480339 0.1575360142513849
0.14736261055234645 0.21478771880250508
0.13568140948958557 0.21478771880250508
0.13568140948958557 0.186161866526945
0.1006378063013029 0.1575360142513849
0.13568140948958557 0.11459723583804472
0.17072501267786822 0.07165845742470456
0.19408741480339 0.0287196790113644
0.25249342011719444 0.07165845742470456
0.2875370233054771 0.0287196790113644
0.2875370233054771 0.043032605149144455
0.31089942543099885 0.12891016197582478
0.25249342011719444 0.11459723583804472
0.2057686158661509 0.12891016197582478
0.1824062137406291 0.17184894038916493
0.088956605238542 0.10028430970026467
0.088956605238542 0.07165845742470456
0.1006378063013029 9.382673580429338e-05
0.11231900736406378 9.382673580429338e-05
0.1824062137406291 -0.028532025539755812
0.24081221905443356 -0.028532025539755812
0.3225806264937598 -0.014219099401975759
0.35762422968204244 0.014406752873584347
0.40434903393308597 0.014406752873584347
0.40434903393308597 9.382673580429338e-05
0.4744362403096513 0.0573455312869245
0.5795670498744994 0.014406752873584347
0.6963790605021082 9.382673580429338e-05
0.7431038647531517 -0.014219099401975759
0.7547850658159126 -0.04284495167753587
0.6846978594393474 -0.08578373009087603
0.6379730551883037 -0.1573483607797763
0.6730166583765864 -0.10009665622865607
0.7431038647531517 -0.028532025539755812
0.7547850658159126 0.12891016197582478
0.7431038647531517 0.3292911279047455
0.7080602615648691 0.5153591676958862
0.7080602615648691 0.6871142813492468
0.7080602615648691 0.7014272074870269
0.6613354573138255 0.6155496506603466
0.6029294520000211 0.5869237983847865
0.5211610445606949 0.44379453700698596
0.45107383818412955 0.37222990631808567
0.4744362403096513 0.2720394233536253
0.45107383818412955 0.25772649721584523
0.4744362403096513 0.22910064494028515
0.5211610445606949 0.28635234949140537
0.5912482509372602 0.3436040540425256
0.6379730551883037 0.37222990631808567
0.6379730551883037 0.4294816108692059
0.614610653062782 0.45810746314476597
0.5562046477489775 0.4867333154203261
0.4744362403096513 0.44379453700698596
0.4277114360586078 0.3436040540425256
0.3693054307448033 0.17184894038916493
0.3693054307448033 0.07165845742470456
0.3342618275565207 0.014406752873584347
0.299218224368238 -0.014219099401975759
0.2641746211799553 0.0573455312869245
0.22913101799167265 0.14322308811360482
0.22913101799167265 0.186161866526945
0.24081221905443356 0.2434135710780652
0.24081221905443356 0.186161866526945
0.21744981692891177 0.1575360142513849
0.22913101799167265 0.10028430970026467
0.19408741480339 0.014406752873584347
0.17072501267786822 0.0573455312869245
0.12400020842682467 0.014406752873584347
0.1824062137406291 -0.014219099401975759
0.11231900736406378 9.382673580429338e-05
0.05391300205025934 9.382673580429338e-05
-0.03953660645182777 -0.05715787781531592
-0.15634861707943665 -0.07147080395309598
-0.13298621495391488 -0.04284495167753587
-0.06289900857734955 0.043032605149144455
0.04223180098749845 -0.08578373009087603
0.12400020842682467 -0.11440958236643613
0.14736261055234645 -0.2146000653308965
0.1006378063013029 -0.22891299146867655
-0.004493003263545106 -0.2146000653308965
-0.06289900857734955 -0.11440958236643613
-0.13298621495391488 -0.028532025539755812
-0.09794261176563221 -0.05715787781531592
0.007188197799215783 -0.10009665622865607
0.088956605238542 -0.1573483607797763
0.12400020842682467 -0.20028713919311644
0.14736261055234645 -0.2718517698820167
0.088956605238542 -0.343416400570917
0.007188197799215783 -0.5008585880864975
-0.08626141070287133 -0.6583007756020781
-0.16802981814219756 -0.9302463722198991
-0.21475462239324108 -1.3023824518021805
-0.16802981814219756 -1.8605865711756027
-0.05121780751458866 -2.4187906905490246
0.1824062137406291 -3.105811145162467
0.509479843497934 -3.8214574520514697
0.8715970764435216 -4.465539128251573
1.1869895051380654 -4.937865690798314
1.3154827168284353 -5.138246656727235
1.3038015157656744 -5.066682026038334
1.3271639178911963 -4.780423503282734
1.5140631348953704 -4.393974497562672
1.8761803678409579 -3.85008330432703
2.4602404209790025 -2.9626818837846667
3.032619273054286 -1.7317702359355822
3.3596929028115907 -0.08578373009087603
3.242880892183982 1.4456993666515896
2.6705020401086985 2.605046383811774
1.7126435529623054 3.2061892815985362
0.6029294520000211 3.191876355460756
-0.35492903514637175 2.7624885713273546
-1.1025259031630685 2.061155190576132
-1.4646431361086563 1.4743252189271498
-1.686585956301113 1.0449374347937481
-1.803397966928722 0.7443659859003671
-1.9552535807446134 0.5153591676958862
-2.130471596686027 0.38654283245586574
-2.340733215815723 0.2720394233536253
-2.504270030694375 0.0287196790113644
-2.5743572370709407 -0.1573483607797763
-2.5860384381337016 -0.31479054829535685
-2.515951231757136 -0.4006681051220372
-2.4692264275060927 -0.38635517898425714
-2.410820422192288 -0.30047762215757684
-2.3757768190040056 -0.28616469601979677
-2.30568961262744 -0.2718517698820167
-2.235602406250875 -0.22891299146867655
-2.0370219881839398 -0.22891299146867655
-1.7683543637404393 -0.3291034744331369
-1.4646431361086563 -0.38635517898425714
-1.1025259031630685 -0.31479054829535685
-0.7287274691547202 -0.14303543464199625
-0.436697442585698 0.014406752873584347
-0.226435823456002 0.20047479266472504
-0.05121780751458866 0.37222990631808567
0.03055059992473756 0.45810746314476597
0.15904381161510733 0.4008557585936458
0.21744981692891177 0.30066527562918544
0.2758558222427162 0.2434135710780652
0.3342618275565207 0.20047479266472504
0.2758558222427162 0.17184894038916493
0.21744981692891177 0.14322308811360482
0.17072501267786822 0.25772649721584523
0.25249342011719444 0.3292911279047455
0.35762422968204244 0.4151686847314258
0.4977986424351731 0.4008557585936458
0.5912482509372602 0.4008557585936458
0.5328422456234557 0.28635234949140537
0.3225806264937598 0.17184894038916493
0.13568140948958557 0.11459723583804472
0.01886939886197667 0.10028430970026467
-0.027855405389066883 0.0287196790113644
-0.03953660645182777 -0.014219099401975759
0.03055059992473756 -0.028532025539755812
0.07727540417578112 -0.08578373009087603
0.12400020842682467 -0.08578373009087603
0.14736261055234645 -0.028532025539755812
0.14736261055234645 -0.08578373009087603
0.088956605238542 -0.05715787781531592
0.007188197799215783 -0.028532025539755812
-0.016174204326305994 -0.04284495167753587
-0.027855405389066883 -0.17166128691755633
-0.06289900857734955 -0.35772932670869706
-0.1096238128283931 -0.5437973664998377
-0.09794261176563221 -0.6726137017398582
-0.09794261176563221 -0.7155524801531984
-0.06289900857734955 -0.7155524801531984
-0.06289900857734955 -0.6726137017398582
0.03055059992473756 -0.6583007756020781
0.03055059992473756 -0.6296749233265181
-0.07458020964011043 -0.615361997188738
-0.17971101920495844 -0.6869266278776383
-0.2848418287698064 -0.7871171108420987
-0.3782914372718935 -0.872994667668779
-0.3782914372718935 -0.9588722244954593
-0.3082042308953282 -0.9874980767710194
-0.2030734213304802 -1.0161239290465796
-0.14466741601667577 -0.9588722244954593
-0.15634861707943665 -0.9302463722198991
-0.15634861707943665 -0.8157429631176587
-0.15634861707943665 -0.7155524801531984
-0.21475462239324108 -0.6726137017398582
-0.23811702451876288 -0.7155524801531984
-0.29652302983256734 -0.7728041847043186
-0.24979822558152376 -0.8586817415309989
-0.17971101920495844 -0.9588722244954593
-0.14466741601667577 -1.0590627074599197
-0.14466741601667577 -1.1163144120110398
-0.13298621495391488 -1.0590627074599197
-0.13298621495391488 -0.901620519944339
-0.12130501389115399 -0.8586817415309989
-0.1096238128283931 -0.7728041847043186
-0.12130501389115399 -0.7441783324287584
-0.14466741601667577 -0.7155524801531984
-0.06289900857734955 -0.7298654062909784
0.03055059992473756 -0.7441783324287584
0.14736261055234645 -0.8157429631176587
0.3225806264937598 -0.8586817415309989
0.3809866318075642 -0.8443688153932188
0.45107383818412955 -0.8586817415309989
0.4160302349958469 -0.7728041847043186
0.3809866318075642 -0.6439878494642981
0.24081221905443356 -0.5581102926376178
0.17072501267786822 -0.44360688353537736
0.2057686158661509 -0.35772932670869706
0.2758558222427162 -0.3291034744331369
0.3809866318075642 -0.30047762215757684
0.4277114360586078 -0.2575388437442367
0.4744362403096513 -0.22891299146867655
0.4861174413724122 -0.2718517698820167
0.45107383818412955 -0.3291034744331369
0.4977986424351731 -0.4006681051220372
0.4861174413724122 -0.4006681051220372
0.4977986424351731 -0.3291034744331369
0.46275503924689043 -0.2575388437442367
0.4744362403096513 -0.1573483607797763
0.46275503924689043 -0.12872250850421618
0.4160302349958469 -0.12872250850421618
0.46275503924689043 -0.1859742130553364
0.4160302349958469 -0.14303543464199625
0.3693054307448033 -0.14303543464199625
0.40434903393308597 -0.07147080395309598
0.509479843497934 -0.10009665622865607
0.5562046477489775 -0.12872250850421618
0.5562046477489775 -0.2146000653308965
0.509479843497934 -0.14303543464199625
0.4160302349958469 -0.14303543464199625
0.3926678328703251 -0.05715787781531592
0.4277114360586078 0.014406752873584347
0.4744362403096513 0.0573455312869245
0.5211610445606949 -0.08578373009087603
0.4861174413724122 -0.14303543464199625
0.46275503924689043 -0.22891299146867655
0.43939263712136867 -0.14303543464199625
0.40434903393308597 -0.10009665622865607
0.43939263712136867 -0.028532025539755812
0.43939263712136867 -0.014219099401975759
0.45107383818412955 0.014406752873584347
0.46275503924689043 -0.05715787781531592
0.4744362403096513 -0.14303543464199625
0.4744362403096513 -0.20028713919311644
0.4861174413724122 -0.20028713919311644
0.4977986424351731 -0.22891299146867655
0.43939263712136867 -0.22891299146867655
0.3342618275565207 -0.2146000653308965
0.21744981692891177 -0.2575388437442367
0.17072501267786822 -0.20028713919311644
0.17072501267786822 -0.2718517698820167
0.17072501267786822 -0.2718517698820167
0.1824062137406291 -0.28616469601979677
0.21744981692891177 -0.31479054829535685
0.2641746211799553 -0.28616469601979677
0.3225806264937598 -0.30047762215757684
0.31089942543099885 -0.28616469601979677
0.34594302861928156 -0.24322591760645662
0.3225806264937598 -0.24322591760645662
0.35762422968204244 -0.2146000653308965
0.35762422968204244 -0.17166128691755633
0.3693054307448033 -0.17166128691755633
0.4277114360586078 -0.2575388437442367
0.45107383818412955 -0.31479054829535685
0.4277114360586078 -0.35772932670869706
0.43939263712136867 -0.343416400570917
0.40434903393308597 -0.30047762215757684
0.3693054307448033 -0.22891299146867655
0.4160302349958469 -0.17166128691755633
0.509479843497934 -0.2146000653308965
0.5211610445606949 -0.24322591760645662
0.4977986424351731 -0.4006681051220372
0.4160302349958469 -0.4292939573975973
0.3926678328703251 -0.45791980967315743
0.35762422968204244 -0.343416400570917
0.31089942543099885 -0.1859742130553364
0.24081221905443356 -0.1859742130553364
0.2057686158661509 -0.1573483607797763
0.17072501267786822 -0.1573483607797763
0.24081221905443356 -0.14303543464199625
0.2758558222427162 -0.2146000653308965
0.3809866318075642 -0.24322591760645662
0.40434903393308597 -0.24322591760645662
0.4861174413724122 -0.3291034744331369
0.5328422456234557 -0.38635517898425714
0.5795670498744994 -0.45791980967315743
0.614610653062782 -0.45791980967315743
0.6846978594393474 -0.5294844403620577
0.7080602615648691 -0.5437973664998377
0.7898286690041953 -0.5581102926376178
0.8482346743179997 -0.5151715142242776
0.9183218806945651 -0.44360688353537736
0.8832782775062824 -0.38635517898425714
0.8949594785690433 -0.31479054829535685
0.8715970764435216 -0.2575388437442367
0.9066406796318042 -0.17166128691755633
1.035133891322174 -0.10009665622865607
1.1519459019497829 9.382673580429338e-05
1.1636271030125438 0.0287196790113644
1.140264700887022 0.17184894038916493
1.023452690259413 0.2434135710780652
0.8832782775062824 0.30066527562918544
0.7314226636903909 0.4008557585936458
0.614610653062782 0.28635234949140537
0.5795670498744994 0.22910064494028515
0.5795670498744994 0.07165845742470456
0.6029294520000211 -0.028532025539755812
0.6379730551883037 -0.11440958236643613
0.71974146262763 -0.2146000653308965
0.7314226636903909 -0.1859742130553364
0.7547850658159126 -0.17166128691755633
0.7547850658159126 9.382673580429338e-05
0.7431038647531517 0.08597138356248461
0.7547850658159126 0.17184894038916493
0.6963790605021082 0.17184894038916493
0.6029294520000211 0.1575360142513849
0.5328422456234557 0.0573455312869245
0.4861174413724122 -0.014219099401975759
0.4977986424351731 -0.1859742130553364
0.4977986424351731 -0.2575388437442367
0.46275503924689043 -0.3291034744331369
0.34594302861928156 -0.30047762215757684
0.24081221905443356 -0.2575388437442367
0.15904381161510733 -0.30047762215757684
0.1006378063013029 -0.31479054829535685
0.15904381161510733 -0.3720422528464771
0.14736261055234645 -0.4006681051220372
0.15904381161510733 -0.38635517898425714
0.17072501267786822 -0.31479054829535685
0.2057686158661509 -0.31479054829535685
0.21744981692891177 -0.30047762215757684
0.19408741480339 -0.38635517898425714
0.19408741480339 -0.38635517898425714
0.15904381161510733 -0.4006681051220372
0.088956605238542 -0.4292939573975973
0.07727540417578112 -0.47223273581093744
0.11231900736406378 -0.5008585880864975
0.21744981692891177 -0.45791980967315743
0.2758558222427162 -0.4006681051220372
0.25249342011719444 -0.38635517898425714
0.1006378063013029 -0.30047762215757684
0.01886939886197667 -0.28616469601979677
-0.03953660645182777 -0.3720422528464771
-0.004493003263545106 -0.4292939573975973
-0.004493003263545106 -0.5581102926376178
0.088956605238542 -0.615361997188738
0.12400020842682467 -0.6583007756020781
0.1006378063013029 -0.6726137017398582
0.01886939886197667 -0.7298654062909784
-0.05121780751458866 -0.7871171108420987
-0.13298621495391488 -0.9159334460821191
-0.17971101920495844 -1.1449402642866
-0.19139222026771932 -1.445511713179981
-0.1096238128283931 -1.9178382757267227
0.06559420311302022 -2.576232878064605
0.31089942543099885 -3.306192111091388
0.6379730551883037 -4.136341827082631
0.9066406796318042 -4.794736429420514
1.128583499824261 -5.395879327207275
1.1519459019497829 -5.653511997687317
0.9884090870711304 -5.567634440860636
0.9066406796318042 -5.338627622656156
0.9767278860083696 -4.866301060109413
1.3622075210794788 -4.393974497562672
1.9462675742175233 -3.79283159977591
2.682183241171459 -2.976994809922447
3.324649299623308 -1.8462736450378225
3.651722929380613 -0.45791980967315743
3.4648237123764387 0.8445564688648274
2.7289080454225028 1.8894000769227712
1.6659187487112619 2.4619171224339733
0.5445234466862167 2.5477946792606536
-0.436697442585698 2.2185973780917125
-1.1375695063513513 1.57451570189161
-1.4996867392969389 1.0735632870693084
-1.6164987499245478 0.7157401336248069
-1.698267157363874 0.4008557585936458
-1.7800355648032002 0.2434135710780652
-1.9902971839328962 0.0573455312869245
-2.2823272105019186 -0.1573483607797763
-2.5977196391964625 -0.38635517898425714
-2.8079812583261585 -0.5437973664998377
-2.9131120678910065 -0.6296749233265181
-2.9014308668282456 -0.6869266278776383
-2.83134366045168 -0.615361997188738
-2.726212850886832 -0.5581102926376178
-2.644444443447506 -0.5008585880864975
-2.539313633882658 -0.5294844403620577
-2.43418282431781 -0.6583007756020781
-2.317370813690201 -0.7728041847043186
-2.1421527977487878 -0.872994667668779
-1.9435723796818525 -0.9588722244954593
-1.593136347799026 -0.9159334460821191
-1.2076567127279165 -0.7871171108420987
-0.8104958765940464 -0.6726137017398582
-0.530147051087785 -0.47223273581093744
-0.4133350404601762 -0.30047762215757684
-0.436697442585698 -0.1859742130553364
-0.4250162415229371 -0.08578373009087603
-0.35492903514637175 0.0287196790113644
-0.23811702451876288 0.0573455312869245
-0.08626141070287133 0.1575360142513849
0.03055059992473756 0.07165845742470456
0.12400020842682467 0.07165845742470456
0.1824062137406291 9.382673580429338e-05
0.19408741480339 -0.028532025539755812
0.15904381161510733 9.382673580429338e-05
0.15904381161510733 -0.04284495167753587
0.07727540417578112 -0.05715787781531592
0.03055059992473756 -0.04284495167753587
0.04223180098749845 9.382673580429338e-05
0.04223180098749845 -0.04284495167753587
0.06559420311302022 -0.07147080395309598
0.05391300205025934 -0.17166128691755633
0.01886939886197667 -0.1859742130553364
-0.016174204326305994 -0.2718517698820167
-0.05121780751458866 -0.35772932670869706
-0.016174204326305994 -0.3720422528464771
0.03055059992473756 -0.45791980967315743
-0.004493003263545106 -0.4006681051220372
-0.06289900857734955 -0.38635517898425714
-0.13298621495391488 -0.4149810312598172
-0.226435823456002 -0.5437973664998377
-0.24979822558152376 -0.7012395540154183
-0.2848418287698064 -0.7728041847043186
-0.3082042308953282 -0.7584912585665385
-0.23811702451876288 -0.7728041847043186
-0.16802981814219756 -0.7012395540154183
-0.15634861707943665 -0.7728041847043186
-0.13298621495391488 -0.8014300369798787
-0.13298621495391488 -0.8443688153932188
-0.14466741601667577 -0.9731851506332393
-0.226435823456002 -0.9874980767710194
-0.33156663302085 -1.0733756335976996
-0.44837864364845886 -1.0733756335976996
-0.4133350404601762 -1.1163144120110398
-0.3899726383346544 -1.1449402642866
-0.3082042308953282 -1.15925319042438
-0.2848418287698064 -1.2880695256644006
-0.2848418287698064 -1.2880695256644006
-0.36661023620913263 -1.1878790426999402
-0.46005984471121975 -1.1449402642866
-0.5651906542760677 -1.1306273381488199
-0.635277860652633 -1.15925319042438
-0.646959061715394 -1.15925319042438
-0.7053650670291984 -1.17356611656216
-0.6235966595898722 -1.17356611656216
-0.4717410457739806 -1.2308178211132803
-0.40165383939741534 -1.2737565995266205
-0.3198854319580891 -1.2737565995266205
-0.34324783408361087 -1.2880695256644006
-0.35492903514637175 -1.3166953779399606
-0.34324783408361087 -1.3739470824910809
-0.226435823456002 -1.416885860904421
-0.16802981814219756 -1.474137565455541
-0.13298621495391488 -1.5027634177311013
-0.13298621495391488 -1.474137565455541
-0.12130501389115399 -1.416885860904421
-0.05121780751458866 -1.2451307472510604
0.01886939886197667 -1.1306273381488199
0.13568140948958557 -1.0018110029087994
0.19408741480339 -0.901620519944339
0.24081221905443356 -0.901620519944339
0.12400020842682467 -0.9588722244954593
0.03055059992473756 -1.0447497813221396
-0.027855405389066883 -1.0447497813221396
-0.027855405389066883 -1.0590627074599197
0.04223180098749845 -1.0733756335976996
0.07727540417578112 -1.0304368551843595
0.1006378063013029 -0.9874980767710194
0.088956605238542 -0.9302463722198991
0.1006378063013029 -0.901620519944339
0.11231900736406378 -0.8586817415309989
0.17072501267786822 -0.872994667668779
0.21744981692891177 -0.872994667668779
0.21744981692891177 -0.8157429631176587
0.2057686158661509 -0.8014300369798787
0.14736261055234645 -0.7584912585665385
0.1006378063013029 -0.7298654062909784
0.1006378063013029 -0.8014300369798787
0.088956605238542 -0.8443688153932188
0.13568140948958557 -0.901620519944339
0.15904381161510733 -0.901620519944339
0.17072501267786822 -0.8157429631176587
0.13568140948958557 -0.7012395540154183
0.06559420311302022 -0.6296749233265181
-0.03953660645182777 -0.601049071050958
-0.06289900857734955 -0.5151715142242776
-0.05121780751458866 -0.5008585880864975
-0.016174204326305994 -0.6296749233265181
0.07727540417578112 -0.7012395540154183
0.14736261055234645 -0.8014300369798787
0.17072501267786822 -0.872994667668779
0.21744981692891177 -0.901620519944339
0.24081221905443356 -0.901620519944339
0.21744981692891177 -0.8443688153932188
0.1824062137406291 -0.8014300369798787
0.13568140948958557 -0.7298654062909784
0.007188197799215783 -0.7155524801531984
-0.12130501389115399 -0.6726137017398582
-0.13298621495391488 -0.7155524801531984
-0.09794261176563221 -0.8157429631176587
-0.08626141070287133 -0.872994667668779
-0.08626141070287133 -0.8586817415309989
-0.06289900857734955 -0.7728041847043186
-0.05121780751458866 -0.6869266278776383
0.05391300205025934 -0.5724232187753978
0.19408741480339 -0.5581102926376178
0.35762422968204244 -0.5867361449131779
0.4160302349958469 -0.7155524801531984
0.3225806264937598 -0.901620519944339
0.14736261055234645 -1.0161239290465796
-0.09794261176563221 -1.1163144120110398
-0.2848418287698064 -1.17356611656216
-0.3899726383346544 -1.17356611656216
-0.46005984471121975 -1.0304368551843595
-0.36661023620913263 -0.9159334460821191
-0.24979822558152376 -0.6726137017398582
-0.1096238128283931 -0.5008585880864975
-0.07458020964011043 -0.4865456619487175
-0.14466741601667577 -0.5867361449131779
-0.23811702451876288 -0.7012395540154183
-0.29652302983256734 -0.8586817415309989
-0.3082042308953282 -0.9445592983576793
-0.29652302983256734 -1.0161239290465796
-0.26147942664428464 -1.1306273381488199
-0.26147942664428464 -1.1449402642866
-0.33156663302085 -1.0733756335976996
-0.33156663302085 -0.9302463722198991
-0.35492903514637175 -0.7871171108420987
-0.24979822558152376 -0.7584912585665385
-0.13298621495391488 -0.7871171108420987
-0.05121780751458866 -0.887307593806559
0.03055059992473756 -0.9874980767710194
-0.004493003263545106 -1.0447497813221396
-0.08626141070287133 -1.0161239290465796
-0.29652302983256734 -1.0161239290465796
-0.40165383939741534 -1.0018110029087994
-0.3899726383346544 -1.0447497813221396
-0.29652302983256734 -1.1020014858732599
-0.2030734213304802 -1.1449402642866
-0.05121780751458866 -1.1449402642866
0.088956605238542 -1.1020014858732599
0.19408741480339 -0.9445592983576793
0.2641746211799553 -0.901620519944339
0.2641746211799553 -0.9445592983576793
0.2758558222427162 -0.9588722244954593
0.2758558222427162 -0.901620519944339
0.2758558222427162 -0.872994667668779
0.1824062137406291 -0.8443688153932188
0.05391300205025934 -0.7728041847043186
-0.12130501389115399 -0.6583007756020781
-0.09794261176563221 -0.6296749233265181
-0.06289900857734955 -0.5437973664998377
0.03055059992473756 -0.35772932670869706
0.17072501267786822 -0.2718517698820167
0.1824062137406291 -0.20028713919311644
0.21744981692891177 -0.1573483607797763
0.2057686158661509 -0.14303543464199625
0.19408741480339 -0.17166128691755633
0.12400020842682467 -0.28616469601979677
0.007188197799215783 -0.4006681051220372
-0.12130501389115399 -0.4865456619487175
-0.12130501389115399 -0.5151715142242776
-0.08626141070287133 -0.4292939573975973
0.01886939886197667 -0.38635517898425714
0.15904381161510733 -0.4149810312598172
0.19408741480339 -0.4865456619487175
0.13568140948958557 -0.5867361449131779
0.07727540417578112 -0.601049071050958
0.06559420311302022 -0.44360688353537736
0.05391300205025934 -0.2718517698820167
0.01886939886197667 -0.1859742130553364
-0.004493003263545106 -0.22891299146867655
0.01886939886197667 -0.35772932670869706
-0.05121780751458866 -0.5724232187753978
-0.08626141070287133 -0.7298654062909784
-0.09794261176563221 -0.8157429631176587
-0.08626141070287133 -0.872994667668779
-0.07458020964011043 -0.9159334460821191
-0.15634861707943665 -0.9159334460821191
-0.19139222026771932 -0.872994667668779
-0.14466741601667577 -0.8300558892554388
-0.16802981814219756 -0.8443688153932188
-0.26147942664428464 -0.8443688153932188
-0.40165383939741534 -0.887307593806559
-0.541828252150546 -0.9445592983576793
-0.6586402627781549 -1.0018110029087994
-0.740408670217481 -1.0733756335976996
-0.6820026649036767 -1.0447497813221396
-0.6002342574643504 -1.0590627074599197
-0.4834222468367415 -0.9874980767710194
-0.4717410457739806 -1.0018110029087994
-0.49510344789950245 -0.901620519944339
-0.6002342574643504 -0.8157429631176587
-0.530147051087785 -0.8014300369798787
-0.5067846489622633 -0.7871171108420987
-0.4834222468367415 -0.872994667668779
-0.436697442585698 -0.872994667668779
-0.4717410457739806 -0.9302463722198991
-0.49510344789950245 -0.9445592983576793
-0.46005984471121975 -0.9159334460821191
-0.44837864364845886 -0.8443688153932188
-0.44837864364845886 -0.7871171108420987
-0.436697442585698 -0.8443688153932188
-0.44837864364845886 -0.9159334460821191
-0.4717410457739806 -1.0876885597354797
-0.46005984471121975 -1.2165048949755002
-0.5535094532133069 -1.3739470824910809
-0.6820026649036767 -1.5600151222822214
-0.8221770776568073 -1.7460831620733621
-0.9273078872216552 -2.175470946206764
-0.845539479782329 -2.7479879917179657
-0.740408670217481 -3.4636342986069684
-0.5067846489622633 -4.193593531633751
-0.2030734213304802 -4.952178616936094
0.19408741480339 -5.553321514722857
0.5211610445606949 -5.997022224994038
0.6846978594393474 -6.154464412509618
0.6730166583765864 -6.097212707958498
0.6379730551883037 -5.882518815891798
0.7664662668786736 -5.496069810171736
1.1869895051380654 -5.023743247624995
1.8528179657154362 -4.308096940735992
2.5186464262928068 -3.263253332678048
3.0559816751798077 -1.8462736450378225
3.2896056964350255 -0.24322591760645662
2.9742132677404816 1.0592503609315282
2.179891595472741 1.9609647076116716
1.0117714891966523 2.247223230367273
-0.03953660645182777 2.089781042851692
-0.9039454850961335 1.6747061848560705
-1.4529619350458953 1.016311582518188
-1.7333107605521565 0.5582979461092263
-1.9669347818073744 0.186161866526945
-2.1771964009370706 -0.028532025539755812
-2.410820422192288 -0.24322591760645662
-2.5743572370709407 -0.45791980967315743
-2.749575253012354 -0.615361997188738
-2.854706062577202 -0.7728041847043186
-2.8663872636399628 -0.9874980767710194
-2.8897496657654846 -1.1163144120110398
-2.9715180732048108 -1.1449402642866
-3.053286480644137 -1.1163144120110398
-3.135054888083463 -0.9731851506332393
-3.146736089146224 -0.872994667668779
-3.0883300838324197 -0.872994667668779
-2.9715180732048108 -0.9588722244954593
-2.8079812583261585 -1.1020014858732599
-2.5860384381337016 -1.15925319042438
-2.223921205188114 -1.1306273381488199
-1.8267603690542438 -1.0304368551843595
-1.5113679403596998 -0.887307593806559
-1.3127875222927645 -0.7441783324287584
-1.1375695063513513 -0.5581102926376178
-0.962351490409938 -0.4865456619487175
-0.7988146755312855 -0.47223273581093744
-0.5184658500250242 -0.3720422528464771
-0.2731606277070455 -0.22891299146867655
-0.06289900857734955 -0.14303543464199625
0.04223180098749845 -0.10009665622865607
-0.016174204326305994 -0.07147080395309598
-0.19139222026771932 -0.10009665622865607
-0.36661023620913263 -0.11440958236643613
-0.436697442585698 9.382673580429338e-05
-0.3782914372718935 -0.014219099401975759
-0.23811702451876288 -0.14303543464199625
-0.06289900857734955 -0.28616469601979677
0.1006378063013029 -0.47223273581093744
0.07727540417578112 -0.5008585880864975
0.007188197799215783 -0.5724232187753978
-0.14466741601667577 -0.601049071050958
-0.29652302983256734 -0.5724232187753978
-0.36661023620913263 -0.5581102926376178
-0.34324783408361087 -0.5294844403620577
-0.24979822558152376 -0.45791980967315743
-0.15634861707943665 -0.44360688353537736
-0.07458020964011043 -0.4149810312598172
-0.027855405389066883 -0.45791980967315743
-0.05121780751458866 -0.38635517898425714
-0.08626141070287133 -0.44360688353537736
-0.19139222026771932 -0.5008585880864975
-0.29652302983256734 -0.6296749233265181
-0.40165383939741534 -0.8300558892554388
-0.44837864364845886 -0.9874980767710194
-0.4250162415229371 -1.0304368551843595
-0.3899726383346544 -1.0733756335976996
-0.33156663302085 -1.0876885597354797
-0.23811702451876288 -1.1020014858732599
-0.16802981814219756 -1.0733756335976996
-0.17971101920495844 -1.1020014858732599
-0.2731606277070455 -1.1306273381488199
-0.4717410457739806 -1.17356611656216
-0.5768718553388287 -1.20219196883772
-0.6820026649036767 -1.1878790426999402
-0.7754522734057637 -1.2451307472510604
-0.752089871280242 -1.2451307472510604
-0.7287274691547202 -1.2880695256644006
-0.5768718553388287 -1.2737565995266205
-0.5067846489622633 -1.2737565995266205
-0.3782914372718935 -1.2594436733888403
-0.34324783408361087 -1.3882600086288608
-0.29652302983256734 -1.445511713179981
-0.226435823456002 -1.5886409745577816
-0.21475462239324108 -1.5457021961444415
-0.16802981814219756 -1.4884504915933212
-0.23811702451876288 -1.3596341563533008
-0.3899726383346544 -1.2308178211132803
-0.5885530564015895 -1.1878790426999402
-0.6703214638409157 -1.15925319042438
-0.6002342574643504 -1.2165048949755002
-0.4834222468367415 -1.2880695256644006
-0.3782914372718935 -1.3453212302155206
-0.24979822558152376 -1.445511713179981
-0.2731606277070455 -1.5170763438688812
-0.26147942664428464 -1.5170763438688812
-0.2731606277070455 -1.5313892700066614
-0.26147942664428464 -1.474137565455541
-0.2030734213304802 -1.402572934766641
-0.16802981814219756 -1.3596341563533008
-0.13298621495391488 -1.3453212302155206
-0.016174204326305994 -1.2880695256644006
0.088956605238542 -1.20219196883772
0.2057686158661509 -1.1306273381488199
0.299218224368238 -1.0161239290465796
0.21744981692891177 -0.9445592983576793
0.088956605238542 -0.9588722244954593
0.01886939886197667 -0.9874980767710194
0.088956605238542 -1.0018110029087994
0.13568140948958557 -1.0018110029087994
0.17072501267786822 -1.0590627074599197
0.13568140948958557 -1.0876885597354797
0.01886939886197667 -1.0304368551843595
-0.03953660645182777 -1.0161239290465796
-0.03953660645182777 -0.9445592983576793
0.03055059992473756 -0.8443688153932188
0.1006378063013029 -0.6726137017398582
0.14736261055234645 -0.615361997188738
0.14736261055234645 -0.5581102926376178
0.13568140948958557 -0.5008585880864975
0.1824062137406291 -0.5724232187753978
0.2875370233054771 -0.6726137017398582
0.3809866318075642 -0.7728041847043186
0.34594302861928156 -0.8157429631176587
0.31089942543099885 -0.7728041847043186
0.22913101799167265 -0.6296749233265181
0.2641746211799553 -0.5151715142242776
0.24081221905443356 -0.44360688353537736
0.2057686158661509 -0.4149810312598172
0.1824062137406291 -0.5008585880864975
0.11231900736406378 -0.601049071050958
0.1006378063013029 -0.6726137017398582
0.14736261055234645 -0.7155524801531984
0.2875370233054771 -0.6296749233265181
0.40434903393308597 -0.5437973664998377
0.3693054307448033 -0.343416400570917
0.2875370233054771 -0.2146000653308965
0.22913101799167265 -0.12872250850421618
0.14736261055234645 -0.11440958236643613
0.11231900736406378 -0.20028713919311644
0.19408741480339 -0.45791980967315743
0.2875370233054771 -0.5581102926376178
0.43939263712136867 -0.601049071050958
0.5445234466862167 -0.5151715142242776
0.5912482509372602 -0.44360688353537736
0.509479843497934 -0.35772932670869706
0.2875370233054771 -0.31479054829535685
0.13568140948958557 -0.2718517698820167
0.007188197799215783 -0.3291034744331369
0.007188197799215783 -0.38635517898425714
0.13568140948958557 -0.3720422528464771
0.25249342011719444 -0.4006681051220372
0.2758558222427162 -0.343416400570917
0.31089942543099885 -0.35772932670869706
0.3693054307448033 -0.3291034744331369
0.3926678328703251 -0.38635517898425714
0.4277114360586078 -0.44360688353537736
0.3926678328703251 -0.45791980967315743
0.3225806264937598 -0.45791980967315743
0.19408741480339 -0.3720422528464771
0.06559420311302022 -0.28616469601979677
0.007188197799215783 -0.28616469601979677
-0.004493003263545106 -0.2718517698820167
0.04223180098749845 -0.28616469601979677
0.07727540417578112 -0.343416400570917
0.11231900736406378 -0.35772932670869706
0.17072501267786822 -0.3720422528464771
0.17072501267786822 -0.3720422528464771
0.22913101799167265 -0.4149810312598172
0.15904381161510733 -0.5581102926376178
0.14736261055234645 -0.5581102926376178
0.15904381161510733 -0.5867361449131779
0.25249342011719444 -0.5867361449131779
0.31089942543099885 -0.5867361449131779
0.34594302861928156 -0.5008585880864975
0.2641746211799553 -0.343416400570917
0.2758558222427162 -0.20028713919311644
0.2641746211799553 -0.14303543464199625
0.2641746211799553 -0.1859742130553364
0.31089942543099885 -0.22891299146867655
0.31089942543099885 -0.3291034744331369
0.3342618275565207 -0.3720422528464771
0.2875370233054771 -0.38635517898425714
0.2758558222427162 -0.31479054829535685
0.35762422968204244 -0.22891299146867655
0.4861174413724122 -0.12872250850421618
0.4977986424351731 0.014406752873584347
0.5912482509372602 -0.014219099401975759
0.5678858488117384 -0.05715787781531592
0.6029294520000211 -0.2146000653308965
0.6496542562510647 -0.3720422528464771
0.7664662668786736 -0.5008585880864975
0.7547850658159126 -0.5437973664998377
0.7314226636903909 -0.5437973664998377
0.6379730551883037 -0.4865456619487175
0.5562046477489775 -0.5008585880864975
0.5795670498744994 -0.4292939573975973
0.6730166583765864 -0.343416400570917
0.8015098700669562 -0.17166128691755633
0.9300030817573259 0.0287196790113644
0.9300030817573259 0.2434135710780652
0.8248722721924779 0.3579169801803056
0.6730166583765864 0.3579169801803056
0.5328422456234557 0.3436040540425256
0.4861174413724122 0.22910064494028515
0.4977986424351731 0.10028430970026467
0.5211610445606949 -0.014219099401975759
0.4861174413724122 -0.028532025539755812
0.4861174413724122 0.10028430970026467
0.509479843497934 0.2434135710780652
0.5328422456234557 0.30066527562918544
0.4861174413724122 0.3579169801803056
0.509479843497934 0.3292911279047455
0.509479843497934 0.25772649721584523
0.6029294520000211 0.1575360142513849
0.6846978594393474 0.11459723583804472
0.71974146262763 0.043032605149144455
0.6730166583765864 -0.08578373009087603
0.6029294520000211 -0.14303543464199625
0.5328422456234557 -0.1573483607797763
0.5211610445606949 -0.14303543464199625
0.509479843497934 -0.08578373009087603
0.5328422456234557 0.07165845742470456
0.4744362403096513 0.1575360142513849
0.31089942543099885 0.31497820176696545
0.14736261055234645 0.28635234949140537
-0.004493003263545106 0.08597138356248461
-0.14466741601667577 -0.10009665622865607
-0.2030734213304802 -0.3291034744331369
-0.17971101920495844 -0.4149810312598172
-0.07458020964011043 -0.3720422528464771
-0.004493003263545106 -0.30047762215757684
0.088956605238542 -0.1573483607797763
0.17072501267786822 -0.12872250850421618
0.22913101799167265 -0.04284495167753587
0.2057686158661509 9.382673580429338e-05
0.2057686158661509 0.0287196790113644
0.24081221905443356 -0.028532025539755812
0.24081221905443356 -0.11440958236643613
0.2641746211799553 -0.24322591760645662
0.31089942543099885 -0.343416400570917
0.25249342011719444 -0.4149810312598172
0.11231900736406378 -0.38635517898425714
-0.07458020964011043 -0.30047762215757684
-0.24979822558152376 -0.2718517698820167
-0.33156663302085 -0.2575388437442367
-0.23811702451876288 -0.31479054829535685
-0.07458020964011043 -0.44360688353537736
0.01886939886197667 -0.5867361449131779
0.12400020842682467 -0.6869266278776383
0.2057686158661509 -0.7012395540154183
0.1824062137406291 -0.6439878494642981
0.11231900736406378 -0.601049071050958
0.007188197799215783 -0.5581102926376178
-0.1096238128283931 -0.601049071050958
-0.226435823456002 -0.7728041847043186
-0.3082042308953282 -1.0733756335976996
-0.33156663302085 -1.474137565455541
-0.2731606277070455 -2.0037158325534032
-0.03953660645182777 -2.576232878064605
0.3809866318075642 -3.2203145542647076
0.8015098700669562 -3.8930220827403703
1.1052210976987393 -4.5514166850782525
1.233714309389109 -5.066682026038334
1.1052210976987393 -5.181185435140575
0.9300030817573259 -5.066682026038334
0.7547850658159126 -4.837675207833854
0.8482346743179997 -4.422600349838232
1.24539551045187 -3.9788996395670506
1.9462675742175233 -3.2918791849536078
2.7522704475480246 -2.247035576895664
3.4881861145019606 -0.8443688153932188
3.8269409453220264 0.7873047643137072
3.6867665325688956 2.1327198212650322
2.9858944688032425 2.9771824633940556
1.8528179657154362 3.2205022077363163
0.5795670498744994 3.0058083156696154
-0.541828252150546 2.4046654178828533
-1.3361499244182864 1.7462708155449709
-1.7099483584266348 1.1308149916204284
-1.90852877649357 0.7014272074870269
-1.9902971839328962 0.4867333154203261
-2.083746792434983 0.4008557585936458
-2.1655151998743096 0.22910064494028515
-2.329052014752962 0.11459723583804472
-2.4692264275060927 -0.11440958236643613
-2.609400840259223 -0.31479054829535685
-2.6678068455730277 -0.47223273581093744
-2.6794880466357887 -0.5867361449131779
-2.644444443447506 -0.6583007756020781
-2.5977196391964625 -0.7584912585665385
-2.5626760360081797 -0.7584912585665385
-2.527632432819897 -0.7728041847043186
-2.4692264275060927 -0.8014300369798787
-2.410820422192288 -0.7584912585665385
-2.329052014752962 -0.7441783324287584
-2.1655151998743096 -0.6869266278776383
-1.90852877649357 -0.5294844403620577
-1.5347303424852214 -0.35772932670869706
-1.2076567127279165 -0.1859742130553364
-0.7988146755312855 -0.028532025539755812
-0.5885530564015895 0.10028430970026467
-0.4133350404601762 0.20047479266472504
-0.29652302983256734 0.22910064494028515
-0.26147942664428464 0.21478771880250508
-0.13298621495391488 0.1575360142513849
-0.1096238128283931 0.14322308811360482
-0.027855405389066883 0.17184894038916493
0.007188197799215783 0.12891016197582478
0.07727540417578112 0.12891016197582478
0.25249342011719444 0.12891016197582478
0.3693054307448033 0.11459723583804472
0.3342618275565207 0.14322308811360482
0.15904381161510733 0.11459723583804472
-0.07458020964011043 0.11459723583804472
-0.26147942664428464 0.08597138356248461
-0.3082042308953282 0.07165845742470456
-0.24979822558152376 0.0287196790113644
-0.1096238128283931 -0.014219099401975759
0.03055059992473756 -0.11440958236643613
0.11231900736406378 -0.12872250850421618
0.24081221905443356 -0.04284495167753587
0.2875370233054771 9.382673580429338e-05
0.22913101799167265 0.0287196790113644
0.11231900736406378 -0.05715787781531592
-0.07458020964011043 -0.05715787781531592
-0.16802981814219756 -0.1573483607797763
-0.15634861707943665 -0.30047762215757684
-0.21475462239324108 -0.4006681051220372
-0.3082042308953282 -0.4006681051220372
-0.3782914372718935 -0.35772932670869706
-0.40165383939741534 -0.30047762215757684
-0.3899726383346544 -0.3720422528464771
-0.3082042308953282 -0.45791980967315743
-0.2030734213304802 -0.6869266278776383
-0.17971101920495844 -0.8014300369798787
-0.23811702451876288 -0.9302463722198991
-0.29652302983256734 -0.8586817415309989
-0.24979822558152376 -0.8157429631176587
-0.3082042308953282 -0.7871171108420987
-0.2848418287698064 -0.7871171108420987
-0.3198854319580891 -0.7871171108420987
-0.33156663302085 -0.8157429631176587
-0.3082042308953282 -0.872994667668779
-0.24979822558152376 -0.887307593806559
-0.226435823456002 -0.9445592983576793
-0.29652302983256734 -1.0304368551843595
-0.5184658500250242 -1.1306273381488199
-0.7287274691547202 -1.1163144120110398
-0.85722068084509 -1.0161239290465796
-0.845539479782329 -0.9302463722198991
-0.6936838659664375 -0.901620519944339
-0.6119154585271113 -0.887307593806559
-0.5768718553388287 -0.9731851506332393
-0.4834222468367415 -0.9874980767710194
-0.3899726383346544 -1.0304368551843595
-0.33156663302085 -1.0733756335976996
-0.33156663302085 -1.1306273381488199
-0.40165383939741534 -1.1306273381488199
-0.46005984471121975 -1.15925319042438
-0.5535094532133069 -1.17356611656216
-0.6586402627781549 -1.0876885597354797
-0.7053650670291984 -1.0447497813221396
-0.6703214638409157 -0.9731851506332393
-0.5651906542760677 -0.9302463722198991
-0.40165383939741534 -0.9731851506332393
-0.24979822558152376 -0.9874980767710194
-0.016174204326305994 -0.9445592983576793
0.07727540417578112 -0.887307593806559
0.07727540417578112 -0.7728041847043186
0.1006378063013029 -0.7298654062909784
0.1824062137406291 -0.6439878494642981
0.2875370233054771 -0.6296749233265181
0.31089942543099885 -0.601049071050958
0.19408741480339 -0.615361997188738
-0.004493003263545106 -0.6296749233265181
-0.2731606277070455 -0.6439878494642981
-0.436697442585698 -0.6439878494642981
-0.4133350404601762 -0.7155524801531984
-0.21475462239324108 -0.7012395540154183
0.05391300205025934 -0.6869266278776383
0.2758558222427162 -0.615361997188738
0.40434903393308597 -0.5724232187753978
0.4744362403096513 -0.4865456619487175
0.40434903393308597 -0.38635517898425714
0.24081221905443356 -0.4149810312598172
0.13568140948958557 -0.3720422528464771
0.01886939886197667 -0.35772932670869706
-0.004493003263545106 -0.343416400570917
-0.004493003263545106 -0.3291034744331369
0.1006378063013029 -0.28616469601979677
0.2641746211799553 -0.31479054829535685
0.34594302861928156 -0.3720422528464771
0.3342618275565207 -0.3291034744331369
0.25249342011719444 -0.30047762215757684
0.14736261055234645 -0.28616469601979677
0.05391300205025934 -0.2718517698820167
-0.016174204326305994 -0.24322591760645662
-0.03953660645182777 -0.30047762215757684
-0.03953660645182777 -0.28616469601979677
0.088956605238542 -0.3720422528464771
0.19408741480339 -0.4006681051220372
0.24081221905443356 -0.4006681051220372
0.2758558222427162 -0.28616469601979677
0.24081221905443356 -0.1573483607797763
0.25249342011719444 -0.10009665622865607
0.24081221905443356 -0.10009665622865607
0.2758558222427162 -0.1573483607797763
0.3693054307448033 -0.2718517698820167
0.40434903393308597 -0.4149810312598172
0.35762422968204244 -0.4865456619487175
0.31089942543099885 -0.4006681051220372
0.25249342011719444 -0.2718517698820167
0.17072501267786822 -0.10009665622865607
0.07727540417578112 0.014406752873584347
0.007188197799215783 0.043032605149144455
0.06559420311302022 -0.014219099401975759
0.22913101799167265 -0.12872250850421618
0.34594302861928156 -0.2575388437442367
0.3342618275565207 -0.3720422528464771
0.2641746211799553 -0.4865456619487175
0.1824062137406291 -0.5294844403620577
0.14736261055234645 -0.5294844403620577
0.12400020842682467 -0.4292939573975973
0.088956605238542 -0.28616469601979677
0.04223180098749845 -0.12872250850421618
0.007188197799215783 -0.04284495167753587
0.03055059992473756 0.0573455312869245
0.06559420311302022 0.07165845742470456
0.1824062137406291 -0.014219099401975759
0.2875370233054771 -0.12872250850421618
0.3809866318075642 -0.343416400570917
0.4160302349958469 -0.47223273581093744
0.40434903393308597 -0.5724232187753978
0.3926678328703251 -0.6869266278776383
0.2875370233054771 -0.6726137017398582
0.19408741480339 -0.6296749233265181
0.17072501267786822 -0.4865456619487175
0.2641746211799553 -0.31479054829535685
0.3342618275565207 -0.2575388437442367
0.4744362403096513 -0.1859742130553364
0.4861174413724122 -0.22891299146867655
0.43939263712136867 -0.343416400570917
0.35762422968204244 -0.5151715142242776
0.2875370233054771 -0.5724232187753978
0.22913101799167265 -0.5151715142242776
0.24081221905443356 -0.5008585880864975
0.2641746211799553 -0.5437973664998377
0.1824062137406291 -0.5581102926376178
0.15904381161510733 -0.5008585880864975
0.15904381161510733 -0.45791980967315743
0.19408741480339 -0.5151715142242776
0.21744981692891177 -0.601049071050958
0.299218224368238 -0.6439878494642981
0.3809866318075642 -0.5724232187753978
0.5795670498744994 -0.601049071050958
0.6846978594393474 -0.7012395540154183
0.6963790605021082 -0.7441783324287584
0.8248722721924779 -0.872994667668779
0.8365534732552389 -0.9874980767710194
0.8015098700669562 -0.9588722244954593
0.7314226636903909 -0.887307593806559
0.7080602615648691 -0.6726137017398582
0.6963790605021082 -0.5294844403620577
0.7080602615648691 -0.4149810312598172
0.7547850658159126 -0.24322591760645662
0.7898286690041953 -0.12872250850421618
0.7898286690041953 -0.05715787781531592
0.7314226636903909 -0.028532025539755812
0.6846978594393474 -0.04284495167753587
0.7431038647531517 -0.24322591760645662
0.8599158753807606 -0.4292939573975973
0.8715970764435216 -0.6439878494642981
0.7080602615648691 -0.6726137017398582
0.45107383818412955 -0.5151715142242776
0.3225806264937598 -0.2718517698820167
0.24081221905443356 -0.07147080395309598
0.299218224368238 -0.014219099401975759
0.35762422968204244 -0.07147080395309598
0.4861174413724122 -0.1859742130553364
0.5795670498744994 -0.28616469601979677
0.6262918541255429 -0.35772932670869706
0.614610653062782 -0.4006681051220372
0.5678858488117384 -0.3720422528464771
0.4277114360586078 -0.35772932670869706
0.31089942543099885 -0.3720422528464771
0.2875370233054771 -0.4292939573975973
0.299218224368238 -0.4149810312598172
0.3693054307448033 -0.4149810312598172
0.3926678328703251 -0.4149810312598172
0.34594302861928156 -0.45791980967315743
0.3693054307448033 -0.5581102926376178
0.35762422968204244 -0.601049071050958
0.34594302861928156 -0.7155524801531984
0.31089942543099885 -0.7728041847043186
0.2641746211799553 -0.8300558892554388
0.22913101799167265 -0.8014300369798787
0.19408741480339 -0.7155524801531984
0.19408741480339 -0.6726137017398582
0.11231900736406378 -0.6726137017398582
-0.016174204326305994 -0.7155524801531984
-0.14466741601667577 -0.7584912585665385
-0.13298621495391488 -0.7441783324287584
0.04223180098749845 -0.7441783324287584
0.21744981692891177 -0.7584912585665385
0.31089942543099885 -0.7441783324287584
0.31089942543099885 -0.7298654062909784
0.1824062137406291 -0.615361997188738
0.01886939886197667 -0.6583007756020781
-0.09794261176563221 -0.6726137017398582
-0.09794261176563221 -0.6583007756020781
-0.016174204326305994 -0.7441783324287584
0.11231900736406378 -0.8014300369798787
0.2758558222427162 -0.8443688153932188
0.299218224368238 -0.9588722244954593
0.19408741480339 -0.9874980767710194
0.04223180098749845 -0.9159334460821191
-0.07458020964011043 -0.9588722244954593
-0.17971101920495844 -1.1020014858732599
-0.33156663302085 -1.416885860904421
-0.40165383939741534 -1.9035253495889428
-0.3782914372718935 -2.4187906905490246
-0.07458020964011043 -3.0199335883357867
0.24081221905443356 -3.6783281906736693
0.5678858488117384 -4.465539128251573
0.8949594785690433 -5.209811287416135
1.1753083040753047 -5.696450776100657
1.350526320016718 -5.882518815891798
1.3622075210794788 -5.739389554513997
1.2103519072635873 -5.338627622656156
1.0584962934476958 -4.837675207833854
1.140264700887022 -4.365348645287112
1.5140631348953704 -3.80714452591369
2.1214855901589367 -3.1344369974380273
2.798995251799068 -2.118219241655644
3.5232297176902434 -0.901620519944339
3.967115358075157 0.47242038928254604
3.9203905538241135 1.5602027757538302
3.3129680985605474 2.2758490826428326
2.29670360610035 2.633672236087334
1.0584962934476958 2.647985162225114
-0.1096238128283931 2.2901620087806127
-0.9156266861588944 1.7462708155449709
-1.38287472866933 1.1165020654826485
-1.6164987499245478 0.5010462415581062
-1.7566731626776784 9.382673580429338e-05
-1.9435723796818525 -0.38635517898425714
-2.095427993497744 -0.6726137017398582
-2.317370813690201 -0.887307593806559
-2.4809076285688536 -0.9159334460821191
-2.527632432819897 -0.9302463722198991
-2.399139221129527 -1.0447497813221396
-2.2706460094391576 -1.3166953779399606
-2.2706460094391576 -1.703144383660022
-2.527632432819897 -1.7317702359355822
-2.819662459388919 -1.402572934766641
-2.9014308668282456 -1.1163144120110398
-2.749575253012354 -0.9731851506332393
-2.43418282431781 -0.9445592983576793
-2.025340787121179 -1.17356611656216
-1.7449919616149174 -1.3166953779399606
-1.5580927446107433 -1.2880695256644006
-1.371193527606569 -1.0447497813221396
-1.1142071042258295 -0.7584912585665385
-0.7754522734057637 -0.5151715142242776
-0.436697442585698 -0.4865456619487175
-0.19139222026771932 -0.5867361449131779
-0.05121780751458866 -0.8014300369798787
-0.08626141070287133 -0.9159334460821191
-0.14466741601667577 -0.8300558892554388
-0.14466741601667577 -0.6583007756020781
-0.15634861707943665 -0.5581102926376178
-0.12130501389115399 -0.5581102926376178
-0.09794261176563221 -0.6583007756020781
-0.03953660645182777 -0.8300558892554388
-0.08626141070287133 -1.1163144120110398
-0.13298621495391488 -1.2165048949755002
-0.23811702451876288 -1.2165048949755002
-0.29652302983256734 -1.0018110029087994
-0.26147942664428464 -0.7584912585665385
-0.12130501389115399 -0.6583007756020781
-0.03953660645182777 -0.6869266278776383
-0.05121780751458866 -0.872994667668779
-0.07458020964011043 -1.0590627074599197
-0.13298621495391488 -1.2594436733888403
-0.14466741601667577 -1.3882600086288608
-0.14466741601667577 -1.5170763438688812
-0.17971101920495844 -1.5600151222822214
-0.2731606277070455 -1.445511713179981
-0.4250162415229371 -1.3310083040777407
-0.6586402627781549 -1.2880695256644006
-0.8338582787195682 -1.3023824518021805
-0.962351490409938 -1.3166953779399606
-0.8805830829706117 -1.5457021961444415
-0.635277860652633 -1.688831457522242
-0.3198854319580891 -1.7747090143489224
-0.05121780751458866 -1.9178382757267227
0.03055059992473756 -2.046654610966743
-0.12130501389115399 -2.1325321677934235
-0.436697442585698 -2.175470946206764
-0.7287274691547202 -2.232722650757884
-0.8338582787195682 -2.304287281446784
-0.845539479782329 -2.3901648382734644
-0.845539479782329 -2.447416542824585
-0.8689018819078509 -2.3472260598601244
-0.9273078872216552 -2.204096798482324
-0.962351490409938 -2.0180287586911834
-0.9973950935982207 -1.8033348666244824
-0.9973950935982207 -1.5743280484200015
-0.9039454850961335 -1.474137565455541
-0.7871334744685247 -1.5743280484200015
-0.6703214638409157 -1.717457309797802
-0.5067846489622633 -1.946464128002283
-0.44837864364845886 -2.189783872344544
-0.49510344789950245 -2.3615389859979046
-0.6235966595898722 -2.461729468962365
-0.6936838659664375 -2.476042395100145
-0.6936838659664375 -2.4044777644112445
-0.7637710723430029 -2.2899743553090044
-0.7754522734057637 -2.1039063155178637
-0.7988146755312855 -2.0752804632423034
-0.8338582787195682 -2.032341684828963
-0.7637710723430029 -2.032341684828963
-0.6820026649036767 -2.046654610966743
-0.4717410457739806 -2.032341684828963
-0.21475462239324108 -2.118219241655644
-0.05121780751458866 -2.204096798482324
0.05391300205025934 -2.232722650757884
-0.027855405389066883 -2.189783872344544
-0.226435823456002 -2.0609675371045233
-0.436697442585698 -1.7317702359355822
-0.530147051087785 -1.5170763438688812
-0.5535094532133069 -1.402572934766641
-0.46005984471121975 -1.474137565455541
-0.29652302983256734 -1.645892679108902
-0.17971101920495844 -1.717457309797802
-0.03953660645182777 -1.8176477927622625
0.04223180098749845 -1.8176477927622625
0.04223180098749845 -1.8033348666244824
0.088956605238542 -1.717457309797802
0.088956605238542 -1.5743280484200015
0.11231900736406378 -1.4598246393177612
0.11231900736406378 -1.416885860904421
0.1006378063013029 -1.445511713179981
0.19408741480339 -1.5170763438688812
0.2758558222427162 -1.7603960882111422
0.14736261055234645 -2.0037158325534032
-0.06289900857734955 -1.8892124234511627
-0.19139222026771932 -1.5170763438688812
-0.17971101920495844 -1.1306273381488199
-0.004493003263545106 -0.9731851506332393
0.11231900736406378 -1.17356611656216
0.2057686158661509 -1.4598246393177612
0.21744981692891177 -1.6315797529711218
0.03055059992473756 -1.5027634177311013
-0.16802981814219756 -1.3596341563533008
-0.226435823456002 -1.20219196883772
-0.15634861707943665 -1.1020014858732599
-0.07458020964011043 -1.2451307472510604
-0.016174204326305994 -1.3739470824910809
0.05391300205025934 -1.445511713179981
0.01886939886197667 -1.5027634177311013
-0.06289900857734955 -1.5743280484200015
-0.13298621495391488 -1.4598246393177612
-0.1096238128283931 -1.2737565995266205
0.01886939886197667 -1.1449402642866
0.12400020842682467 -1.15925319042438
0.25249342011719444 -1.2737565995266205
0.1006378063013029 -1.5027634177311013
-0.13298621495391488 -1.5886409745577816
-0.33156663302085 -1.445511713179981
-0.3782914372718935 -1.2737565995266205
-0.29652302983256734 -1.2594436733888403
-0.09794261176563221 -1.1878790426999402
0.06559420311302022 -1.1878790426999402
0.06559420311302022 -1.1878790426999402
0.007188197799215783 -1.2737565995266205
-0.05121780751458866 -1.416885860904421
-0.06289900857734955 -1.6029539006955618
-0.06289900857734955 -1.6315797529711218
-0.09794261176563221 -1.5313892700066614
-0.21475462239324108 -1.2451307472510604
-0.2731606277070455 -1.0304368551843595
-0.29652302983256734 -0.9445592983576793
-0.3082042308953282 -1.0733756335976996
-0.2731606277070455 -1.2451307472510604
-0.23811702451876288 -1.3882600086288608
-0.16802981814219756 -1.3882600086288608
-0.12130501389115399 -1.4598246393177612
-0.09794261176563221 -1.402572934766641
-0.016174204326305994 -1.3166953779399606
0.11231900736406378 -1.2737565995266205
0.22913101799167265 -1.3023824518021805
0.3342618275565207 -1.445511713179981
0.3926678328703251 -1.645892679108902
0.2875370233054771 -1.8319607189000424
0.12400020842682467 -1.8462736450378225
-0.08626141070287133 -1.674518531384462
-0.12130501389115399 -1.416885860904421
-0.12130501389115399 -1.17356611656216
-0.027855405389066883 -1.1306273381488199
0.04223180098749845 -1.1020014858732599
0.04223180098749845 -1.1306273381488199
0.01886939886197667 -1.1878790426999402
-0.016174204326305994 -1.2165048949755002
0.007188197799215783 -1.3310083040777407
0.07727540417578112 -1.5027634177311013
0.088956605238542 -1.645892679108902
0.1006378063013029 -1.7603960882111422
0.04223180098749845 -1.7460831620733621
-0.016174204326305994 -1.674518531384462
0.05391300205025934 -1.3739470824910809
0.07727540417578112 -1.2308178211132803
0.13568140948958557 -1.2737565995266205
0.17072501267786822 -1.445511713179981
0.14736261055234645 -1.6602056052466818
0.14736261055234645 -1.674518531384462
0.21744981692891177 -1.5027634177311013
