0.379721962450078 0.8818521117686027
0.3597524600367684 0.90656695189716
0.4396304696900069 0.90656695189716
0.379721962450078 0.90656695189716
0.3597524600367684 0.832422431511488
0.3397829576234588 0.8077075913829307
0.2998439527968395 0.758277911125816
0.27987445038352987 0.7829927512543733
0.3397829576234588 0.7829927512543733
0.3397829576234588 0.7335630709972587
0.31981345521014914 0.6099888703544721
0.2998439527968395 0.6099888703544721
0.219965943143601 0.5852740302259147
0.219965943143601 0.6347037104830294
0.23993544555691063 0.6594185506115867
0.219965943143601 0.6347037104830294
0.219965943143601 0.5605591900973574
0.19999644073029135 0.46169982958312816
0.14008793349036247 0.5111295098402429
0.18002693831698172 0.4864146697116855
0.219965943143601 0.5358443499688001
0.23993544555691063 0.4864146697116855
0.19999644073029135 0.43698498945457087
0.1600574359036721 0.3628404690688989
0.14008793349036247 0.38755530919745623
0.1600574359036721 0.43698498945457087
0.18002693831698172 0.43698498945457087
0.10014892866374321 0.4122701493260135
0.10014892866374321 0.31341078881178425
0.10014892866374321 0.2886959486832269
0.12011843107705285 0.3381256289403416
0.12011843107705285 0.3381256289403416
0.14008793349036247 0.38755530919745623
0.10014892866374321 0.3628404690688989
0.14008793349036247 0.2639811085546696
0.12011843107705285 0.2639811085546696
0.06020992383712395 0.2639811085546696
0.08017942625043359 0.2886959486832269
0.08017942625043359 0.3381256289403416
0.08017942625043359 0.31341078881178425
0.08017942625043359 0.2886959486832269
0.06020992383712395 0.2392662684261123
0.020270919010504696 0.2639811085546696
0.06020992383712395 0.2886959486832269
0.06020992383712395 0.31341078881178425
0.10014892866374321 0.31341078881178425
0.06020992383712395 0.31341078881178425
0.06020992383712395 0.21455142829755497
-0.019668085816114563 0.18983658816899765
-0.019668085816114563 0.31341078881178425
-0.019668085816114563 0.2886959486832269
0.04024042142381432 0.2639811085546696
0.00030141659719506623 0.2392662684261123
0.020270919010504696 0.16512174804044033
-0.03963758822942419 0.140406907911883
-0.03963758822942419 0.21455142829755497
0.04024042142381432 0.2392662684261123
0.06020992383712395 0.2639811085546696
0.04024042142381432 0.21455142829755497
0.00030141659719506623 0.18983658816899765
-0.03963758822942419 0.16512174804044033
-0.03963758822942419 0.21455142829755497
0.020270919010504696 0.2886959486832269
0.04024042142381432 0.16512174804044033
0.04024042142381432 0.21455142829755497
0.00030141659719506623 0.16512174804044033
-0.05960709064273382 0.16512174804044033
-0.07957659305604345 0.16512174804044033
-0.019668085816114563 0.18983658816899765
-0.03963758822942419 0.18983658816899765
-0.03963758822942419 0.140406907911883
-0.03963758822942419 0.11569206778332568
-0.07957659305604345 0.11569206778332568
-0.03963758822942419 0.16512174804044033
-0.05960709064273382 0.21455142829755497
-0.019668085816114563 0.18983658816899765
-0.05960709064273382 0.140406907911883
-0.03963758822942419 0.06626238752621104
-0.09954609546935309 0.09097722765476836
-0.09954609546935309 0.11569206778332568
-0.05960709064273382 0.11569206778332568
0.00030141659719506623 0.11569206778332568
-0.019668085816114563 0.11569206778332568
-0.09954609546935309 0.04154754739765372
-0.11951559788266271 0.04154754739765372
-0.03963758822942419 0.09097722765476836
-0.019668085816114563 0.140406907911883
-0.019668085816114563 0.06626238752621104
-0.05960709064273382 0.09097722765476836
-0.11951559788266271 0.11569206778332568
-0.11951559788266271 0.016832707269096397
-0.07957659305604345 0.06626238752621104
-0.07957659305604345 0.140406907911883
-0.03963758822942419 0.11569206778332568
-0.07957659305604345 0.06626238752621104
-0.15945460270928197 0.04154754739765372
-0.13948510029597233 0.04154754739765372
-0.11951559788266271 0.04154754739765372
-0.05960709064273382 0.11569206778332568
-0.03963758822942419 0.11569206778332568
-0.03963758822942419 0.09097722765476836
-0.05960709064273382 -0.007882132859460923
-0.07957659305604345 -0.007882132859460923
-0.09954609546935309 0.04154754739765372
-0.11951559788266271 0.09097722765476836
-0.09954609546935309 0.06626238752621104
-0.05960709064273382 0.016832707269096397
-0.13948510029597233 0.016832707269096397
-0.07957659305604345 -0.007882132859460923
-0.11951559788266271 0.09097722765476836
-0.13948510029597233 0.18983658816899765
-0.07957659305604345 0.09097722765476836
-0.05960709064273382 0.016832707269096397
-0.07957659305604345 0.016832707269096397
-0.15945460270928197 0.016832707269096397
-0.11951559788266271 0.11569206778332568
-0.07957659305604345 0.16512174804044033
-0.05960709064273382 0.140406907911883
-0.05960709064273382 0.04154754739765372
-0.09954609546935309 0.04154754739765372
-0.11951559788266271 0.06626238752621104
-0.15945460270928197 0.09097722765476836
-0.07957659305604345 0.140406907911883
0.00030141659719506623 0.21455142829755497
-0.019668085816114563 0.16512174804044033
0.00030141659719506623 0.04154754739765372
-0.019668085816114563 0.11569206778332568
0.12011843107705285 0.16512174804044033
0.25990494797022023 0.2639811085546696
0.4396304696900069 0.2886959486832269
0.918898527609438 0.2392662684261123
2.1769771796479445 0.38755530919745623
3.8344458799526437 1.2772895538255198
4.014171401672431 3.056758043081647
2.596336730327447 3.8723477673240385
1.298319073462321 2.93318384243886
0.8589900203695091 1.7468715162681088
0.8989290251961284 1.153715353182733
0.9588375324360573 1.1784301933112904
0.918898527609438 1.1784301933112904
0.8190510155428898 1.1042856729256185
0.7791120107162706 1.0301411525399466
0.6792644986497225 0.9559966321542746
0.7192035034763418 0.9312817920257173
0.6193559914097936 0.90656695189716
0.6393254938231032 0.8571372716400453
0.6193559914097936 0.832422431511488
0.5794169865831743 0.8077075913829307
0.539477981756555 0.684133390740144
0.45959997210331655 0.5605591900973574
0.379721962450078 0.5605591900973574
0.2998439527968395 0.6099888703544721
0.31981345521014914 0.6594185506115867
0.23993544555691063 0.6099888703544721
0.14008793349036247 0.5358443499688001
0.00030141659719506623 0.46169982958312816
-0.15945460270928197 0.38755530919745623
-0.21936310994921085 0.31341078881178425
-0.29924111960244937 0.2886959486832269
-0.4589971389089264 0.21455142829755497
-0.7984786799351901 0.140406907911883
-1.1778992257880732 0.06626238752621104
-1.3775942499211693 0.06626238752621104
-1.4774417619877176 0.09097722765476836
-1.4974112644010271 0.11569206778332568
-1.5972587764675752 0.016832707269096397
-1.717075790947433 -0.08202665324513289
-1.8368928054272908 -0.30446021440214877
-1.9167708150805294 -0.5021789354306073
-1.9567098199071487 -0.6504679762019513
-1.9167708150805294 -0.7493273367161806
-1.8968013126672196 -0.9470460577446391
-1.996648824733768 -1.1200499386445404
-2.036587829560387 -1.2930538195444417
-2.0765268343870065 -1.5402022208300148
-2.0565573319736967 -1.6637764214728015
-1.936740317493839 -1.8120654622441454
-1.776984298187362 -2.009784183272604
-1.717075790947433 -2.256932584558177
-1.5772892740542657 -2.5040809858437503
-1.4774417619877176 -2.775944227257881
-1.1978687282013827 -2.775944227257881
-0.9782042016549768 -2.553510666100865
-0.8384176847618093 -2.3557919450724065
-0.698631167868642 -2.256932584558177
-0.5987836558020938 -2.083928703658276
-0.4989361437355457 -1.8367803023727027
-0.3591496268423783 -1.4907725405729002
-0.1993936075359012 -1.1447647787730977
-0.1794241051225916 -0.9470460577446391
-0.1794241051225916 -0.8234718571018526
-0.07957659305604345 -0.6998976564590659
-0.09954609546935309 -0.6010382959448366
-0.03963758822942419 -0.5268937755591646
0.08017942625043359 -0.40331957491637804
0.1600574359036721 -0.5021789354306073
0.19999644073029135 -0.5268937755591646
0.19999644073029135 -0.47746409530205003
0.19999644073029135 -0.47746409530205003
0.27987445038352987 -0.37860473478782075
0.25990494797022023 -0.3291750545307061
0.2998439527968395 -0.3538898946592634
0.3597524600367684 -0.3538898946592634
0.379721962450078 -0.37860473478782075
0.3397829576234588 -0.2797453742735915
0.41966096727669727 -0.15617117363080485
0.4396304696900069 -0.007882132859460923
0.539477981756555 -0.007882132859460923
0.539477981756555 0.016832707269096397
0.539477981756555 0.04154754739765372
0.5195084793432454 0.11569206778332568
0.4795694745166262 0.16512174804044033
0.539477981756555 0.2886959486832269
0.5594474841698647 0.2886959486832269
0.539477981756555 0.2639811085546696
0.5594474841698647 0.31341078881178425
0.4995389769299358 0.2392662684261123
0.4995389769299358 0.2639811085546696
0.599386488996484 0.3381256289403416
0.6193559914097936 0.31341078881178425
0.6193559914097936 0.31341078881178425
0.599386488996484 0.2886959486832269
0.539477981756555 0.2886959486832269
0.539477981756555 0.3381256289403416
0.599386488996484 0.3628404690688989
0.5794169865831743 0.46169982958312816
0.599386488996484 0.3628404690688989
0.599386488996484 0.38755530919745623
0.6193559914097936 0.46169982958312816
0.6592949962364129 0.46169982958312816
0.6393254938231032 0.5605591900973574
0.7391730058896513 0.4864146697116855
0.7591425083029609 0.46169982958312816
0.7791120107162706 0.4864146697116855
0.7391730058896513 0.5605591900973574
0.8390205179561995 0.6347037104830294
0.7990815131295802 0.684133390740144
0.8190510155428898 0.6594185506115867
0.8390205179561995 0.6594185506115867
0.8589900203695091 0.6594185506115867
0.7990815131295802 0.6347037104830294
0.8390205179561995 0.7335630709972587
0.8789595227828187 0.8077075913829307
0.9588375324360573 0.8571372716400453
0.9588375324360573 0.8571372716400453
0.9987765372626766 0.8077075913829307
0.9788070348493669 0.832422431511488
0.9987765372626766 0.90656695189716
1.078654546915915 1.0054263124113891
1.078654546915915 1.054855992668504
1.0586850445026055 1.0054263124113891
1.0586850445026055 1.054855992668504
0.9788070348493669 1.0301411525399466
0.9987765372626766 1.1784301933112904
1.0387155420892957 1.153715353182733
1.0986240493292247 1.2031450334398477
1.0986240493292247 1.153715353182733
1.138563054155844 1.153715353182733
1.0586850445026055 1.2525747136969625
1.0986240493292247 1.3514340742111917
1.1585325565691535 1.4255785945968638
1.138563054155844 1.4008637544683065
1.0986240493292247 1.4255785945968638
1.1585325565691535 1.376148914339749
1.1785020589824633 1.376148914339749
1.1984715613957728 1.524437955111093
1.2783495710490114 1.5738676353682075
1.2783495710490114 1.598582475496765
1.238410566222392 1.5738676353682075
1.1984715613957728 1.5491527952396502
1.0986240493292247 1.4997231149825356
1.1585325565691535 1.5491527952396502
1.138563054155844 1.6974418360109942
1.2184410638090823 1.6232973156253223
1.1785020589824633 1.6232973156253223
1.0986240493292247 1.5738676353682075
1.0986240493292247 1.598582475496765
1.0586850445026055 1.6232973156253223
1.0586850445026055 1.7221566761395515
1.078654546915915 1.672726995882437
0.9588375324360573 1.6232973156253223
0.918898527609438 1.5491527952396502
0.8589900203695091 1.5491527952396502
0.8390205179561995 1.5491527952396502
0.8390205179561995 1.6480121557538796
0.8190510155428898 1.5738676353682075
0.8190510155428898 1.4997231149825356
0.7391730058896513 1.450293434725421
0.6193559914097936 1.376148914339749
0.6393254938231032 1.4008637544683065
0.599386488996484 1.4008637544683065
0.599386488996484 1.4008637544683065
0.5195084793432454 1.302004393954077
0.539477981756555 1.1784301933112904
0.5195084793432454 1.2031450334398477
0.4995389769299358 1.2031450334398477
0.5195084793432454 1.1784301933112904
0.4995389769299358 1.153715353182733
0.4795694745166262 1.0795708327970612
0.4396304696900069 0.980711472282832
0.27987445038352987 0.90656695189716
0.31981345521014914 0.980711472282832
0.3397829576234588 0.980711472282832
0.3597524600367684 0.90656695189716
0.31981345521014914 0.832422431511488
0.27987445038352987 0.7829927512543733
0.1600574359036721 0.758277911125816
0.19999644073029135 0.7088482308687014
0.18002693831698172 0.7829927512543733
0.18002693831698172 0.758277911125816
0.23993544555691063 0.7088482308687014
0.19999644073029135 0.6347037104830294
0.14008793349036247 0.5852740302259147
0.14008793349036247 0.6099888703544721
0.1600574359036721 0.6099888703544721
0.1600574359036721 0.6347037104830294
0.14008793349036247 0.5358443499688001
0.06020992383712395 0.43698498945457087
0.04024042142381432 0.38755530919745623
0.020270919010504696 0.5111295098402429
0.04024042142381432 0.5111295098402429
0.04024042142381432 0.5111295098402429
0.020270919010504696 0.4864146697116855
0.04024042142381432 0.4122701493260135
0.04024042142381432 0.4122701493260135
0.1600574359036721 0.46169982958312816
0.1600574359036721 0.4864146697116855
0.14008793349036247 0.43698498945457087
0.04024042142381432 0.4122701493260135
0.04024042142381432 0.38755530919745623
0.06020992383712395 0.3381256289403416
0.020270919010504696 0.43698498945457087
0.06020992383712395 0.4864146697116855
0.10014892866374321 0.4122701493260135
0.04024042142381432 0.3628404690688989
0.04024042142381432 0.31341078881178425
0.00030141659719506623 0.2639811085546696
0.020270919010504696 0.31341078881178425
0.06020992383712395 0.3628404690688989
0.10014892866374321 0.2886959486832269
0.08017942625043359 0.31341078881178425
0.04024042142381432 0.2639811085546696
-0.05960709064273382 0.2392662684261123
-0.019668085816114563 0.2639811085546696
-0.019668085816114563 0.3381256289403416
0.020270919010504696 0.4122701493260135
0.020270919010504696 0.31341078881178425
0.04024042142381432 0.2392662684261123
-0.019668085816114563 0.2886959486832269
0.020270919010504696 0.31341078881178425
0.00030141659719506623 0.31341078881178425
0.020270919010504696 0.2639811085546696
-0.03963758822942419 0.2886959486832269
-0.11951559788266271 0.2639811085546696
-0.11951559788266271 0.2392662684261123
-0.07957659305604345 0.31341078881178425
-0.09954609546935309 0.3628404690688989
-0.07957659305604345 0.31341078881178425
-0.11951559788266271 0.2392662684261123
-0.13948510029597233 0.2639811085546696
-0.15945460270928197 0.2392662684261123
-0.11951559788266271 0.31341078881178425
-0.15945460270928197 0.31341078881178425
-0.07957659305604345 0.2639811085546696
-0.05960709064273382 0.16512174804044033
-0.05960709064273382 0.140406907911883
-0.13948510029597233 0.140406907911883
-0.13948510029597233 0.2639811085546696
-0.07957659305604345 0.2886959486832269
-0.05960709064273382 0.2392662684261123
-0.11951559788266271 0.2639811085546696
-0.1794241051225916 0.09097722765476836
-0.23933261236252049 0.11569206778332568
-0.1993936075359012 0.2639811085546696
-0.15945460270928197 0.21455142829755497
-0.07957659305604345 0.18983658816899765
-0.11951559788266271 0.18983658816899765
-0.13948510029597233 0.09097722765476836
-0.1794241051225916 0.140406907911883
-0.1794241051225916 0.16512174804044033
-0.11951559788266271 0.18983658816899765
-0.07957659305604345 0.16512174804044033
-0.13948510029597233 0.16512174804044033
-0.11951559788266271 0.06626238752621104
-0.1794241051225916 0.06626238752621104
-0.15945460270928197 0.11569206778332568
-0.11951559788266271 0.140406907911883
-0.11951559788266271 0.16512174804044033
-0.1794241051225916 0.140406907911883
-0.1993936075359012 0.09097722765476836
-0.2593021147758301 0.06626238752621104
-0.23933261236252049 0.140406907911883
-0.1993936075359012 0.18983658816899765
-0.11951559788266271 0.16512174804044033
-0.09954609546935309 0.06626238752621104
-0.11951559788266271 0.06626238752621104
-0.21936310994921085 0.04154754739765372
-0.21936310994921085 0.11569206778332568
-0.23933261236252049 0.09097722765476836
-0.1993936075359012 0.16512174804044033
-0.1794241051225916 0.11569206778332568
-0.15945460270928197 0.06626238752621104
-0.15945460270928197 0.04154754739765372
-0.07957659305604345 0.06626238752621104
0.00030141659719506623 0.140406907911883
0.020270919010504696 0.09097722765476836
-0.019668085816114563 0.06626238752621104
-0.09954609546935309 0.09097722765476836
-0.1794241051225916 0.016832707269096397
-0.15945460270928197 0.11569206778332568
-0.1993936075359012 0.140406907911883
-0.1794241051225916 0.11569206778332568
-0.1993936075359012 0.11569206778332568
-0.1993936075359012 0.04154754739765372
-0.13948510029597233 0.06626238752621104
-0.09954609546935309 0.140406907911883
-0.019668085816114563 0.18983658816899765
0.00030141659719506623 0.140406907911883
0.00030141659719506623 0.09097722765476836
0.00030141659719506623 0.11569206778332568
-0.05960709064273382 0.06626238752621104
-0.03963758822942419 0.140406907911883
0.020270919010504696 0.18983658816899765
0.19999644073029135 0.21455142829755497
0.39969146486338764 0.21455142829755497
0.9588375324360573 0.2886959486832269
2.3367331989544216 0.5358443499688001
4.03414090408574 1.5491527952396502
4.114018913738978 3.328621284495777
2.596336730327447 3.921777447581153
1.238410566222392 2.908469002310303
0.8789595227828187 1.7221566761395515
0.8789595227828187 1.3267192340826344
0.8989290251961284 1.2772895538255198
0.8589900203695091 1.2278598735684052
0.7391730058896513 1.054855992668504
0.599386488996484 0.9559966321542746
0.539477981756555 0.8818521117686027
0.4995389769299358 0.8077075913829307
0.5195084793432454 0.832422431511488
0.4795694745166262 0.7335630709972587
0.4396304696900069 0.5852740302259147
0.2998439527968395 0.38755530919745623
0.12011843107705285 0.2886959486832269
-0.019668085816114563 0.21455142829755497
-0.07957659305604345 0.18983658816899765
-0.15945460270928197 0.2392662684261123
-0.2593021147758301 0.11569206778332568
-0.41905813408230713 0.016832707269096397
-0.5987836558020938 -0.08202665324513289
-0.7186006702819516 -0.18088601375936217
-0.8983261920017382 -0.2550305341450341
-1.0780517137215249 -0.2303156940164768
-1.3775942499211693 -0.3538898946592634
-1.6371977812941945 -0.4527492551734927
-1.8568623078406004 -0.5763234558162793
-1.996648824733768 -0.5763234558162793
-2.0964963368003158 -0.5763234558162793
-2.2762218585201026 -0.5763234558162793
-2.4559473802398895 -0.6998976564590659
-2.4958863850665085 -0.9470460577446391
-2.4958863850665085 -1.169479618901655
-2.5158558874798183 -1.3671983399301135
-2.4559473802398895 -1.5154873807014575
-2.41600837541327 -1.6143467412156867
-2.356099868173341 -1.7626357819870306
-2.3361303657600314 -1.86149514250126
-2.3361303657600314 -2.083928703658276
-2.356099868173341 -2.2322177444296196
-2.2762218585201026 -2.306362264815292
-2.156404844040245 -2.405221625329521
-2.0565573319736967 -2.5287958259723076
-1.9167708150805294 -2.7265145470007663
-1.87683181025391 -2.9736629482863393
-1.6771367861208137 -3.171381669314798
-1.3576247475078598 -3.24552618970047
-1.0980212161348346 -3.171381669314798
-0.9582346992416672 -3.0478074686720116
-0.858387187175119 -2.948948108157782
-0.7585396751085708 -2.775944227257881
-0.6586921630420227 -2.578225506229422
-0.47896664132223604 -2.256932584558177
-0.319210622015759 -1.8862099826298173
-0.2593021147758301 -1.6143467412156867
-0.1794241051225916 -1.3424834998015562
-0.13948510029597233 -1.169479618901655
-0.07957659305604345 -0.9717608978731964
-0.07957659305604345 -0.7493273367161806
-0.019668085816114563 -0.551608615687722
0.06020992383712395 -0.5268937755591646
0.12011843107705285 -0.551608615687722
0.10014892866374321 -0.47746409530205003
0.12011843107705285 -0.40331957491637804
0.10014892866374321 -0.3538898946592634
0.14008793349036247 -0.2550305341450341
0.12011843107705285 -0.2056008538879195
0.12011843107705285 -0.15617117363080485
0.14008793349036247 -0.15617117363080485
0.08017942625043359 -0.15617117363080485
0.06020992383712395 -0.032596972988018245
0.10014892866374321 0.11569206778332568
0.219965943143601 0.140406907911883
0.219965943143601 0.16512174804044033
0.27987445038352987 0.2392662684261123
0.31981345521014914 0.31341078881178425
0.39969146486338764 0.38755530919745623
0.5195084793432454 0.4864146697116855
0.539477981756555 0.5111295098402429
0.5594474841698647 0.46169982958312816
0.5794169865831743 0.4122701493260135
0.5594474841698647 0.38755530919745623
0.6792644986497225 0.5111295098402429
0.7192035034763418 0.5852740302259147
0.7391730058896513 0.5605591900973574
0.7192035034763418 0.5358443499688001
0.7192035034763418 0.5111295098402429
0.7192035034763418 0.5358443499688001
0.7990815131295802 0.4864146697116855
0.8390205179561995 0.6099888703544721
0.8789595227828187 0.6099888703544721
0.918898527609438 0.5852740302259147
0.9588375324360573 0.5358443499688001
0.9388680300227477 0.5605591900973574
1.0586850445026055 0.5852740302259147
1.078654546915915 0.684133390740144
1.0986240493292247 0.6594185506115867
1.0986240493292247 0.6594185506115867
1.0986240493292247 0.7088482308687014
1.1585325565691535 0.758277911125816
1.1785020589824633 0.832422431511488
1.1984715613957728 0.8571372716400453
1.1785020589824633 0.8571372716400453
1.1185935517425343 0.832422431511488
1.078654546915915 0.8077075913829307
1.0187460396759862 0.758277911125816
1.0387155420892957 0.8077075913829307
1.0586850445026055 0.9312817920257173
1.078654546915915 0.8818521117686027
1.0986240493292247 0.8818521117686027
1.0387155420892957 0.832422431511488
1.078654546915915 0.8818521117686027
1.1185935517425343 0.90656695189716
1.1785020589824633 0.980711472282832
1.1785020589824633 1.0301411525399466
1.1585325565691535 0.980711472282832
1.138563054155844 0.9559966321542746
1.1185935517425343 1.0301411525399466
1.1185935517425343 1.1042856729256185
1.1984715613957728 1.1290005130541758
1.1984715613957728 1.153715353182733
1.2184410638090823 1.1042856729256185
1.1785020589824633 1.153715353182733
1.1984715613957728 1.1784301933112904
1.2783495710490114 1.2278598735684052
1.298319073462321 1.3267192340826344
1.3182885758756306 1.302004393954077
1.3182885758756306 1.3514340742111917
1.2783495710490114 1.3267192340826344
1.3182885758756306 1.302004393954077
1.3382580782889402 1.4255785945968638
1.3981665855288692 1.524437955111093
1.4381055903554885 1.4255785945968638
1.3981665855288692 1.450293434725421
1.3781970831155594 1.5491527952396502
1.3382580782889402 1.4997231149825356
1.3781970831155594 1.5738676353682075
1.3382580782889402 1.6480121557538796
1.3781970831155594 1.6232973156253223
1.35822758070225 1.6232973156253223
1.3382580782889402 1.4750082748539783
1.3182885758756306 1.5491527952396502
1.3182885758756306 1.5738676353682075
1.3182885758756306 1.672726995882437
1.298319073462321 1.6480121557538796
1.2783495710490114 1.598582475496765
1.1984715613957728 1.5491527952396502
1.1585325565691535 1.598582475496765
1.1585325565691535 1.5738676353682075
1.1585325565691535 1.598582475496765
1.0986240493292247 1.5491527952396502
1.0586850445026055 1.4997231149825356
0.9788070348493669 1.450293434725421
0.9588375324360573 1.4008637544683065
0.9788070348493669 1.4997231149825356
0.9588375324360573 1.4997231149825356
0.9388680300227477 1.376148914339749
0.8989290251961284 1.376148914339749
0.7990815131295802 1.2772895538255198
0.7791120107162706 1.2278598735684052
0.7391730058896513 1.2772895538255198
0.7192035034763418 1.302004393954077
0.6992340010630321 1.2278598735684052
0.6792644986497225 1.1784301933112904
0.6592949962364129 1.054855992668504
0.6193559914097936 1.0301411525399466
0.5794169865831743 1.0054263124113891
0.6193559914097936 1.054855992668504
0.5594474841698647 1.0054263124113891
0.539477981756555 0.9559966321542746
0.4995389769299358 0.832422431511488
0.41966096727669727 0.8077075913829307
0.4396304696900069 0.8571372716400453
0.39969146486338764 0.832422431511488
0.45959997210331655 0.832422431511488
0.45959997210331655 0.7829927512543733
0.39969146486338764 0.7335630709972587
0.3597524600367684 0.684133390740144
0.39969146486338764 0.7335630709972587
0.3597524600367684 0.7335630709972587
0.3397829576234588 0.684133390740144
0.31981345521014914 0.6347037104830294
0.2998439527968395 0.6099888703544721
0.2998439527968395 0.5852740302259147
0.2998439527968395 0.6099888703544721
0.31981345521014914 0.6099888703544721
0.31981345521014914 0.6347037104830294
0.219965943143601 0.5358443499688001
0.19999644073029135 0.4864146697116855
0.1600574359036721 0.4122701493260135
0.14008793349036247 0.43698498945457087
0.19999644073029135 0.5358443499688001
0.219965943143601 0.46169982958312816
0.14008793349036247 0.46169982958312816
0.14008793349036247 0.38755530919745623
0.06020992383712395 0.4122701493260135
0.10014892866374321 0.4864146697116855
0.14008793349036247 0.5111295098402429
0.18002693831698172 0.43698498945457087
0.18002693831698172 0.38755530919745623
0.12011843107705285 0.31341078881178425
0.06020992383712395 0.31341078881178425
0.08017942625043359 0.38755530919745623
0.12011843107705285 0.38755530919745623
0.14008793349036247 0.38755530919745623
0.10014892866374321 0.31341078881178425
0.06020992383712395 0.31341078881178425
0.00030141659719506623 0.3628404690688989
0.06020992383712395 0.3381256289403416
0.12011843107705285 0.38755530919745623
0.10014892866374321 0.3628404690688989
0.08017942625043359 0.31341078881178425
0.04024042142381432 0.2886959486832269
0.00030141659719506623 0.3381256289403416
0.020270919010504696 0.38755530919745623
0.08017942625043359 0.4122701493260135
0.06020992383712395 0.38755530919745623
0.04024042142381432 0.38755530919745623
-0.019668085816114563 0.2886959486832269
-0.019668085816114563 0.31341078881178425
-0.019668085816114563 0.3381256289403416
-0.03963758822942419 0.38755530919745623
0.020270919010504696 0.38755530919745623
0.04024042142381432 0.31341078881178425
0.00030141659719506623 0.31341078881178425
-0.03963758822942419 0.2639811085546696
-0.03963758822942419 0.3628404690688989
-0.03963758822942419 0.3381256289403416
0.00030141659719506623 0.3381256289403416
-0.019668085816114563 0.31341078881178425
-0.07957659305604345 0.2886959486832269
-0.11951559788266271 0.31341078881178425
-0.07957659305604345 0.31341078881178425
-0.019668085816114563 0.3628404690688989
-0.07957659305604345 0.31341078881178425
-0.07957659305604345 0.31341078881178425
-0.11951559788266271 0.18983658816899765
-0.11951559788266271 0.2639811085546696
-0.09954609546935309 0.2639811085546696
-0.07957659305604345 0.31341078881178425
-0.05960709064273382 0.31341078881178425
-0.03963758822942419 0.2639811085546696
-0.09954609546935309 0.18983658816899765
-0.11951559788266271 0.16512174804044033
-0.07957659305604345 0.18983658816899765
-0.03963758822942419 0.31341078881178425
-0.05960709064273382 0.2639811085546696
-0.05960709064273382 0.21455142829755497
-0.13948510029597233 0.18983658816899765
-0.11951559788266271 0.11569206778332568
-0.11951559788266271 0.21455142829755497
-0.11951559788266271 0.2639811085546696
-0.07957659305604345 0.21455142829755497
-0.13948510029597233 0.18983658816899765
-0.13948510029597233 0.18983658816899765
-0.15945460270928197 0.18983658816899765
-0.11951559788266271 0.18983658816899765
-0.07957659305604345 0.3381256289403416
-0.11951559788266271 0.21455142829755497
-0.09954609546935309 0.16512174804044033
-0.15945460270928197 0.18983658816899765
-0.1993936075359012 0.16512174804044033
-0.1993936075359012 0.21455142829755497
-0.15945460270928197 0.2392662684261123
-0.21936310994921085 0.2392662684261123
-0.21936310994921085 0.18983658816899765
-0.21936310994921085 0.16512174804044033
-0.1993936075359012 0.16512174804044033
-0.1993936075359012 0.140406907911883
-0.15945460270928197 0.2392662684261123
-0.15945460270928197 0.2392662684261123
-0.23933261236252049 0.2392662684261123
-0.23933261236252049 0.140406907911883
-0.1993936075359012 0.11569206778332568
-0.21936310994921085 0.16512174804044033
-0.13948510029597233 0.2392662684261123
-0.15945460270928197 0.16512174804044033
-0.15945460270928197 0.18983658816899765
-0.1794241051225916 0.16512174804044033
-0.2593021147758301 0.11569206778332568
-0.1993936075359012 0.16512174804044033
-0.1993936075359012 0.2886959486832269
-0.1993936075359012 0.21455142829755497
-0.15945460270928197 0.16512174804044033
-0.15945460270928197 0.16512174804044033
-0.1794241051225916 0.16512174804044033
-0.13948510029597233 0.2392662684261123
-0.07957659305604345 0.3381256289403416
0.00030141659719506623 0.2886959486832269
0.020270919010504696 0.2639811085546696
0.06020992383712395 0.2886959486832269
0.19999644073029135 0.3628404690688989
0.5794169865831743 0.4864146697116855
1.4780445951821075 0.8077075913829307
3.3152388172065934 1.6232973156253223
4.453500454765242 3.328621284495777
3.4550253340997608 4.4160742501523
1.737648126555133 3.7487735666812516
0.8789595227828187 2.364742519482042
0.7990815131295802 1.6232973156253223
0.9788070348493669 1.450293434725421
1.0387155420892957 1.4008637544683065
0.8390205179561995 1.2772895538255198
0.6992340010630321 1.1290005130541758
0.6792644986497225 1.1290005130541758
0.6792644986497225 1.1784301933112904
0.7391730058896513 1.054855992668504
0.6792644986497225 1.0054263124113891
0.6193559914097936 0.8818521117686027
0.5794169865831743 0.8077075913829307
0.5794169865831743 0.7088482308687014
0.5594474841698647 0.7335630709972587
0.5195084793432454 0.7088482308687014
0.45959997210331655 0.5852740302259147
0.3397829576234588 0.5605591900973574
0.27987445038352987 0.5358443499688001
0.23993544555691063 0.5605591900973574
0.10014892866374321 0.5358443499688001
0.06020992383712395 0.43698498945457087
-0.09954609546935309 0.38755530919745623
-0.21936310994921085 0.2639811085546696
-0.319210622015759 0.21455142829755497
-0.43902763649561677 0.21455142829755497
-0.698631167868642 0.16512174804044033
-0.9382651968283575 0.04154754739765372
-1.2178382306146922 -0.007882132859460923
-1.4175332547477886 -0.007882132859460923
-1.5772892740542657 -0.10674149337369021
-1.617228278880885 -0.08202665324513289
-1.7370452933607428 -0.08202665324513289
-1.816923303013981 -0.2550305341450341
-1.9167708150805294 -0.40331957491637804
-1.996648824733768 -0.551608615687722
-2.1364353416269353 -0.7493273367161806
-2.1164658392136255 -0.8729015373589671
-2.0765268343870065 -0.9717608978731964
-1.996648824733768 -1.169479618901655
-2.036587829560387 -1.2436241392873268
-2.0765268343870065 -1.416628020187228
-2.156404844040245 -1.5896319010871294
-2.1763743464535543 -1.7379209418584733
-2.0765268343870065 -1.8120654622441454
-1.996648824733768 -1.9603545030154892
-1.8968013126672196 -2.2075029043010623
-1.8368928054272908 -2.405221625329521
-1.7370452933607428 -2.652370026615094
-1.5373502692276464 -2.800659067386438
-1.3176857426812405 -2.850088747643553
-1.1778992257880732 -2.8253739075149955
-1.0580822113082153 -2.6770848667436518
-0.9582346992416672 -2.553510666100865
-0.8384176847618093 -2.3557919450724065
-0.6586921630420227 -2.108643543786833
-0.4989361437355457 -1.86149514250126
-0.41905813408230713 -1.5896319010871294
-0.33918012442906864 -1.3671983399301135
-0.33918012442906864 -1.095335098515983
-0.319210622015759 -0.9717608978731964
-0.33918012442906864 -0.7493273367161806
-0.1993936075359012 -0.5763234558162793
-0.15945460270928197 -0.5268937755591646
-0.15945460270928197 -0.47746409530205003
-0.13948510029597233 -0.5021789354306073
-0.15945460270928197 -0.47746409530205003
-0.09954609546935309 -0.4280344150449354
0.00030141659719506623 -0.3538898946592634
0.00030141659719506623 -0.3538898946592634
-0.03963758822942419 -0.37860473478782075
-0.05960709064273382 -0.37860473478782075
-0.09954609546935309 -0.37860473478782075
-0.05960709064273382 -0.2797453742735915
0.00030141659719506623 -0.2550305341450341
-0.03963758822942419 -0.30446021440214877
0.00030141659719506623 -0.2550305341450341
-0.03963758822942419 -0.2797453742735915
0.00030141659719506623 -0.2303156940164768
0.08017942625043359 -0.08202665324513289
0.14008793349036247 0.016832707269096397
0.1600574359036721 0.04154754739765372
0.19999644073029135 0.11569206778332568
0.19999644073029135 0.140406907911883
0.19999644073029135 0.21455142829755497
0.23993544555691063 0.2639811085546696
0.2998439527968395 0.3381256289403416
0.31981345521014914 0.31341078881178425
0.3597524600367684 0.3628404690688989
0.3397829576234588 0.2886959486832269
0.3397829576234588 0.31341078881178425
0.379721962450078 0.3628404690688989
0.39969146486338764 0.46169982958312816
0.4396304696900069 0.4122701493260135
0.4396304696900069 0.4122701493260135
0.39969146486338764 0.38755530919745623
0.39969146486338764 0.38755530919745623
0.45959997210331655 0.46169982958312816
0.4995389769299358 0.5111295098402429
0.539477981756555 0.5358443499688001
0.5195084793432454 0.46169982958312816
0.4995389769299358 0.4864146697116855
0.41966096727669727 0.5358443499688001
0.45959997210331655 0.5605591900973574
0.5195084793432454 0.684133390740144
0.5594474841698647 0.6347037104830294
0.539477981756555 0.6594185506115867
0.4995389769299358 0.684133390740144
0.4795694745166262 0.6594185506115867
0.4995389769299358 0.8077075913829307
0.5794169865831743 0.7829927512543733
0.5594474841698647 0.8571372716400453
0.5794169865831743 0.7829927512543733
0.5594474841698647 0.7829927512543733
0.5594474841698647 0.8077075913829307
0.5794169865831743 0.8571372716400453
0.6193559914097936 0.9312817920257173
0.6592949962364129 0.832422431511488
0.6992340010630321 0.8818521117686027
0.7391730058896513 0.8077075913829307
0.6992340010630321 0.8818521117686027
0.7391730058896513 0.9312817920257173
0.7591425083029609 1.0301411525399466
0.8589900203695091 1.0054263124113891
0.8589900203695091 1.0054263124113891
0.8390205179561995 0.9312817920257173
0.8589900203695091 0.9559966321542746
0.8789595227828187 0.980711472282832
0.918898527609438 1.054855992668504
0.9588375324360573 1.054855992668504
0.9388680300227477 1.0795708327970612
0.9388680300227477 1.0301411525399466
0.9388680300227477 1.0795708327970612
0.9987765372626766 1.2525747136969625
1.0586850445026055 1.302004393954077
1.0986240493292247 1.2278598735684052
1.1585325565691535 1.2525747136969625
1.138563054155844 1.2278598735684052
1.138563054155844 1.2525747136969625
1.2184410638090823 1.3267192340826344
1.298319073462321 1.4255785945968638
1.3182885758756306 1.4008637544683065
1.2783495710490114 1.450293434725421
1.238410566222392 1.4255785945968638
1.2184410638090823 1.450293434725421
1.1785020589824633 1.4997231149825356
1.1984715613957728 1.524437955111093
1.2184410638090823 1.450293434725421
1.1785020589824633 1.524437955111093
1.138563054155844 1.450293434725421
1.0986240493292247 1.4997231149825356
1.078654546915915 1.4997231149825356
1.0986240493292247 1.5491527952396502
1.0586850445026055 1.4997231149825356
1.0187460396759862 1.4997231149825356
0.918898527609438 1.450293434725421
0.8589900203695091 1.4750082748539783
0.918898527609438 1.524437955111093
0.9788070348493669 1.5491527952396502
0.9788070348493669 1.4750082748539783
0.918898527609438 1.4750082748539783
0.8390205179561995 1.4255785945968638
0.7591425083029609 1.4255785945968638
0.7791120107162706 1.450293434725421
0.7990815131295802 1.4750082748539783
0.7591425083029609 1.4255785945968638
0.6992340010630321 1.376148914339749
0.6193559914097936 1.2772895538255198
0.5594474841698647 1.302004393954077
0.539477981756555 1.302004393954077
0.599386488996484 1.2772895538255198
0.5794169865831743 1.2772895538255198
0.5195084793432454 1.1784301933112904
0.5195084793432454 1.0795708327970612
0.41966096727669727 1.0795708327970612
0.41966096727669727 1.0795708327970612
0.45959997210331655 1.1042856729256185
0.4396304696900069 1.0795708327970612
0.39969146486338764 1.0301411525399466
0.3397829576234588 0.90656695189716
0.2998439527968395 0.9312817920257173
0.3597524600367684 0.9312817920257173
0.3597524600367684 0.980711472282832
0.379721962450078 0.9559966321542746
0.31981345521014914 0.90656695189716
0.25990494797022023 0.758277911125816
0.219965943143601 0.832422431511488
0.219965943143601 0.8077075913829307
0.23993544555691063 0.7829927512543733
0.25990494797022023 0.7829927512543733
0.25990494797022023 0.7335630709972587
0.19999644073029135 0.6099888703544721
0.1600574359036721 0.6594185506115867
0.1600574359036721 0.684133390740144
0.1600574359036721 0.6594185506115867
0.18002693831698172 0.6099888703544721
0.19999644073029135 0.5852740302259147
0.14008793349036247 0.5111295098402429
0.08017942625043359 0.5111295098402429
0.08017942625043359 0.5605591900973574
0.1600574359036721 0.6347037104830294
0.1600574359036721 0.5358443499688001
0.18002693831698172 0.5852740302259147
0.14008793349036247 0.43698498945457087
0.06020992383712395 0.46169982958312816
0.10014892866374321 0.43698498945457087
0.08017942625043359 0.5358443499688001
0.10014892866374321 0.4864146697116855
0.12011843107705285 0.46169982958312816
0.020270919010504696 0.3628404690688989
0.020270919010504696 0.31341078881178425
0.00030141659719506623 0.3381256289403416
0.06020992383712395 0.46169982958312816
0.08017942625043359 0.4122701493260135
0.06020992383712395 0.3628404690688989
0.020270919010504696 0.31341078881178425
-0.03963758822942419 0.3381256289403416
-0.019668085816114563 0.3381256289403416
0.020270919010504696 0.4122701493260135
0.020270919010504696 0.38755530919745623
-0.019668085816114563 0.3628404690688989
-0.03963758822942419 0.31341078881178425
-0.07957659305604345 0.2639811085546696
-0.05960709064273382 0.3628404690688989
0.00030141659719506623 0.43698498945457087
0.00030141659719506623 0.3381256289403416
-0.019668085816114563 0.2639811085546696
-0.07957659305604345 0.21455142829755497
-0.09954609546935309 0.2392662684261123
-0.07957659305604345 0.31341078881178425
-0.03963758822942419 0.3381256289403416
-0.07957659305604345 0.31341078881178425
-0.07957659305604345 0.31341078881178425
-0.09954609546935309 0.2392662684261123
-0.11951559788266271 0.18983658816899765
-0.07957659305604345 0.2886959486832269
-0.05960709064273382 0.3381256289403416
-0.05960709064273382 0.3381256289403416
-0.11951559788266271 0.2392662684261123
-0.11951559788266271 0.21455142829755497
-0.1794241051225916 0.2639811085546696
-0.15945460270928197 0.2392662684261123
-0.15945460270928197 0.31341078881178425
-0.15945460270928197 0.2392662684261123
-0.11951559788266271 0.2639811085546696
-0.1993936075359012 0.21455142829755497
-0.21936310994921085 0.140406907911883
-0.21936310994921085 0.31341078881178425
-0.11951559788266271 0.2639811085546696
-0.11951559788266271 0.2639811085546696
-0.11951559788266271 0.2392662684261123
-0.11951559788266271 0.21455142829755497
-0.09954609546935309 0.16512174804044033
-0.019668085816114563 0.2392662684261123
-0.019668085816114563 0.2392662684261123
-0.03963758822942419 0.2886959486832269
-0.019668085816114563 0.2639811085546696
-0.05960709064273382 0.16512174804044033
-0.11951559788266271 0.16512174804044033
-0.07957659305604345 0.2392662684261123
-0.019668085816114563 0.2886959486832269
-0.019668085816114563 0.21455142829755497
-0.05960709064273382 0.18983658816899765
-0.09954609546935309 0.140406907911883
-0.13948510029597233 0.16512174804044033
-0.09954609546935309 0.21455142829755497
-0.07957659305604345 0.2639811085546696
-0.05960709064273382 0.2392662684261123
-0.07957659305604345 0.21455142829755497
-0.09954609546935309 0.18983658816899765
-0.13948510029597233 0.16512174804044033
-0.13948510029597233 0.2392662684261123
-0.07957659305604345 0.2392662684261123
-0.09954609546935309 0.18983658816899765
-0.07957659305604345 0.2392662684261123
-0.13948510029597233 0.16512174804044033
-0.1993936075359012 0.16512174804044033
-0.13948510029597233 0.16512174804044033
-0.05960709064273382 0.2392662684261123
-0.05960709064273382 0.2392662684261123
-0.03963758822942419 0.11569206778332568
-0.13948510029597233 0.140406907911883
-0.15945460270928197 0.11569206778332568
-0.11951559788266271 0.11569206778332568
-0.15945460270928197 0.18983658816899765
-0.13948510029597233 0.18983658816899765
-0.09954609546935309 0.16512174804044033
-0.15945460270928197 0.16512174804044033
-0.1993936075359012 0.11569206778332568
-0.1794241051225916 0.18983658816899765
-0.13948510029597233 0.18983658816899765
-0.09954609546935309 0.16512174804044033
-0.15945460270928197 0.11569206778332568
-0.11951559788266271 0.140406907911883
-0.1794241051225916 0.16512174804044033
-0.13948510029597233 0.16512174804044033
-0.11951559788266271 0.18983658816899765
-0.07957659305604345 0.16512174804044033
-0.13948510029597233 0.16512174804044033
-0.13948510029597233 0.140406907911883
-0.13948510029597233 0.16512174804044033
-0.07957659305604345 0.21455142829755497
-0.05960709064273382 0.2639811085546696
0.020270919010504696 0.2886959486832269
0.08017942625043359 0.2392662684261123
0.14008793349036247 0.2392662684261123
0.39969146486338764 0.3381256289403416
1.1785020589824633 0.5111295098402429
3.015696281006949 1.2525747136969625
4.433530952351933 3.1061877233387616
3.5349033437529993 4.366644569895185
1.737648126555133 3.5510548456527933
0.7391730058896513 1.9940199175536821
0.7391730058896513 1.302004393954077
0.9388680300227477 1.2772895538255198
0.9788070348493669 1.2525747136969625
0.7791120107162706 1.153715353182733
0.6193559914097936 1.0301411525399466
0.599386488996484 1.054855992668504
0.6393254938231032 1.0301411525399466
0.6792644986497225 1.0054263124113891
0.599386488996484 0.9312817920257173
0.5195084793432454 0.7829927512543733
0.4795694745166262 0.684133390740144
0.41966096727669727 0.6099888703544721
0.41966096727669727 0.7088482308687014
0.31981345521014914 0.7335630709972587
0.27987445038352987 0.684133390740144
0.219965943143601 0.5852740302259147
0.08017942625043359 0.5358443499688001
-0.03963758822942419 0.46169982958312816
-0.11951559788266271 0.43698498945457087
-0.1794241051225916 0.38755530919745623
-0.29924111960244937 0.3381256289403416
-0.4589971389089264 0.2392662684261123
-0.6786616654553324 0.140406907911883
-0.9782042016549768 0.11569206778332568
-1.1778992257880732 0.140406907911883
-1.33765524509455 0.11569206778332568
-1.4175332547477886 0.11569206778332568
-1.4774417619877176 0.04154754739765372
-1.6771367861208137 -0.057311813116575565
-1.7969538006006716 -0.18088601375936217
-1.8568623078406004 -0.30446021440214877
-1.8368928054272908 -0.5021789354306073
-1.8968013126672196 -0.7246124965876232
-1.8968013126672196 -0.9470460577446391
-1.9167708150805294 -1.095335098515983
-1.9167708150805294 -1.1941944590302123
-1.9567098199071487 -1.2683389794158844
-1.9766793223204582 -1.466057700444343
-1.9167708150805294 -1.6884912616013588
-1.8968013126672196 -1.935639662886932
-1.8368928054272908 -2.182788064172505
-1.7570147957740523 -2.3557919450724065
-1.617228278880885 -2.578225506229422
-1.4175332547477886 -2.701799706872209
-1.2977162402679308 -2.8253739075149955
-1.0580822113082153 -2.7265145470007663
-0.9582346992416672 -2.6029403463579794
-0.8184481823484997 -2.3557919450724065
-0.6187531582154034 -2.1580732240439477
-0.4989361437355457 -1.86149514250126
-0.3591496268423783 -1.5896319010871294
-0.29924111960244937 -1.3919131800586708
-0.319210622015759 -1.095335098515983
-0.319210622015759 -0.9223312176160818
-0.21936310994921085 -0.7493273367161806
-0.1794241051225916 -0.5763234558162793
-0.11951559788266271 -0.5021789354306073
-0.07957659305604345 -0.47746409530205003
-0.15945460270928197 -0.551608615687722
-0.11951559788266271 -0.5021789354306073
-0.05960709064273382 -0.4527492551734927
0.020270919010504696 -0.37860473478782075
0.04024042142381432 -0.40331957491637804
0.020270919010504696 -0.4527492551734927
-0.03963758822942419 -0.47746409530205003
-0.03963758822942419 -0.4280344150449354
-0.019668085816114563 -0.3538898946592634
0.00030141659719506623 -0.3538898946592634
0.020270919010504696 -0.3291750545307061
0.04024042142381432 -0.3291750545307061
0.06020992383712395 -0.3291750545307061
0.08017942625043359 -0.2303156940164768
0.1600574359036721 -0.057311813116575565
0.25990494797022023 0.06626238752621104
0.25990494797022023 0.09097722765476836
0.23993544555691063 0.16512174804044033
0.27987445038352987 0.11569206778332568
0.27987445038352987 0.140406907911883
0.31981345521014914 0.2392662684261123
0.379721962450078 0.2886959486832269
0.3597524600367684 0.2392662684261123
0.379721962450078 0.21455142829755497
0.3397829576234588 0.18983658816899765
0.3597524600367684 0.2392662684261123
0.41966096727669727 0.2886959486832269
0.4795694745166262 0.3628404690688989
0.4795694745166262 0.31341078881178425
0.45959997210331655 0.3381256289403416
0.39969146486338764 0.31341078881178425
0.4396304696900069 0.31341078881178425
0.4795694745166262 0.38755530919745623
0.5195084793432454 0.46169982958312816
0.539477981756555 0.46169982958312816
0.539477981756555 0.38755530919745623
0.5195084793432454 0.3628404690688989
0.4795694745166262 0.43698498945457087
0.5594474841698647 0.46169982958312816
0.599386488996484 0.6099888703544721
0.6193559914097936 0.5605591900973574
0.599386488996484 0.5605591900973574
0.599386488996484 0.5111295098402429
0.599386488996484 0.4864146697116855
0.6193559914097936 0.6594185506115867
0.7192035034763418 0.684133390740144
0.7192035034763418 0.684133390740144
0.7192035034763418 0.6594185506115867
0.6393254938231032 0.6594185506115867
0.6792644986497225 0.684133390740144
0.7192035034763418 0.758277911125816
0.7990815131295802 0.8077075913829307
0.7990815131295802 0.8818521117686027
0.7990815131295802 0.832422431511488
0.7990815131295802 0.758277911125816
0.7791120107162706 0.8571372716400453
0.8589900203695091 0.8818521117686027
0.8789595227828187 0.980711472282832
0.8989290251961284 0.980711472282832
0.8789595227828187 0.980711472282832
0.8789595227828187 0.980711472282832
0.8589900203695091 1.0054263124113891
0.8989290251961284 1.1784301933112904
0.918898527609438 1.2278598735684052
0.918898527609438 1.1784301933112904
0.9588375324360573 1.2278598735684052
0.918898527609438 1.2278598735684052
0.918898527609438 1.2772895538255198
0.9588375324360573 1.376148914339749
0.9987765372626766 1.4255785945968638
0.9987765372626766 1.4750082748539783
0.9788070348493669 1.4750082748539783
0.9788070348493669 1.4255785945968638
1.0187460396759862 1.450293434725421
1.0187460396759862 1.4997231149825356
1.0387155420892957 1.6232973156253223
1.138563054155844 1.5491527952396502
1.138563054155844 1.4997231149825356
1.0586850445026055 1.4997231149825356
1.0986240493292247 1.5738676353682075
1.138563054155844 1.5738676353682075
1.1585325565691535 1.5738676353682075
1.1785020589824633 1.6232973156253223
1.1585325565691535 1.598582475496765
1.138563054155844 1.5738676353682075
1.0387155420892957 1.4997231149825356
1.078654546915915 1.5738676353682075
1.078654546915915 1.5738676353682075
1.138563054155844 1.5491527952396502
1.078654546915915 1.5491527952396502
1.0387155420892957 1.4750082748539783
1.0187460396759862 1.524437955111093
1.0187460396759862 1.4997231149825356
1.0986240493292247 1.4997231149825356
1.1185935517425343 1.450293434725421
1.078654546915915 1.4008637544683065
0.9987765372626766 1.376148914339749
0.9788070348493669 1.376148914339749
0.918898527609438 1.450293434725421
0.8789595227828187 1.450293434725421
0.8789595227828187 1.4255785945968638
0.7791120107162706 1.2772895538255198
0.6792644986497225 1.2278598735684052
0.6193559914097936 1.1784301933112904
0.6193559914097936 1.1784301933112904
0.6393254938231032 1.153715353182733
0.599386488996484 1.1784301933112904
0.5594474841698647 1.0301411525399466
0.4795694745166262 0.980711472282832
0.3597524600367684 0.980711472282832
0.3597524600367684 0.9312817920257173
0.39969146486338764 0.9559966321542746
0.39969146486338764 0.9559966321542746
0.3597524600367684 0.832422431511488
0.3397829576234588 0.7335630709972587
0.25990494797022023 0.7088482308687014
0.25990494797022023 0.758277911125816
0.219965943143601 0.758277911125816
0.19999644073029135 0.7088482308687014
0.19999644073029135 0.6099888703544721
0.19999644073029135 0.6099888703544721
0.18002693831698172 0.5605591900973574
0.19999644073029135 0.5605591900973574
0.18002693831698172 0.6347037104830294
0.19999644073029135 0.5852740302259147
0.1600574359036721 0.5358443499688001
0.1600574359036721 0.4864146697116855
0.06020992383712395 0.4864146697116855
0.10014892866374321 0.5111295098402429
0.12011843107705285 0.5111295098402429
0.12011843107705285 0.5111295098402429
0.1600574359036721 0.4122701493260135
0.12011843107705285 0.38755530919745623
0.04024042142381432 0.3628404690688989
0.08017942625043359 0.43698498945457087
0.12011843107705285 0.43698498945457087
0.10014892866374321 0.46169982958312816
0.08017942625043359 0.3381256289403416
0.06020992383712395 0.31341078881178425
0.020270919010504696 0.3381256289403416
0.04024042142381432 0.3628404690688989
0.04024042142381432 0.3628404690688989
0.06020992383712395 0.3628404690688989
0.04024042142381432 0.3381256289403416
-0.019668085816114563 0.2639811085546696
-0.05960709064273382 0.31341078881178425
0.020270919010504696 0.38755530919745623
0.04024042142381432 0.38755530919745623
0.06020992383712395 0.38755530919745623
0.00030141659719506623 0.3381256289403416
-0.05960709064273382 0.2639811085546696
-0.05960709064273382 0.2886959486832269
-0.09954609546935309 0.31341078881178425
0.00030141659719506623 0.3628404690688989
-0.019668085816114563 0.3628404690688989
-0.03963758822942419 0.2886959486832269
-0.07957659305604345 0.2639811085546696
-0.11951559788266271 0.2392662684261123
-0.03963758822942419 0.3381256289403416
-0.05960709064273382 0.2886959486832269
-0.03963758822942419 0.3381256289403416
-0.03963758822942419 0.2639811085546696
-0.09954609546935309 0.21455142829755497
-0.13948510029597233 0.2639811085546696
-0.09954609546935309 0.31341078881178425
-0.09954609546935309 0.2886959486832269
-0.13948510029597233 0.2886959486832269
-0.09954609546935309 0.2639811085546696
-0.1794241051225916 0.18983658816899765
-0.1993936075359012 0.21455142829755497
-0.1794241051225916 0.21455142829755497
-0.11951559788266271 0.31341078881178425
-0.13948510029597233 0.2886959486832269
-0.11951559788266271 0.21455142829755497
-0.13948510029597233 0.18983658816899765
-0.1993936075359012 0.18983658816899765
-0.15945460270928197 0.2392662684261123
-0.11951559788266271 0.2886959486832269
-0.11951559788266271 0.2392662684261123
-0.1993936075359012 0.18983658816899765
-0.1794241051225916 0.140406907911883
-0.21936310994921085 0.18983658816899765
-0.1993936075359012 0.16512174804044033
-0.15945460270928197 0.2392662684261123
-0.1794241051225916 0.21455142829755497
-0.13948510029597233 0.16512174804044033
-0.1794241051225916 0.09097722765476836
-0.21936310994921085 0.16512174804044033
-0.15945460270928197 0.18983658816899765
-0.11951559788266271 0.21455142829755497
-0.13948510029597233 0.18983658816899765
-0.13948510029597233 0.140406907911883
-0.1794241051225916 0.11569206778332568
-0.21936310994921085 0.16512174804044033
-0.15945460270928197 0.16512174804044033
-0.13948510029597233 0.21455142829755497
-0.11951559788266271 0.18983658816899765
-0.13948510029597233 0.21455142829755497
-0.15945460270928197 0.140406907911883
-0.21936310994921085 0.18983658816899765
-0.13948510029597233 0.18983658816899765
-0.09954609546935309 0.18983658816899765
-0.13948510029597233 0.21455142829755497
-0.11951559788266271 0.16512174804044033
-0.09954609546935309 0.140406907911883
-0.11951559788266271 0.16512174804044033
-0.11951559788266271 0.2639811085546696
-0.05960709064273382 0.3628404690688989
-0.07957659305604345 0.38755530919745623
-0.11951559788266271 0.38755530919745623
-0.1794241051225916 0.4122701493260135
-0.13948510029597233 0.46169982958312816
0.020270919010504696 0.6099888703544721
0.25990494797022023 0.7088482308687014
0.4995389769299358 0.684133390740144
0.7391730058896513 0.7088482308687014
1.0187460396759862 0.758277911125816
1.3182885758756306 0.8077075913829307
1.6577701169018944 0.9559966321542746
1.9573126531015388 1.153715353182733
2.4565502134342796 1.2031450334398477
3.0556352858335685 1.2772895538255198
3.754567870299405 1.4008637544683065
4.413561449938623 1.7221566761395515
4.952738015097983 2.068164437939354
5.1124940344044605 2.265883158967813
5.1124940344044605 2.29059799909637
5.971182638176774 2.5624612405105003
6.670115222642611 3.7240587265526943
5.491914580257343 3.7487735666812516
3.594811850992928 1.8210160366537809
2.3567027013677313 -0.007882132859460923
1.737648126555133 -0.9223312176160818
1.2583800686357016 -0.8976163774875244
0.6393254938231032 -0.7740421768447379
0.12011843107705285 -0.7246124965876232
-0.09954609546935309 -0.5021789354306073
-0.11951559788266271 -0.2303156940164768
-0.15945460270928197 -0.032596972988018245
-0.21936310994921085 0.09097722765476836
-0.27927161718913973 0.2392662684261123
-0.29924111960244937 0.18983658816899765
-0.27927161718913973 0.21455142829755497
-0.23933261236252049 0.21455142829755497
-0.1993936075359012 0.21455142829755497
-0.2593021147758301 0.11569206778332568
-0.319210622015759 0.06626238752621104
-0.33918012442906864 0.06626238752621104
-0.319210622015759 0.16512174804044033
-0.27927161718913973 0.140406907911883
-0.27927161718913973 0.140406907911883
-0.319210622015759 0.04154754739765372
-0.3990886316689975 -0.007882132859460923
-0.3990886316689975 0.06626238752621104
-0.43902763649561677 0.04154754739765372
-0.3791191292556879 0.016832707269096397
-0.3791191292556879 0.04154754739765372
-0.41905813408230713 -0.032596972988018245
-0.4589971389089264 -0.08202665324513289
-0.4589971389089264 -0.007882132859460923
-0.4989361437355457 -0.032596972988018245
-0.4589971389089264 -0.032596972988018245
-0.4989361437355457 -0.007882132859460923
-0.47896664132223604 -0.08202665324513289
-0.5189056461488553 -0.10674149337369021
-0.5788141533887842 -0.10674149337369021
-0.6187531582154034 -0.057311813116575565
-0.5987836558020938 -0.032596972988018245
-0.5588446509754745 -0.10674149337369021
-0.5788141533887842 -0.10674149337369021
-0.6387226606287131 -0.18088601375936217
-0.6786616654553324 -0.10674149337369021
-0.6387226606287131 -0.10674149337369021
-0.6586921630420227 -0.10674149337369021
-0.6387226606287131 -0.13145633350224753
-0.6786616654553324 -0.18088601375936217
-0.7186006702819516 -0.18088601375936217
-0.7585396751085708 -0.2056008538879195
-0.7385701726952613 -0.18088601375936217
-0.7186006702819516 -0.13145633350224753
-0.7186006702819516 -0.15617117363080485
-0.7585396751085708 -0.2550305341450341
-0.8184481823484997 -0.2550305341450341
-0.858387187175119 -0.2550305341450341
-0.8384176847618093 -0.13145633350224753
-0.858387187175119 -0.18088601375936217
-0.8783566895884286 -0.2303156940164768
-0.8983261920017382 -0.2797453742735915
-0.9382651968283575 -0.3538898946592634
-1.018143206481596 -0.3291750545307061
-0.9782042016549768 -0.2797453742735915
-0.9382651968283575 -0.2797453742735915
-0.9582346992416672 -0.2550305341450341
-0.9782042016549768 -0.3291750545307061
-1.0381127088949056 -0.40331957491637804
-1.0780517137215249 -0.37860473478782075
-1.0381127088949056 -0.3538898946592634
-0.9981737040682864 -0.2797453742735915
-1.0580822113082153 -0.3538898946592634
-1.0580822113082153 -0.40331957491637804
-1.0780517137215249 -0.4280344150449354
-1.0780517137215249 -0.4280344150449354
-1.018143206481596 -0.3538898946592634
-1.0580822113082153 -0.40331957491637804
-0.9782042016549768 -0.37860473478782075
-1.0381127088949056 -0.40331957491637804
-1.0580822113082153 -0.4280344150449354
-1.0580822113082153 -0.4280344150449354
-0.9582346992416672 -0.37860473478782075
-0.9182956944150479 -0.2797453742735915
-0.9182956944150479 -0.2797453742735915
-0.9182956944150479 -0.37860473478782075
-0.9382651968283575 -0.3538898946592634
-0.9182956944150479 -0.3291750545307061
-0.8783566895884286 -0.2797453742735915
-0.7984786799351901 -0.18088601375936217
-0.7984786799351901 -0.15617117363080485
-0.8184481823484997 -0.2550305341450341
-0.7984786799351901 -0.2303156940164768
-0.7785091775218804 -0.15617117363080485
-0.6786616654553324 -0.10674149337369021
-0.6187531582154034 -0.032596972988018245
-0.6187531582154034 0.016832707269096397
-0.6187531582154034 0.016832707269096397
-0.6187531582154034 -0.032596972988018245
-0.5788141533887842 0.016832707269096397
-0.5388751485621649 0.140406907911883
-0.47896664132223604 0.21455142829755497
-0.3791191292556879 0.21455142829755497
-0.3990886316689975 0.21455142829755497
-0.319210622015759 0.2392662684261123
-0.33918012442906864 0.3381256289403416
-0.27927161718913973 0.38755530919745623
-0.23933261236252049 0.4122701493260135
-0.1794241051225916 0.43698498945457087
-0.15945460270928197 0.3628404690688989
-0.15945460270928197 0.38755530919745623
-0.15945460270928197 0.38755530919745623
-0.11951559788266271 0.4122701493260135
-0.07957659305604345 0.5358443499688001
-0.03963758822942419 0.4864146697116855
-0.05960709064273382 0.43698498945457087
-0.05960709064273382 0.46169982958312816
-0.03963758822942419 0.4864146697116855
-0.03963758822942419 0.5358443499688001
-0.019668085816114563 0.5358443499688001
0.00030141659719506623 0.5605591900973574
-0.03963758822942419 0.46169982958312816
-0.09954609546935309 0.3628404690688989
-0.11951559788266271 0.4122701493260135
-0.07957659305604345 0.46169982958312816
-0.019668085816114563 0.4864146697116855
-0.019668085816114563 0.4864146697116855
-0.019668085816114563 0.46169982958312816
0.020270919010504696 0.38755530919745623
-0.019668085816114563 0.43698498945457087
-0.019668085816114563 0.5111295098402429
0.020270919010504696 0.5605591900973574
0.00030141659719506623 0.43698498945457087
-0.03963758822942419 0.43698498945457087
-0.03963758822942419 0.38755530919745623
-0.09954609546935309 0.38755530919745623
-0.03963758822942419 0.3628404690688989
0.020270919010504696 0.46169982958312816
-0.019668085816114563 0.43698498945457087
-0.07957659305604345 0.3381256289403416
-0.09954609546935309 0.3381256289403416
-0.11951559788266271 0.38755530919745623
-0.09954609546935309 0.4122701493260135
-0.09954609546935309 0.4122701493260135
-0.03963758822942419 0.4122701493260135
-0.03963758822942419 0.3628404690688989
-0.07957659305604345 0.38755530919745623
-0.13948510029597233 0.3628404690688989
-0.11951559788266271 0.46169982958312816
-0.11951559788266271 0.5605591900973574
-0.13948510029597233 0.5358443499688001
-0.13948510029597233 0.4864146697116855
-0.15945460270928197 0.46169982958312816
-0.21936310994921085 0.46169982958312816
-0.21936310994921085 0.4864146697116855
-0.13948510029597233 0.5358443499688001
-0.13948510029597233 0.5111295098402429
-0.15945460270928197 0.46169982958312816
-0.1993936075359012 0.4122701493260135
-0.1993936075359012 0.4122701493260135
-0.15945460270928197 0.43698498945457087
-0.09954609546935309 0.46169982958312816
-0.05960709064273382 0.46169982958312816
-0.05960709064273382 0.38755530919745623
-0.03963758822942419 0.3381256289403416
-0.05960709064273382 0.31341078881178425
0.020270919010504696 0.38755530919745623
0.04024042142381432 0.38755530919745623
0.04024042142381432 0.38755530919745623
0.020270919010504696 0.3381256289403416
0.020270919010504696 0.2639811085546696
0.020270919010504696 0.3381256289403416
0.08017942625043359 0.38755530919745623
0.1600574359036721 0.38755530919745623
0.23993544555691063 0.3381256289403416
0.27987445038352987 0.3628404690688989
0.27987445038352987 0.2639811085546696
0.27987445038352987 0.2639811085546696
0.31981345521014914 0.31341078881178425
0.27987445038352987 0.4122701493260135
0.2998439527968395 0.46169982958312816
0.23993544555691063 0.3628404690688989
0.18002693831698172 0.31341078881178425
0.12011843107705285 0.2639811085546696
0.06020992383712395 0.31341078881178425
0.08017942625043359 0.3628404690688989
0.10014892866374321 0.3381256289403416
0.08017942625043359 0.2392662684261123
0.10014892866374321 0.21455142829755497
0.020270919010504696 0.2392662684261123
0.020270919010504696 0.2886959486832269
0.06020992383712395 0.21455142829755497
0.020270919010504696 0.21455142829755497
0.04024042142381432 0.09097722765476836
0.020270919010504696 0.09097722765476836
-0.019668085816114563 0.06626238752621104
0.06020992383712395 0.16512174804044033
0.04024042142381432 0.18983658816899765
0.06020992383712395 0.140406907911883
0.04024042142381432 0.09097722765476836
0.020270919010504696 0.06626238752621104
-0.03963758822942419 0.140406907911883
0.06020992383712395 0.140406907911883
0.1600574359036721 0.16512174804044033
0.14008793349036247 0.16512174804044033
0.10014892866374321 0.06626238752621104
0.10014892866374321 0.06626238752621104
0.04024042142381432 0.09097722765476836
0.08017942625043359 0.11569206778332568
0.10014892866374321 0.11569206778332568
0.12011843107705285 0.11569206778332568
0.10014892866374321 0.04154754739765372
0.06020992383712395 0.04154754739765372
0.08017942625043359 0.04154754739765372
0.14008793349036247 0.09097722765476836
0.12011843107705285 0.140406907911883
0.12011843107705285 0.11569206778332568
0.1600574359036721 0.140406907911883
0.08017942625043359 0.09097722765476836
0.08017942625043359 0.016832707269096397
0.1600574359036721 0.09097722765476836
0.1600574359036721 0.18983658816899765
0.18002693831698172 0.11569206778332568
0.14008793349036247 0.09097722765476836
0.12011843107705285 0.09097722765476836
0.10014892866374321 0.11569206778332568
0.1600574359036721 0.11569206778332568
0.18002693831698172 0.21455142829755497
0.27987445038352987 0.140406907911883
0.25990494797022023 0.21455142829755497
0.219965943143601 0.21455142829755497
0.23993544555691063 0.2392662684261123
0.27987445038352987 0.3628404690688989
0.39969146486338764 0.4864146697116855
0.5594474841698647 0.6099888703544721
0.7591425083029609 0.5605591900973574
0.9388680300227477 0.6099888703544721
1.1585325565691535 0.7335630709972587
1.458075092768798 0.90656695189716
1.777587131381752 1.054855992668504
2.0771296675813966 1.1042856729256185
2.3966417061943504 1.1784301933112904
2.855940261700472 1.1042856729256185
3.335208319619903 1.2525747136969625
4.014171401672431 1.4255785945968638
4.713103986138267 1.6232973156253223
5.252280551297628 1.8457308767823382
5.551823087497272 1.9693050774251248
5.591762092323891 1.8951605570394527
5.232311048884318 1.6480121557538796
4.59328697165841 1.0054263124113891
3.8344458799526437 0.11569206778332568
3.0955742906601875 -0.8234718571018526
2.3167636965411122 -1.6143467412156867
1.5778921072486558 -2.108643543786833
0.7990815131295802 -2.3310771049438492
0.219965943143601 -2.281647424686734
-0.1993936075359012 -2.083928703658276
-0.5588446509754745 -1.8367803023727027
-0.7385701726952613 -1.5896319010871294
-0.8783566895884286 -1.466057700444343
-0.9582346992416672 -1.1200499386445404
-0.8783566895884286 -0.8976163774875244
-0.8184481823484997 -0.6257531360733939
-0.8184481823484997 -0.6010382959448366
-0.8184481823484997 -0.6257531360733939
-0.8184481823484997 -0.6504679762019513
-0.7785091775218804 -0.551608615687722
-0.7785091775218804 -0.5021789354306073
-0.7186006702819516 -0.40331957491637804
-0.7186006702819516 -0.5021789354306073
-0.7186006702819516 -0.5268937755591646
-0.7385701726952613 -0.6257531360733939
-0.7984786799351901 -0.5763234558162793
-0.7385701726952613 -0.551608615687722
-0.7385701726952613 -0.47746409530205003
-0.7385701726952613 -0.5021789354306073
-0.6786616654553324 -0.551608615687722
-0.7785091775218804 -0.6010382959448366
-0.7984786799351901 -0.551608615687722
-0.7585396751085708 -0.551608615687722
-0.7984786799351901 -0.5268937755591646
-0.7984786799351901 -0.5268937755591646
-0.8184481823484997 -0.5021789354306073
-0.8384176847618093 -0.6010382959448366
-0.858387187175119 -0.5763234558162793
-0.8384176847618093 -0.551608615687722
-0.7385701726952613 -0.551608615687722
-0.7585396751085708 -0.5268937755591646
-0.7585396751085708 -0.551608615687722
-0.8384176847618093 -0.6257531360733939
-0.8783566895884286 -0.551608615687722
-0.7785091775218804 -0.5763234558162793
-0.7785091775218804 -0.5268937755591646
-0.7585396751085708 -0.5763234558162793
-0.7585396751085708 -0.6010382959448366
-0.7785091775218804 -0.6504679762019513
-0.858387187175119 -0.6257531360733939
-0.8184481823484997 -0.551608615687722
-0.7984786799351901 -0.5268937755591646
-0.8184481823484997 -0.6010382959448366
-0.8384176847618093 -0.6257531360733939
-0.9382651968283575 -0.6504679762019513
-0.9582346992416672 -0.6010382959448366
-0.9382651968283575 -0.5763234558162793
-0.8384176847618093 -0.551608615687722
-0.858387187175119 -0.6257531360733939
-0.8184481823484997 -0.6751828163305086
-0.8983261920017382 -0.6751828163305086
-0.8983261920017382 -0.6998976564590659
-0.858387187175119 -0.6751828163305086
-0.8783566895884286 -0.6257531360733939
-0.8783566895884286 -0.6504679762019513
-0.8783566895884286 -0.6998976564590659
-0.858387187175119 -0.6998976564590659
-0.8783566895884286 -0.6998976564590659
-0.8184481823484997 -0.6010382959448366
-0.8184481823484997 -0.6257531360733939
-0.8783566895884286 -0.6998976564590659
-0.9182956944150479 -0.6998976564590659
-0.9782042016549768 -0.6998976564590659
-0.9582346992416672 -0.6998976564590659
-0.8783566895884286 -0.6751828163305086
-0.858387187175119 -0.6257531360733939
-0.8384176847618093 -0.6504679762019513
-0.8983261920017382 -0.6504679762019513
-0.9382651968283575 -0.6504679762019513
-0.9981737040682864 -0.6751828163305086
-0.8983261920017382 -0.6751828163305086
-0.8384176847618093 -0.6010382959448366
-0.7785091775218804 -0.6257531360733939
-0.7785091775218804 -0.6751828163305086
-0.7984786799351901 -0.6504679762019513
-0.858387187175119 -0.6751828163305086
-0.8783566895884286 -0.5763234558162793
-0.8384176847618093 -0.5021789354306073
-0.7585396751085708 -0.5021789354306073
-0.7984786799351901 -0.551608615687722
-0.7585396751085708 -0.5268937755591646
-0.7585396751085708 -0.4527492551734927
-0.698631167868642 -0.37860473478782075
-0.6187531582154034 -0.3538898946592634
-0.6187531582154034 -0.37860473478782075
-0.6387226606287131 -0.40331957491637804
-0.6187531582154034 -0.37860473478782075
-0.6187531582154034 -0.3291750545307061
-0.5189056461488553 -0.2797453742735915
-0.43902763649561677 -0.2303156940164768
-0.3990886316689975 -0.2303156940164768
-0.43902763649561677 -0.18088601375936217
-0.43902763649561677 -0.18088601375936217
-0.43902763649561677 -0.15617117363080485
-0.3990886316689975 -0.057311813116575565
-0.319210622015759 -0.007882132859460923
-0.2593021147758301 0.016832707269096397
-0.21936310994921085 -0.007882132859460923
-0.15945460270928197 0.04154754739765372
-0.11951559788266271 0.06626238752621104
-0.05960709064273382 0.18983658816899765
-0.03963758822942419 0.2639811085546696
0.00030141659719506623 0.2886959486832269
0.00030141659719506623 0.2639811085546696
0.00030141659719506623 0.2392662684261123
0.020270919010504696 0.2886959486832269
0.10014892866374321 0.4122701493260135
0.18002693831698172 0.46169982958312816
0.18002693831698172 0.4122701493260135
0.18002693831698172 0.4122701493260135
0.18002693831698172 0.3381256289403416
0.12011843107705285 0.38755530919745623
0.12011843107705285 0.5111295098402429
0.18002693831698172 0.5111295098402429
0.18002693831698172 0.5111295098402429
0.23993544555691063 0.5111295098402429
0.219965943143601 0.4122701493260135
0.18002693831698172 0.43698498945457087
0.23993544555691063 0.46169982958312816
0.2998439527968395 0.46169982958312816
0.3397829576234588 0.46169982958312816
0.2998439527968395 0.38755530919745623
0.2998439527968395 0.31341078881178425
0.25990494797022023 0.3381256289403416
0.23993544555691063 0.4122701493260135
0.27987445038352987 0.43698498945457087
0.25990494797022023 0.43698498945457087
0.27987445038352987 0.3628404690688989
0.23993544555691063 0.2886959486832269
0.25990494797022023 0.3628404690688989
0.27987445038352987 0.38755530919745623
0.379721962450078 0.38755530919745623
0.379721962450078 0.3628404690688989
0.31981345521014914 0.31341078881178425
0.27987445038352987 0.2639811085546696
0.19999644073029135 0.2639811085546696
0.27987445038352987 0.31341078881178425
0.31981345521014914 0.3628404690688989
0.2998439527968395 0.31341078881178425
0.27987445038352987 0.18983658816899765
0.1600574359036721 0.140406907911883
0.23993544555691063 0.2392662684261123
0.2998439527968395 0.2639811085546696
0.2998439527968395 0.3381256289403416
0.2998439527968395 0.2886959486832269
0.19999644073029135 0.21455142829755497
0.18002693831698172 0.18983658816899765
0.1600574359036721 0.2392662684261123
0.18002693831698172 0.2392662684261123
0.23993544555691063 0.2639811085546696
0.23993544555691063 0.2392662684261123
0.25990494797022023 0.18983658816899765
0.219965943143601 0.18983658816899765
0.219965943143601 0.16512174804044033
0.25990494797022023 0.2392662684261123
0.25990494797022023 0.2639811085546696
0.2998439527968395 0.31341078881178425
0.219965943143601 0.2639811085546696
0.19999644073029135 0.16512174804044033
0.18002693831698172 0.21455142829755497
0.18002693831698172 0.31341078881178425
0.2998439527968395 0.38755530919745623
0.25990494797022023 0.3381256289403416
0.25990494797022023 0.31341078881178425
0.23993544555691063 0.2886959486832269
0.1600574359036721 0.2639811085546696
0.14008793349036247 0.3381256289403416
0.25990494797022023 0.3628404690688989
0.2998439527968395 0.3628404690688989
0.25990494797022023 0.3381256289403416
0.23993544555691063 0.2886959486832269
0.19999644073029135 0.2886959486832269
0.23993544555691063 0.3628404690688989
0.25990494797022023 0.3628404690688989
0.23993544555691063 0.3381256289403416
0.23993544555691063 0.2639811085546696
0.23993544555691063 0.2392662684261123
0.219965943143601 0.2886959486832269
0.219965943143601 0.2886959486832269
0.27987445038352987 0.31341078881178425
0.25990494797022023 0.31341078881178425
0.27987445038352987 0.2639811085546696
0.27987445038352987 0.2392662684261123
0.18002693831698172 0.2639811085546696
0.23993544555691063 0.2886959486832269
0.23993544555691063 0.2886959486832269
0.27987445038352987 0.3381256289403416
0.219965943143601 0.2639811085546696
0.219965943143601 0.18983658816899765
0.19999644073029135 0.21455142829755497
0.25990494797022023 0.2639811085546696
0.27987445038352987 0.3381256289403416
0.27987445038352987 0.2886959486832269
0.23993544555691063 0.2392662684261123
0.18002693831698172 0.21455142829755497
0.14008793349036247 0.2392662684261123
0.18002693831698172 0.31341078881178425
0.219965943143601 0.38755530919745623
0.219965943143601 0.4122701493260135
0.18002693831698172 0.3381256289403416
0.14008793349036247 0.31341078881178425
0.08017942625043359 0.3381256289403416
0.10014892866374321 0.38755530919745623
0.1600574359036721 0.46169982958312816
0.14008793349036247 0.4122701493260135
0.18002693831698172 0.3381256289403416
0.10014892866374321 0.2639811085546696
0.06020992383712395 0.31341078881178425
0.06020992383712395 0.4122701493260135
0.14008793349036247 0.38755530919745623
0.12011843107705285 0.38755530919745623
0.08017942625043359 0.3381256289403416
0.12011843107705285 0.2392662684261123
0.14008793349036247 0.2392662684261123
0.12011843107705285 0.31341078881178425
0.25990494797022023 0.3628404690688989
0.25990494797022023 0.2886959486832269
0.23993544555691063 0.2639811085546696
0.19999644073029135 0.21455142829755497
0.18002693831698172 0.21455142829755497
0.23993544555691063 0.2639811085546696
0.2998439527968395 0.2886959486832269
0.2998439527968395 0.31341078881178425
0.379721962450078 0.2639811085546696
0.39969146486338764 0.21455142829755497
0.39969146486338764 0.2392662684261123
0.4795694745166262 0.18983658816899765
0.4995389769299358 0.21455142829755497
0.539477981756555 0.2392662684261123
0.5594474841698647 0.2639811085546696
0.5794169865831743 0.2392662684261123
0.4795694745166262 0.2639811085546696
0.4795694745166262 0.2392662684261123
0.45959997210331655 0.2886959486832269
0.4396304696900069 0.2392662684261123
0.4396304696900069 0.16512174804044033
0.39969146486338764 0.09097722765476836
0.3597524600367684 0.06626238752621104
0.3597524600367684 0.18983658816899765
0.31981345521014914 0.16512174804044033
0.27987445038352987 0.11569206778332568
0.25990494797022023 0.06626238752621104
0.25990494797022023 0.016832707269096397
0.23993544555691063 0.04154754739765372
0.27987445038352987 0.140406907911883
0.31981345521014914 0.140406907911883
0.2998439527968395 0.11569206778332568
0.31981345521014914 0.06626238752621104
0.25990494797022023 -0.032596972988018245
0.25990494797022023 0.016832707269096397
0.2998439527968395 0.04154754739765372
0.2998439527968395 0.11569206778332568
0.31981345521014914 0.04154754739765372
0.31981345521014914 0.06626238752621104
0.2998439527968395 -0.007882132859460923
0.23993544555691063 0.016832707269096397
0.2998439527968395 0.06626238752621104
0.3397829576234588 0.06626238752621104
0.3597524600367684 0.06626238752621104
0.31981345521014914 0.016832707269096397
0.31981345521014914 -0.032596972988018245
0.27987445038352987 0.09097722765476836
0.31981345521014914 0.04154754739765372
0.3397829576234588 0.140406907911883
0.39969146486338764 0.09097722765476836
0.3397829576234588 0.04154754739765372
0.31981345521014914 0.04154754739765372
0.3597524600367684 0.06626238752621104
0.39969146486338764 0.140406907911883
0.41966096727669727 0.2392662684261123
0.4396304696900069 0.18983658816899765
0.41966096727669727 0.16512174804044033
0.39969146486338764 0.11569206778332568
0.45959997210331655 0.04154754739765372
0.4995389769299358 0.21455142829755497
0.599386488996484 0.2886959486832269
0.6393254938231032 0.3628404690688989
0.8190510155428898 0.46169982958312816
1.0387155420892957 0.5358443499688001
1.777587131381752 0.7829927512543733
3.4150863292731417 1.4255785945968638
5.292219556124246 3.0320432029530897
5.412036570604105 4.786796852080659
3.9143238896058823 4.885656212594888
2.756092749633924 3.427480645010007
2.636275735154066 2.3153128392249274
3.0356657834202587 2.2164534787106978
3.4150863292731417 2.3153128392249274
3.6347508558195476 2.29059799909637
3.9143238896058823 2.167023798453583
4.413561449938623 2.167023798453583
4.992677019924602 2.265883158967813
5.571792589910582 2.4141721997391565
6.110969155069942 2.5871760806390576
6.430481193682896 2.66132060102473
6.350603184029657 2.5130315602533857
5.891304628523535 2.1175941181964686
5.132463536817769 1.4255785945968638
4.333683440285385 0.6099888703544721
3.554872846166309 -0.057311813116575565
2.8958792665270914 -0.6010382959448366
2.2768246917144928 -1.0459054182588683
1.5978616096619653 -1.2683389794158844
0.9788070348493669 -1.317768659672999
0.4795694745166262 -1.2436241392873268
0.1600574359036721 -0.9964757380017537
0.10014892866374321 -0.8234718571018526
0.00030141659719506623 -0.7493273367161806
-0.11951559788266271 -0.5021789354306073
-0.1794241051225916 -0.18088601375936217
-0.09954609546935309 -0.032596972988018245
0.00030141659719506623 0.11569206778332568
0.04024042142381432 0.140406907911883
0.04024042142381432 0.09097722765476836
0.00030141659719506623 0.11569206778332568
-0.03963758822942419 0.06626238752621104
-0.019668085816114563 0.16512174804044033
0.04024042142381432 0.16512174804044033
0.04024042142381432 0.11569206778332568
0.020270919010504696 0.04154754739765372
0.00030141659719506623 -0.007882132859460923
-0.03963758822942419 -0.057311813116575565
-0.019668085816114563 -0.007882132859460923
-0.03963758822942419 0.016832707269096397
-0.03963758822942419 -0.032596972988018245
-0.07957659305604345 -0.032596972988018245
-0.09954609546935309 -0.10674149337369021
-0.09954609546935309 -0.057311813116575565
-0.03963758822942419 -0.032596972988018245
-0.05960709064273382 -0.032596972988018245
-0.03963758822942419 0.016832707269096397
-0.11951559788266271 -0.08202665324513289
-0.13948510029597233 -0.13145633350224753
-0.13948510029597233 -0.08202665324513289
-0.15945460270928197 -0.057311813116575565
-0.11951559788266271 -0.007882132859460923
-0.11951559788266271 -0.032596972988018245
-0.1993936075359012 -0.15617117363080485
-0.1794241051225916 -0.2056008538879195
-0.2593021147758301 -0.13145633350224753
-0.21936310994921085 -0.10674149337369021
-0.1993936075359012 -0.10674149337369021
-0.23933261236252049 -0.13145633350224753
-0.2593021147758301 -0.15617117363080485
-0.2593021147758301 -0.2303156940164768
-0.2593021147758301 -0.2056008538879195
-0.27927161718913973 -0.18088601375936217
-0.23933261236252049 -0.2303156940164768
-0.2593021147758301 -0.18088601375936217
-0.27927161718913973 -0.2797453742735915
-0.33918012442906864 -0.3291750545307061
-0.33918012442906864 -0.2797453742735915
-0.3591496268423783 -0.2056008538879195
-0.319210622015759 -0.2303156940164768
-0.3591496268423783 -0.2056008538879195
-0.319210622015759 -0.2056008538879195
-0.3591496268423783 -0.37860473478782075
-0.43902763649561677 -0.3291750545307061
-0.3791191292556879 -0.2550305341450341
-0.41905813408230713 -0.2797453742735915
-0.41905813408230713 -0.30446021440214877
-0.3990886316689975 -0.3291750545307061
-0.43902763649561677 -0.40331957491637804
-0.5189056461488553 -0.3291750545307061
-0.47896664132223604 -0.2797453742735915
-0.47896664132223604 -0.30446021440214877
-0.4589971389089264 -0.37860473478782075
-0.47896664132223604 -0.3538898946592634
-0.5388751485621649 -0.40331957491637804
-0.5189056461488553 -0.37860473478782075
-0.5189056461488553 -0.37860473478782075
-0.5189056461488553 -0.3291750545307061
-0.5388751485621649 -0.37860473478782075
-0.5189056461488553 -0.37860473478782075
-0.5788141533887842 -0.4280344150449354
-0.5987836558020938 -0.4280344150449354
-0.5588446509754745 -0.40331957491637804
-0.5388751485621649 -0.3291750545307061
-0.5788141533887842 -0.37860473478782075
-0.6187531582154034 -0.4280344150449354
-0.5987836558020938 -0.47746409530205003
-0.6387226606287131 -0.4527492551734927
-0.5788141533887842 -0.37860473478782075
-0.5189056461488553 -0.3291750545307061
-0.5588446509754745 -0.3291750545307061
-0.5388751485621649 -0.37860473478782075
-0.5788141533887842 -0.40331957491637804
-0.5788141533887842 -0.37860473478782075
-0.5388751485621649 -0.3291750545307061
-0.4989361437355457 -0.2797453742735915
-0.47896664132223604 -0.2797453742735915
-0.47896664132223604 -0.30446021440214877
-0.47896664132223604 -0.40331957491637804
-0.4989361437355457 -0.3291750545307061
-0.47896664132223604 -0.2303156940164768
-0.33918012442906864 -0.2303156940164768
-0.319210622015759 -0.15617117363080485
-0.33918012442906864 -0.2303156940164768
-0.3591496268423783 -0.18088601375936217
-0.29924111960244937 -0.2056008538879195
-0.21936310994921085 -0.08202665324513289
-0.1794241051225916 -0.032596972988018245
-0.15945460270928197 -0.032596972988018245
-0.13948510029597233 -0.007882132859460923
-0.1794241051225916 -0.08202665324513289
-0.1794241051225916 -0.007882132859460923
-0.11951559788266271 0.06626238752621104
-0.03963758822942419 0.140406907911883
0.00030141659719506623 0.16512174804044033
0.020270919010504696 0.16512174804044033
0.020270919010504696 0.140406907911883
0.06020992383712395 0.21455142829755497
0.08017942625043359 0.31341078881178425
0.1600574359036721 0.38755530919745623
0.19999644073029135 0.38755530919745623
0.19999644073029135 0.3381256289403416
0.19999644073029135 0.2886959486832269
0.19999644073029135 0.38755530919745623
0.23993544555691063 0.4122701493260135
0.23993544555691063 0.43698498945457087
0.25990494797022023 0.43698498945457087
0.27987445038352987 0.43698498945457087
0.27987445038352987 0.4122701493260135
0.219965943143601 0.43698498945457087
0.25990494797022023 0.4864146697116855
0.31981345521014914 0.4864146697116855
0.3597524600367684 0.4864146697116855
0.2998439527968395 0.43698498945457087
0.27987445038352987 0.4122701493260135
0.219965943143601 0.43698498945457087
0.23993544555691063 0.46169982958312816
0.31981345521014914 0.46169982958312816
0.31981345521014914 0.5111295098402429
0.27987445038352987 0.43698498945457087
0.23993544555691063 0.3628404690688989
0.219965943143601 0.4122701493260135
0.25990494797022023 0.4122701493260135
0.27987445038352987 0.43698498945457087
0.31981345521014914 0.38755530919745623
0.25990494797022023 0.31341078881178425
0.18002693831698172 0.31341078881178425
0.14008793349036247 0.38755530919745623
0.219965943143601 0.4122701493260135
0.23993544555691063 0.46169982958312816
0.23993544555691063 0.4122701493260135
0.219965943143601 0.3381256289403416
0.19999644073029135 0.2639811085546696
0.18002693831698172 0.31341078881178425
0.219965943143601 0.38755530919745623
0.19999644073029135 0.3628404690688989
0.219965943143601 0.3381256289403416
0.14008793349036247 0.3381256289403416
0.18002693831698172 0.2392662684261123
0.18002693831698172 0.31341078881178425
0.18002693831698172 0.3381256289403416
0.1600574359036721 0.38755530919745623
0.19999644073029135 0.31341078881178425
0.19999644073029135 0.2886959486832269
0.1600574359036721 0.2639811085546696
0.14008793349036247 0.2392662684261123
0.14008793349036247 0.2886959486832269
0.18002693831698172 0.31341078881178425
0.19999644073029135 0.2886959486832269
0.1600574359036721 0.31341078881178425
0.14008793349036247 0.18983658816899765
0.1600574359036721 0.2392662684261123
0.14008793349036247 0.3628404690688989
0.14008793349036247 0.31341078881178425
0.12011843107705285 0.3628404690688989
0.14008793349036247 0.2886959486832269
0.14008793349036247 0.21455142829755497
0.08017942625043359 0.2886959486832269
0.14008793349036247 0.31341078881178425
0.1600574359036721 0.3628404690688989
0.14008793349036247 0.3628404690688989
0.14008793349036247 0.3628404690688989
0.12011843107705285 0.31341078881178425
0.10014892866374321 0.2639811085546696
0.14008793349036247 0.3628404690688989
0.1600574359036721 0.38755530919745623
0.19999644073029135 0.3628404690688989
0.14008793349036247 0.3381256289403416
0.10014892866374321 0.2639811085546696
0.12011843107705285 0.31341078881178425
0.1600574359036721 0.2886959486832269
0.19999644073029135 0.38755530919745623
0.19999644073029135 0.38755530919745623
0.19999644073029135 0.3381256289403416
0.14008793349036247 0.31341078881178425
0.12011843107705285 0.3381256289403416
0.18002693831698172 0.3628404690688989
0.18002693831698172 0.4122701493260135
0.19999644073029135 0.3628404690688989
0.19999644073029135 0.38755530919745623
0.18002693831698172 0.31341078881178425
0.14008793349036247 0.3381256289403416
0.14008793349036247 0.4122701493260135
0.18002693831698172 0.4122701493260135
0.1600574359036721 0.4122701493260135
0.12011843107705285 0.38755530919745623
0.12011843107705285 0.2886959486832269
0.04024042142381432 0.3628404690688989
0.12011843107705285 0.4122701493260135
0.18002693831698172 0.46169982958312816
0.1600574359036721 0.4864146697116855
0.14008793349036247 0.46169982958312816
0.12011843107705285 0.4122701493260135
0.08017942625043359 0.4122701493260135
0.10014892866374321 0.5111295098402429
0.18002693831698172 0.46169982958312816
0.1600574359036721 0.43698498945457087
0.1600574359036721 0.3628404690688989
0.14008793349036247 0.3381256289403416
0.12011843107705285 0.3381256289403416
0.14008793349036247 0.38755530919745623
0.14008793349036247 0.3628404690688989
0.219965943143601 0.31341078881178425
0.18002693831698172 0.2886959486832269
0.219965943143601 0.2392662684261123
0.23993544555691063 0.2886959486832269
0.25990494797022023 0.31341078881178425
0.3397829576234588 0.3381256289403416
0.31981345521014914 0.3381256289403416
0.27987445038352987 0.2886959486832269
0.2998439527968395 0.21455142829755497
0.31981345521014914 0.2639811085546696
0.3597524600367684 0.3381256289403416
0.41966096727669727 0.2886959486832269
0.45959997210331655 0.2639811085546696
0.4396304696900069 0.2392662684261123
0.4795694745166262 0.18983658816899765
0.4795694745166262 0.21455142829755497
0.539477981756555 0.31341078881178425
0.539477981756555 0.38755530919745623
0.539477981756555 0.4122701493260135
0.4396304696900069 0.31341078881178425
0.41966096727669727 0.2392662684261123
0.2998439527968395 0.18983658816899765
0.31981345521014914 0.2392662684261123
0.3597524600367684 0.2639811085546696
0.379721962450078 0.2639811085546696
0.31981345521014914 0.21455142829755497
0.23993544555691063 0.140406907911883
0.19999644073029135 0.09097722765476836
0.23993544555691063 0.16512174804044033
0.25990494797022023 0.2392662684261123
0.25990494797022023 0.11569206778332568
0.23993544555691063 0.140406907911883
0.219965943143601 0.09097722765476836
0.18002693831698172 0.09097722765476836
0.23993544555691063 0.11569206778332568
0.19999644073029135 0.16512174804044033
0.27987445038352987 0.16512174804044033
0.25990494797022023 0.06626238752621104
0.18002693831698172 0.11569206778332568
0.1600574359036721 0.140406907911883
0.219965943143601 0.140406907911883
0.23993544555691063 0.21455142829755497
0.219965943143601 0.21455142829755497
0.219965943143601 0.140406907911883
0.19999644073029135 0.09097722765476836
0.219965943143601 0.140406907911883
0.2998439527968395 0.21455142829755497
0.23993544555691063 0.2639811085546696
0.2998439527968395 0.2639811085546696
0.3397829576234588 0.2392662684261123
0.39969146486338764 0.18983658816899765
0.45959997210331655 0.2639811085546696
0.7591425083029609 0.4122701493260135
1.298319073462321 0.5605591900973574
2.636275735154066 0.8818521117686027
4.473469957178552 1.7221566761395515
5.092524531991151 3.4027658048814495
3.734598367886096 4.490218770537972
2.097099169994706 3.8723477673240385
1.3382580782889402 2.5130315602533857
1.2583800686357016 1.6480121557538796
1.3981665855288692 1.450293434725421
1.298319073462321 1.376148914339749
1.138563054155844 1.2525747136969625
1.0986240493292247 1.1784301933112904
1.0986240493292247 1.1784301933112904
1.0986240493292247 1.153715353182733
1.0387155420892957 1.0795708327970612
0.9987765372626766 0.980711472282832
0.9987765372626766 1.0054263124113891
1.0387155420892957 1.0795708327970612
0.9788070348493669 1.0795708327970612
1.0387155420892957 1.054855992668504
1.078654546915915 1.054855992668504
1.1585325565691535 1.0054263124113891
1.2583800686357016 1.1290005130541758
1.4381055903554885 1.153715353182733
1.6777396193152039 1.2031450334398477
1.8574651410349905 1.1784301933112904
1.9573126531015388 1.1784301933112904
1.997251657928158 1.0795708327970612
2.057160165168087 1.0301411525399466
2.196946682061254 1.0054263124113891
2.41661120860766 1.0054263124113891
2.6163062327407567 1.1042856729256185
2.7161537448073045 1.2772895538255198
2.756092749633924 1.4997231149825356
2.7760622520472333 1.7221566761395515
2.8359707592871626 1.9940199175536821
2.7361232472206143 2.0187347576822394
2.476519715847589 1.7221566761395515
2.1170686724080157 1.0301411525399466
1.7176786241418232 0.2392662684261123
1.35822758070225 -0.40331957491637804
1.0586850445026055 -0.7740421768447379
0.6992340010630321 -0.9717608978731964
0.379721962450078 -1.1941944590302123
-0.019668085816114563 -1.3424834998015562
-0.3591496268423783 -1.3919131800586708
-0.5189056461488553 -1.1941944590302123
-0.5189056461488553 -0.9717608978731964
-0.3990886316689975 -0.7740421768447379
-0.33918012442906864 -0.5021789354306073
-0.27927161718913973 -0.30446021440214877
-0.2593021147758301 -0.18088601375936217
-0.23933261236252049 0.04154754739765372
-0.21936310994921085 0.11569206778332568
-0.23933261236252049 0.09097722765476836
-0.13948510029597233 0.11569206778332568
-0.1794241051225916 0.09097722765476836
-0.21936310994921085 0.016832707269096397
-0.2593021147758301 0.016832707269096397
-0.1794241051225916 0.09097722765476836
-0.13948510029597233 0.11569206778332568
-0.13948510029597233 0.06626238752621104
-0.15945460270928197 -0.007882132859460923
-0.21936310994921085 -0.10674149337369021
-0.21936310994921085 -0.08202665324513289
-0.1794241051225916 -0.032596972988018245
-0.1794241051225916 -0.057311813116575565
-0.15945460270928197 -0.057311813116575565
-0.1794241051225916 -0.08202665324513289
-0.1794241051225916 -0.13145633350224753
-0.21936310994921085 -0.08202665324513289
-0.21936310994921085 -0.032596972988018245
-0.21936310994921085 -0.032596972988018245
-0.1794241051225916 -0.007882132859460923
-0.1794241051225916 -0.057311813116575565
-0.21936310994921085 -0.13145633350224753
-0.23933261236252049 -0.08202665324513289
-0.1993936075359012 -0.08202665324513289
-0.1794241051225916 -0.007882132859460923
-0.1794241051225916 -0.032596972988018245
-0.1993936075359012 -0.08202665324513289
-0.23933261236252049 -0.10674149337369021
-0.27927161718913973 -0.13145633350224753
-0.2593021147758301 -0.08202665324513289
-0.27927161718913973 0.016832707269096397
-0.21936310994921085 -0.032596972988018245
-0.2593021147758301 -0.08202665324513289
-0.29924111960244937 -0.18088601375936217
-0.27927161718913973 -0.18088601375936217
-0.23933261236252049 -0.08202665324513289
-0.1993936075359012 -0.10674149337369021
-0.21936310994921085 -0.10674149337369021
-0.27927161718913973 -0.10674149337369021
-0.29924111960244937 -0.15617117363080485
-0.319210622015759 -0.18088601375936217
-0.29924111960244937 -0.13145633350224753
-0.21936310994921085 -0.08202665324513289
-0.23933261236252049 -0.08202665324513289
-0.2593021147758301 -0.18088601375936217
-0.33918012442906864 -0.2056008538879195
-0.3791191292556879 -0.15617117363080485
-0.2593021147758301 -0.15617117363080485
-0.23933261236252049 -0.10674149337369021
-0.21936310994921085 -0.057311813116575565
-0.27927161718913973 -0.13145633350224753
-0.319210622015759 -0.15617117363080485
-0.29924111960244937 -0.13145633350224753
-0.27927161718913973 -0.15617117363080485
-0.27927161718913973 -0.13145633350224753
-0.2593021147758301 -0.13145633350224753
-0.29924111960244937 -0.18088601375936217
-0.27927161718913973 -0.2056008538879195
-0.2593021147758301 -0.2056008538879195
-0.23933261236252049 -0.13145633350224753
-0.21936310994921085 -0.08202665324513289
-0.21936310994921085 -0.13145633350224753
-0.1993936075359012 -0.15617117363080485
-0.27927161718913973 -0.18088601375936217
-0.2593021147758301 -0.18088601375936217
-0.1993936075359012 -0.08202665324513289
-0.1794241051225916 -0.08202665324513289
-0.13948510029597233 -0.032596972988018245
-0.1993936075359012 -0.10674149337369021
-0.1993936075359012 -0.15617117363080485
-0.15945460270928197 -0.13145633350224753
-0.1794241051225916 -0.032596972988018245
-0.11951559788266271 -0.032596972988018245
-0.07957659305604345 -0.007882132859460923
-0.09954609546935309 -0.057311813116575565
-0.11951559788266271 -0.08202665324513289
-0.09954609546935309 -0.032596972988018245
-0.03963758822942419 0.016832707269096397
-0.03963758822942419 0.04154754739765372
0.00030141659719506623 0.04154754739765372
-0.03963758822942419 0.016832707269096397
0.020270919010504696 -0.032596972988018245
0.06020992383712395 0.04154754739765372
0.08017942625043359 0.09097722765476836
0.08017942625043359 0.2392662684261123
0.12011843107705285 0.18983658816899765
0.10014892866374321 0.18983658816899765
0.14008793349036247 0.16512174804044033
0.10014892866374321 0.2392662684261123
0.1600574359036721 0.2639811085546696
0.19999644073029135 0.31341078881178425
0.219965943143601 0.3381256289403416
0.23993544555691063 0.31341078881178425
0.25990494797022023 0.2886959486832269
0.219965943143601 0.3381256289403416
0.27987445038352987 0.38755530919745623
0.31981345521014914 0.43698498945457087
0.2998439527968395 0.46169982958312816
0.3397829576234588 0.4122701493260135
0.27987445038352987 0.3381256289403416
0.2998439527968395 0.46169982958312816
0.31981345521014914 0.46169982958312816
0.3597524600367684 0.5111295098402429
0.3397829576234588 0.46169982958312816
0.2998439527968395 0.5358443499688001
0.19999644073029135 0.46169982958312816
0.219965943143601 0.4864146697116855
0.25990494797022023 0.5111295098402429
0.25990494797022023 0.5605591900973574
0.25990494797022023 0.5358443499688001
0.23993544555691063 0.5358443499688001
0.18002693831698172 0.38755530919745623
0.18002693831698172 0.46169982958312816
0.18002693831698172 0.4864146697116855
0.19999644073029135 0.4864146697116855
0.23993544555691063 0.43698498945457087
0.1600574359036721 0.4122701493260135
0.14008793349036247 0.4122701493260135
0.10014892866374321 0.4122701493260135
0.10014892866374321 0.38755530919745623
0.1600574359036721 0.5111295098402429
0.1600574359036721 0.43698498945457087
0.08017942625043359 0.3628404690688989
0.08017942625043359 0.3381256289403416
0.04024042142381432 0.3628404690688989
0.06020992383712395 0.38755530919745623
0.10014892866374321 0.38755530919745623
0.08017942625043359 0.38755530919745623
0.04024042142381432 0.2886959486832269
0.00030141659719506623 0.2392662684261123
0.020270919010504696 0.2639811085546696
0.020270919010504696 0.38755530919745623
0.020270919010504696 0.4122701493260135
0.00030141659719506623 0.2886959486832269
-0.03963758822942419 0.2886959486832269
-0.11951559788266271 0.2392662684261123
-0.09954609546935309 0.31341078881178425
-0.03963758822942419 0.3381256289403416
-0.019668085816114563 0.31341078881178425
-0.03963758822942419 0.3628404690688989
-0.05960709064273382 0.3381256289403416
-0.03963758822942419 0.2392662684261123
-0.11951559788266271 0.2392662684261123
-0.05960709064273382 0.3628404690688989
-0.03963758822942419 0.31341078881178425
-0.019668085816114563 0.31341078881178425
-0.05960709064273382 0.2392662684261123
-0.07957659305604345 0.18983658816899765
-0.11951559788266271 0.21455142829755497
-0.07957659305604345 0.2392662684261123
-0.09954609546935309 0.2639811085546696
-0.13948510029597233 0.2639811085546696
-0.15945460270928197 0.21455142829755497
-0.13948510029597233 0.140406907911883
-0.1794241051225916 0.2392662684261123
-0.11951559788266271 0.21455142829755497
-0.11951559788266271 0.2886959486832269
-0.11951559788266271 0.21455142829755497
-0.1794241051225916 0.2392662684261123
-0.15945460270928197 0.16512174804044033
-0.15945460270928197 0.18983658816899765
-0.15945460270928197 0.18983658816899765
-0.15945460270928197 0.2639811085546696
-0.11951559788266271 0.2886959486832269
-0.11951559788266271 0.2392662684261123
-0.1993936075359012 0.2392662684261123
-0.1794241051225916 0.18983658816899765
-0.15945460270928197 0.31341078881178425
-0.09954609546935309 0.3381256289403416
-0.09954609546935309 0.2886959486832269
-0.1794241051225916 0.21455142829755497
-0.15945460270928197 0.21455142829755497
-0.1993936075359012 0.2392662684261123
-0.13948510029597233 0.2886959486832269
-0.09954609546935309 0.3628404690688989
-0.11951559788266271 0.31341078881178425
-0.11951559788266271 0.21455142829755497
-0.13948510029597233 0.2639811085546696
-0.13948510029597233 0.2392662684261123
-0.09954609546935309 0.2886959486832269
-0.09954609546935309 0.3381256289403416
-0.11951559788266271 0.3628404690688989
-0.13948510029597233 0.3381256289403416
-0.13948510029597233 0.2639811085546696
-0.09954609546935309 0.31341078881178425
-0.15945460270928197 0.3628404690688989
-0.11951559788266271 0.38755530919745623
-0.13948510029597233 0.38755530919745623
-0.21936310994921085 0.3628404690688989
-0.1794241051225916 0.3628404690688989
-0.23933261236252049 0.38755530919745623
-0.2593021147758301 0.43698498945457087
-0.1993936075359012 0.46169982958312816
-0.1993936075359012 0.43698498945457087
-0.2593021147758301 0.38755530919745623
-0.2593021147758301 0.3628404690688989
-0.23933261236252049 0.3381256289403416
-0.1993936075359012 0.4122701493260135
-0.21936310994921085 0.38755530919745623
-0.1993936075359012 0.38755530919745623
-0.1794241051225916 0.31341078881178425
-0.1794241051225916 0.2639811085546696
-0.1993936075359012 0.31341078881178425
-0.11951559788266271 0.3381256289403416
-0.07957659305604345 0.3628404690688989
-0.03963758822942419 0.3381256289403416
-0.03963758822942419 0.2392662684261123
-0.05960709064273382 0.18983658816899765
-0.05960709064273382 0.2639811085546696
0.00030141659719506623 0.2392662684261123
0.020270919010504696 0.31341078881178425
0.06020992383712395 0.3381256289403416
0.04024042142381432 0.2886959486832269
0.04024042142381432 0.18983658816899765
0.06020992383712395 0.21455142829755497
0.1600574359036721 0.2886959486832269
0.23993544555691063 0.3628404690688989
0.18002693831698172 0.31341078881178425
0.19999644073029135 0.3381256289403416
0.18002693831698172 0.2886959486832269
0.10014892866374321 0.3381256289403416
0.14008793349036247 0.2886959486832269
0.08017942625043359 0.3381256289403416
0.10014892866374321 0.2639811085546696
0.020270919010504696 0.18983658816899765
-0.03963758822942419 0.18983658816899765
-0.11951559788266271 0.2392662684261123
-0.019668085816114563 0.31341078881178425
-0.05960709064273382 0.2639811085546696
-0.03963758822942419 0.31341078881178425
-0.07957659305604345 0.2392662684261123
-0.15945460270928197 0.140406907911883
-0.13948510029597233 0.2392662684261123
-0.07957659305604345 0.21455142829755497
0.020270919010504696 0.2639811085546696
-0.05960709064273382 0.2392662684261123
-0.05960709064273382 0.2392662684261123
-0.019668085816114563 0.18983658816899765
-0.03963758822942419 0.2392662684261123
0.020270919010504696 0.3381256289403416
0.1600574359036721 0.3381256289403416
0.3597524600367684 0.3381256289403416
0.6393254938231032 0.2886959486832269
1.3781970831155594 0.38755530919745623
2.915848768940401 0.7088482308687014
4.493439459591862 1.8951605570394527
4.313713937872075 3.600484525909908
2.636275735154066 4.094781328481054
1.2783495710490114 2.93318384243886
0.8589900203695091 1.7468715162681088
0.9788070348493669 1.302004393954077
1.078654546915915 1.302004393954077
1.0187460396759862 1.2772895538255198
0.8589900203695091 1.1784301933112904
0.8190510155428898 1.1042856729256185
0.7391730058896513 0.980711472282832
0.7391730058896513 0.980711472282832
0.7591425083029609 1.0054263124113891
0.7990815131295802 0.980711472282832
0.7591425083029609 0.9312817920257173
0.7192035034763418 0.8571372716400453
0.6193559914097936 0.758277911125816
0.6193559914097936 0.758277911125816
0.6193559914097936 0.7829927512543733
0.5794169865831743 0.832422431511488
0.539477981756555 0.8571372716400453
0.45959997210331655 0.758277911125816
0.41966096727669727 0.7088482308687014
0.27987445038352987 0.7088482308687014
0.18002693831698172 0.7335630709972587
0.1600574359036721 0.7335630709972587
0.10014892866374321 0.684133390740144
-0.03963758822942419 0.6347037104830294
-0.1993936075359012 0.6099888703544721
-0.41905813408230713 0.6099888703544721
-0.7385701726952613 0.684133390740144
-0.8983261920017382 0.6347037104830294
-1.018143206481596 0.7088482308687014
-1.0580822113082153 0.6099888703544721
-0.9981737040682864 0.43698498945457087
-1.018143206481596 0.3381256289403416
-1.0780517137215249 0.2886959486832269
-1.0980212161348346 0.16512174804044033
-1.1179907185481441 0.16512174804044033
-1.1179907185481441 0.06626238752621104
-1.1379602209614539 -0.032596972988018245
-1.1379602209614539 0.016832707269096397
-0.9582346992416672 0.16512174804044033
-0.698631167868642 0.3628404690688989
-0.4989361437355457 0.5358443499688001
-0.29924111960244937 0.6594185506115867
-0.09954609546935309 0.7088482308687014
0.06020992383712395 0.832422431511488
0.219965943143601 0.832422431511488
0.219965943143601 0.6099888703544721
0.18002693831698172 0.16512174804044033
0.020270919010504696 -0.4527492551734927
-0.13948510029597233 -0.9964757380017537
-0.27927161718913973 -1.2930538195444417
-0.3591496268423783 -1.416628020187228
-0.47896664132223604 -1.416628020187228
-0.5388751485621649 -1.4413428603157856
-0.6187531582154034 -1.466057700444343
-0.6586921630420227 -1.3919131800586708
-0.5788141533887842 -1.1941944590302123
-0.43902763649561677 -0.8729015373589671
-0.29924111960244937 -0.5268937755591646
-0.23933261236252049 -0.2797453742735915
-0.1993936075359012 -0.15617117363080485
-0.319210622015759 0.04154754739765372
-0.29924111960244937 0.11569206778332568
-0.23933261236252049 0.16512174804044033
-0.1993936075359012 0.18983658816899765
-0.15945460270928197 0.18983658816899765
-0.1794241051225916 0.140406907911883
-0.15945460270928197 0.18983658816899765
-0.11951559788266271 0.18983658816899765
-0.019668085816114563 0.2392662684261123
-0.019668085816114563 0.18983658816899765
0.06020992383712395 0.18983658816899765
0.020270919010504696 0.11569206778332568
0.00030141659719506623 0.016832707269096397
0.00030141659719506623 0.04154754739765372
0.06020992383712395 0.09097722765476836
0.12011843107705285 0.140406907911883
0.10014892866374321 0.11569206778332568
0.10014892866374321 0.06626238752621104
0.06020992383712395 0.06626238752621104
0.06020992383712395 0.09097722765476836
0.12011843107705285 0.18983658816899765
0.18002693831698172 0.140406907911883
0.14008793349036247 0.16512174804044033
0.19999644073029135 0.16512174804044033
0.10014892866374321 0.06626238752621104
0.08017942625043359 0.11569206778332568
0.14008793349036247 0.140406907911883
0.19999644073029135 0.18983658816899765
0.219965943143601 0.18983658816899765
0.18002693831698172 0.140406907911883
0.1600574359036721 0.16512174804044033
0.10014892866374321 0.140406907911883
0.18002693831698172 0.16512174804044033
0.219965943143601 0.2392662684261123
0.18002693831698172 0.2392662684261123
0.23993544555691063 0.16512174804044033
0.18002693831698172 0.11569206778332568
0.18002693831698172 0.18983658816899765
0.27987445038352987 0.2392662684261123
0.27987445038352987 0.2392662684261123
0.25990494797022023 0.2392662684261123
0.27987445038352987 0.16512174804044033
0.27987445038352987 0.21455142829755497
0.2998439527968395 0.2392662684261123
0.31981345521014914 0.2886959486832269
0.379721962450078 0.31341078881178425
0.3597524600367684 0.31341078881178425
0.379721962450078 0.2886959486832269
0.379721962450078 0.21455142829755497
0.3397829576234588 0.2639811085546696
0.379721962450078 0.31341078881178425
0.4396304696900069 0.31341078881178425
0.4396304696900069 0.38755530919745623
0.4396304696900069 0.43698498945457087
0.45959997210331655 0.31341078881178425
0.39969146486338764 0.3381256289403416
0.45959997210331655 0.43698498945457087
0.45959997210331655 0.5111295098402429
0.4995389769299358 0.46169982958312816
0.5195084793432454 0.38755530919745623
0.4995389769299358 0.3381256289403416
0.45959997210331655 0.4122701493260135
0.5594474841698647 0.5111295098402429
0.5794169865831743 0.5358443499688001
0.5794169865831743 0.4864146697116855
0.5594474841698647 0.4864146697116855
0.5594474841698647 0.4864146697116855
0.5594474841698647 0.4864146697116855
0.6193559914097936 0.6099888703544721
0.6193559914097936 0.6347037104830294
0.6193559914097936 0.684133390740144
0.6393254938231032 0.6347037104830294
0.599386488996484 0.5605591900973574
0.6193559914097936 0.6099888703544721
0.6592949962364129 0.7088482308687014
0.6992340010630321 0.684133390740144
0.6792644986497225 0.7335630709972587
0.6592949962364129 0.684133390740144
0.6592949962364129 0.6594185506115867
0.6193559914097936 0.684133390740144
0.6393254938231032 0.7335630709972587
0.6193559914097936 0.8077075913829307
0.6592949962364129 0.8077075913829307
0.6592949962364129 0.7829927512543733
0.6393254938231032 0.7829927512543733
0.5794169865831743 0.7829927512543733
0.599386488996484 0.832422431511488
0.5794169865831743 0.832422431511488
0.5594474841698647 0.832422431511488
0.539477981756555 0.7829927512543733
0.45959997210331655 0.758277911125816
0.4396304696900069 0.7335630709972587
0.4396304696900069 0.832422431511488
0.39969146486338764 0.7829927512543733
0.41966096727669727 0.832422431511488
0.379721962450078 0.7829927512543733
0.31981345521014914 0.7335630709972587
0.27987445038352987 0.7335630709972587
0.27987445038352987 0.832422431511488
0.25990494797022023 0.8571372716400453
0.219965943143601 0.8077075913829307
0.18002693831698172 0.7829927512543733
0.1600574359036721 0.758277911125816
0.04024042142381432 0.7335630709972587
0.10014892866374321 0.758277911125816
0.14008793349036247 0.8077075913829307
0.12011843107705285 0.758277911125816
0.12011843107705285 0.758277911125816
0.020270919010504696 0.7335630709972587
0.04024042142381432 0.6594185506115867
0.020270919010504696 0.684133390740144
0.020270919010504696 0.758277911125816
0.00030141659719506623 0.7335630709972587
0.020270919010504696 0.684133390740144
-0.05960709064273382 0.6594185506115867
-0.03963758822942419 0.6594185506115867
-0.019668085816114563 0.684133390740144
-0.05960709064273382 0.684133390740144
-0.07957659305604345 0.7335630709972587
-0.11951559788266271 0.6347037104830294
-0.13948510029597233 0.5852740302259147
-0.1794241051225916 0.5852740302259147
-0.15945460270928197 0.6347037104830294
-0.11951559788266271 0.6347037104830294
-0.09954609546935309 0.6099888703544721
-0.11951559788266271 0.5852740302259147
-0.15945460270928197 0.5111295098402429
-0.1794241051225916 0.5605591900973574
-0.15945460270928197 0.5358443499688001
-0.13948510029597233 0.6099888703544721
-0.09954609546935309 0.6099888703544721
-0.13948510029597233 0.5852740302259147
-0.15945460270928197 0.46169982958312816
-0.1794241051225916 0.5111295098402429
-0.1794241051225916 0.5111295098402429
-0.13948510029597233 0.5605591900973574
-0.09954609546935309 0.4864146697116855
-0.13948510029597233 0.46169982958312816
-0.1794241051225916 0.43698498945457087
-0.1993936075359012 0.46169982958312816
-0.15945460270928197 0.5358443499688001
-0.09954609546935309 0.5605591900973574
-0.13948510029597233 0.5111295098402429
-0.13948510029597233 0.4864146697116855
-0.23933261236252049 0.4122701493260135
-0.23933261236252049 0.4864146697116855
-0.21936310994921085 0.46169982958312816
-0.1794241051225916 0.5358443499688001
-0.15945460270928197 0.5358443499688001
-0.1794241051225916 0.4864146697116855
-0.1993936075359012 0.4122701493260135
-0.2593021147758301 0.4122701493260135
-0.21936310994921085 0.46169982958312816
-0.15945460270928197 0.5358443499688001
-0.13948510029597233 0.4864146697116855
-0.11951559788266271 0.43698498945457087
-0.23933261236252049 0.3628404690688989
-0.21936310994921085 0.46169982958312816
-0.1794241051225916 0.43698498945457087
-0.1794241051225916 0.46169982958312816
-0.15945460270928197 0.4864146697116855
-0.1794241051225916 0.3628404690688989
-0.21936310994921085 0.4122701493260135
-0.21936310994921085 0.38755530919745623
-0.1993936075359012 0.43698498945457087
-0.13948510029597233 0.46169982958312816
-0.15945460270928197 0.5111295098402429
-0.13948510029597233 0.4864146697116855
-0.1993936075359012 0.4122701493260135
-0.23933261236252049 0.4122701493260135
-0.1993936075359012 0.5111295098402429
-0.15945460270928197 0.46169982958312816
-0.11951559788266271 0.46169982958312816
-0.1794241051225916 0.43698498945457087
-0.21936310994921085 0.4122701493260135
-0.1993936075359012 0.4122701493260135
-0.1993936075359012 0.43698498945457087
-0.1993936075359012 0.4864146697116855
-0.13948510029597233 0.43698498945457087
-0.1794241051225916 0.38755530919745623
-0.1794241051225916 0.3381256289403416
-0.23933261236252049 0.3628404690688989
-0.1993936075359012 0.46169982958312816
-0.1794241051225916 0.4864146697116855
-0.1794241051225916 0.4864146697116855
-0.1993936075359012 0.46169982958312816
-0.2593021147758301 0.3628404690688989
-0.27927161718913973 0.43698498945457087
-0.23933261236252049 0.5111295098402429
-0.1993936075359012 0.5605591900973574
-0.23933261236252049 0.5358443499688001
-0.27927161718913973 0.4864146697116855
-0.319210622015759 0.43698498945457087
-0.33918012442906864 0.4864146697116855
-0.2593021147758301 0.5605591900973574
-0.2593021147758301 0.5605591900973574
-0.23933261236252049 0.6099888703544721
-0.29924111960244937 0.5852740302259147
-0.2593021147758301 0.4864146697116855
-0.319210622015759 0.46169982958312816
-0.319210622015759 0.5111295098402429
-0.21936310994921085 0.46169982958312816
-0.23933261236252049 0.4864146697116855
-0.27927161718913973 0.4122701493260135
-0.2593021147758301 0.3381256289403416
-0.2593021147758301 0.4122701493260135
-0.1794241051225916 0.4122701493260135
-0.13948510029597233 0.46169982958312816
-0.13948510029597233 0.4864146697116855
-0.13948510029597233 0.3628404690688989
-0.07957659305604345 0.2886959486832269
-0.11951559788266271 0.31341078881178425
-0.07957659305604345 0.43698498945457087
-0.05960709064273382 0.43698498945457087
-0.03963758822942419 0.43698498945457087
-0.019668085816114563 0.4122701493260135
0.00030141659719506623 0.31341078881178425
0.00030141659719506623 0.38755530919745623
0.08017942625043359 0.4122701493260135
0.08017942625043359 0.43698498945457087
0.14008793349036247 0.4122701493260135
0.10014892866374321 0.4122701493260135
0.08017942625043359 0.43698498945457087
0.06020992383712395 0.5358443499688001
0.10014892866374321 0.5111295098402429
0.1600574359036721 0.5111295098402429
0.1600574359036721 0.46169982958312816
0.19999644073029135 0.43698498945457087
0.2998439527968395 0.43698498945457087
0.6193559914097936 0.6347037104830294
1.6577701169018944 0.90656695189716
3.395116826859832 1.8457308767823382
4.313713937872075 3.5757696857813506
3.235360807553355 4.539648450795086
1.6777396193152039 3.6746290462955797
0.7990815131295802 2.241168318839255
0.7591425083029609 1.5738676353682075
0.9388680300227477 1.4997231149825356
0.8989290251961284 1.4255785945968638
0.7591425083029609 1.2772895538255198
0.6393254938231032 1.1290005130541758
0.539477981756555 1.1784301933112904
0.539477981756555 1.1290005130541758
0.5794169865831743 1.1784301933112904
0.5594474841698647 1.054855992668504
0.5195084793432454 0.980711472282832
0.4396304696900069 0.7829927512543733
0.3597524600367684 0.758277911125816
0.39969146486338764 0.7335630709972587
0.41966096727669727 0.7829927512543733
0.379721962450078 0.7829927512543733
0.31981345521014914 0.758277911125816
0.219965943143601 0.684133390740144
0.14008793349036247 0.7088482308687014
0.020270919010504696 0.758277911125816
-0.019668085816114563 0.6347037104830294
-0.11951559788266271 0.6099888703544721
-0.1993936075359012 0.5852740302259147
-0.3591496268423783 0.46169982958312816
-0.5388751485621649 0.43698498945457087
-0.698631167868642 0.46169982958312816
-0.9782042016549768 0.5605591900973574
-1.237807733028002 0.43698498945457087
-1.397563752334479 0.3381256289403416
-1.5772892740542657 0.2639811085546696
-1.6771367861208137 0.21455142829755497
-1.8368928054272908 0.21455142829755497
-1.9167708150805294 0.11569206778332568
-1.936740317493839 -0.13145633350224753
-2.036587829560387 -0.37860473478782075
-2.0964963368003158 -0.5268937755591646
-2.1164658392136255 -0.7246124965876232
-2.1164658392136255 -0.7987570169732952
-2.0765268343870065 -0.8481866972304098
-2.0565573319736967 -0.9717608978731964
-2.0765268343870065 -1.1447647787730977
-2.1164658392136255 -1.2683389794158844
-2.0565573319736967 -1.3671983399301135
-1.9766793223204582 -1.3671983399301135
-1.87683181025391 -1.466057700444343
-1.717075790947433 -1.6637764214728015
-1.6371977812941945 -1.9603545030154892
-1.4574722595744078 -2.306362264815292
-1.2577772354413115 -2.5040809858437503
-1.1179907185481441 -2.4299364654580784
-0.8983261920017382 -2.2322177444296196
-0.7585396751085708 -2.108643543786833
-0.6187531582154034 -1.935639662886932
-0.5189056461488553 -1.787350622115588
-0.3791191292556879 -1.4907725405729002
-0.29924111960244937 -1.095335098515983
-0.23933261236252049 -0.7493273367161806
-0.13948510029597233 -0.5021789354306073
-0.15945460270928197 -0.40331957491637804
-0.1794241051225916 -0.30446021440214877
-0.15945460270928197 -0.2056008538879195
-0.1794241051225916 -0.08202665324513289
-0.11951559788266271 -0.08202665324513289
-0.07957659305604345 -0.08202665324513289
-0.11951559788266271 -0.15617117363080485
-0.15945460270928197 -0.2056008538879195
-0.15945460270928197 -0.2056008538879195
-0.13948510029597233 -0.2550305341450341
-0.13948510029597233 -0.18088601375936217
-0.13948510029597233 -0.18088601375936217
-0.13948510029597233 -0.2550305341450341
-0.1993936075359012 -0.2303156940164768
-0.23933261236252049 -0.2056008538879195
-0.13948510029597233 -0.13145633350224753
-0.07957659305604345 -0.032596972988018245
-0.07957659305604345 0.04154754739765372
-0.05960709064273382 0.016832707269096397
-0.019668085816114563 0.09097722765476836
0.00030141659719506623 0.11569206778332568
0.06020992383712395 0.21455142829755497
0.14008793349036247 0.31341078881178425
0.14008793349036247 0.2639811085546696
0.14008793349036247 0.21455142829755497
0.14008793349036247 0.16512174804044033
0.18002693831698172 0.2639811085546696
0.25990494797022023 0.2886959486832269
0.2998439527968395 0.38755530919745623
0.31981345521014914 0.3628404690688989
0.2998439527968395 0.3628404690688989
0.27987445038352987 0.31341078881178425
0.27987445038352987 0.3628404690688989
0.3397829576234588 0.43698498945457087
0.39969146486338764 0.46169982958312816
0.39969146486338764 0.4864146697116855
0.41966096727669727 0.43698498945457087
0.39969146486338764 0.46169982958312816
0.379721962450078 0.4864146697116855
0.45959997210331655 0.5605591900973574
0.45959997210331655 0.5358443499688001
0.5195084793432454 0.5358443499688001
0.5195084793432454 0.4864146697116855
0.5594474841698647 0.5358443499688001
0.5794169865831743 0.6347037104830294
0.599386488996484 0.684133390740144
0.599386488996484 0.6594185506115867
0.6193559914097936 0.684133390740144
0.5794169865831743 0.6594185506115867
0.5594474841698647 0.6347037104830294
0.6193559914097936 0.6099888703544721
0.6592949962364129 0.7829927512543733
0.6792644986497225 0.758277911125816
0.7391730058896513 0.7088482308687014
0.6992340010630321 0.7335630709972587
0.7591425083029609 0.758277911125816
0.7192035034763418 0.7829927512543733
0.7791120107162706 0.8818521117686027
0.7990815131295802 0.90656695189716
0.8390205179561995 0.90656695189716
0.7791120107162706 0.90656695189716
0.8190510155428898 0.8818521117686027
0.7791120107162706 0.980711472282832
0.8589900203695091 1.0054263124113891
0.9388680300227477 1.0301411525399466
0.8989290251961284 1.0301411525399466
0.8989290251961284 1.0301411525399466
0.8589900203695091 0.980711472282832
0.8589900203695091 1.054855992668504
0.9388680300227477 1.1042856729256185
0.9388680300227477 1.1784301933112904
0.9788070348493669 1.153715353182733
0.918898527609438 1.1290005130541758
0.918898527609438 1.1042856729256185
0.8789595227828187 1.2031450334398477
0.9588375324360573 1.2525747136969625
0.9388680300227477 1.2772895538255198
0.9788070348493669 1.3514340742111917
0.9588375324360573 1.2525747136969625
0.8989290251961284 1.2031450334398477
0.8789595227828187 1.2772895538255198
0.8789595227828187 1.3267192340826344
0.918898527609438 1.3514340742111917
0.8789595227828187 1.302004393954077
0.8390205179561995 1.302004393954077
0.7990815131295802 1.2772895538255198
0.7591425083029609 1.3267192340826344
0.7990815131295802 1.3514340742111917
0.8390205179561995 1.2772895538255198
0.7990815131295802 1.3514340742111917
0.6992340010630321 1.2525747136969625
0.6992340010630321 1.2031450334398477
0.599386488996484 1.1784301933112904
0.6592949962364129 1.2525747136969625
0.6193559914097936 1.2525747136969625
0.5594474841698647 1.2525747136969625
0.539477981756555 1.1784301933112904
0.4795694745166262 1.1290005130541758
0.4396304696900069 1.1290005130541758
0.45959997210331655 1.1290005130541758
0.41966096727669727 1.1784301933112904
0.4396304696900069 1.153715353182733
0.3597524600367684 1.1042856729256185
0.31981345521014914 1.0301411525399466
0.2998439527968395 1.0054263124113891
0.31981345521014914 0.980711472282832
0.31981345521014914 1.054855992668504
0.23993544555691063 1.0054263124113891
0.219965943143601 0.9312817920257173
0.19999644073029135 0.8818521117686027
0.10014892866374321 0.8571372716400453
0.10014892866374321 0.8818521117686027
0.08017942625043359 0.9312817920257173
0.10014892866374321 0.8571372716400453
0.10014892866374321 0.7829927512543733
0.06020992383712395 0.7088482308687014
0.06020992383712395 0.7335630709972587
0.04024042142381432 0.7829927512543733
0.04024042142381432 0.758277911125816
0.06020992383712395 0.7335630709972587
0.00030141659719506623 0.684133390740144
-0.019668085816114563 0.6099888703544721
-0.07957659305604345 0.6347037104830294
-0.019668085816114563 0.684133390740144
-0.03963758822942419 0.684133390740144
0.020270919010504696 0.6594185506115867
0.020270919010504696 0.5358443499688001
-0.03963758822942419 0.4864146697116855
-0.09954609546935309 0.5111295098402429
-0.09954609546935309 0.5605591900973574
-0.09954609546935309 0.5605591900973574
-0.07957659305604345 0.5111295098402429
-0.11951559788266271 0.46169982958312816
-0.13948510029597233 0.43698498945457087
-0.1794241051225916 0.4122701493260135
-0.13948510029597233 0.46169982958312816
-0.11951559788266271 0.5111295098402429
-0.15945460270928197 0.4864146697116855
-0.15945460270928197 0.4122701493260135
-0.1794241051225916 0.38755530919745623
-0.1993936075359012 0.43698498945457087
-0.1993936075359012 0.4864146697116855
-0.1794241051225916 0.4864146697116855
-0.1993936075359012 0.4864146697116855
-0.23933261236252049 0.4122701493260135
-0.21936310994921085 0.38755530919745623
-0.23933261236252049 0.38755530919745623
-0.21936310994921085 0.4122701493260135
-0.1794241051225916 0.4122701493260135
-0.1794241051225916 0.3628404690688989
-0.23933261236252049 0.3381256289403416
-0.23933261236252049 0.3381256289403416
-0.27927161718913973 0.3381256289403416
-0.1993936075359012 0.3628404690688989
-0.1993936075359012 0.38755530919745623
-0.1993936075359012 0.4122701493260135
-0.21936310994921085 0.38755530919745623
-0.21936310994921085 0.31341078881178425
-0.27927161718913973 0.3381256289403416
-0.23933261236252049 0.43698498945457087
-0.1794241051225916 0.4122701493260135
-0.21936310994921085 0.4122701493260135
-0.1794241051225916 0.38755530919745623
-0.21936310994921085 0.31341078881178425
-0.1794241051225916 0.4122701493260135
-0.1794241051225916 0.46169982958312816
-0.21936310994921085 0.38755530919745623
-0.1993936075359012 0.46169982958312816
-0.2593021147758301 0.38755530919745623
-0.23933261236252049 0.38755530919745623
-0.29924111960244937 0.4122701493260135
-0.2593021147758301 0.43698498945457087
-0.21936310994921085 0.43698498945457087
-0.23933261236252049 0.38755530919745623
-0.23933261236252049 0.38755530919745623
-0.29924111960244937 0.3381256289403416
-0.29924111960244937 0.3628404690688989
-0.27927161718913973 0.4122701493260135
-0.2593021147758301 0.46169982958312816
-0.2593021147758301 0.4122701493260135
-0.2593021147758301 0.31341078881178425
-0.27927161718913973 0.3381256289403416
-0.2593021147758301 0.3381256289403416
-0.27927161718913973 0.4122701493260135
-0.21936310994921085 0.4122701493260135
-0.2593021147758301 0.4122701493260135
-0.29924111960244937 0.3628404690688989
-0.3791191292556879 0.3381256289403416
-0.3791191292556879 0.38755530919745623
-0.3591496268423783 0.43698498945457087
-0.29924111960244937 0.43698498945457087
-0.29924111960244937 0.43698498945457087
-0.319210622015759 0.3381256289403416
-0.319210622015759 0.2886959486832269
-0.3591496268423783 0.3381256289403416
-0.27927161718913973 0.3628404690688989
-0.23933261236252049 0.4122701493260135
-0.2593021147758301 0.3381256289403416
-0.319210622015759 0.3381256289403416
-0.3591496268423783 0.2392662684261123
-0.3791191292556879 0.31341078881178425
-0.3791191292556879 0.3381256289403416
-0.319210622015759 0.38755530919745623
-0.319210622015759 0.3381256289403416
-0.33918012442906864 0.2886959486832269
-0.33918012442906864 0.2392662684261123
-0.3791191292556879 0.2886959486832269
-0.33918012442906864 0.3381256289403416
-0.319210622015759 0.38755530919745623
-0.3791191292556879 0.3628404690688989
-0.3791191292556879 0.31341078881178425
-0.3791191292556879 0.21455142829755497
-0.3990886316689975 0.2392662684261123
-0.3791191292556879 0.31341078881178425
-0.33918012442906864 0.3628404690688989
-0.33918012442906864 0.3381256289403416
-0.29924111960244937 0.2886959486832269
-0.29924111960244937 0.2392662684261123
-0.3591496268423783 0.2392662684261123
-0.29924111960244937 0.3628404690688989
-0.27927161718913973 0.3381256289403416
-0.319210622015759 0.38755530919745623
-0.319210622015759 0.3381256289403416
-0.3791191292556879 0.2886959486832269
-0.33918012442906864 0.2886959486832269
-0.3591496268423783 0.38755530919745623
-0.33918012442906864 0.43698498945457087
-0.3591496268423783 0.43698498945457087
-0.3791191292556879 0.38755530919745623
-0.41905813408230713 0.3381256289403416
-0.41905813408230713 0.43698498945457087
-0.3990886316689975 0.5111295098402429
-0.33918012442906864 0.4864146697116855
-0.33918012442906864 0.4864146697116855
-0.3591496268423783 0.46169982958312816
-0.3591496268423783 0.4122701493260135
-0.3990886316689975 0.46169982958312816
-0.27927161718913973 0.5111295098402429
-0.27927161718913973 0.5358443499688001
