-0.12858309870791418 -0.10347776814188174
-0.07255917878136407 -0.06405740415281329
-0.08189649876912242 -0.03777716149343433
-0.08189649876912242 -0.06405740415281329
-0.07255917878136407 -0.07719752548250278
-0.07255917878136407 -0.07719752548250278
-0.07255917878136407 -0.10347776814188174
-0.08189649876912242 -0.10347776814188174
-0.09123381875688077 -0.10347776814188174
-0.08189649876912242 -0.11661788947157121
-0.10057113874463913 -0.11661788947157121
-0.07255917878136407 -0.06405740415281329
-0.05388453880584736 -0.03777716149343433
-0.007197938867055592 0.04106356648470256
0.030151341083977823 0.027923445155013073
0.06750062103501124 0.05420368781439203
0.10484990098604464 0.06734380914408152
0.1328618609493197 0.04106356648470256
0.15153650092483642 0.09362405180346048
0.17954846088811147 0.06734380914408152
0.18888578087586982 0.10676417313314995
0.20756042085138654 0.10676417313314995
0.22623506082690326 0.10676417313314995
0.2542470207901783 0.11990429446283944
0.3196082607044868 0.18560490111128686
0.36629486064327854 0.23816538643004476
0.4783427004963788 0.2775857504191132
0.5530412603984456 0.25130550775973426
0.5997278603372374 0.22502526510035528
0.6184025003127541 0.15932465845190788
0.5810532203617207 0.10676417313314995
0.5530412603984456 0.027923445155013073
0.5250293004351706 -0.05091728282312381
0.5156919804474122 -0.10347776814188174
0.5063546604596538 -0.11661788947157121
0.5250293004351706 -0.1297580108012607
0.5063546604596538 -0.09033764681219225
0.4970173404718955 -0.10347776814188174
0.44099342054534535 -0.10347776814188174
0.36629486064327854 -0.05091728282312381
0.28225898075345335 -0.07719752548250278
0.15153650092483642 -0.09033764681219225
0.030151341083977823 -0.14289813213095018
-0.0258725788425723 -0.15603825346063965
-0.13792041869567254 -0.18231849612001863
-0.13792041869567254 -0.1954586174497081
-0.17526969864670597 -0.18231849612001863
-0.1659323786589476 -0.18231849612001863
-0.13792041869567254 -0.14289813213095018
-0.12858309870791418 -0.15603825346063965
-0.10057113874463913 -0.16917837479032913
-0.09123381875688077 -0.1297580108012607
-0.10990845873239748 -0.14289813213095018
-0.12858309870791418 -0.16917837479032913
-0.15659505867118925 -0.24801910276846603
-0.17526969864670597 -0.23487898143877653
-0.19394433862222266 -0.22173886010908705
-0.17526969864670597 -0.1954586174497081
-0.1846070186344643 -0.1954586174497081
-0.17526969864670597 -0.16917837479032913
-0.1846070186344643 -0.18231849612001863
-0.12858309870791418 -0.15603825346063965
-0.15659505867118925 -0.1297580108012607
-0.1472577386834309 -0.16917837479032913
-0.12858309870791418 -0.18231849612001863
-0.1472577386834309 -0.18231849612001863
-0.11924577872015583 -0.16917837479032913
-0.12858309870791418 -0.22173886010908705
-0.1472577386834309 -0.20859873877939758
-0.15659505867118925 -0.274299345427845
-0.1472577386834309 -0.23487898143877653
-0.1846070186344643 -0.1954586174497081
-0.2312936185732561 -0.1297580108012607
-0.24063093856101442 -0.11661788947157121
-0.2312936185732561 -0.05091728282312381
-0.13792041869567254 0.05420368781439203
0.039488661071736174 0.23816538643004476
0.31027094071672845 0.38270672105662906
0.7958115800801628 0.4221270850456975
1.4027373792844557 0.38270672105662906
2.1030363783663324 0.15932465845190788
2.840684657399242 -0.16917837479032913
3.466285096579052 -0.6290826213294609
3.9518257359424864 -1.2598084451545561
4.175921415648687 -1.8642540263202723
4.222608015587478 -2.4292792434969197
4.091885535758862 -2.876043368706362
3.7277300562362856 -3.138845795300152
3.1114669370442343 -3.2176865232782887
2.2150842182194324 -3.2045464019485994
1.1786416995782554 -3.0205847033329465
0.272921660765695 -2.8366230047172936
-0.29665485848756457 -2.6395211847719517
-0.4647266182672149 -2.376718758178162
-0.3059921784753229 -2.0744959675953036
-0.016535258854813946 -1.7065725703639985
0.23557238081466159 -1.4174899011108297
0.36629486064327854 -1.1415473531873508
0.38496950061879526 -0.9181652905826295
0.30093362072897006 -0.7342035919669768
0.16087382091259478 -0.5108215293622557
0.048825981059494525 -0.4057005587247398
-0.044547218818089006 -0.24801910276846603
-0.10057113874463913 -0.23487898143877653
-0.11924577872015583 -0.1954586174497081
-0.1472577386834309 -0.14289813213095018
-0.13792041869567254 -0.15603825346063965
-0.12858309870791418 -0.11661788947157121
-0.13792041869567254 -0.05091728282312381
-0.10057113874463913 0.001643202495634113
-0.10990845873239748 0.014783323825323593
-0.10057113874463913 0.080483930473771
-0.10990845873239748 0.05420368781439203
-0.15659505867118925 0.04106356648470256
-0.1659323786589476 0.027923445155013073
-0.1472577386834309 0.027923445155013073
-0.1659323786589476 -0.011496918834055368
-0.19394433862222266 -0.011496918834055368
-0.20328165860998101 -0.03777716149343433
-0.1846070186344643 -0.011496918834055368
-0.15659505867118925 0.04106356648470256
-0.17526969864670597 0.06734380914408152
-0.15659505867118925 0.10676417313314995
-0.1472577386834309 0.10676417313314995
-0.12858309870791418 0.18560490111128686
-0.17526969864670597 0.13304441579252893
-0.1846070186344643 0.1461845371222184
-0.1846070186344643 0.11990429446283944
-0.17526969864670597 0.080483930473771
-0.19394433862222266 0.09362405180346048
-0.20328165860998101 0.080483930473771
-0.1659323786589476 0.11990429446283944
-0.15659505867118925 0.11990429446283944
-0.1472577386834309 0.1461845371222184
-0.12858309870791418 0.17246477978159735
-0.10990845873239748 0.18560490111128686
-0.10990845873239748 0.15932465845190788
-0.11924577872015583 0.13304441579252893
-0.11924577872015583 0.1461845371222184
-0.10990845873239748 0.10676417313314995
-0.11924577872015583 0.06734380914408152
-0.12858309870791418 0.06734380914408152
-0.1659323786589476 0.080483930473771
-0.15659505867118925 0.10676417313314995
-0.11924577872015583 0.1461845371222184
-0.10990845873239748 0.18560490111128686
-0.09123381875688077 0.23816538643004476
-0.05388453880584736 0.25130550775973426
-0.05388453880584736 0.23816538643004476
-0.035209898830330655 0.23816538643004476
-0.044547218818089006 0.17246477978159735
-0.044547218818089006 0.17246477978159735
-0.0258725788425723 0.19874502244097633
-0.044547218818089006 0.19874502244097633
-0.0258725788425723 0.1461845371222184
-0.035209898830330655 0.19874502244097633
-0.007197938867055592 0.22502526510035528
0.002139381120702761 0.23816538643004476
0.048825981059494525 0.2644456290894237
0.06750062103501124 0.25130550775973426
0.0955125809982863 0.23816538643004476
0.10484990098604464 0.23816538643004476
0.114187220973803 0.23816538643004476
0.114187220973803 0.15932465845190788
0.14219918093707806 0.1461845371222184
0.14219918093707806 0.17246477978159735
0.17954846088811147 0.19874502244097633
0.18888578087586982 0.22502526510035528
0.2542470207901783 0.2775857504191132
0.30093362072897006 0.3301462357378711
0.3289455806922451 0.3432863570675606
0.3943068206065536 0.36956659972693956
0.37563218063103687 0.3564264783972501
0.431656100557587 0.408986963716008
0.431656100557587 0.3564264783972501
0.431656100557587 0.3564264783972501
0.4783427004963788 0.3301462357378711
0.5156919804474122 0.31700611440818166
0.5343666204229289 0.3301462357378711
0.5717159003739624 0.36956659972693956
0.6184025003127541 0.38270672105662906
0.6557517802637876 0.408986963716008
0.6931010602148209 0.44840732770507646
0.7677996201168877 0.408986963716008
0.7771369401046461 0.408986963716008
0.8051489000679212 0.408986963716008
0.8331608600311963 0.3564264783972501
0.8238235400434378 0.31700611440818166
0.8331608600311963 0.31700611440818166
0.8705101399822296 0.31700611440818166
0.879847459969988 0.3301462357378711
0.9358713798965381 0.36956659972693956
0.9452086998842965 0.408986963716008
0.9825579798353299 0.36956659972693956
1.0199072597863632 0.408986963716008
1.03858189976188 0.38270672105662906
1.03858189976188 0.36956659972693956
1.0292445797741216 0.3301462357378711
1.010569939798605 0.2907258717488027
0.9638833398598131 0.2775857504191132
0.8985220999455047 0.19874502244097633
0.8424981800189546 0.2118851437706658
0.8144862200556795 0.18560490111128686
0.7771369401046461 0.18560490111128686
0.7304503401658543 0.2118851437706658
0.6650891002515459 0.2118851437706658
0.6184025003127541 0.18560490111128686
0.5717159003739624 0.18560490111128686
0.5156919804474122 0.2118851437706658
0.4223187805698287 0.18560490111128686
0.37563218063103687 0.10676417313314995
0.3382829006800035 0.080483930473771
0.31027094071672845 0.04106356648470256
0.24490970080241994 0.06734380914408152
0.2168977408391449 0.05420368781439203
0.17954846088811147 0.10676417313314995
0.15153650092483642 0.10676417313314995
0.17021114090035314 0.11990429446283944
0.17021114090035314 0.11990429446283944
0.17954846088811147 0.09362405180346048
0.15153650092483642 0.09362405180346048
0.114187220973803 0.080483930473771
0.08617526101052794 0.06734380914408152
0.06750062103501124 0.001643202495634113
0.05816330104725288 0.001643202495634113
0.030151341083977823 0.001643202495634113
0.002139381120702761 -0.05091728282312381
0.02081402109621947 -0.02463704016374485
0.030151341083977823 -0.06405740415281329
0.039488661071736174 -0.03777716149343433
0.039488661071736174 0.001643202495634113
0.07683794102276958 0.05420368781439203
0.07683794102276958 0.05420368781439203
0.06750062103501124 0.04106356648470256
0.05816330104725288 0.027923445155013073
0.05816330104725288 0.014783323825323593
0.030151341083977823 0.027923445155013073
0.02081402109621947 0.027923445155013073
0.039488661071736174 -0.02463704016374485
0.07683794102276958 0.04106356648470256
0.06750062103501124 0.027923445155013073
0.08617526101052794 0.027923445155013073
0.12352454096156136 0.09362405180346048
0.14219918093707806 0.080483930473771
0.17021114090035314 0.06734380914408152
0.1328618609493197 0.027923445155013073
0.14219918093707806 0.027923445155013073
0.114187220973803 -0.011496918834055368
0.12352454096156136 -0.03777716149343433
0.0955125809982863 0.027923445155013073
0.06750062103501124 0.027923445155013073
0.07683794102276958 0.04106356648470256
0.10484990098604464 0.13304441579252893
0.12352454096156136 0.15932465845190788
0.16087382091259478 0.2644456290894237
0.2168977408391449 0.3432863570675606
0.30093362072897006 0.4221270850456975
0.4223187805698287 0.4746875703644554
0.6277398203005125 0.5929486623316608
0.8705101399822296 0.6192289049910397
1.1599670596027385 0.5666684196722818
1.486773259174281 0.36956659972693956
1.8135794587458234 0.014783323825323593
2.1870722582561575 -0.41884068005442926
2.5792396977420085 -0.7867640772857347
3.0180937371666507 -1.2072479598357981
3.447610456603535 -1.66715220637493
3.923813775979211 -2.1533366955734405
4.372005135391612 -2.6920816700907095
4.736160614914188 -3.309667372586115
5.072304134473488 -3.9535333177408996
5.287062494191931 -4.505418413587858
5.5111581738981315 -4.912762174808232
5.641880653726748 -5.228125086720779
5.6979045736532985 -5.412086785336432
5.679229933677782 -5.46464727065519
5.716579213628815 -5.451507149325501
5.6979045736532985 -5.346386178687984
5.57651941381244 -5.333246057358295
5.455134253971581 -5.228125086720779
5.259050534228655 -5.21498496539109
5.109653414424522 -5.044163388105127
4.997605574571422 -4.8602016894894735
4.932244334657113 -4.597399262895684
4.969593614608147 -4.387157321620652
4.988268254583663 -4.124354895026863
4.969593614608147 -3.8615524684330733
4.904232374693838 -3.664450648487731
4.754835254889705 -3.3622278579048728
4.465378335269196 -3.086285309981394
4.194596055624204 -2.8366230047172936
3.8771271760404193 -2.6395211847719517
3.4756224165668104 -2.402999000837541
2.990081777203376 -2.1533366955734405
2.3551440180358076 -1.9562348756280985
1.6268330589906563 -1.7328528130233773
0.8891847799577464 -1.535750993078035
0.26358434077793663 -1.2729485664842455
-0.19394433862222266 -1.0101461398904559
-0.36201609840187304 -0.6422227426591505
-0.3806907383773897 -0.30057958808722396
-0.35267877841411466 -0.011496918834055368
-0.25930557853653113 0.18560490111128686
-0.2312936185732561 0.25130550775973426
-0.2873175384998062 0.2775857504191132
-0.3806907383773897 0.31700611440818166
-0.5114132182060067 0.2907258717488027
-0.6234610580591069 0.30386599307849216
-0.6888222979734154 0.3564264783972501
-0.7448462178999655 0.4221270850456975
-0.782195497850999 0.46154744903476597
-0.8288820977897907 0.5141079343535239
-0.838219417777549 0.5535282983425923
-0.810207457814274 0.5929486623316608
-0.8195447778020324 0.6586492689801081
-0.7915328178387573 0.6980696329691766
-0.8475567377653074 0.6980696329691766
-0.8755686977285825 0.7243498756285556
-0.9409299376428909 0.7112097542988661
-0.9876165375816827 0.7112097542988661
-1.0436404575082328 0.6586492689801081
-1.0156284975449577 0.7112097542988661
-1.0529777774959912 0.737489996958245
-1.099664377434783 0.7506301182879345
-1.0903270574470245 0.8294708462660714
-1.0809897374592663 0.9083115742442083
-1.099664377434783 0.9608720595629662
-1.0623150974837496 1.0265726662114136
-1.1370136573858163 1.013432544881724
-1.202374897300125 1.0397127875411032
-1.2490614972389167 1.013432544881724
-1.2770734572021916 1.013432544881724
-1.3330973771287418 1.0265726662114136
-1.3797839770675335 1.013432544881724
-1.3984586170430502 1.065993030200482
-1.4264705770063253 1.11855351551924
-1.4264705770063253 1.1973942434973768
-1.417133257018567 1.2368146074864452
-1.4077959370308086 1.3025152141348928
-1.4358078969940837 1.3419355781239612
-1.4638198569573588 1.394496063442719
-1.4918318169206337 1.447056548761477
-1.5385184168594255 1.473336791420856
-1.547855736847184 1.5127571554099244
-1.575867696810459 1.5784577620583717
-1.5945423367859757 1.6178781260474402
-1.631891616737009 1.7229990966849562
-1.631891616737009 1.7886997033334036
-1.6505662567125259 1.9332410379599878
-1.6505662567125259 2.0120817659381247
-1.6692408966880425 2.0909224939162616
-1.6505662567125259 2.182903343224088
-1.6505662567125259 2.274884192531914
-1.6505662567125259 2.301164435191293
-1.631891616737009 2.3143045565209825
-1.631891616737009 2.274884192531914
-1.6879155366635592 2.301164435191293
-1.7252648166145925 2.2223237072131563
-1.7999633765166594 2.2354638285428456
-1.8746619364187262 2.2486039498725354
-1.9120112163697598 2.301164435191293
-1.9493604963207931 2.3143045565209825
-1.9680351362963098 2.3931452844991195
-1.9867097762718264 2.4719860124772564
-2.052071016186135 2.458845891147567
-2.1361068960759604 2.4982662551366355
-2.2201427759657855 2.485126133806946
-2.3602025757821607 2.4719860124772564
-2.4909250556107776 2.458845891147567
-2.5749609355006027 2.458845891147567
-2.668334135378186 2.4982662551366355
-2.715020735316978 2.4982662551366355
-2.7430326952802533 2.5771069831147724
-2.733695375292495 2.6033872257741515
-2.7430326952802533 2.6559477110929093
-2.7056834153292195 2.5902471044444617
-2.6776714553659446 2.5508267404553933
-2.6496594954026698 2.4457057698178777
-2.602972895463878 2.4194255271584986
-2.6216475354393944 2.274884192531914
-2.5562862955250862 2.182903343224088
-2.5376116555495694 2.0909224939162616
-2.481587735623019 2.025221887267814
-2.369539895769919 1.9726614019490563
-2.2761666958923357 1.9332410379599878
-2.182793496014752 1.8412601886521613
-2.0987576161249266 1.7886997033334036
-1.9867097762718264 1.7361392180146455
-1.893336576394243 1.5915978833880613
-1.7812887365411427 1.525897276739614
-1.7065901766390759 1.3550756994536506
-1.6038796567737341 1.2630948501458243
-1.4918318169206337 1.1054133941895505
-1.417133257018567 1.0397127875411032
-1.3237600571409833 0.9477319382332767
-1.2117122172878831 0.8820313315848294
-1.0903270574470245 0.8426109675957609
-1.0156284975449577 0.7900504822770029
-0.9315926176551326 0.6980696329691766
-0.8195447778020324 0.6455091476504187
-0.7448462178999655 0.5666684196722818
-0.7261715779244488 0.44840732770507646
-0.6888222979734154 0.36956659972693956
-0.651473018022382 0.2907258717488027
-0.6421356980346237 0.2118851437706658
-0.6047864180835902 0.17246477978159735
-0.6234610580591069 0.13304441579252893
-0.5767744581203151 0.13304441579252893
-0.5674371381325568 0.1461845371222184
-0.5580998181447985 0.1461845371222184
-0.5394251781692817 0.13304441579252893
-0.520750538193765 0.13304441579252893
-0.49273857823049 0.13304441579252893
-0.5114132182060067 0.10676417313314995
-0.5020758982182483 0.11990429446283944
-0.5020758982182483 0.080483930473771
-0.5020758982182483 0.080483930473771
-0.520750538193765 0.06734380914408152
-0.5020758982182483 0.05420368781439203
-0.5020758982182483 0.11990429446283944
-0.49273857823049 0.1461845371222184
-0.45538929827945657 0.17246477978159735
-0.45538929827945657 0.18560490111128686
-0.4273773383161815 0.18560490111128686
-0.43671465830393985 0.17246477978159735
-0.4273773383161815 0.13304441579252893
-0.41804001832842314 0.11990429446283944
-0.4273773383161815 0.09362405180346048
-0.43671465830393985 0.080483930473771
-0.4460519782916982 0.06734380914408152
-0.4647266182672149 0.04106356648470256
-0.43671465830393985 0.04106356648470256
-0.41804001832842314 0.13304441579252893
-0.4087026983406648 0.13304441579252893
-0.3900280583651481 0.1461845371222184
-0.35267877841411466 0.13304441579252893
-0.3900280583651481 0.13304441579252893
-0.3993653783529064 0.15932465845190788
-0.4273773383161815 0.11990429446283944
-0.4460519782916982 0.13304441579252893
-0.43671465830393985 0.06734380914408152
-0.43671465830393985 0.1461845371222184
-0.45538929827945657 0.09362405180346048
-0.4273773383161815 0.11990429446283944
-0.3993653783529064 0.1461845371222184
-0.3806907383773897 0.17246477978159735
-0.3993653783529064 0.17246477978159735
-0.3713534183896314 0.2118851437706658
-0.3713534183896314 0.17246477978159735
-0.3806907383773897 0.18560490111128686
-0.3713534183896314 0.13304441579252893
-0.3900280583651481 0.11990429446283944
-0.3806907383773897 0.04106356648470256
-0.3806907383773897 0.014783323825323593
-0.3806907383773897 0.027923445155013073
-0.3806907383773897 0.06734380914408152
-0.35267877841411466 0.080483930473771
-0.35267877841411466 0.09362405180346048
-0.3433414584263563 0.10676417313314995
-0.3246668184508396 0.11990429446283944
-0.3433414584263563 0.11990429446283944
-0.33400413843859794 0.06734380914408152
-0.35267877841411466 0.11990429446283944
-0.35267877841411466 0.06734380914408152
-0.4087026983406648 0.04106356648470256
-0.3713534183896314 0.027923445155013073
-0.3900280583651481 0.001643202495634113
-0.3900280583651481 0.001643202495634113
-0.3433414584263563 0.04106356648470256
-0.33400413843859794 0.027923445155013073
-0.3153294984630813 0.027923445155013073
-0.3153294984630813 0.06734380914408152
-0.3153294984630813 0.05420368781439203
-0.33400413843859794 0.04106356648470256
-0.33400413843859794 0.04106356648470256
-0.3806907383773897 0.014783323825323593
-0.3713534183896314 -0.05091728282312381
-0.33400413843859794 -0.09033764681219225
-0.33400413843859794 -0.06405740415281329
-0.3433414584263563 -0.05091728282312381
-0.3246668184508396 -0.06405740415281329
-0.3153294984630813 -0.03777716149343433
-0.3246668184508396 0.014783323825323593
-0.3059921784753229 0.001643202495634113
-0.27798021851204785 0.06734380914408152
-0.2873175384998062 0.06734380914408152
-0.3153294984630813 0.05420368781439203
-0.3153294984630813 0.06734380914408152
-0.3433414584263563 0.014783323825323593
-0.35267877841411466 0.027923445155013073
-0.3433414584263563 -0.011496918834055368
-0.33400413843859794 0.001643202495634113
-0.3153294984630813 0.04106356648470256
-0.3153294984630813 0.014783323825323593
-0.2873175384998062 0.05420368781439203
-0.29665485848756457 0.080483930473771
-0.2873175384998062 0.027923445155013073
-0.3059921784753229 0.027923445155013073
-0.29665485848756457 -0.011496918834055368
-0.3153294984630813 -0.011496918834055368
-0.2873175384998062 -0.07719752548250278
-0.29665485848756457 -0.07719752548250278
-0.29665485848756457 -0.03777716149343433
-0.29665485848756457 -0.05091728282312381
-0.27798021851204785 -0.011496918834055368
-0.2873175384998062 0.014783323825323593
-0.3153294984630813 0.001643202495634113
-0.3059921784753229 0.04106356648470256
-0.29665485848756457 0.014783323825323593
-0.27798021851204785 0.05420368781439203
-0.27798021851204785 -0.011496918834055368
-0.2873175384998062 0.001643202495634113
-0.3246668184508396 -0.03777716149343433
-0.33400413843859794 -0.03777716149343433
-0.3246668184508396 -0.03777716149343433
-0.3153294984630813 -0.06405740415281329
-0.3153294984630813 -0.011496918834055368
-0.2873175384998062 -0.011496918834055368
-0.26864289852428946 0.014783323825323593
-0.24063093856101442 0.014783323825323593
-0.24063093856101442 0.014783323825323593
-0.25930557853653113 -0.011496918834055368
-0.24996825854877278 -0.02463704016374485
-0.25930557853653113 -0.06405740415281329
-0.2873175384998062 -0.06405740415281329
-0.2873175384998062 -0.10347776814188174
-0.2873175384998062 -0.07719752548250278
-0.29665485848756457 -0.10347776814188174
-0.29665485848756457 -0.03777716149343433
-0.25930557853653113 -0.02463704016374485
-0.25930557853653113 0.014783323825323593
-0.22195629858549773 0.04106356648470256
-0.2312936185732561 0.014783323825323593
-0.22195629858549773 0.014783323825323593
-0.21261897859773937 -0.011496918834055368
-0.2312936185732561 0.014783323825323593
-0.24996825854877278 -0.03777716149343433
-0.25930557853653113 -0.10347776814188174
-0.24996825854877278 -0.10347776814188174
-0.25930557853653113 -0.06405740415281329
-0.2312936185732561 -0.07719752548250278
-0.2312936185732561 -0.05091728282312381
-0.19394433862222266 -0.011496918834055368
-0.19394433862222266 -0.02463704016374485
-0.1846070186344643 -0.02463704016374485
-0.1846070186344643 -0.011496918834055368
-0.19394433862222266 -0.06405740415281329
-0.21261897859773937 -0.07719752548250278
-0.2312936185732561 -0.1297580108012607
-0.25930557853653113 -0.11661788947157121
-0.26864289852428946 -0.14289813213095018
-0.24996825854877278 -0.11661788947157121
-0.24063093856101442 -0.09033764681219225
-0.24063093856101442 -0.06405740415281329
-0.1846070186344643 0.001643202495634113
-0.17526969864670597 -0.011496918834055368
-0.1659323786589476 0.001643202495634113
-0.15659505867118925 -0.03777716149343433
-0.19394433862222266 -0.07719752548250278
-0.20328165860998101 -0.09033764681219225
-0.21261897859773937 -0.11661788947157121
-0.22195629858549773 -0.1297580108012607
-0.24063093856101442 -0.14289813213095018
-0.24996825854877278 -0.11661788947157121
-0.2312936185732561 -0.011496918834055368
-0.19394433862222266 -0.07719752548250278
-0.1659323786589476 -0.011496918834055368
-0.1472577386834309 -0.03777716149343433
-0.1472577386834309 -0.05091728282312381
-0.13792041869567254 -0.03777716149343433
-0.13792041869567254 -0.10347776814188174
-0.1659323786589476 -0.14289813213095018
-0.15659505867118925 -0.1297580108012607
-0.19394433862222266 -0.18231849612001863
-0.21261897859773937 -0.14289813213095018
-0.19394433862222266 -0.15603825346063965
-0.19394433862222266 -0.11661788947157121
-0.17526969864670597 -0.06405740415281329
-0.1472577386834309 -0.03777716149343433
-0.12858309870791418 -0.03777716149343433
-0.15659505867118925 -0.011496918834055368
-0.1472577386834309 -0.011496918834055368
-0.20328165860998101 -0.03777716149343433
-0.19394433862222266 -0.06405740415281329
-0.21261897859773937 -0.10347776814188174
-0.22195629858549773 -0.11661788947157121
-0.22195629858549773 -0.11661788947157121
-0.21261897859773937 -0.10347776814188174
-0.19394433862222266 -0.03777716149343433
-0.17526969864670597 -0.03777716149343433
-0.1659323786589476 -0.011496918834055368
-0.12858309870791418 -0.02463704016374485
-0.13792041869567254 -0.02463704016374485
-0.12858309870791418 -0.05091728282312381
-0.15659505867118925 -0.09033764681219225
-0.17526969864670597 -0.10347776814188174
-0.19394433862222266 -0.1297580108012607
-0.21261897859773937 -0.16917837479032913
-0.2312936185732561 -0.14289813213095018
-0.22195629858549773 -0.14289813213095018
-0.22195629858549773 -0.10347776814188174
-0.1846070186344643 -0.05091728282312381
-0.1472577386834309 -0.05091728282312381
-0.12858309870791418 -0.011496918834055368
-0.1472577386834309 0.04106356648470256
-0.15659505867118925 -0.011496918834055368
-0.1846070186344643 -0.02463704016374485
-0.17526969864670597 -0.06405740415281329
-0.21261897859773937 -0.09033764681219225
-0.24996825854877278 -0.06405740415281329
-0.21261897859773937 -0.07719752548250278
-0.2312936185732561 -0.06405740415281329
-0.24996825854877278 -0.02463704016374485
-0.24063093856101442 0.001643202495634113
-0.17526969864670597 -0.011496918834055368
-0.15659505867118925 0.04106356648470256
-0.15659505867118925 0.04106356648470256
-0.1659323786589476 -0.011496918834055368
-0.17526969864670597 -0.03777716149343433
-0.20328165860998101 -0.05091728282312381
-0.21261897859773937 -0.10347776814188174
-0.19394433862222266 -0.07719752548250278
-0.24996825854877278 -0.10347776814188174
-0.21261897859773937 -0.09033764681219225
-0.19394433862222266 -0.06405740415281329
-0.1846070186344643 -0.06405740415281329
-0.15659505867118925 0.001643202495634113
-0.1472577386834309 0.001643202495634113
-0.17526969864670597 0.014783323825323593
-0.1472577386834309 0.014783323825323593
-0.1659323786589476 0.04106356648470256
-0.1846070186344643 -0.02463704016374485
-0.22195629858549773 0.001643202495634113
-0.19394433862222266 -0.05091728282312381
-0.19394433862222266 -0.07719752548250278
-0.1659323786589476 -0.03777716149343433
-0.1659323786589476 -0.011496918834055368
-0.15659505867118925 -0.03777716149343433
-0.13792041869567254 0.05420368781439203
-0.11924577872015583 0.001643202495634113
-0.11924577872015583 0.014783323825323593
-0.1659323786589476 0.014783323825323593
-0.1472577386834309 -0.07719752548250278
-0.1659323786589476 -0.06405740415281329
-0.17526969864670597 -0.07719752548250278
-0.17526969864670597 -0.09033764681219225
-0.1846070186344643 -0.06405740415281329
-0.21261897859773937 -0.06405740415281329
-0.20328165860998101 -0.03777716149343433
-0.17526969864670597 0.001643202495634113
-0.12858309870791418 0.014783323825323593
-0.10990845873239748 0.04106356648470256
-0.10990845873239748 0.05420368781439203
-0.11924577872015583 0.027923445155013073
-0.13792041869567254 -0.011496918834055368
-0.17526969864670597 -0.03777716149343433
-0.1659323786589476 -0.03777716149343433
-0.1846070186344643 -0.06405740415281329
-0.19394433862222266 -0.06405740415281329
-0.1846070186344643 -0.03777716149343433
-0.17526969864670597 -0.03777716149343433
-0.1659323786589476 0.014783323825323593
-0.10990845873239748 0.027923445155013073
-0.10990845873239748 0.05420368781439203
-0.10990845873239748 0.04106356648470256
-0.10990845873239748 0.04106356648470256
-0.15659505867118925 -0.02463704016374485
-0.15659505867118925 -0.02463704016374485
-0.13792041869567254 -0.06405740415281329
-0.1472577386834309 -0.07719752548250278
-0.19394433862222266 -0.03777716149343433
-0.19394433862222266 -0.02463704016374485
-0.1846070186344643 -0.02463704016374485
-0.1472577386834309 0.027923445155013073
-0.13792041869567254 0.09362405180346048
-0.11924577872015583 0.06734380914408152
-0.09123381875688077 0.06734380914408152
-0.10990845873239748 0.09362405180346048
-0.10990845873239748 0.06734380914408152
-0.1472577386834309 0.014783323825323593
-0.1659323786589476 -0.011496918834055368
-0.1659323786589476 -0.03777716149343433
-0.1659323786589476 -0.06405740415281329
-0.15659505867118925 -0.06405740415281329
-0.12858309870791418 0.027923445155013073
-0.11924577872015583 0.05420368781439203
-0.10057113874463913 0.05420368781439203
-0.11924577872015583 0.05420368781439203
-0.07255917878136407 0.05420368781439203
-0.10057113874463913 0.05420368781439203
-0.11924577872015583 0.05420368781439203
-0.10057113874463913 0.014783323825323593
-0.11924577872015583 0.001643202495634113
-0.10990845873239748 0.001643202495634113
-0.07255917878136407 0.014783323825323593
-0.035209898830330655 0.027923445155013073
-0.007197938867055592 0.09362405180346048
0.048825981059494525 0.17246477978159735
0.10484990098604464 0.15932465845190788
0.14219918093707806 0.2644456290894237
0.16087382091259478 0.23816538643004476
0.16087382091259478 0.23816538643004476
0.17021114090035314 0.2644456290894237
0.17021114090035314 0.2118851437706658
0.18888578087586982 0.22502526510035528
0.23557238081466159 0.23816538643004476
0.3196082607044868 0.2644456290894237
0.4223187805698287 0.2644456290894237
0.5250293004351706 0.25130550775973426
0.5997278603372374 0.2907258717488027
0.5997278603372374 0.2644456290894237
0.5717159003739624 0.22502526510035528
0.5437039404106873 0.1461845371222184
0.4970173404718955 0.080483930473771
0.5250293004351706 0.027923445155013073
0.5530412603984456 -0.011496918834055368
0.5063546604596538 -0.06405740415281329
0.45033074053310373 -0.011496918834055368
0.403644140594312 -0.05091728282312381
0.31027094071672845 -0.09033764681219225
0.22623506082690326 -0.05091728282312381
0.114187220973803 -0.03777716149343433
0.05816330104725288 0.001643202495634113
-0.016535258854813946 0.014783323825323593
-0.09123381875688077 -0.011496918834055368
-0.11924577872015583 -0.02463704016374485
-0.1659323786589476 -0.011496918834055368
-0.1659323786589476 -0.10347776814188174
-0.17526969864670597 -0.15603825346063965
-0.1846070186344643 -0.14289813213095018
-0.19394433862222266 -0.14289813213095018
-0.19394433862222266 -0.1954586174497081
-0.15659505867118925 -0.15603825346063965
-0.1659323786589476 -0.1297580108012607
-0.17526969864670597 -0.11661788947157121
-0.15659505867118925 -0.07719752548250278
-0.1472577386834309 -0.09033764681219225
-0.15659505867118925 -0.10347776814188174
-0.15659505867118925 -0.06405740415281329
-0.1659323786589476 -0.09033764681219225
-0.20328165860998101 -0.1297580108012607
-0.22195629858549773 -0.11661788947157121
-0.1846070186344643 -0.11661788947157121
-0.19394433862222266 -0.11661788947157121
-0.20328165860998101 -0.10347776814188174
-0.19394433862222266 -0.05091728282312381
-0.21261897859773937 -0.05091728282312381
-0.24996825854877278 0.014783323825323593
-0.27798021851204785 0.014783323825323593
-0.29665485848756457 0.09362405180346048
-0.20328165860998101 0.13304441579252893
-0.0258725788425723 0.2775857504191132
0.272921660765695 0.31700611440818166
0.721113020178096 0.38270672105662906
1.3093641794068722 0.36956659972693956
2.009663178488749 0.30386599307849216
2.775323417484934 0.05420368781439203
3.4382731366157766 -0.3268598307466029
3.923813775979211 -0.7999041986154242
4.203933375611962 -1.3517892944623824
4.26929461552627 -1.91681451163903
4.082548215771103 -2.297878030200025
3.653031496334219 -2.4949798501453673
2.990081777203376 -2.6001008207828833
2.065687098415299 -2.547540335464125
1.03858189976188 -2.3898588795078513
0.14219918093707806 -2.2058971808921988
-0.3433414584263563 -1.995655239617167
-0.4460519782916982 -1.7854132983421354
-0.2312936185732561 -1.4963306290889666
0.011476701108461114 -1.2203880811654877
0.23557238081466159 -0.983865897231077
0.3382829006800035 -0.8130443199451137
0.29159630074121173 -0.6422227426591505
0.18888578087586982 -0.5239616506919451
0.030151341083977823 -0.4057005587247398
-0.10990845873239748 -0.274299345427845
-0.20328165860998101 -0.18231849612001863
-0.21261897859773937 -0.16917837479032913
-0.2312936185732561 -0.10347776814188174
-0.21261897859773937 -0.02463704016374485
-0.19394433862222266 0.027923445155013073
-0.17526969864670597 0.04106356648470256
-0.1659323786589476 0.10676417313314995
-0.1846070186344643 0.10676417313314995
-0.15659505867118925 0.1461845371222184
-0.20328165860998101 0.13304441579252893
-0.24063093856101442 0.11990429446283944
-0.29665485848756457 0.10676417313314995
-0.26864289852428946 0.10676417313314995
-0.2873175384998062 0.09362405180346048
-0.2873175384998062 0.11990429446283944
-0.29665485848756457 0.15932465845190788
-0.24996825854877278 0.17246477978159735
-0.24996825854877278 0.15932465845190788
-0.24996825854877278 0.17246477978159735
-0.22195629858549773 0.2118851437706658
-0.24063093856101442 0.17246477978159735
-0.25930557853653113 0.1461845371222184
-0.26864289852428946 0.080483930473771
-0.29665485848756457 0.13304441579252893
-0.3059921784753229 0.1461845371222184
-0.3059921784753229 0.10676417313314995
-0.3153294984630813 0.15932465845190788
-0.3059921784753229 0.19874502244097633
-0.26864289852428946 0.25130550775973426
-0.27798021851204785 0.25130550775973426
-0.2312936185732561 0.2907258717488027
-0.2312936185732561 0.30386599307849216
-0.24063093856101442 0.2644456290894237
-0.26864289852428946 0.22502526510035528
-0.26864289852428946 0.22502526510035528
-0.27798021851204785 0.22502526510035528
-0.2873175384998062 0.22502526510035528
-0.29665485848756457 0.2118851437706658
-0.27798021851204785 0.2118851437706658
-0.29665485848756457 0.25130550775973426
-0.24063093856101442 0.25130550775973426
-0.26864289852428946 0.2775857504191132
-0.24063093856101442 0.2775857504191132
-0.21261897859773937 0.2907258717488027
-0.20328165860998101 0.2775857504191132
-0.2312936185732561 0.2907258717488027
-0.24996825854877278 0.2775857504191132
-0.24996825854877278 0.25130550775973426
-0.24996825854877278 0.2644456290894237
-0.24996825854877278 0.2775857504191132
-0.22195629858549773 0.3301462357378711
-0.22195629858549773 0.3432863570675606
-0.1846070186344643 0.36956659972693956
-0.17526969864670597 0.408986963716008
-0.10057113874463913 0.44840732770507646
-0.11924577872015583 0.408986963716008
-0.12858309870791418 0.3564264783972501
-0.10990845873239748 0.3564264783972501
-0.12858309870791418 0.3301462357378711
-0.10057113874463913 0.3301462357378711
-0.11924577872015583 0.3301462357378711
-0.08189649876912242 0.2907258717488027
-0.05388453880584736 0.3432863570675606
-0.06322185879360571 0.4221270850456975
-0.044547218818089006 0.4221270850456975
0.011476701108461114 0.46154744903476597
0.05816330104725288 0.4746875703644554
0.08617526101052794 0.46154744903476597
0.12352454096156136 0.4746875703644554
0.15153650092483642 0.4746875703644554
0.16087382091259478 0.4878276916941449
0.16087382091259478 0.44840732770507646
0.17021114090035314 0.4746875703644554
0.18888578087586982 0.44840732770507646
0.18888578087586982 0.4878276916941449
0.22623506082690326 0.5535282983425923
0.23557238081466159 0.5666684196722818
0.3196082607044868 0.6060887836613502
0.3289455806922451 0.6060887836613502
0.36629486064327854 0.6849295116394871
0.38496950061879526 0.5929486623316608
0.38496950061879526 0.6192289049910397
0.403644140594312 0.5929486623316608
0.431656100557587 0.5666684196722818
0.4129814605820703 0.5403881770129029
0.46900538050862045 0.5535282983425923
0.4783427004963788 0.5535282983425923
0.4970173404718955 0.5929486623316608
0.5343666204229289 0.5666684196722818
0.5810532203617207 0.6192289049910397
0.6370771402882708 0.6060887836613502
0.6744264202393042 0.5535282983425923
0.6837637402270625 0.5535282983425923
0.6931010602148209 0.5403881770129029
0.6931010602148209 0.5009678130238344
0.7024383802025793 0.44840732770507646
0.7117757001903376 0.39584684238631856
0.7117757001903376 0.36956659972693956
0.7024383802025793 0.38270672105662906
0.7397876601536126 0.3432863570675606
0.7584623001291294 0.3432863570675606
0.7397876601536126 0.3432863570675606
0.7491249801413711 0.31700611440818166
0.7491249801413711 0.30386599307849216
0.6650891002515459 0.2775857504191132
0.6650891002515459 0.23816538643004476
0.6090651803249957 0.2118851437706658
0.5717159003739624 0.15932465845190788
0.5156919804474122 0.10676417313314995
0.45966806052086207 0.09362405180346048
0.431656100557587 0.10676417313314995
0.3943068206065536 0.09362405180346048
0.3476202206677618 0.1461845371222184
0.3289455806922451 0.15932465845190788
0.30093362072897006 0.18560490111128686
0.29159630074121173 0.19874502244097633
0.272921660765695 0.18560490111128686
0.2542470207901783 0.2118851437706658
0.23557238081466159 0.11990429446283944
0.20756042085138654 0.1461845371222184
0.14219918093707806 0.080483930473771
0.1328618609493197 0.11990429446283944
0.114187220973803 0.080483930473771
0.114187220973803 0.1461845371222184
0.114187220973803 0.13304441579252893
0.12352454096156136 0.17246477978159735
0.1328618609493197 0.15932465845190788
0.12352454096156136 0.15932465845190788
0.12352454096156136 0.15932465845190788
0.0955125809982863 0.080483930473771
0.10484990098604464 0.11990429446283944
0.08617526101052794 0.05420368781439203
0.06750062103501124 0.080483930473771
0.048825981059494525 0.04106356648470256
0.048825981059494525 0.05420368781439203
0.06750062103501124 0.06734380914408152
0.07683794102276958 0.09362405180346048
0.08617526101052794 0.10676417313314995
0.07683794102276958 0.13304441579252893
0.0955125809982863 0.11990429446283944
0.10484990098604464 0.15932465845190788
0.07683794102276958 0.10676417313314995
0.048825981059494525 0.06734380914408152
0.05816330104725288 0.080483930473771
0.07683794102276958 0.05420368781439203
0.048825981059494525 0.027923445155013073
0.048825981059494525 0.014783323825323593
0.07683794102276958 0.05420368781439203
0.08617526101052794 0.04106356648470256
0.114187220973803 0.10676417313314995
0.1328618609493197 0.11990429446283944
0.12352454096156136 0.05420368781439203
0.16087382091259478 0.04106356648470256
0.1328618609493197 0.014783323825323593
0.0955125809982863 -0.03777716149343433
0.08617526101052794 -0.011496918834055368
0.048825981059494525 -0.03777716149343433
0.048825981059494525 -0.03777716149343433
0.039488661071736174 -0.03777716149343433
0.048825981059494525 0.001643202495634113
0.048825981059494525 0.04106356648470256
0.07683794102276958 0.080483930473771
0.114187220973803 0.13304441579252893
0.0955125809982863 0.13304441579252893
0.0955125809982863 0.080483930473771
0.08617526101052794 0.09362405180346048
0.06750062103501124 0.027923445155013073
0.05816330104725288 0.027923445155013073
0.030151341083977823 0.027923445155013073
0.048825981059494525 -0.011496918834055368
0.039488661071736174 0.014783323825323593
0.05816330104725288 0.001643202495634113
0.039488661071736174 0.05420368781439203
0.048825981059494525 0.05420368781439203
0.039488661071736174 0.080483930473771
0.07683794102276958 0.027923445155013073
0.05816330104725288 0.06734380914408152
0.030151341083977823 0.014783323825323593
0.030151341083977823 0.001643202495634113
0.002139381120702761 0.027923445155013073
-0.007197938867055592 0.001643202495634113
-0.007197938867055592 -0.03777716149343433
-0.035209898830330655 -0.011496918834055368
-0.016535258854813946 0.05420368781439203
0.002139381120702761 0.027923445155013073
0.011476701108461114 0.080483930473771
0.02081402109621947 0.11990429446283944
0.030151341083977823 0.09362405180346048
0.030151341083977823 0.10676417313314995
-0.007197938867055592 0.027923445155013073
-0.0258725788425723 0.04106356648470256
-0.044547218818089006 0.014783323825323593
-0.07255917878136407 -0.011496918834055368
-0.10057113874463913 -0.011496918834055368
-0.08189649876912242 0.001643202495634113
-0.10057113874463913 -0.011496918834055368
-0.035209898830330655 0.05420368781439203
-0.044547218818089006 0.06734380914408152
-0.035209898830330655 0.10676417313314995
-0.0258725788425723 0.10676417313314995
-0.035209898830330655 0.05420368781439203
-0.0258725788425723 0.014783323825323593
-0.06322185879360571 0.014783323825323593
-0.09123381875688077 -0.011496918834055368
-0.12858309870791418 -0.02463704016374485
-0.13792041869567254 -0.07719752548250278
-0.12858309870791418 -0.011496918834055368
-0.12858309870791418 0.014783323825323593
-0.13792041869567254 0.04106356648470256
-0.13792041869567254 0.09362405180346048
-0.08189649876912242 0.09362405180346048
-0.08189649876912242 0.080483930473771
-0.09123381875688077 0.06734380914408152
-0.10057113874463913 0.06734380914408152
-0.12858309870791418 0.04106356648470256
-0.11924577872015583 -0.011496918834055368
-0.13792041869567254 -0.011496918834055368
-0.13792041869567254 0.001643202495634113
-0.11924577872015583 0.014783323825323593
-0.11924577872015583 0.001643202495634113
-0.08189649876912242 0.027923445155013073
-0.09123381875688077 0.09362405180346048
-0.08189649876912242 0.080483930473771
-0.07255917878136407 0.05420368781439203
-0.08189649876912242 0.027923445155013073
-0.10990845873239748 0.04106356648470256
-0.12858309870791418 -0.011496918834055368
-0.10990845873239748 -0.02463704016374485
-0.13792041869567254 -0.07719752548250278
-0.15659505867118925 -0.03777716149343433
-0.13792041869567254 -0.011496918834055368
-0.12858309870791418 0.027923445155013073
-0.12858309870791418 0.06734380914408152
-0.12858309870791418 0.080483930473771
-0.10057113874463913 0.11990429446283944
-0.10990845873239748 0.06734380914408152
-0.11924577872015583 0.06734380914408152
-0.13792041869567254 0.04106356648470256
-0.1472577386834309 0.001643202495634113
-0.1472577386834309 0.001643202495634113
-0.15659505867118925 -0.011496918834055368
-0.15659505867118925 -0.011496918834055368
-0.1659323786589476 -0.011496918834055368
-0.13792041869567254 -0.05091728282312381
-0.13792041869567254 0.04106356648470256
-0.10990845873239748 0.06734380914408152
-0.09123381875688077 0.04106356648470256
-0.06322185879360571 0.04106356648470256
-0.10057113874463913 0.05420368781439203
-0.10990845873239748 0.014783323825323593
-0.11924577872015583 0.027923445155013073
-0.11924577872015583 0.001643202495634113
-0.07255917878136407 0.014783323825323593
-0.10990845873239748 0.014783323825323593
-0.05388453880584736 0.080483930473771
-0.007197938867055592 0.13304441579252893
0.048825981059494525 0.11990429446283944
0.114187220973803 0.15932465845190788
0.15153650092483642 0.19874502244097633
0.17021114090035314 0.2644456290894237
0.17021114090035314 0.25130550775973426
0.20756042085138654 0.2907258717488027
0.20756042085138654 0.23816538643004476
0.22623506082690326 0.2118851437706658
0.272921660765695 0.22502526510035528
0.29159630074121173 0.23816538643004476
0.3289455806922451 0.25130550775973426
0.44099342054534535 0.2775857504191132
0.48768002048413717 0.2775857504191132
0.5997278603372374 0.2907258717488027
0.590390540349479 0.2907258717488027
0.5437039404106873 0.2118851437706658
0.5063546604596538 0.10676417313314995
0.4970173404718955 0.10676417313314995
0.4783427004963788 0.014783323825323593
0.4970173404718955 -0.011496918834055368
0.48768002048413717 0.001643202495634113
0.46900538050862045 -0.09033764681219225
0.403644140594312 -0.09033764681219225
0.3569575406555202 -0.02463704016374485
0.29159630074121173 -0.02463704016374485
0.2168977408391449 -0.05091728282312381
0.08617526101052794 0.014783323825323593
0.011476701108461114 -0.011496918834055368
-0.06322185879360571 -0.06405740415281329
-0.13792041869567254 -0.05091728282312381
-0.1659323786589476 -0.03777716149343433
-0.22195629858549773 -0.09033764681219225
-0.20328165860998101 -0.10347776814188174
-0.19394433862222266 -0.11661788947157121
-0.19394433862222266 -0.11661788947157121
-0.1846070186344643 -0.14289813213095018
-0.20328165860998101 -0.15603825346063965
-0.19394433862222266 -0.07719752548250278
-0.19394433862222266 -0.03777716149343433
-0.1846070186344643 -0.07719752548250278
-0.20328165860998101 -0.05091728282312381
-0.19394433862222266 -0.05091728282312381
-0.22195629858549773 -0.07719752548250278
-0.22195629858549773 -0.14289813213095018
-0.22195629858549773 -0.14289813213095018
-0.24063093856101442 -0.15603825346063965
-0.22195629858549773 -0.14289813213095018
-0.20328165860998101 -0.11661788947157121
-0.1846070186344643 -0.09033764681219225
-0.20328165860998101 -0.11661788947157121
-0.13792041869567254 -0.06405740415281329
-0.1659323786589476 -0.09033764681219225
-0.1659323786589476 -0.14289813213095018
-0.15659505867118925 -0.11661788947157121
-0.19394433862222266 -0.14289813213095018
-0.24996825854877278 -0.18231849612001863
-0.29665485848756457 -0.1954586174497081
-0.35267877841411466 -0.15603825346063965
-0.35267877841411466 -0.09033764681219225
-0.2873175384998062 0.10676417313314995
-0.07255917878136407 0.25130550775973426
0.22623506082690326 0.4221270850456975
0.6464144602760291 0.5535282983425923
1.1786416995782554 0.5535282983425923
1.8509287386968567 0.3301462357378711
2.551227737778733 0.080483930473771
3.2141774569095762 -0.41884068005442926
3.7183927362485276 -0.9444455332420085
4.017186975856795 -1.5488911144077246
4.10122285574662 -2.1796169382328197
4.017186975856795 -2.6395211847719517
3.7930912961505943 -2.9286038540251202
3.279538696823885 -3.007444582003257
2.551227737778733 -3.007444582003257
1.6268330589906563 -2.8629032473766727
0.6931010602148209 -2.718361912750088
-0.035209898830330655 -2.4949798501453673
-0.3993653783529064 -2.271597787540646
-0.3993653783529064 -2.0350756036062356
-0.19394433862222266 -1.745992934353067
0.05816330104725288 -1.4963306290889666
0.23557238081466159 -1.286088687813935
0.26358434077793663 -1.0364263825498348
0.2542470207901783 -0.8261844412748032
0.16087382091259478 -0.602802378670082
0.05816330104725288 -0.4057005587247398
-0.0258725788425723 -0.18231849612001863
-0.09123381875688077 -0.14289813213095018
-0.12858309870791418 -0.05091728282312381
-0.15659505867118925 -0.011496918834055368
-0.1846070186344643 -0.05091728282312381
-0.1659323786589476 -0.06405740415281329
-0.1659323786589476 -0.02463704016374485
-0.19394433862222266 -0.03777716149343433
-0.19394433862222266 0.001643202495634113
-0.19394433862222266 0.06734380914408152
-0.19394433862222266 0.080483930473771
-0.1659323786589476 0.13304441579252893
-0.1659323786589476 0.1461845371222184
-0.1846070186344643 0.15932465845190788
-0.1659323786589476 0.13304441579252893
-0.19394433862222266 0.13304441579252893
-0.22195629858549773 0.10676417313314995
-0.22195629858549773 0.06734380914408152
-0.25930557853653113 0.080483930473771
-0.2873175384998062 0.080483930473771
-0.27798021851204785 0.10676417313314995
-0.2312936185732561 0.17246477978159735
-0.22195629858549773 0.18560490111128686
-0.24063093856101442 0.25130550775973426
-0.21261897859773937 0.25130550775973426
-0.24063093856101442 0.2775857504191132
-0.2312936185732561 0.23816538643004476
-0.3059921784753229 0.2118851437706658
-0.26864289852428946 0.18560490111128686
-0.26864289852428946 0.15932465845190788
-0.25930557853653113 0.17246477978159735
-0.25930557853653113 0.11990429446283944
-0.24063093856101442 0.13304441579252893
-0.24063093856101442 0.15932465845190788
-0.22195629858549773 0.2118851437706658
-0.17526969864670597 0.2644456290894237
-0.1659323786589476 0.2644456290894237
-0.1659323786589476 0.23816538643004476
-0.20328165860998101 0.18560490111128686
-0.1659323786589476 0.2118851437706658
-0.17526969864670597 0.19874502244097633
-0.20328165860998101 0.17246477978159735
-0.19394433862222266 0.19874502244097633
-0.20328165860998101 0.18560490111128686
-0.19394433862222266 0.2118851437706658
-0.17526969864670597 0.25130550775973426
-0.1659323786589476 0.31700611440818166
-0.1472577386834309 0.30386599307849216
-0.13792041869567254 0.31700611440818166
-0.11924577872015583 0.3432863570675606
-0.09123381875688077 0.3301462357378711
-0.10990845873239748 0.2644456290894237
-0.10057113874463913 0.2907258717488027
-0.10057113874463913 0.23816538643004476
-0.09123381875688077 0.2644456290894237
-0.06322185879360571 0.22502526510035528
-0.07255917878136407 0.22502526510035528
-0.05388453880584736 0.2907258717488027
0.02081402109621947 0.30386599307849216
0.048825981059494525 0.3301462357378711
0.06750062103501124 0.3301462357378711
0.06750062103501124 0.3301462357378711
0.0955125809982863 0.3564264783972501
0.0955125809982863 0.3301462357378711
0.08617526101052794 0.3564264783972501
0.12352454096156136 0.31700611440818166
0.15153650092483642 0.3301462357378711
0.17021114090035314 0.31700611440818166
0.17954846088811147 0.3301462357378711
0.22623506082690326 0.3432863570675606
0.272921660765695 0.36956659972693956
0.3196082607044868 0.43526720637538696
0.36629486064327854 0.408986963716008
0.38496950061879526 0.4221270850456975
0.45033074053310373 0.4221270850456975
0.45966806052086207 0.408986963716008
0.48768002048413717 0.36956659972693956
0.5063546604596538 0.3301462357378711
0.48768002048413717 0.3301462357378711
0.5156919804474122 0.30386599307849216
0.5343666204229289 0.31700611440818166
0.5530412603984456 0.3432863570675606
0.5997278603372374 0.38270672105662906
0.6370771402882708 0.39584684238631856
0.721113020178096 0.408986963716008
0.7397876601536126 0.43526720637538696
0.7491249801413711 0.44840732770507646
0.7397876601536126 0.4221270850456975
0.7677996201168877 0.3564264783972501
0.7677996201168877 0.39584684238631856
0.7958115800801628 0.3564264783972501
0.7958115800801628 0.3301462357378711
0.7958115800801628 0.3301462357378711
0.7958115800801628 0.30386599307849216
0.8518355000067129 0.31700611440818166
0.8424981800189546 0.3301462357378711
0.8051489000679212 0.3301462357378711
0.8144862200556795 0.3301462357378711
0.7864742600924044 0.31700611440818166
0.721113020178096 0.2775857504191132
0.6931010602148209 0.25130550775973426
0.6277398203005125 0.18560490111128686
0.5623785803862039 0.17246477978159735
0.5156919804474122 0.13304441579252893
0.431656100557587 0.13304441579252893
0.403644140594312 0.1461845371222184
0.3569575406555202 0.17246477978159735
0.3196082607044868 0.18560490111128686
0.31027094071672845 0.2118851437706658
0.28225898075345335 0.23816538643004476
0.23557238081466159 0.2118851437706658
0.18888578087586982 0.2118851437706658
0.12352454096156136 0.15932465845190788
0.08617526101052794 0.10676417313314995
0.06750062103501124 0.13304441579252893
0.039488661071736174 0.05420368781439203
0.02081402109621947 0.080483930473771
0.02081402109621947 0.10676417313314995
-0.007197938867055592 0.1461845371222184
0.002139381120702761 0.15932465845190788
-0.007197938867055592 0.18560490111128686
0.002139381120702761 0.1461845371222184
-0.035209898830330655 0.1461845371222184
-0.05388453880584736 0.09362405180346048
-0.06322185879360571 0.09362405180346048
-0.09123381875688077 0.04106356648470256
-0.09123381875688077 0.027923445155013073
-0.09123381875688077 -0.011496918834055368
-0.09123381875688077 0.04106356648470256
-0.09123381875688077 0.04106356648470256
-0.08189649876912242 0.09362405180346048
-0.06322185879360571 0.06734380914408152
-0.0258725788425723 0.15932465845190788
-0.035209898830330655 0.15932465845190788
-0.05388453880584736 0.13304441579252893
-0.044547218818089006 0.11990429446283944
-0.06322185879360571 0.11990429446283944
-0.06322185879360571 0.080483930473771
-0.07255917878136407 0.04106356648470256
-0.05388453880584736 0.04106356648470256
-0.05388453880584736 0.05420368781439203
-0.07255917878136407 0.04106356648470256
-0.044547218818089006 0.080483930473771
-0.044547218818089006 0.080483930473771
0.002139381120702761 0.13304441579252893
0.002139381120702761 0.10676417313314995
0.02081402109621947 0.09362405180346048
0.002139381120702761 0.05420368781439203
-0.044547218818089006 0.04106356648470256
-0.035209898830330655 0.027923445155013073
-0.035209898830330655 -0.011496918834055368
-0.044547218818089006 -0.02463704016374485
-0.08189649876912242 0.027923445155013073
-0.06322185879360571 0.027923445155013073
-0.007197938867055592 0.09362405180346048
0.02081402109621947 0.09362405180346048
0.02081402109621947 0.11990429446283944
0.039488661071736174 0.11990429446283944
0.039488661071736174 0.10676417313314995
0.030151341083977823 0.080483930473771
-0.007197938867055592 0.080483930473771
-0.007197938867055592 0.04106356648470256
-0.016535258854813946 -0.03777716149343433
-0.016535258854813946 -0.03777716149343433
-0.007197938867055592 -0.05091728282312381
-0.016535258854813946 -0.06405740415281329
-0.007197938867055592 0.027923445155013073
0.011476701108461114 0.014783323825323593
0.011476701108461114 0.027923445155013073
0.02081402109621947 0.001643202495634113
0.030151341083977823 -0.011496918834055368
0.011476701108461114 -0.03777716149343433
0.002139381120702761 -0.03777716149343433
-0.035209898830330655 -0.07719752548250278
-0.016535258854813946 -0.03777716149343433
-0.0258725788425723 -0.07719752548250278
-0.05388453880584736 -0.03777716149343433
-0.044547218818089006 -0.03777716149343433
-0.035209898830330655 0.04106356648470256
-0.044547218818089006 0.04106356648470256
-0.035209898830330655 0.05420368781439203
-0.016535258854813946 0.080483930473771
-0.016535258854813946 0.04106356648470256
-0.007197938867055592 0.027923445155013073
-0.044547218818089006 0.06734380914408152
-0.10990845873239748 -0.02463704016374485
-0.06322185879360571 -0.02463704016374485
-0.08189649876912242 -0.03777716149343433
-0.08189649876912242 -0.03777716149343433
-0.10057113874463913 -0.03777716149343433
-0.07255917878136407 0.027923445155013073
-0.044547218818089006 0.05420368781439203
-0.044547218818089006 0.04106356648470256
-0.0258725788425723 0.027923445155013073
-0.044547218818089006 0.001643202495634113
-0.05388453880584736 0.027923445155013073
-0.10057113874463913 -0.011496918834055368
-0.09123381875688077 -0.02463704016374485
-0.10057113874463913 -0.07719752548250278
-0.11924577872015583 -0.03777716149343433
-0.10990845873239748 -0.03777716149343433
-0.12858309870791418 -0.011496918834055368
-0.10990845873239748 0.05420368781439203
-0.09123381875688077 0.027923445155013073
-0.08189649876912242 0.05420368781439203
-0.05388453880584736 0.06734380914408152
-0.07255917878136407 0.06734380914408152
-0.044547218818089006 0.05420368781439203
-0.08189649876912242 0.001643202495634113
-0.09123381875688077 0.027923445155013073
-0.09123381875688077 -0.02463704016374485
-0.10990845873239748 -0.05091728282312381
-0.09123381875688077 -0.02463704016374485
-0.08189649876912242 0.001643202495634113
-0.09123381875688077 0.027923445155013073
-0.07255917878136407 0.001643202495634113
-0.06322185879360571 0.04106356648470256
-0.08189649876912242 0.04106356648470256
-0.05388453880584736 0.014783323825323593
-0.06322185879360571 -0.02463704016374485
-0.10990845873239748 -0.02463704016374485
-0.10057113874463913 -0.06405740415281329
-0.10990845873239748 -0.03777716149343433
-0.09123381875688077 -0.02463704016374485
-0.08189649876912242 -0.05091728282312381
-0.10057113874463913 0.001643202495634113
-0.06322185879360571 0.001643202495634113
-0.044547218818089006 0.080483930473771
-0.044547218818089006 0.10676417313314995
-0.06322185879360571 0.080483930473771
-0.035209898830330655 0.04106356648470256
-0.044547218818089006 0.05420368781439203
-0.035209898830330655 0.014783323825323593
-0.09123381875688077 -0.011496918834055368
-0.06322185879360571 -0.011496918834055368
-0.07255917878136407 -0.02463704016374485
-0.044547218818089006 -0.02463704016374485
-0.016535258854813946 0.014783323825323593
0.030151341083977823 0.014783323825323593
0.07683794102276958 0.04106356648470256
0.12352454096156136 0.080483930473771
0.18888578087586982 0.080483930473771
0.22623506082690326 0.09362405180346048
0.23557238081466159 0.1461845371222184
0.23557238081466159 0.13304441579252893
0.23557238081466159 0.18560490111128686
0.2542470207901783 0.17246477978159735
0.30093362072897006 0.18560490111128686
0.3476202206677618 0.22502526510035528
0.431656100557587 0.30386599307849216
0.5250293004351706 0.25130550775973426
0.6184025003127541 0.2907258717488027
0.6557517802637876 0.23816538643004476
0.6744264202393042 0.19874502244097633
0.6277398203005125 0.05420368781439203
0.6277398203005125 0.014783323825323593
0.5997278603372374 -0.05091728282312381
0.5623785803862039 -0.11661788947157121
0.5530412603984456 -0.16917837479032913
0.5250293004351706 -0.14289813213095018
0.4783427004963788 -0.16917837479032913
0.3943068206065536 -0.16917837479032913
0.3289455806922451 -0.15603825346063965
0.23557238081466159 -0.15603825346063965
0.14219918093707806 -0.11661788947157121
0.08617526101052794 -0.09033764681219225
-0.007197938867055592 -0.10347776814188174
-0.05388453880584736 -0.07719752548250278
-0.11924577872015583 -0.09033764681219225
-0.11924577872015583 -0.16917837479032913
-0.12858309870791418 -0.11661788947157121
-0.12858309870791418 -0.14289813213095018
-0.1472577386834309 -0.10347776814188174
-0.15659505867118925 -0.15603825346063965
-0.1472577386834309 -0.10347776814188174
-0.11924577872015583 -0.07719752548250278
-0.10990845873239748 -0.05091728282312381
-0.09123381875688077 -0.05091728282312381
-0.13792041869567254 -0.07719752548250278
-0.10057113874463913 -0.10347776814188174
-0.1472577386834309 -0.11661788947157121
-0.13792041869567254 -0.14289813213095018
-0.17526969864670597 -0.14289813213095018
-0.1659323786589476 -0.14289813213095018
-0.1659323786589476 -0.14289813213095018
-0.17526969864670597 -0.14289813213095018
-0.11924577872015583 -0.11661788947157121
-0.11924577872015583 -0.10347776814188174
-0.13792041869567254 -0.07719752548250278
-0.10990845873239748 -0.11661788947157121
-0.09123381875688077 -0.09033764681219225
-0.10057113874463913 -0.10347776814188174
-0.09123381875688077 -0.11661788947157121
-0.13792041869567254 -0.11661788947157121
-0.13792041869567254 -0.14289813213095018
-0.13792041869567254 -0.16917837479032913
-0.15659505867118925 -0.14289813213095018
-0.19394433862222266 -0.07719752548250278
-0.22195629858549773 -0.11661788947157121
-0.22195629858549773 -0.02463704016374485
-0.22195629858549773 0.014783323825323593
-0.19394433862222266 0.10676417313314995
-0.06322185879360571 0.2118851437706658
0.16087382091259478 0.3432863570675606
0.4783427004963788 0.36956659972693956
0.8705101399822296 0.43526720637538696
1.4214120192599724 0.3564264783972501
2.0563497784275406 0.25130550775973426
2.7099621775706253 0.014783323825323593
3.3262252967626766 -0.3399999520762924
3.8304405761016276 -0.7999041986154242
4.082548215771103 -1.2992288091436246
4.175921415648687 -1.8511139049905827
4.119897495722137 -2.2453175448812672
3.9051391360036947 -2.547540335464125
3.466285096579052 -2.6658014274313304
2.7659860974971755 -2.6658014274313304
1.8415914187090985 -2.560680456793815
0.8611728199944713 -2.4424193648266095
0.039488661071736174 -2.2453175448812672
-0.4460519782916982 -2.0744959675953036
-0.5394251781692817 -1.8379737836608931
-0.25930557853653113 -1.588311478396793
0.05816330104725288 -1.3912096584514508
0.29159630074121173 -1.1546874745170401
0.3943068206065536 -0.9707257759013874
0.3943068206065536 -0.8524646839341822
0.272921660765695 -0.6816431066482189
0.114187220973803 -0.5633820146810136
0.002139381120702761 -0.4057005587247398
-0.09123381875688077 -0.35314007340598186
-0.10990845873239748 -0.2611592240981555
-0.1472577386834309 -0.16917837479032913
-0.10990845873239748 -0.1297580108012607
-0.09123381875688077 -0.07719752548250278
-0.08189649876912242 -0.07719752548250278
-0.07255917878136407 -0.03777716149343433
-0.09123381875688077 0.001643202495634113
-0.08189649876912242 0.027923445155013073
-0.11924577872015583 0.04106356648470256
-0.12858309870791418 0.014783323825323593
-0.15659505867118925 0.06734380914408152
-0.19394433862222266 0.014783323825323593
-0.17526969864670597 0.027923445155013073
-0.1659323786589476 0.04106356648470256
-0.17526969864670597 0.11990429446283944
-0.1659323786589476 0.13304441579252893
-0.11924577872015583 0.15932465845190788
-0.11924577872015583 0.17246477978159735
-0.11924577872015583 0.13304441579252893
-0.1472577386834309 0.13304441579252893
-0.15659505867118925 0.1461845371222184
-0.1846070186344643 0.09362405180346048
-0.20328165860998101 0.06734380914408152
-0.20328165860998101 0.05420368781439203
-0.22195629858549773 0.06734380914408152
-0.20328165860998101 0.04106356648470256
-0.19394433862222266 0.080483930473771
-0.17526969864670597 0.10676417313314995
-0.12858309870791418 0.1461845371222184
-0.12858309870791418 0.11990429446283944
-0.10057113874463913 0.13304441579252893
-0.15659505867118925 0.13304441579252893
-0.12858309870791418 0.1461845371222184
-0.1472577386834309 0.1461845371222184
-0.17526969864670597 0.11990429446283944
-0.20328165860998101 0.10676417313314995
-0.19394433862222266 0.09362405180346048
-0.19394433862222266 0.10676417313314995
-0.17526969864670597 0.10676417313314995
-0.13792041869567254 0.1461845371222184
-0.11924577872015583 0.18560490111128686
-0.10057113874463913 0.22502526510035528
-0.10990845873239748 0.18560490111128686
-0.10990845873239748 0.18560490111128686
-0.10057113874463913 0.1461845371222184
-0.11924577872015583 0.13304441579252893
-0.11924577872015583 0.11990429446283944
-0.10990845873239748 0.05420368781439203
-0.10990845873239748 0.05420368781439203
-0.1472577386834309 0.080483930473771
-0.11924577872015583 0.080483930473771
-0.10057113874463913 0.10676417313314995
-0.08189649876912242 0.1461845371222184
-0.0258725788425723 0.15932465845190788
-0.044547218818089006 0.18560490111128686
-0.0258725788425723 0.1461845371222184
-0.016535258854813946 0.15932465845190788
-0.016535258854813946 0.15932465845190788
-0.0258725788425723 0.13304441579252893
-0.016535258854813946 0.11990429446283944
-0.007197938867055592 0.1461845371222184
0.002139381120702761 0.11990429446283944
0.05816330104725288 0.13304441579252893
0.06750062103501124 0.17246477978159735
0.114187220973803 0.2118851437706658
0.17021114090035314 0.18560490111128686
0.20756042085138654 0.22502526510035528
0.23557238081466159 0.18560490111128686
0.22623506082690326 0.18560490111128686
0.24490970080241994 0.15932465845190788
0.2542470207901783 0.13304441579252893
0.28225898075345335 0.09362405180346048
0.30093362072897006 0.06734380914408152
0.3382829006800035 0.11990429446283944
0.37563218063103687 0.10676417313314995
0.4129814605820703 0.13304441579252893
0.4783427004963788 0.2118851437706658
0.5156919804474122 0.2118851437706658
0.5717159003739624 0.2118851437706658
0.5717159003739624 0.22502526510035528
0.590390540349479 0.2118851437706658
0.5997278603372374 0.19874502244097633
0.6090651803249957 0.15932465845190788
0.6184025003127541 0.18560490111128686
0.6370771402882708 0.15932465845190788
0.6464144602760291 0.13304441579252893
0.6931010602148209 0.17246477978159735
0.721113020178096 0.18560490111128686
0.7117757001903376 0.17246477978159735
0.7958115800801628 0.2118851437706658
0.8424981800189546 0.19874502244097633
0.8238235400434378 0.1461845371222184
0.8238235400434378 0.1461845371222184
0.8144862200556795 0.13304441579252893
0.8238235400434378 0.06734380914408152
0.8238235400434378 0.027923445155013073
0.8518355000067129 0.027923445155013073
0.8238235400434378 0.05420368781439203
0.8518355000067129 0.05420368781439203
0.8611728199944713 0.05420368781439203
0.8705101399822296 0.080483930473771
0.8518355000067129 0.11990429446283944
0.8424981800189546 0.11990429446283944
0.8144862200556795 0.10676417313314995
0.7864742600924044 0.15932465845190788
0.7304503401658543 0.080483930473771
0.6744264202393042 0.11990429446283944
0.6184025003127541 0.09362405180346048
0.5717159003739624 0.05420368781439203
0.4970173404718955 0.06734380914408152
0.44099342054534535 0.05420368781439203
0.403644140594312 0.11990429446283944
0.37563218063103687 0.1461845371222184
0.3569575406555202 0.15932465845190788
0.31027094071672845 0.17246477978159735
0.26358434077793663 0.17246477978159735
0.2168977408391449 0.13304441579252893
0.17954846088811147 0.11990429446283944
0.114187220973803 0.080483930473771
0.048825981059494525 0.04106356648470256
0.039488661071736174 0.04106356648470256
-0.0258725788425723 0.06734380914408152
-0.05388453880584736 0.04106356648470256
-0.035209898830330655 0.10676417313314995
-0.016535258854813946 0.10676417313314995
-0.035209898830330655 0.15932465845190788
-0.016535258854813946 0.15932465845190788
0.002139381120702761 0.17246477978159735
-0.044547218818089006 0.1461845371222184
-0.07255917878136407 0.13304441579252893
-0.06322185879360571 0.10676417313314995
-0.08189649876912242 0.04106356648470256
-0.09123381875688077 0.001643202495634113
-0.10057113874463913 0.014783323825323593
-0.1472577386834309 0.014783323825323593
-0.12858309870791418 0.080483930473771
-0.08189649876912242 0.11990429446283944
-0.06322185879360571 0.1461845371222184
-0.044547218818089006 0.11990429446283944
-0.05388453880584736 0.09362405180346048
-0.08189649876912242 0.11990429446283944
-0.06322185879360571 0.06734380914408152
-0.08189649876912242 0.080483930473771
-0.07255917878136407 0.080483930473771
-0.05388453880584736 0.014783323825323593
-0.10057113874463913 0.080483930473771
-0.08189649876912242 0.080483930473771
-0.044547218818089006 0.10676417313314995
-0.06322185879360571 0.15932465845190788
-0.0258725788425723 0.18560490111128686
-0.007197938867055592 0.17246477978159735
0.002139381120702761 0.11990429446283944
0.002139381120702761 0.13304441579252893
0.002139381120702761 0.13304441579252893
0.002139381120702761 0.09362405180346048
-0.016535258854813946 0.05420368781439203
0.002139381120702761 0.014783323825323593
-0.007197938867055592 0.05420368781439203
-0.0258725788425723 0.04106356648470256
0.002139381120702761 0.06734380914408152
0.011476701108461114 0.10676417313314995
0.039488661071736174 0.1461845371222184
0.07683794102276958 0.13304441579252893
0.06750062103501124 0.09362405180346048
0.039488661071736174 0.06734380914408152
0.030151341083977823 0.05420368781439203
0.030151341083977823 0.014783323825323593
0.011476701108461114 -0.02463704016374485
-0.016535258854813946 0.014783323825323593
-0.035209898830330655 -0.011496918834055368
-0.0258725788425723 0.05420368781439203
-0.016535258854813946 0.05420368781439203
0.011476701108461114 0.11990429446283944
0.039488661071736174 0.1461845371222184
0.039488661071736174 0.15932465845190788
0.030151341083977823 0.11990429446283944
-0.007197938867055592 0.11990429446283944
0.011476701108461114 0.09362405180346048
-0.0258725788425723 0.04106356648470256
-0.016535258854813946 0.014783323825323593
-0.035209898830330655 0.014783323825323593
-0.05388453880584736 0.04106356648470256
-0.035209898830330655 0.027923445155013073
-0.016535258854813946 0.05420368781439203
-0.007197938867055592 0.06734380914408152
0.002139381120702761 0.09362405180346048
0.030151341083977823 0.09362405180346048
-0.007197938867055592 0.09362405180346048
0.011476701108461114 0.09362405180346048
-0.035209898830330655 0.05420368781439203
-0.09123381875688077 0.06734380914408152
-0.044547218818089006 0.05420368781439203
-0.06322185879360571 0.001643202495634113
-0.08189649876912242 0.014783323825323593
-0.05388453880584736 0.09362405180346048
-0.10990845873239748 0.080483930473771
-0.09123381875688077 0.11990429446283944
-0.08189649876912242 0.13304441579252893
-0.044547218818089006 0.1461845371222184
-0.016535258854813946 0.13304441579252893
-0.035209898830330655 0.13304441579252893
-0.044547218818089006 0.080483930473771
-0.05388453880584736 0.027923445155013073
-0.09123381875688077 -0.011496918834055368
-0.10057113874463913 -0.06405740415281329
-0.1472577386834309 0.001643202495634113
-0.08189649876912242 0.001643202495634113
-0.08189649876912242 0.001643202495634113
-0.08189649876912242 -0.03777716149343433
-0.06322185879360571 0.001643202495634113
-0.016535258854813946 0.080483930473771
-0.016535258854813946 0.04106356648470256
-0.07255917878136407 0.014783323825323593
-0.06322185879360571 0.027923445155013073
-0.06322185879360571 -0.011496918834055368
-0.09123381875688077 0.027923445155013073
-0.09123381875688077 0.001643202495634113
-0.07255917878136407 0.014783323825323593
-0.08189649876912242 0.014783323825323593
-0.05388453880584736 0.05420368781439203
-0.06322185879360571 0.06734380914408152
-0.035209898830330655 0.06734380914408152
-0.035209898830330655 0.05420368781439203
-0.05388453880584736 0.05420368781439203
-0.06322185879360571 0.027923445155013073
-0.08189649876912242 0.001643202495634113
-0.07255917878136407 -0.011496918834055368
-0.10057113874463913 -0.05091728282312381
-0.11924577872015583 -0.03777716149343433
-0.09123381875688077 -0.011496918834055368
-0.10057113874463913 0.014783323825323593
-0.08189649876912242 0.05420368781439203
-0.007197938867055592 0.09362405180346048
0.039488661071736174 0.06734380914408152
0.08617526101052794 0.11990429446283944
0.0955125809982863 0.17246477978159735
0.12352454096156136 0.19874502244097633
0.15153650092483642 0.17246477978159735
0.14219918093707806 0.19874502244097633
0.16087382091259478 0.17246477978159735
0.19822310086362818 0.19874502244097633
0.19822310086362818 0.19874502244097633
0.2542470207901783 0.2644456290894237
0.272921660765695 0.31700611440818166
0.3476202206677618 0.30386599307849216
0.4223187805698287 0.3301462357378711
0.5343666204229289 0.3301462357378711
0.5717159003739624 0.2775857504191132
0.590390540349479 0.2775857504191132
0.5810532203617207 0.18560490111128686
0.5156919804474122 0.10676417313314995
0.4783427004963788 0.027923445155013073
0.45966806052086207 -0.06405740415281329
0.45966806052086207 -0.07719752548250278
0.4783427004963788 -0.07719752548250278
0.5063546604596538 -0.03777716149343433
0.46900538050862045 -0.03777716149343433
0.4129814605820703 -0.03777716149343433
0.38496950061879526 0.001643202495634113
0.28225898075345335 -0.011496918834055368
0.12352454096156136 0.001643202495634113
0.039488661071736174 -0.011496918834055368
-0.07255917878136407 -0.05091728282312381
-0.10057113874463913 -0.06405740415281329
-0.17526969864670597 -0.09033764681219225
-0.1846070186344643 -0.06405740415281329
-0.17526969864670597 -0.05091728282312381
-0.17526969864670597 -0.05091728282312381
-0.13792041869567254 -0.05091728282312381
-0.10990845873239748 -0.03777716149343433
-0.11924577872015583 -0.02463704016374485
-0.13792041869567254 -0.06405740415281329
-0.13792041869567254 -0.06405740415281329
-0.1472577386834309 -0.10347776814188174
-0.17526969864670597 -0.14289813213095018
-0.19394433862222266 -0.16917837479032913
-0.20328165860998101 -0.16917837479032913
-0.22195629858549773 -0.14289813213095018
-0.19394433862222266 -0.18231849612001863
-0.21261897859773937 -0.09033764681219225
-0.1659323786589476 -0.05091728282312381
-0.17526969864670597 -0.02463704016374485
-0.1472577386834309 -0.011496918834055368
-0.13792041869567254 0.001643202495634113
-0.13792041869567254 -0.02463704016374485
-0.1472577386834309 -0.02463704016374485
-0.1659323786589476 -0.06405740415281329
-0.15659505867118925 -0.11661788947157121
-0.1659323786589476 -0.15603825346063965
-0.1846070186344643 -0.14289813213095018
-0.20328165860998101 -0.14289813213095018
-0.1846070186344643 -0.07719752548250278
-0.1659323786589476 -0.05091728282312381
-0.21261897859773937 -0.011496918834055368
-0.24063093856101442 0.014783323825323593
-0.25930557853653113 0.06734380914408152
-0.21261897859773937 0.17246477978159735
-0.07255917878136407 0.25130550775973426
0.23557238081466159 0.44840732770507646
0.6184025003127541 0.4878276916941449
1.169304379590497 0.46154744903476597
1.8696033786723734 0.31700611440818166
2.6912875375951084 0.05420368781439203
3.41959849664026 -0.43198080138411876
3.942488415954728 -1.0232862612201454
4.222608015587478 -1.6802923277046193
4.287969255501787 -2.2453175448812672
4.0451989358200695 -2.718361912750088
3.5129716965178437 -2.9680242180141887
2.6165889776930418 -3.033724824662636
1.514785219137556 -2.9680242180141887
0.4783427004963788 -2.7709223980688464
-0.20328165860998101 -2.6001008207828833
-0.4740639382549733 -2.2453175448812672
-0.4087026983406648 -1.9036743903093407
-0.13792041869567254 -1.5751713570671035
0.1328618609493197 -1.286088687813935
0.30093362072897006 -1.0758467465389032
0.3476202206677618 -0.7999041986154242
0.29159630074121173 -0.602802378670082
0.1328618609493197 -0.5108215293622557
-0.007197938867055592 -0.36628019473567136
-0.13792041869567254 -0.2611592240981555
-0.17526969864670597 -0.15603825346063965
-0.21261897859773937 -0.1297580108012607
-0.1659323786589476 -0.07719752548250278
-0.17526969864670597 -0.06405740415281329
-0.1659323786589476 0.04106356648470256
-0.15659505867118925 0.09362405180346048
-0.1472577386834309 0.1461845371222184
-0.1472577386834309 0.18560490111128686
-0.15659505867118925 0.1461845371222184
-0.15659505867118925 0.18560490111128686
-0.1659323786589476 0.09362405180346048
-0.20328165860998101 0.1461845371222184
-0.20328165860998101 0.1461845371222184
-0.2312936185732561 0.11990429446283944
-0.20328165860998101 0.19874502244097633
-0.22195629858549773 0.18560490111128686
-0.19394433862222266 0.2118851437706658
-0.1846070186344643 0.19874502244097633
-0.17526969864670597 0.2118851437706658
-0.15659505867118925 0.23816538643004476
-0.1659323786589476 0.22502526510035528
-0.1846070186344643 0.19874502244097633
-0.1659323786589476 0.1461845371222184
-0.17526969864670597 0.18560490111128686
-0.20328165860998101 0.13304441579252893
-0.22195629858549773 0.15932465845190788
-0.19394433862222266 0.18560490111128686
-0.21261897859773937 0.2118851437706658
-0.1659323786589476 0.23816538643004476
-0.15659505867118925 0.25130550775973426
-0.12858309870791418 0.2907258717488027
-0.12858309870791418 0.2644456290894237
-0.13792041869567254 0.25130550775973426
-0.13792041869567254 0.23816538643004476
-0.15659505867118925 0.2118851437706658
-0.17526969864670597 0.25130550775973426
-0.1659323786589476 0.22502526510035528
-0.19394433862222266 0.19874502244097633
-0.15659505867118925 0.19874502244097633
-0.1472577386834309 0.19874502244097633
-0.1472577386834309 0.22502526510035528
-0.12858309870791418 0.2118851437706658
-0.12858309870791418 0.25130550775973426
-0.10990845873239748 0.2644456290894237
-0.10057113874463913 0.2907258717488027
-0.10990845873239748 0.25130550775973426
-0.05388453880584736 0.2644456290894237
-0.09123381875688077 0.23816538643004476
-0.07255917878136407 0.23816538643004476
-0.07255917878136407 0.23816538643004476
-0.09123381875688077 0.2644456290894237
-0.06322185879360571 0.2775857504191132
-0.05388453880584736 0.30386599307849216
-0.0258725788425723 0.2644456290894237
0.02081402109621947 0.3564264783972501
0.02081402109621947 0.3564264783972501
0.06750062103501124 0.3301462357378711
0.08617526101052794 0.3432863570675606
0.05816330104725288 0.2907258717488027
0.05816330104725288 0.3301462357378711
0.048825981059494525 0.2907258717488027
0.08617526101052794 0.23816538643004476
0.08617526101052794 0.2907258717488027
0.114187220973803 0.2907258717488027
0.14219918093707806 0.3301462357378711
0.17954846088811147 0.3432863570675606
0.2168977408391449 0.3432863570675606
0.28225898075345335 0.38270672105662906
0.29159630074121173 0.4221270850456975
0.3476202206677618 0.36956659972693956
0.3382829006800035 0.39584684238631856
0.3196082607044868 0.36956659972693956
0.3476202206677618 0.408986963716008
0.37563218063103687 0.408986963716008
0.4129814605820703 0.39584684238631856
0.44099342054534535 0.408986963716008
0.5156919804474122 0.44840732770507646
0.5717159003739624 0.4878276916941449
0.6370771402882708 0.5272480556832133
0.6650891002515459 0.5272480556832133
0.7117757001903376 0.4878276916941449
0.7304503401658543 0.5009678130238344
0.7491249801413711 0.4746875703644554
0.7397876601536126 0.38270672105662906
0.7584623001291294 0.408986963716008
0.7771369401046461 0.38270672105662906
0.8238235400434378 0.36956659972693956
0.8424981800189546 0.408986963716008
0.8518355000067129 0.44840732770507646
0.8705101399822296 0.39584684238631856
0.907859419933263 0.4221270850456975
0.9358713798965381 0.46154744903476597
0.9918952998230882 0.46154744903476597
1.0012326198108465 0.4221270850456975
0.9452086998842965 0.43526720637538696
0.9732206598475716 0.39584684238631856
0.9452086998842965 0.38270672105662906
0.9545460198720548 0.31700611440818166
0.907859419933263 0.30386599307849216
0.8891847799577464 0.30386599307849216
0.879847459969988 0.30386599307849216
0.8238235400434378 0.30386599307849216
0.7771369401046461 0.3564264783972501
0.7584623001291294 0.31700611440818166
0.6744264202393042 0.30386599307849216
0.5997278603372374 0.2775857504191132
0.5623785803862039 0.2775857504191132
0.5156919804474122 0.2118851437706658
0.45966806052086207 0.2118851437706658
0.37563218063103687 0.2118851437706658
0.3569575406555202 0.17246477978159735
0.31027094071672845 0.1461845371222184
0.272921660765695 0.18560490111128686
0.26358434077793663 0.18560490111128686
0.22623506082690326 0.25130550775973426
0.2168977408391449 0.23816538643004476
0.18888578087586982 0.2118851437706658
0.17021114090035314 0.23816538643004476
0.14219918093707806 0.15932465845190788
0.08617526101052794 0.17246477978159735
0.030151341083977823 0.11990429446283944
-0.016535258854813946 0.09362405180346048
0.002139381120702761 0.11990429446283944
0.011476701108461114 0.10676417313314995
-0.007197938867055592 0.1461845371222184
0.039488661071736174 0.13304441579252893
0.02081402109621947 0.15932465845190788
0.048825981059494525 0.17246477978159735
0.011476701108461114 0.18560490111128686
0.002139381120702761 0.11990429446283944
-0.007197938867055592 0.080483930473771
-0.016535258854813946 0.06734380914408152
-0.05388453880584736 0.05420368781439203
-0.044547218818089006 0.014783323825323593
-0.06322185879360571 0.027923445155013073
-0.035209898830330655 0.04106356648470256
-0.044547218818089006 0.11990429446283944
-0.0258725788425723 0.11990429446283944
0.002139381120702761 0.17246477978159735
0.011476701108461114 0.17246477978159735
0.030151341083977823 0.1461845371222184
0.030151341083977823 0.17246477978159735
-0.0258725788425723 0.1461845371222184
-0.016535258854813946 0.13304441579252893
-0.016535258854813946 0.11990429446283944
-0.0258725788425723 0.06734380914408152
-0.016535258854813946 0.04106356648470256
-0.0258725788425723 0.080483930473771
0.002139381120702761 0.10676417313314995
0.048825981059494525 0.11990429446283944
0.048825981059494525 0.15932465845190788
0.039488661071736174 0.17246477978159735
0.06750062103501124 0.13304441579252893
0.07683794102276958 0.1461845371222184
0.08617526101052794 0.080483930473771
0.05816330104725288 0.09362405180346048
0.039488661071736174 0.06734380914408152
0.02081402109621947 0.027923445155013073
0.002139381120702761 0.014783323825323593
0.048825981059494525 0.027923445155013073
0.039488661071736174 0.080483930473771
0.07683794102276958 0.11990429446283944
0.08617526101052794 0.1461845371222184
0.10484990098604464 0.17246477978159735
0.12352454096156136 0.15932465845190788
0.14219918093707806 0.10676417313314995
0.10484990098604464 0.10676417313314995
0.08617526101052794 0.027923445155013073
0.07683794102276958 0.05420368781439203
0.07683794102276958 0.027923445155013073
0.06750062103501124 -0.011496918834055368
0.06750062103501124 0.04106356648470256
0.07683794102276958 0.04106356648470256
0.05816330104725288 0.06734380914408152
0.07683794102276958 0.09362405180346048
0.114187220973803 0.080483930473771
0.114187220973803 0.09362405180346048
0.10484990098604464 0.05420368781439203
0.08617526101052794 0.014783323825323593
0.048825981059494525 0.027923445155013073
0.05816330104725288 0.001643202495634113
0.039488661071736174 0.001643202495634113
0.02081402109621947 0.001643202495634113
0.011476701108461114 0.05420368781439203
0.02081402109621947 0.05420368781439203
0.05816330104725288 0.09362405180346048
0.05816330104725288 0.11990429446283944
0.08617526101052794 0.15932465845190788
0.048825981059494525 0.09362405180346048
0.02081402109621947 0.05420368781439203
0.05816330104725288 0.04106356648470256
0.039488661071736174 0.014783323825323593
-0.007197938867055592 0.014783323825323593
-0.044547218818089006 0.001643202495634113
-0.08189649876912242 0.027923445155013073
-0.016535258854813946 0.014783323825323593
0.002139381120702761 -0.011496918834055368
0.02081402109621947 0.06734380914408152
0.02081402109621947 0.080483930473771
0.039488661071736174 0.06734380914408152
0.048825981059494525 0.05420368781439203
0.011476701108461114 0.04106356648470256
0.039488661071736174 0.027923445155013073
0.011476701108461114 0.027923445155013073
-0.007197938867055592 0.014783323825323593
-0.035209898830330655 -0.011496918834055368
-0.044547218818089006 0.001643202495634113
-0.035209898830330655 0.027923445155013073
0.011476701108461114 0.04106356648470256
0.030151341083977823 0.04106356648470256
0.011476701108461114 0.080483930473771
0.039488661071736174 0.10676417313314995
0.039488661071736174 0.080483930473771
0.011476701108461114 0.05420368781439203
0.011476701108461114 0.04106356648470256
-0.007197938867055592 0.001643202495634113
-0.007197938867055592 0.001643202495634113
-0.044547218818089006 -0.011496918834055368
-0.044547218818089006 -0.03777716149343433
-0.016535258854813946 -0.05091728282312381
0.002139381120702761 -0.011496918834055368
0.011476701108461114 0.014783323825323593
0.002139381120702761 0.04106356648470256
0.02081402109621947 0.014783323825323593
0.02081402109621947 0.014783323825323593
0.02081402109621947 0.027923445155013073
-0.007197938867055592 -0.011496918834055368
0.02081402109621947 -0.05091728282312381
0.002139381120702761 -0.02463704016374485
-0.007197938867055592 -0.02463704016374485
-0.0258725788425723 -0.02463704016374485
-0.035209898830330655 -0.02463704016374485
0.011476701108461114 0.04106356648470256
-0.007197938867055592 0.04106356648470256
0.030151341083977823 0.080483930473771
0.05816330104725288 0.080483930473771
0.048825981059494525 0.05420368781439203
0.05816330104725288 0.001643202495634113
0.06750062103501124 0.04106356648470256
0.10484990098604464 0.001643202495634113
0.10484990098604464 -0.011496918834055368
0.14219918093707806 -0.011496918834055368
0.17954846088811147 0.04106356648470256
0.2168977408391449 0.05420368781439203
0.26358434077793663 0.10676417313314995
0.28225898075345335 0.11990429446283944
0.31027094071672845 0.2118851437706658
0.3569575406555202 0.23816538643004476
0.3943068206065536 0.25130550775973426
0.4223187805698287 0.2775857504191132
0.48768002048413717 0.2644456290894237
0.5343666204229289 0.2775857504191132
0.6277398203005125 0.23816538643004476
0.6557517802637876 0.22502526510035528
0.6557517802637876 0.17246477978159735
0.6650891002515459 0.13304441579252893
0.6370771402882708 0.080483930473771
0.590390540349479 0.06734380914408152
0.6184025003127541 0.04106356648470256
0.6184025003127541 -0.011496918834055368
0.6184025003127541 0.001643202495634113
0.6090651803249957 -0.03777716149343433
0.5530412603984456 -0.07719752548250278
0.45966806052086207 -0.09033764681219225
0.36629486064327854 -0.16917837479032913
0.23557238081466159 -0.20859873877939758
0.14219918093707806 -0.1954586174497081
0.039488661071736174 -0.1954586174497081
-0.007197938867055592 -0.15603825346063965
-0.044547218818089006 -0.09033764681219225
-0.035209898830330655 -0.02463704016374485
-0.016535258854813946 -0.011496918834055368
-0.007197938867055592 -0.011496918834055368
-0.007197938867055592 -0.07719752548250278
-0.044547218818089006 -0.10347776814188174
-0.05388453880584736 -0.11661788947157121
-0.07255917878136407 -0.20859873877939758
-0.08189649876912242 -0.20859873877939758
-0.11924577872015583 -0.18231849612001863
-0.10990845873239748 -0.20859873877939758
-0.11924577872015583 -0.16917837479032913
-0.10057113874463913 -0.14289813213095018
-0.07255917878136407 -0.10347776814188174
-0.06322185879360571 -0.10347776814188174
-0.05388453880584736 -0.14289813213095018
-0.06322185879360571 -0.11661788947157121
-0.08189649876912242 -0.16917837479032913
-0.10990845873239748 -0.1954586174497081
-0.09123381875688077 -0.20859873877939758
-0.08189649876912242 -0.20859873877939758
-0.09123381875688077 -0.1954586174497081
-0.12858309870791418 -0.16917837479032913
-0.09123381875688077 -0.18231849612001863
-0.08189649876912242 -0.11661788947157121
-0.044547218818089006 -0.05091728282312381
-0.05388453880584736 -0.06405740415281329
-0.08189649876912242 -0.05091728282312381
-0.13792041869567254 -0.07719752548250278
-0.1846070186344643 -0.03777716149343433
-0.2312936185732561 0.014783323825323593
-0.1472577386834309 0.09362405180346048
0.02081402109621947 0.2644456290894237
0.3382829006800035 0.408986963716008
0.7864742600924044 0.4878276916941449
1.356050779345664 0.46154744903476597
2.093699058378574 0.2118851437706658
2.859359297374759 -0.1297580108012607
3.522309016505602 -0.602802378670082
3.998512335881278 -1.312368930473314
4.213270695599721 -1.969374996957788
4.213270695599721 -2.573820578123504
3.9051391360036947 -3.086285309981394
3.3542372567259515 -3.2833871299267363
2.5325530978032167 -3.2965272512564257
1.514785219137556 -3.1257056739704625
0.5343666204229289 -2.8497631260469833
-0.11924577872015583 -2.5344002141344357
-0.33400413843859794 -2.1664768169031303
-0.22195629858549773 -1.8379737836608931
0.002139381120702761 -1.5620312357374142
0.23557238081466159 -1.2729485664842455
0.37563218063103687 -1.0232862612201454
0.3943068206065536 -0.8524646839341822
0.29159630074121173 -0.7079233493075978
0.19822310086362818 -0.5239616506919451
0.030151341083977823 -0.3794203160653608
-0.06322185879360571 -0.274299345427845
-0.10057113874463913 -0.20859873877939758
-0.11924577872015583 -0.14289813213095018
-0.09123381875688077 -0.10347776814188174
-0.09123381875688077 -0.03777716149343433
-0.035209898830330655 -0.03777716149343433
-0.06322185879360571 0.001643202495634113
-0.07255917878136407 -0.011496918834055368
-0.10990845873239748 -0.02463704016374485
-0.10990845873239748 0.04106356648470256
-0.1659323786589476 -0.011496918834055368
-0.17526969864670597 -0.011496918834055368
-0.17526969864670597 0.06734380914408152
-0.15659505867118925 0.05420368781439203
-0.13792041869567254 0.10676417313314995
-0.12858309870791418 0.11990429446283944
-0.10990845873239748 0.15932465845190788
-0.10057113874463913 0.13304441579252893
-0.09123381875688077 0.11990429446283944
-0.10990845873239748 0.10676417313314995
-0.10990845873239748 0.11990429446283944
-0.12858309870791418 0.06734380914408152
-0.1472577386834309 0.09362405180346048
-0.1659323786589476 0.05420368781439203
-0.15659505867118925 0.04106356648470256
-0.1472577386834309 0.027923445155013073
-0.1472577386834309 0.06734380914408152
-0.10057113874463913 0.09362405180346048
-0.10057113874463913 0.11990429446283944
-0.08189649876912242 0.15932465845190788
-0.08189649876912242 0.13304441579252893
-0.07255917878136407 0.1461845371222184
-0.09123381875688077 0.13304441579252893
-0.08189649876912242 0.13304441579252893
-0.12858309870791418 0.10676417313314995
-0.10990845873239748 0.11990429446283944
-0.10990845873239748 0.11990429446283944
-0.10990845873239748 0.10676417313314995
-0.08189649876912242 0.15932465845190788
-0.05388453880584736 0.2118851437706658
-0.044547218818089006 0.17246477978159735
-0.035209898830330655 0.22502526510035528
-0.035209898830330655 0.23816538643004476
-0.007197938867055592 0.22502526510035528
-0.0258725788425723 0.17246477978159735
-0.06322185879360571 0.18560490111128686
-0.044547218818089006 0.19874502244097633
-0.035209898830330655 0.13304441579252893
-0.016535258854813946 0.10676417313314995
0.02081402109621947 0.18560490111128686
0.030151341083977823 0.18560490111128686
0.05816330104725288 0.22502526510035528
0.07683794102276958 0.2644456290894237
0.10484990098604464 0.2775857504191132
0.114187220973803 0.2644456290894237
0.14219918093707806 0.31700611440818166
0.15153650092483642 0.2907258717488027
0.14219918093707806 0.2644456290894237
0.14219918093707806 0.23816538643004476
0.17021114090035314 0.2644456290894237
0.17954846088811147 0.23816538643004476
0.2168977408391449 0.2775857504191132
0.2542470207901783 0.2907258717488027
0.30093362072897006 0.31700611440818166
0.3476202206677618 0.3301462357378711
0.37563218063103687 0.38270672105662906
0.38496950061879526 0.36956659972693956
0.45966806052086207 0.3432863570675606
0.45033074053310373 0.36956659972693956
0.45033074053310373 0.31700611440818166
0.45966806052086207 0.30386599307849216
0.5156919804474122 0.30386599307849216
0.5343666204229289 0.30386599307849216
0.5810532203617207 0.25130550775973426
0.6370771402882708 0.3432863570675606
0.6650891002515459 0.38270672105662906
0.721113020178096 0.36956659972693956
0.7584623001291294 0.39584684238631856
0.8051489000679212 0.46154744903476597
0.7771369401046461 0.43526720637538696
0.8518355000067129 0.408986963716008
0.8518355000067129 0.36956659972693956
0.8705101399822296 0.3564264783972501
0.879847459969988 0.31700611440818166
0.907859419933263 0.3301462357378711
0.9452086998842965 0.3432863570675606
0.9452086998842965 0.3564264783972501
0.9918952998230882 0.31700611440818166
1.010569939798605 0.3301462357378711
1.0292445797741216 0.36956659972693956
1.0199072597863632 0.31700611440818166
1.03858189976188 0.2907258717488027
1.0479192197496383 0.2907258717488027
1.0012326198108465 0.23816538643004476
0.9825579798353299 0.15932465845190788
0.9265340599087798 0.15932465845190788
0.8985220999455047 0.1461845371222184
0.879847459969988 0.17246477978159735
0.8331608600311963 0.19874502244097633
0.7864742600924044 0.25130550775973426
0.7584623001291294 0.25130550775973426
0.6931010602148209 0.25130550775973426
0.6464144602760291 0.25130550775973426
0.5997278603372374 0.2118851437706658
0.5437039404106873 0.22502526510035528
0.4783427004963788 0.18560490111128686
0.4129814605820703 0.13304441579252893
0.36629486064327854 0.10676417313314995
0.31027094071672845 0.04106356648470256
0.28225898075345335 0.10676417313314995
0.28225898075345335 0.06734380914408152
0.272921660765695 0.080483930473771
0.23557238081466159 0.13304441579252893
0.22623506082690326 0.1461845371222184
0.23557238081466159 0.09362405180346048
0.18888578087586982 0.05420368781439203
0.17954846088811147 -0.02463704016374485
0.12352454096156136 -0.02463704016374485
0.07683794102276958 -0.06405740415281329
0.05816330104725288 -0.07719752548250278
0.048825981059494525 -0.09033764681219225
0.048825981059494525 -0.07719752548250278
0.05816330104725288 -0.011496918834055368
0.10484990098604464 0.05420368781439203
0.08617526101052794 0.014783323825323593
0.10484990098604464 0.09362405180346048
0.08617526101052794 0.06734380914408152
0.08617526101052794 -0.011496918834055368
0.0955125809982863 0.001643202495634113
0.07683794102276958 -0.02463704016374485
0.05816330104725288 -0.09033764681219225
0.06750062103501124 -0.07719752548250278
0.02081402109621947 -0.09033764681219225
0.039488661071736174 -0.09033764681219225
0.05816330104725288 -0.06405740415281329
0.06750062103501124 -0.05091728282312381
0.08617526101052794 0.001643202495634113
0.114187220973803 -0.011496918834055368
0.12352454096156136 0.001643202495634113
0.14219918093707806 0.014783323825323593
0.12352454096156136 -0.06405740415281329
0.114187220973803 -0.03777716149343433
0.114187220973803 -0.10347776814188174
0.08617526101052794 -0.05091728282312381
0.0955125809982863 -0.05091728282312381
0.08617526101052794 -0.011496918834055368
0.0955125809982863 0.080483930473771
0.1328618609493197 0.13304441579252893
0.12352454096156136 0.19874502244097633
0.15153650092483642 0.25130550775973426
0.17954846088811147 0.3432863570675606
0.24490970080241994 0.3564264783972501
0.3569575406555202 0.43526720637538696
0.5063546604596538 0.4878276916941449
0.7677996201168877 0.5403881770129029
1.010569939798605 0.5798085410019713
1.2813522194435971 0.43526720637538696
1.6081584190151395 0.17246477978159735
1.934964618586682 -0.18231849612001863
2.299120098109258 -0.576522136010703
2.6632755776318335 -0.9444455332420085
3.074117657093201 -1.3386491731326928
3.447610456603535 -1.7065725703639985
3.8304405761016276 -2.1796169382328197
4.2319453355752366 -2.6658014274313304
4.586763495110055 -3.1914062806189096
4.876220414730564 -3.7564314977955573
5.137665374387797 -4.2426159869940685
5.343086414118481 -4.741940597522269
5.483146213934856 -5.031023266775437
5.585856733800198 -5.1887047227317105
5.660555293702265 -5.293825693369227
5.6979045736532985 -5.333246057358295
5.660555293702265 -5.320105936028606
5.57651941381244 -5.320105936028606
5.492483533922615 -5.254405329380158
5.352423734106239 -5.201844844061401
5.165677334351072 -5.1887047227317105
5.053629494497972 -5.123004116083264
4.932244334657113 -4.9521825387973
4.89489505470608 -4.728800476192579
4.922907014669355 -4.413437564280032
4.969593614608147 -4.150635137686242
4.941581654644872 -3.9272530750815204
4.876220414730564 -3.717011133806489
4.754835254889705 -3.467348828542389
4.530739575183504 -3.2702470085970465
4.278631935514029 -3.0731451886517043
3.9891750158935197 -2.902323611365741
3.681043456297494 -2.6658014274313304
3.3262252967626766 -2.4424193648266095
2.906045897313551 -2.2584576662109566
2.3551440180358076 -2.0350756036062356
1.6828569789172063 -1.7722731770124458
0.9825579798353299 -1.5488911144077246
0.36629486064327854 -1.2466683238248666
-0.0258725788425723 -0.9444455332420085
-0.2312936185732561 -0.6159424999997715
-0.27798021851204785 -0.30057958808722396
-0.26864289852428946 -0.09033764681219225
-0.24996825854877278 0.10676417313314995
-0.24996825854877278 0.2118851437706658
-0.3153294984630813 0.22502526510035528
-0.43671465830393985 0.22502526510035528
-0.5394251781692817 0.25130550775973426
-0.6047864180835902 0.2907258717488027
-0.6608103380101403 0.3432863570675606
-0.7168342579366904 0.44840732770507646
-0.7261715779244488 0.5141079343535239
-0.7541835378877239 0.5666684196722818
-0.7635208578754822 0.5929486623316608
-0.8195447778020324 0.5798085410019713
-0.8568940577530657 0.5798085410019713
-0.8942433377040991 0.6323690263207292
-0.9502672576306493 0.6192289049910397
-0.9782792175939243 0.6192289049910397
-0.968941897606166 0.6323690263207292
-0.9969538575694411 0.7112097542988661
-1.0156284975449577 0.7506301182879345
-1.0156284975449577 0.7900504822770029
-1.0156284975449577 0.8426109675957609
-1.024965817532716 0.8951714529145188
-1.0343031375204745 0.8951714529145188
-1.0529777774959912 0.8688912102551398
-1.1370136573858163 0.8688912102551398
-1.1650256173490914 0.8688912102551398
-1.1650256173490914 0.8820313315848294
-1.2117122172878831 0.8820313315848294
-1.2210495372756416 0.9345918169035873
-1.258398817226675 0.9345918169035873
-1.2677361372144333 1.0002924235520347
-1.2957480971777084 0.9871523022223452
-1.3050854171654667 1.144833758178619
-1.3050854171654667 1.2105343648270663
-1.3050854171654667 1.223674486156756
-1.3050854171654667 1.2105343648270663
-1.3237600571409833 1.2762349714755137
-1.3424346971165002 1.3156553354645821
-1.3611093370920169 1.3682158207833401
-1.3797839770675335 1.4207763061020982
-1.417133257018567 1.4996170340802348
-1.417133257018567 1.5653176407286824
-1.4544825369696004 1.6835787326958878
-1.445145216981842 1.7624194606740244
-1.4544825369696004 1.828120067322472
-1.4918318169206337 1.9332410379599878
-1.4824944969328755 1.9595212806193667
-1.4544825369696004 2.038362008597504
-1.4358078969940837 2.038362008597504
-1.4358078969940837 2.025221887267814
-1.4638198569573588 2.0120817659381247
-1.5198437768839088 1.9332410379599878
-1.575867696810459 1.9595212806193667
-1.659903576700284 1.9989416446084352
-1.7065901766390759 2.0120817659381247
-1.762614096565626 2.038362008597504
-1.7906260565289012 2.104062615245951
-1.7999633765166594 2.156623100564709
-1.837312656467693 2.2223237072131563
-1.9120112163697598 2.2354638285428456
-2.0333963762106184 2.3143045565209825
-2.154781536051477 2.301164435191293
-2.2855040158800937 2.3405847991803617
-2.416226495708711 2.366865041839741
-2.546948975537328 2.3931452844991195
-2.602972895463878 2.4194255271584986
-2.6589968153904278 2.537686619125704
-2.733695375292495 2.5902471044444617
-2.7617073352557697 2.62966746843353
-2.7523700152680113 2.7479285604007355
-2.771044655243528 2.6822279537522884
-2.789719295219045 2.64280758976322
-2.789719295219045 2.6033872257741515
-2.8083939351945615 2.537686619125704
-2.81773125518232 2.485126133806946
-2.81773125518232 2.4719860124772564
-2.7803819752312866 2.38000516316943
-2.733695375292495 2.3143045565209825
-2.6589968153904278 2.2617440712022248
-2.5656236155128442 2.2486039498725354
-2.4909250556107776 2.182903343224088
-2.4535757756597443 2.104062615245951
-2.369539895769919 2.051502129927193
-2.2761666958923357 1.906960795300609
-2.1734561760269937 1.828120067322472
-2.108094936112685 1.696718854025577
-2.052071016186135 1.5915978833880613
-1.9306858563452765 1.525897276739614
-1.7999633765166594 1.3813559421130297
-1.6692408966880425 1.2893750928052032
-1.5571930568349424 1.2499547288161348
-1.4544825369696004 1.1579738795083083
-1.370446657079775 1.0265726662114136
-1.2210495372756416 0.9740121808926557
-1.1183390174102996 0.8951714529145188
-1.0529777774959912 0.737489996958245
-0.9782792175939243 0.6455091476504187
-0.8942433377040991 0.5535282983425923
-0.8288820977897907 0.46154744903476597
-0.782195497850999 0.3564264783972501
-0.7261715779244488 0.2775857504191132
-0.7074969379489321 0.25130550775973426
-0.6608103380101403 0.19874502244097633
-0.6141237380713486 0.23816538643004476
-0.5861117781080735 0.22502526510035528
-0.520750538193765 0.23816538643004476
-0.5114132182060067 0.18560490111128686
-0.4834012582427316 0.17246477978159735
-0.49273857823049 0.13304441579252893
-0.520750538193765 0.09362405180346048
-0.5300878581815234 0.11990429446283944
-0.520750538193765 0.080483930473771
-0.5580998181447985 0.09362405180346048
-0.5114132182060067 0.06734380914408152
-0.5300878581815234 0.10676417313314995
-0.520750538193765 0.11990429446283944
-0.49273857823049 0.11990429446283944
-0.4834012582427316 0.11990429446283944
-0.4647266182672149 0.13304441579252893
-0.4647266182672149 0.10676417313314995
-0.4740639382549733 0.10676417313314995
-0.4834012582427316 0.04106356648470256
-0.45538929827945657 0.080483930473771
-0.45538929827945657 0.027923445155013073
-0.4834012582427316 0.04106356648470256
-0.45538929827945657 0.014783323825323593
-0.4740639382549733 0.09362405180346048
-0.43671465830393985 0.10676417313314995
-0.3993653783529064 0.11990429446283944
-0.4087026983406648 0.15932465845190788
-0.3806907383773897 0.19874502244097633
-0.3806907383773897 0.13304441579252893
-0.3713534183896314 0.17246477978159735
-0.3900280583651481 0.13304441579252893
-0.3713534183896314 0.11990429446283944
-0.3993653783529064 0.080483930473771
-0.41804001832842314 0.06734380914408152
-0.3806907383773897 0.080483930473771
-0.35267877841411466 0.09362405180346048
-0.3713534183896314 0.13304441579252893
-0.3433414584263563 0.17246477978159735
-0.3246668184508396 0.15932465845190788
-0.33400413843859794 0.18560490111128686
-0.3433414584263563 0.11990429446283944
-0.35267877841411466 0.09362405180346048
-0.35267877841411466 0.09362405180346048
-0.35267877841411466 0.04106356648470256
-0.35267877841411466 0.05420368781439203
-0.3713534183896314 0.027923445155013073
-0.36201609840187304 0.027923445155013073
-0.36201609840187304 0.05420368781439203
-0.3433414584263563 0.1461845371222184
-0.3246668184508396 0.11990429446283944
-0.27798021851204785 0.1461845371222184
-0.2873175384998062 0.1461845371222184
-0.3059921784753229 0.1461845371222184
-0.3246668184508396 0.11990429446283944
-0.3246668184508396 0.080483930473771
-0.3153294984630813 0.04106356648470256
-0.35267877841411466 0.06734380914408152
-0.33400413843859794 0.05420368781439203
-0.3246668184508396 0.04106356648470256
-0.3059921784753229 0.05420368781439203
-0.2873175384998062 0.06734380914408152
-0.27798021851204785 0.10676417313314995
-0.29665485848756457 0.06734380914408152
-0.2873175384998062 0.11990429446283944
-0.2873175384998062 0.05420368781439203
-0.27798021851204785 0.080483930473771
-0.3153294984630813 0.027923445155013073
-0.3059921784753229 0.014783323825323593
-0.3246668184508396 0.014783323825323593
-0.3713534183896314 -0.02463704016374485
-0.3059921784753229 0.04106356648470256
-0.3059921784753229 0.027923445155013073
-0.29665485848756457 0.080483930473771
-0.25930557853653113 0.080483930473771
-0.29665485848756457 0.11990429446283944
-0.3059921784753229 0.10676417313314995
-0.3059921784753229 0.09362405180346048
-0.26864289852428946 0.080483930473771
-0.27798021851204785 0.014783323825323593
-0.33400413843859794 -0.03777716149343433
-0.33400413843859794 0.04106356648470256
-0.29665485848756457 -0.11661788947157121
-0.3059921784753229 -0.03777716149343433
-0.3153294984630813 -0.02463704016374485
-0.29665485848756457 0.014783323825323593
-0.24063093856101442 -0.011496918834055368
-0.22195629858549773 0.04106356648470256
-0.20328165860998101 0.001643202495634113
-0.21261897859773937 0.001643202495634113
-0.26864289852428946 0.014783323825323593
-0.24996825854877278 -0.011496918834055368
-0.27798021851204785 -0.05091728282312381
-0.27798021851204785 -0.011496918834055368
-0.24996825854877278 -0.06405740415281329
-0.29665485848756457 -0.02463704016374485
-0.29665485848756457 0.014783323825323593
-0.26864289852428946 0.027923445155013073
-0.27798021851204785 0.014783323825323593
-0.2312936185732561 0.080483930473771
-0.21261897859773937 0.05420368781439203
-0.22195629858549773 0.027923445155013073
-0.22195629858549773 0.014783323825323593
-0.25930557853653113 -0.011496918834055368
-0.2312936185732561 -0.02463704016374485
-0.26864289852428946 -0.06405740415281329
-0.26864289852428946 -0.05091728282312381
-0.24063093856101442 -0.07719752548250278
-0.22195629858549773 -0.02463704016374485
-0.19394433862222266 -0.05091728282312381
-0.1846070186344643 0.001643202495634113
-0.19394433862222266 0.014783323825323593
-0.1846070186344643 -0.011496918834055368
-0.17526969864670597 -0.03777716149343433
-0.1846070186344643 0.001643202495634113
-0.2312936185732561 -0.03777716149343433
-0.20328165860998101 -0.03777716149343433
-0.24063093856101442 -0.09033764681219225
-0.24063093856101442 -0.05091728282312381
-0.24063093856101442 -0.05091728282312381
-0.19394433862222266 -0.02463704016374485
-0.20328165860998101 -0.011496918834055368
-0.1846070186344643 0.04106356648470256
-0.15659505867118925 0.014783323825323593
-0.13792041869567254 0.06734380914408152
-0.1659323786589476 0.014783323825323593
-0.1659323786589476 0.001643202495634113
-0.19394433862222266 -0.09033764681219225
-0.20328165860998101 -0.06405740415281329
-0.20328165860998101 -0.07719752548250278
-0.21261897859773937 -0.09033764681219225
-0.22195629858549773 -0.10347776814188174
-0.17526969864670597 -0.10347776814188174
-0.1659323786589476 -0.03777716149343433
-0.12858309870791418 -0.07719752548250278
-0.11924577872015583 -0.02463704016374485
-0.10990845873239748 -0.02463704016374485
-0.11924577872015583 -0.011496918834055368
-0.13792041869567254 -0.02463704016374485
-0.20328165860998101 -0.07719752548250278
-0.1846070186344643 -0.09033764681219225
-0.22195629858549773 -0.07719752548250278
-0.19394433862222266 -0.09033764681219225
-0.19394433862222266 -0.05091728282312381
-0.17526969864670597 -0.06405740415281329
-0.13792041869567254 -0.07719752548250278
-0.11924577872015583 -0.02463704016374485
-0.10990845873239748 0.001643202495634113
-0.10990845873239748 -0.03777716149343433
-0.13792041869567254 -0.05091728282312381
-0.17526969864670597 -0.05091728282312381
-0.1472577386834309 -0.05091728282312381
-0.1472577386834309 -0.10347776814188174
-0.1472577386834309 -0.10347776814188174
-0.15659505867118925 -0.1297580108012607
-0.1472577386834309 -0.1297580108012607
-0.1472577386834309 -0.09033764681219225
-0.15659505867118925 -0.06405740415281329
-0.12858309870791418 -0.02463704016374485
-0.11924577872015583 -0.02463704016374485
-0.11924577872015583 -0.02463704016374485
-0.11924577872015583 -0.02463704016374485
-0.11924577872015583 -0.03777716149343433
-0.1659323786589476 -0.05091728282312381
-0.15659505867118925 -0.07719752548250278
-0.1846070186344643 -0.09033764681219225
-0.1659323786589476 -0.10347776814188174
-0.17526969864670597 -0.1297580108012607
-0.1659323786589476 -0.07719752548250278
-0.13792041869567254 -0.02463704016374485
-0.10990845873239748 -0.02463704016374485
-0.09123381875688077 0.001643202495634113
-0.09123381875688077 0.027923445155013073
-0.11924577872015583 0.014783323825323593
-0.11924577872015583 -0.02463704016374485
-0.15659505867118925 -0.10347776814188174
-0.13792041869567254 -0.11661788947157121
-0.12858309870791418 -0.10347776814188174
-0.1472577386834309 -0.14289813213095018
-0.15659505867118925 -0.1297580108012607
-0.11924577872015583 -0.06405740415281329
-0.11924577872015583 -0.03777716149343433
-0.10057113874463913 -0.02463704016374485
-0.10057113874463913 0.014783323825323593
-0.10990845873239748 0.001643202495634113
-0.09123381875688077 0.001643202495634113
-0.12858309870791418 -0.03777716149343433
-0.13792041869567254 -0.05091728282312381
-0.12858309870791418 -0.05091728282312381
-0.13792041869567254 -0.06405740415281329
-0.11924577872015583 -0.10347776814188174
-0.10057113874463913 -0.07719752548250278
-0.09123381875688077 -0.07719752548250278
-0.10990845873239748 -0.05091728282312381
-0.09123381875688077 -0.011496918834055368
-0.06322185879360571 0.001643202495634113
-0.09123381875688077 0.001643202495634113
-0.05388453880584736 -0.06405740415281329
-0.07255917878136407 -0.03777716149343433
-0.10057113874463913 -0.07719752548250278
-0.09123381875688077 -0.10347776814188174
-0.09123381875688077 -0.1297580108012607
-0.10057113874463913 -0.15603825346063965
-0.10057113874463913 -0.09033764681219225
-0.10990845873239748 -0.09033764681219225
-0.09123381875688077 -0.06405740415281329
-0.10057113874463913 -0.011496918834055368
-0.10990845873239748 -0.011496918834055368
-0.08189649876912242 0.027923445155013073
-0.09123381875688077 0.027923445155013073
-0.08189649876912242 0.001643202495634113
-0.07255917878136407 -0.02463704016374485
-0.10057113874463913 -0.07719752548250278
-0.11924577872015583 -0.1297580108012607
-0.09123381875688077 -0.1297580108012607
-0.11924577872015583 -0.09033764681219225
-0.10990845873239748 -0.07719752548250278
-0.10057113874463913 -0.06405740415281329
-0.06322185879360571 -0.06405740415281329
-0.06322185879360571 0.001643202495634113
-0.044547218818089006 -0.03777716149343433
-0.07255917878136407 -0.03777716149343433
-0.07255917878136407 -0.03777716149343433
-0.08189649876912242 -0.07719752548250278
-0.08189649876912242 -0.09033764681219225
-0.09123381875688077 -0.10347776814188174
-0.08189649876912242 -0.11661788947157121
-0.09123381875688077 -0.09033764681219225
-0.09123381875688077 -0.05091728282312381
-0.09123381875688077 -0.03777716149343433
-0.08189649876912242 -0.011496918834055368
-0.06322185879360571 -0.011496918834055368
-0.05388453880584736 0.014783323825323593
-0.0258725788425723 0.001643202495634113
-0.044547218818089006 -0.03777716149343433
-0.06322185879360571 -0.05091728282312381
-0.08189649876912242 -0.11661788947157121
-0.10990845873239748 -0.10347776814188174
-0.13792041869567254 -0.15603825346063965
-0.13792041869567254 -0.11661788947157121
-0.11924577872015583 -0.10347776814188174
-0.09123381875688077 -0.06405740415281329
-0.044547218818089006 -0.02463704016374485
-0.07255917878136407 -0.06405740415281329
-0.06322185879360571 -0.02463704016374485
-0.05388453880584736 -0.03777716149343433
-0.044547218818089006 -0.03777716149343433
-0.08189649876912242 -0.06405740415281329
-0.07255917878136407 -0.10347776814188174
-0.06322185879360571 -0.11661788947157121
-0.08189649876912242 -0.10347776814188174
-0.08189649876912242 -0.06405740415281329
-0.08189649876912242 -0.07719752548250278
-0.07255917878136407 -0.03777716149343433
-0.05388453880584736 0.014783323825323593
-0.044547218818089006 0.027923445155013073
-0.06322185879360571 0.04106356648470256
-0.08189649876912242 0.027923445155013073
-0.05388453880584736 -0.05091728282312381
-0.07255917878136407 -0.07719752548250278
-0.07255917878136407 -0.07719752548250278
-0.08189649876912242 -0.06405740415281329
-0.10057113874463913 -0.09033764681219225
-0.10057113874463913 -0.09033764681219225
-0.07255917878136407 -0.05091728282312381
-0.06322185879360571 0.001643202495634113
-0.035209898830330655 -0.011496918834055368
-0.035209898830330655 0.001643202495634113
-0.007197938867055592 -0.02463704016374485
-0.035209898830330655 -0.03777716149343433
-0.05388453880584736 -0.02463704016374485
-0.05388453880584736 -0.03777716149343433
-0.07255917878136407 -0.10347776814188174
-0.06322185879360571 -0.07719752548250278
-0.06322185879360571 -0.07719752548250278
-0.05388453880584736 -0.02463704016374485
-0.035209898830330655 -0.02463704016374485
0.011476701108461114 -0.02463704016374485
0.030151341083977823 0.027923445155013073
0.05816330104725288 0.080483930473771
0.10484990098604464 0.06734380914408152
0.12352454096156136 0.10676417313314995
0.14219918093707806 0.05420368781439203
0.15153650092483642 0.10676417313314995
0.20756042085138654 0.09362405180346048
0.19822310086362818 0.10676417313314995
0.22623506082690326 0.10676417313314995
0.26358434077793663 0.13304441579252893
0.3196082607044868 0.13304441579252893
0.38496950061879526 0.17246477978159735
0.4783427004963788 0.19874502244097633
0.5437039404106873 0.25130550775973426
0.6370771402882708 0.25130550775973426
0.6744264202393042 0.19874502244097633
0.6464144602760291 0.13304441579252893
0.6370771402882708 0.09362405180346048
0.6184025003127541 0.027923445155013073
0.5717159003739624 -0.06405740415281329
0.5717159003739624 -0.06405740415281329
0.5717159003739624 -0.06405740415281329
0.5810532203617207 -0.09033764681219225
0.5623785803862039 -0.05091728282312381
0.4970173404718955 -0.06405740415281329
0.44099342054534535 -0.02463704016374485
0.36629486064327854 -0.02463704016374485
0.2542470207901783 -0.02463704016374485
0.14219918093707806 -0.07719752548250278
0.030151341083977823 -0.09033764681219225
-0.05388453880584736 -0.1297580108012607
-0.12858309870791418 -0.1297580108012607
-0.11924577872015583 -0.15603825346063965
-0.11924577872015583 -0.16917837479032913
-0.11924577872015583 -0.15603825346063965
-0.08189649876912242 -0.14289813213095018
-0.06322185879360571 -0.14289813213095018
-0.044547218818089006 -0.09033764681219225
-0.044547218818089006 -0.05091728282312381
-0.044547218818089006 -0.10347776814188174
-0.08189649876912242 -0.05091728282312381
-0.08189649876912242 -0.11661788947157121
-0.10057113874463913 -0.11661788947157121
-0.10057113874463913 -0.15603825346063965
-0.08189649876912242 -0.15603825346063965
-0.10057113874463913 -0.18231849612001863
-0.11924577872015583 -0.1297580108012607
-0.08189649876912242 -0.10347776814188174
-0.07255917878136407 -0.1297580108012607
-0.044547218818089006 -0.09033764681219225
-0.06322185879360571 -0.07719752548250278
-0.08189649876912242 -0.1297580108012607
-0.1472577386834309 -0.16917837479032913
-0.20328165860998101 -0.16917837479032913
-0.27798021851204785 -0.14289813213095018
-0.2873175384998062 -0.15603825346063965
-0.15659505867118925 -0.03777716149343433
0.039488661071736174 0.080483930473771
0.3569575406555202 0.25130550775973426
0.8518355000067129 0.3564264783972501
1.3653880993334224 0.39584684238631856
2.065687098415299 0.3432863570675606
2.775323417484934 0.18560490111128686
3.4289358166280186 -0.20859873877939758
3.923813775979211 -0.7079233493075978
4.194596055624204 -1.2729485664842455
4.26929461552627 -1.8511139049905827
4.110560175734379 -2.324158272859404
3.755742016199561 -2.6132409421125726
3.1394788970075096 -2.705221791420399
2.2430961781827077 -2.6395211847719517
1.2066536595415303 -2.455559486156299
0.3569575406555202 -2.297878030200025
-0.1472577386834309 -2.0744959675953036
-0.27798021851204785 -1.7854132983421354
-0.1472577386834309 -1.535750993078035
0.1328618609493197 -1.3517892944623824
0.3289455806922451 -1.2072479598357981
0.4129814605820703 -1.0495665038795243
0.36629486064327854 -0.8524646839341822
0.2542470207901783 -0.7079233493075978
0.10484990098604464 -0.576522136010703
-0.0258725788425723 -0.35314007340598186
-0.05388453880584736 -0.1954586174497081
-0.07255917878136407 -0.11661788947157121
-0.10057113874463913 -0.03777716149343433
-0.06322185879360571 0.001643202495634113
-0.08189649876912242 0.001643202495634113
-0.06322185879360571 0.04106356648470256
-0.09123381875688077 0.05420368781439203
-0.1472577386834309 0.027923445155013073
-0.1659323786589476 -0.02463704016374485
-0.17526969864670597 0.04106356648470256
-0.20328165860998101 0.06734380914408152
-0.1659323786589476 0.10676417313314995
-0.22195629858549773 0.10676417313314995
-0.1846070186344643 0.15932465845190788
-0.1659323786589476 0.17246477978159735
-0.19394433862222266 0.18560490111128686
-0.1846070186344643 0.15932465845190788
-0.1659323786589476 0.15932465845190788
-0.17526969864670597 0.10676417313314995
-0.17526969864670597 0.09362405180346048
-0.20328165860998101 0.04106356648470256
-0.21261897859773937 0.10676417313314995
-0.22195629858549773 0.09362405180346048
-0.20328165860998101 0.18560490111128686
-0.1846070186344643 0.18560490111128686
-0.1846070186344643 0.19874502244097633
-0.1846070186344643 0.25130550775973426
-0.1659323786589476 0.2775857504191132
-0.15659505867118925 0.2118851437706658
-0.1659323786589476 0.19874502244097633
-0.17526969864670597 0.18560490111128686
-0.19394433862222266 0.17246477978159735
-0.21261897859773937 0.15932465845190788
-0.22195629858549773 0.13304441579252893
-0.24063093856101442 0.13304441579252893
-0.22195629858549773 0.1461845371222184
-0.19394433862222266 0.2118851437706658
-0.1659323786589476 0.22502526510035528
-0.13792041869567254 0.23816538643004476
-0.13792041869567254 0.22502526510035528
-0.12858309870791418 0.22502526510035528
-0.1472577386834309 0.23816538643004476
-0.12858309870791418 0.15932465845190788
-0.1472577386834309 0.19874502244097633
-0.1472577386834309 0.15932465845190788
-0.1659323786589476 0.15932465845190788
-0.1472577386834309 0.22502526510035528
-0.11924577872015583 0.25130550775973426
-0.10990845873239748 0.2907258717488027
-0.08189649876912242 0.30386599307849216
-0.06322185879360571 0.3432863570675606
-0.035209898830330655 0.31700611440818166
-0.044547218818089006 0.31700611440818166
-0.035209898830330655 0.3301462357378711
-0.044547218818089006 0.25130550775973426
-0.06322185879360571 0.30386599307849216
-0.05388453880584736 0.2644456290894237
-0.05388453880584736 0.2775857504191132
-0.05388453880584736 0.25130550775973426
-0.016535258854813946 0.2907258717488027
-0.016535258854813946 0.2907258717488027
0.030151341083977823 0.36956659972693956
0.05816330104725288 0.3564264783972501
0.10484990098604464 0.36956659972693956
0.0955125809982863 0.39584684238631856
0.1328618609493197 0.38270672105662906
0.1328618609493197 0.3564264783972501
0.14219918093707806 0.36956659972693956
0.15153650092483642 0.36956659972693956
0.18888578087586982 0.43526720637538696
0.2168977408391449 0.4221270850456975
0.23557238081466159 0.4878276916941449
0.28225898075345335 0.5272480556832133
0.3289455806922451 0.5535282983425923
0.3476202206677618 0.5929486623316608
0.38496950061879526 0.5403881770129029
0.38496950061879526 0.5666684196722818
0.431656100557587 0.5009678130238344
0.44099342054534535 0.5141079343535239
0.46900538050862045 0.4746875703644554
0.48768002048413717 0.4878276916941449
0.5063546604596538 0.44840732770507646
0.5343666204229289 0.46154744903476597
0.5250293004351706 0.4878276916941449
0.5997278603372374 0.5009678130238344
0.6370771402882708 0.5272480556832133
0.6837637402270625 0.5666684196722818
0.7024383802025793 0.5272480556832133
0.7024383802025793 0.5141079343535239
0.7117757001903376 0.5272480556832133
0.7304503401658543 0.4746875703644554
0.7304503401658543 0.46154744903476597
0.7491249801413711 0.4221270850456975
0.7864742600924044 0.408986963716008
0.8144862200556795 0.38270672105662906
0.8331608600311963 0.36956659972693956
0.8518355000067129 0.38270672105662906
0.8611728199944713 0.3432863570675606
0.8331608600311963 0.36956659972693956
0.8424981800189546 0.30386599307849216
0.8144862200556795 0.2907258717488027
0.8144862200556795 0.2907258717488027
0.7958115800801628 0.22502526510035528
0.7491249801413711 0.15932465845190788
0.7304503401658543 0.11990429446283944
0.6837637402270625 0.06734380914408152
0.6837637402270625 0.06734380914408152
0.6370771402882708 0.11990429446283944
0.6184025003127541 0.1461845371222184
0.6090651803249957 0.17246477978159735
0.5810532203617207 0.17246477978159735
0.5437039404106873 0.17246477978159735
0.5156919804474122 0.15932465845190788
0.45966806052086207 0.15932465845190788
0.431656100557587 0.1461845371222184
0.38496950061879526 0.11990429446283944
0.3289455806922451 0.06734380914408152
0.30093362072897006 0.10676417313314995
0.26358434077793663 0.06734380914408152
0.26358434077793663 0.080483930473771
0.24490970080241994 0.10676417313314995
0.24490970080241994 0.11990429446283944
0.23557238081466159 0.11990429446283944
0.26358434077793663 0.10676417313314995
0.22623506082690326 0.13304441579252893
0.22623506082690326 0.09362405180346048
0.18888578087586982 0.11990429446283944
0.18888578087586982 0.027923445155013073
0.1328618609493197 0.027923445155013073
0.14219918093707806 0.027923445155013073
0.14219918093707806 0.05420368781439203
0.14219918093707806 0.04106356648470256
0.16087382091259478 0.05420368781439203
0.17021114090035314 0.10676417313314995
0.17954846088811147 0.10676417313314995
0.19822310086362818 0.10676417313314995
0.19822310086362818 0.11990429446283944
0.19822310086362818 0.10676417313314995
0.17954846088811147 0.080483930473771
0.16087382091259478 0.080483930473771
0.16087382091259478 0.04106356648470256
0.16087382091259478 0.06734380914408152
0.12352454096156136 0.04106356648470256
0.16087382091259478 0.05420368781439203
0.15153650092483642 0.04106356648470256
0.17954846088811147 0.027923445155013073
0.19822310086362818 0.10676417313314995
0.2168977408391449 0.05420368781439203
0.20756042085138654 0.06734380914408152
0.19822310086362818 0.05420368781439203
0.15153650092483642 0.027923445155013073
0.15153650092483642 0.001643202495634113
0.16087382091259478 -0.011496918834055368
0.17954846088811147 -0.07719752548250278
0.17954846088811147 -0.05091728282312381
0.17021114090035314 -0.02463704016374485
0.17021114090035314 0.001643202495634113
0.22623506082690326 0.05420368781439203
0.19822310086362818 0.080483930473771
0.20756042085138654 0.04106356648470256
0.2168977408391449 0.09362405180346048
0.23557238081466159 0.05420368781439203
0.20756042085138654 0.04106356648470256
0.17021114090035314 -0.03777716149343433
0.17021114090035314 -0.03777716149343433
0.15153650092483642 -0.07719752548250278
0.17954846088811147 -0.02463704016374485
0.17021114090035314 0.001643202495634113
0.17954846088811147 -0.02463704016374485
0.18888578087586982 -0.011496918834055368
0.20756042085138654 0.027923445155013073
0.19822310086362818 0.027923445155013073
0.19822310086362818 0.027923445155013073
0.17954846088811147 0.027923445155013073
0.12352454096156136 0.001643202495634113
0.114187220973803 -0.011496918834055368
0.10484990098604464 -0.02463704016374485
0.0955125809982863 -0.03777716149343433
0.114187220973803 -0.03777716149343433
0.12352454096156136 -0.011496918834055368
0.1328618609493197 0.014783323825323593
0.14219918093707806 0.05420368781439203
0.15153650092483642 0.11990429446283944
0.17954846088811147 0.10676417313314995
0.14219918093707806 0.10676417313314995
0.1328618609493197 0.080483930473771
0.0955125809982863 0.001643202495634113
0.08617526101052794 0.027923445155013073
0.07683794102276958 0.014783323825323593
0.039488661071736174 0.027923445155013073
0.05816330104725288 -0.03777716149343433
0.06750062103501124 0.001643202495634113
0.07683794102276958 0.04106356648470256
0.06750062103501124 0.04106356648470256
0.05816330104725288 0.05420368781439203
0.0955125809982863 0.014783323825323593
0.10484990098604464 0.080483930473771
0.06750062103501124 0.001643202495634113
0.06750062103501124 0.027923445155013073
0.05816330104725288 -0.02463704016374485
0.011476701108461114 -0.02463704016374485
0.011476701108461114 -0.06405740415281329
0.02081402109621947 -0.02463704016374485
0.039488661071736174 -0.02463704016374485
0.048825981059494525 0.04106356648470256
0.05816330104725288 0.05420368781439203
0.06750062103501124 0.09362405180346048
0.0955125809982863 0.11990429446283944
0.06750062103501124 0.06734380914408152
0.07683794102276958 0.027923445155013073
0.048825981059494525 0.014783323825323593
0.011476701108461114 -0.011496918834055368
0.02081402109621947 -0.05091728282312381
0.011476701108461114 -0.07719752548250278
0.002139381120702761 -0.03777716149343433
