-0.5427106874732915 0.13413226707450165
-0.5249821568959344 0.13413226707450165
-0.48952509574122033 0.16444350566108376
-0.400882442854435 0.22506598283424803
-0.36542538169972083 0.28568846000741227
-0.3299683205450067 0.3159996985939944
-0.3299683205450067 0.16444350566108376
-0.3299683205450067 0.22506598283424803
-0.3122397899676496 0.2553772214208302
-0.27678272881293553 0.3159996985939944
-0.18814007592615017 0.28568846000741227
-0.15268301477143606 0.22506598283424803
-0.20586860650350725 0.13413226707450165
-0.20586860650350725 0.10382102848791952
-0.2413256676582214 0.16444350566108376
-0.1704115453487931 0.2553772214208302
-0.028583300729936582 0.2553772214208302
0.024602291002134614 0.1947547442476659
0.024602291002134614 0.012887312728173124
0.024602291002134614 0.10382102848791952
0.11324494388891995 0.04319855131475525
0.20188759677570528 0.16444350566108376
0.2905302496624906 0.1947547442476659
0.3437158413945618 0.16444350566108376
0.3437158413945618 -0.017423925858409007
0.36144437197191887 -0.04773516444499114
0.4678155554360613 -0.04773516444499114
0.5210011471681325 0.04319855131475525
0.645100861209632 0.04319855131475525
0.6982864529417031 0.07350978990133739
0.7337435140964172 -0.13866888020473753
0.7337435140964172 0.04319855131475525
0.8401146975605597 -0.04773516444499114
0.8933002892926308 -0.017423925858409007
0.9996714727567733 -0.04773516444499114
0.9996714727567733 0.04319855131475525
1.0351285339114873 -0.13866888020473753
1.0705855950662015 -0.22960259596448393
1.0883141256435587 -0.10835764161815539
1.1414997173756298 -0.017423925858409007
1.1414997173756298 -0.017423925858409007
1.1414997173756298 -0.10835764161815539
1.1769567785303439 -0.16898011879131966
1.159228247952987 -0.1992913573779018
1.1414997173756298 -0.10835764161815539
1.194685309107701 -0.017423925858409007
1.2478709008397721 -0.04773516444499114
1.1769567785303439 -0.017423925858409007
1.1060426562209156 -0.10835764161815539
1.0705855950662015 -0.13866888020473753
0.9642144116020591 -0.04773516444499114
0.9464858810247021 0.04319855131475525
0.8578432281379167 0.16444350566108376
0.7514720446737744 0.13413226707450165
0.6273723306322748 0.10382102848791952
0.4678155554360613 0.07350978990133739
0.30825878023984765 0.16444350566108376
0.23734465793041942 0.4069334143537408
0.2550731885077765 0.3766221757671587
0.16643053562099114 0.3766221757671587
0.04233082157949168 0.1947547442476659
-0.04631183130729365 0.1947547442476659
-0.09949742303936485 0.3159996985939944
-0.1704115453487931 0.3766221757671587
-0.1704115453487931 0.3766221757671587
-0.2413256676582214 0.4069334143537408
-0.3299683205450067 0.34631093718057654
-0.4363395040091491 0.3159996985939944
-0.4540680345865062 0.43724465294032294
-0.47179656516386326 0.43724465294032294
-0.4540680345865062 0.4069334143537408
-0.4540680345865062 0.3766221757671587
-0.5427106874732915 0.28568846000741227
-0.5781677486280057 0.3159996985939944
-0.6136248097827197 0.3766221757671587
-0.5427106874732915 0.4675558915269051
-0.5427106874732915 0.5584896072866514
-0.5781677486280057 0.4978671301134872
-0.5427106874732915 0.22506598283424803
-0.5604392180506486 0.3159996985939944
-0.5604392180506486 0.3159996985939944
-0.5249821568959344 0.4069334143537408
-0.4540680345865062 0.3766221757671587
-0.5072536263185774 0.34631093718057654
-0.5781677486280057 0.22506598283424803
-0.684538932092148 0.3159996985939944
-0.7022674626695051 0.4069334143537408
-0.6490818709374339 0.5584896072866514
-0.5604392180506486 0.4978671301134872
-0.48952509574122033 0.4675558915269051
-0.5604392180506486 0.34631093718057654
-0.5958962792053627 0.43724465294032294
-0.5604392180506486 0.4978671301134872
-0.48952509574122033 0.5888008458732336
-0.41861097343179204 0.5888008458732336
-0.41861097343179204 0.5888008458732336
-0.4540680345865062 0.4675558915269051
-0.5072536263185774 0.4675558915269051
-0.48952509574122033 0.5281783687000693
-0.4363395040091491 0.6191120844598157
-0.3299683205450067 0.6494233230463978
-0.27678272881293553 0.6494233230463978
-0.2945112593902926 0.5281783687000693
-0.3299683205450067 0.4675558915269051
-0.25905419823557846 0.6494233230463978
-0.22359713708086432 0.6494233230463978
-0.1704115453487931 0.5888008458732336
-0.20586860650350725 0.34631093718057654
-0.3299683205450067 0.16444350566108376
-0.4363395040091491 0.16444350566108376
-0.47179656516386326 0.2553772214208302
-0.4540680345865062 0.3159996985939944
-0.47179656516386326 0.3159996985939944
-0.5072536263185774 0.28568846000741227
-0.6313533403600768 0.16444350566108376
-0.666810401514791 0.28568846000741227
-0.6313533403600768 0.28568846000741227
-0.5604392180506486 0.3766221757671587
-0.48952509574122033 0.3766221757671587
-0.4540680345865062 0.43724465294032294
-0.5958962792053627 0.4069334143537408
-0.7731815849789334 0.2553772214208302
-0.8086386461336474 0.3766221757671587
-0.7199959932468621 0.4978671301134872
-0.666810401514791 0.5584896072866514
-0.666810401514791 0.3766221757671587
-0.7377245238242193 0.3159996985939944
-0.8086386461336474 0.3159996985939944
-0.8086386461336474 0.4069334143537408
-0.7731815849789334 0.4069334143537408
-0.7199959932468621 0.4069334143537408
-0.7022674626695051 0.4069334143537408
-0.7022674626695051 0.28568846000741227
-0.7554530544015763 0.22506598283424803
-0.7199959932468621 0.3159996985939944
-0.6490818709374339 0.43724465294032294
-0.6136248097827197 0.4069334143537408
-0.6490818709374339 0.3766221757671587
-0.6313533403600768 0.3159996985939944
-0.7199959932468621 0.2553772214208302
-0.7731815849789334 0.34631093718057654
-0.684538932092148 0.34631093718057654
-0.666810401514791 0.4069334143537408
-0.666810401514791 0.34631093718057654
-0.7199959932468621 0.28568846000741227
-0.7022674626695051 0.2553772214208302
-0.7199959932468621 0.2553772214208302
-0.666810401514791 0.43724465294032294
-0.6136248097827197 0.4069334143537408
-0.5958962792053627 0.3159996985939944
-0.6313533403600768 0.22506598283424803
-0.684538932092148 0.1947547442476659
-0.7022674626695051 0.3159996985939944
-0.7022674626695051 0.3766221757671587
-0.684538932092148 0.3766221757671587
-0.684538932092148 0.4675558915269051
-0.7554530544015763 0.3766221757671587
-0.7731815849789334 0.3766221757671587
-0.7909101155562904 0.5584896072866514
-0.6313533403600768 0.8312907545658906
-0.3122397899676496 0.8312907545658906
0.21961612735306235 0.6191120844598157
0.8223861669832025 0.28568846000741227
1.3719706148812716 -0.04773516444499114
2.010197715666126 -0.44178126607055884
2.6661533470283376 -0.714582413349798
3.304380447813192 -0.9873835606290372
3.6766795899376903 -1.4723633780143512
3.7121366510924045 -1.8664094796399189
3.2511948560811206 -2.2301443426789045
2.4711395106774097 -2.290766819852069
1.7442697570057701 -2.1695218655057404
0.8223861669832025 -2.048276911159412
-0.5427106874732915 -1.8057870024667546
-1.8546219501977144 -1.5936083323606798
-2.811962601374996 -1.2601847079082764
-3.113347621190066 -0.9267610834558729
-2.7942340707976387 -0.44178126607055884
-2.2623781534769267 0.012887312728173124
-1.8723504807750715 0.28568846000741227
-1.6418795832694295 0.1947547442476659
-1.3936801551864306 0.16444350566108376
-1.1277521965260746 0.22506598283424803
-0.8972812990204329 0.3159996985939944
-0.7731815849789334 0.4675558915269051
-0.7377245238242193 0.4069334143537408
-0.7022674626695051 0.28568846000741227
-0.666810401514791 0.28568846000741227
-0.6490818709374339 0.28568846000741227
-0.5427106874732915 0.4978671301134872
-0.47179656516386326 0.4675558915269051
-0.4363395040091491 0.3766221757671587
-0.400882442854435 0.22506598283424803
-0.4363395040091491 0.22506598283424803
-0.4363395040091491 0.28568846000741227
-0.34769685112236376 0.3766221757671587
-0.25905419823557846 0.43724465294032294
-0.25905419823557846 0.34631093718057654
-0.2945112593902926 0.22506598283424803
-0.27678272881293553 0.13413226707450165
-0.2945112593902926 0.3159996985939944
-0.2413256676582214 0.4069334143537408
-0.20586860650350725 0.4069334143537408
-0.11722595361672192 0.4675558915269051
-0.09949742303936485 0.3159996985939944
-0.08176889246200779 0.28568846000741227
-0.028583300729936582 0.22506598283424803
0.07778788273420581 0.34631093718057654
0.16643053562099114 0.22506598283424803
0.1841590661983482 0.2553772214208302
0.16643053562099114 0.13413226707450165
0.14870200504363407 0.10382102848791952
0.1841590661983482 0.1947547442476659
0.2550731885077765 0.3159996985939944
0.36144437197191887 0.3159996985939944
0.43235849428134715 0.3159996985939944
0.5032726165907754 0.13413226707450165
0.5919152694775607 0.07350978990133739
0.6273723306322748 0.04319855131475525
0.7337435140964172 0.13413226707450165
0.8401146975605597 0.16444350566108376
0.8578432281379167 0.07350978990133739
0.8755717587152738 -0.04773516444499114
0.8401146975605597 -0.04773516444499114
0.8755717587152738 -0.04773516444499114
0.928757350447345 0.012887312728173124
0.9996714727567733 0.04319855131475525
1.0528570644888444 -0.07804640303157327
1.0705855950662015 -0.10835764161815539
1.0351285339114873 -0.1992913573779018
1.0883141256435587 -0.07804640303157327
1.1414997173756298 -0.017423925858409007
1.1414997173756298 0.012887312728173124
1.1414997173756298 0.012887312728173124
1.0705855950662015 -0.10835764161815539
1.0174000033341304 -0.16898011879131966
1.0174000033341304 0.04319855131475525
1.0705855950662015 0.07350978990133739
1.0528570644888444 0.10382102848791952
0.9642144116020591 0.04319855131475525
0.7869291058284884 -0.07804640303157327
0.6982864529417031 0.012887312728173124
0.5741867389002037 0.16444350566108376
0.5564582083228466 0.3159996985939944
0.5387296777454895 0.4069334143537408
0.43235849428134715 0.3766221757671587
0.27280171908513356 0.3159996985939944
0.1841590661983482 0.3159996985939944
0.16643053562099114 0.34631093718057654
0.11324494388891995 0.4978671301134872
0.04233082157949168 0.3766221757671587
-0.010854770152579518 0.4069334143537408
-0.134954484194079 0.34631093718057654
-0.25905419823557846 0.3766221757671587
-0.3122397899676496 0.5281783687000693
-0.3299683205450067 0.5281783687000693
-0.3831539122770779 0.5584896072866514
-0.36542538169972083 0.4978671301134872
-0.4540680345865062 0.4675558915269051
-0.47179656516386326 0.4069334143537408
-0.48952509574122033 0.5584896072866514
-0.47179656516386326 0.6191120844598157
-0.4540680345865062 0.6191120844598157
-0.48952509574122033 0.5584896072866514
-0.5072536263185774 0.4978671301134872
-0.5427106874732915 0.4069334143537408
-0.5249821568959344 0.43724465294032294
-0.48952509574122033 0.5281783687000693
-0.47179656516386326 0.5281783687000693
-0.5604392180506486 0.5888008458732336
-0.6313533403600768 0.4069334143537408
-0.7022674626695051 0.4069334143537408
-0.684538932092148 0.5281783687000693
-0.6313533403600768 0.6191120844598157
-0.5781677486280057 0.5584896072866514
-0.5781677486280057 0.5281783687000693
-0.6136248097827197 0.4675558915269051
-0.5958962792053627 0.4675558915269051
-0.6313533403600768 0.43724465294032294
-0.5958962792053627 0.6191120844598157
-0.5249821568959344 0.6494233230463978
-0.5072536263185774 0.4978671301134872
-0.5249821568959344 0.43724465294032294
-0.5427106874732915 0.4978671301134872
-0.5427106874732915 0.5281783687000693
-0.4363395040091491 0.7100458002195621
-0.34769685112236376 0.7100458002195621
-0.400882442854435 0.8009795159793085
-0.4363395040091491 0.5584896072866514
-0.4540680345865062 0.5888008458732336
-0.400882442854435 0.6191120844598157
-0.3122397899676496 0.6191120844598157
-0.1704115453487931 0.7403570388061442
-0.1704115453487931 0.67973456163298
-0.22359713708086432 0.6494233230463978
-0.25905419823557846 0.6191120844598157
-0.2413256676582214 0.5888008458732336
-0.2413256676582214 0.7100458002195621
-0.27678272881293553 0.6191120844598157
-0.3299683205450067 0.4675558915269051
-0.41861097343179204 0.34631093718057654
-0.47179656516386326 0.4069334143537408
-0.5072536263185774 0.3766221757671587
-0.48952509574122033 0.4069334143537408
-0.48952509574122033 0.4978671301134872
-0.48952509574122033 0.4069334143537408
-0.5427106874732915 0.22506598283424803
-0.5604392180506486 0.2553772214208302
-0.5781677486280057 0.3766221757671587
-0.48952509574122033 0.43724465294032294
-0.4540680345865062 0.4978671301134872
-0.5072536263185774 0.43724465294032294
-0.5958962792053627 0.4069334143537408
-0.684538932092148 0.3159996985939944
-0.6313533403600768 0.43724465294032294
-0.6136248097827197 0.5584896072866514
-0.6490818709374339 0.4978671301134872
-0.5958962792053627 0.5281783687000693
-0.6313533403600768 0.3766221757671587
-0.7022674626695051 0.3766221757671587
-0.684538932092148 0.4069334143537408
-0.6490818709374339 0.5281783687000693
-0.6136248097827197 0.5281783687000693
-0.5958962792053627 0.4675558915269051
-0.684538932092148 0.28568846000741227
-0.666810401514791 0.22506598283424803
-0.684538932092148 0.3766221757671587
-0.5958962792053627 0.4675558915269051
-0.5427106874732915 0.4675558915269051
-0.5427106874732915 0.3766221757671587
-0.6313533403600768 0.28568846000741227
-0.666810401514791 0.2553772214208302
-0.7199959932468621 0.4069334143537408
-0.684538932092148 0.5584896072866514
-0.6136248097827197 0.6494233230463978
-0.6136248097827197 0.5281783687000693
-0.6490818709374339 0.3766221757671587
-0.666810401514791 0.3766221757671587
-0.666810401514791 0.3766221757671587
-0.6490818709374339 0.4978671301134872
-0.5781677486280057 0.43724465294032294
-0.5781677486280057 0.4069334143537408
-0.666810401514791 0.34631093718057654
-0.6490818709374339 0.4069334143537408
-0.6136248097827197 0.4069334143537408
-0.5427106874732915 0.4675558915269051
-0.5604392180506486 0.4978671301134872
-0.5958962792053627 0.43724465294032294
-0.6490818709374339 0.4978671301134872
-0.7377245238242193 0.5584896072866514
-0.7731815849789334 0.5888008458732336
-0.5604392180506486 0.8009795159793085
-0.20586860650350725 0.8919132317390549
0.27280171908513356 0.6191120844598157
0.8046576364058455 0.22506598283424803
1.2478709008397721 -0.13866888020473753
1.8329124098925553 -0.3811587888973946
2.488868041254767 -0.6842711747632159
3.038452489152836 -1.0176947992156193
3.2689233866584777 -1.4420521394277692
3.127095142039621 -1.8360982410533369
2.6129677552962662 -2.0179656725728297
2.0988403685529113 -1.8360982410533369
1.4251562066133427 -1.7451645252935903
0.43235849428134715 -1.5026746166009335
-0.8618242378657187 -1.2298734693216942
-2.049635786548642 -1.0176947992156193
-2.9006052542617815 -0.8358273676961265
-3.095619090612709 -0.472092504657141
-2.6701343567561393 -0.07804640303157327
-2.1560069700127844 0.1947547442476659
-1.8368934196203572 0.34631093718057654
-1.6241510526920726 0.2553772214208302
-1.3404945634543595 0.2553772214208302
-1.0213810130619323 0.3766221757671587
-0.7731815849789334 0.4675558915269051
-0.666810401514791 0.3766221757671587
-0.6313533403600768 0.3766221757671587
-0.6313533403600768 0.28568846000741227
-0.5958962792053627 0.3159996985939944
-0.5604392180506486 0.3159996985939944
-0.4540680345865062 0.4978671301134872
-0.41861097343179204 0.5281783687000693
-0.400882442854435 0.43724465294032294
-0.4540680345865062 0.34631093718057654
-0.47179656516386326 0.34631093718057654
-0.4363395040091491 0.3766221757671587
-0.3831539122770779 0.4978671301134872
-0.34769685112236376 0.4675558915269051
-0.3122397899676496 0.4069334143537408
-0.3122397899676496 0.4069334143537408
-0.27678272881293553 0.4069334143537408
-0.20586860650350725 0.43724465294032294
-0.134954484194079 0.4978671301134872
-0.04631183130729365 0.5281783687000693
-0.04631183130729365 0.3766221757671587
-0.09949742303936485 0.2553772214208302
-0.09949742303936485 0.34631093718057654
-0.06404036188465072 0.4069334143537408
0.024602291002134614 0.43724465294032294
0.14870200504363407 0.4978671301134872
0.1841590661983482 0.28568846000741227
0.1841590661983482 0.2553772214208302
0.2550731885077765 0.1947547442476659
0.3259873108172047 0.2553772214208302
0.4678155554360613 0.34631093718057654
0.5564582083228466 0.34631093718057654
0.6096438000549178 0.3159996985939944
0.645100861209632 0.13413226707450165
0.6982864529417031 0.1947547442476659
0.7160149835190602 0.16444350566108376
0.8046576364058455 0.28568846000741227
0.8046576364058455 0.1947547442476659
0.8933002892926308 0.13413226707450165
0.911028819869988 0.012887312728173124
0.9464858810247021 0.07350978990133739
0.9642144116020591 0.10382102848791952
1.0174000033341304 0.13413226707450165
1.0883141256435587 0.13413226707450165
1.159228247952987 0.012887312728173124
1.1060426562209156 -0.07804640303157327
1.1414997173756298 -0.04773516444499114
1.1769567785303439 0.04319855131475525
1.1769567785303439 0.07350978990133739
1.159228247952987 0.13413226707450165
1.194685309107701 0.012887312728173124
1.0528570644888444 -0.04773516444499114
1.0174000033341304 0.07350978990133739
0.9642144116020591 0.10382102848791952
0.9642144116020591 0.22506598283424803
0.928757350447345 0.1947547442476659
0.8755717587152738 0.13413226707450165
0.7692005752511314 0.10382102848791952
0.6273723306322748 0.10382102848791952
0.5387296777454895 0.1947547442476659
0.4855440860134183 0.34631093718057654
0.396901433126633 0.34631093718057654
0.2905302496624906 0.3159996985939944
0.14870200504363407 0.28568846000741227
0.060059352156848746 0.3159996985939944
-0.028583300729936582 0.5584896072866514
-0.09949742303936485 0.4675558915269051
-0.09949742303936485 0.5281783687000693
-0.15268301477143606 0.4978671301134872
-0.22359713708086432 0.43724465294032294
-0.3122397899676496 0.4675558915269051
-0.3122397899676496 0.4675558915269051
-0.3299683205450067 0.6191120844598157
-0.27678272881293553 0.5888008458732336
-0.34769685112236376 0.5281783687000693
-0.41861097343179204 0.4675558915269051
-0.5604392180506486 0.43724465294032294
-0.5249821568959344 0.5584896072866514
-0.4363395040091491 0.6494233230463978
-0.400882442854435 0.5888008458732336
-0.400882442854435 0.6191120844598157
-0.48952509574122033 0.43724465294032294
-0.5604392180506486 0.4675558915269051
-0.5604392180506486 0.5888008458732336
-0.48952509574122033 0.5584896072866514
-0.4540680345865062 0.6494233230463978
-0.47179656516386326 0.5888008458732336
-0.5249821568959344 0.43724465294032294
-0.5072536263185774 0.43724465294032294
-0.5427106874732915 0.5281783687000693
-0.48952509574122033 0.5584896072866514
-0.41861097343179204 0.67973456163298
-0.41861097343179204 0.6191120844598157
-0.4540680345865062 0.5584896072866514
-0.48952509574122033 0.4978671301134872
-0.4540680345865062 0.67973456163298
-0.3831539122770779 0.7403570388061442
-0.2945112593902926 0.7706682773927264
-0.3122397899676496 0.8009795159793085
-0.3122397899676496 0.7100458002195621
-0.3122397899676496 0.7100458002195621
-0.3122397899676496 0.7706682773927264
-0.2413256676582214 0.8009795159793085
-0.20586860650350725 0.8312907545658906
-0.15268301477143606 0.7403570388061442
-0.15268301477143606 0.7100458002195621
-0.15268301477143606 0.67973456163298
-0.15268301477143606 0.7403570388061442
-0.11722595361672192 0.7403570388061442
-0.08176889246200779 0.7100458002195621
-0.134954484194079 0.5888008458732336
-0.20586860650350725 0.3766221757671587
-0.25905419823557846 0.3159996985939944
-0.27678272881293553 0.43724465294032294
-0.25905419823557846 0.4978671301134872
-0.2413256676582214 0.4675558915269051
-0.2945112593902926 0.4069334143537408
-0.41861097343179204 0.3159996985939944
-0.48952509574122033 0.3159996985939944
-0.5249821568959344 0.3766221757671587
-0.4363395040091491 0.4978671301134872
-0.34769685112236376 0.5281783687000693
-0.41861097343179204 0.5584896072866514
-0.5427106874732915 0.34631093718057654
-0.5781677486280057 0.34631093718057654
-0.5427106874732915 0.4675558915269051
-0.5427106874732915 0.4978671301134872
-0.4363395040091491 0.4978671301134872
-0.4540680345865062 0.4675558915269051
-0.48952509574122033 0.34631093718057654
-0.5427106874732915 0.4069334143537408
-0.5781677486280057 0.4675558915269051
-0.5249821568959344 0.5584896072866514
-0.48952509574122033 0.5281783687000693
-0.5072536263185774 0.43724465294032294
-0.5072536263185774 0.4675558915269051
-0.5427106874732915 0.3766221757671587
-0.5781677486280057 0.43724465294032294
-0.5427106874732915 0.5888008458732336
-0.47179656516386326 0.5584896072866514
-0.41861097343179204 0.5584896072866514
-0.48952509574122033 0.34631093718057654
-0.5249821568959344 0.43724465294032294
-0.5427106874732915 0.4675558915269051
-0.5072536263185774 0.5888008458732336
-0.47179656516386326 0.5584896072866514
-0.5072536263185774 0.5281783687000693
-0.5427106874732915 0.43724465294032294
-0.5604392180506486 0.3766221757671587
-0.5427106874732915 0.3766221757671587
-0.48952509574122033 0.5584896072866514
-0.4540680345865062 0.5584896072866514
-0.4363395040091491 0.4978671301134872
-0.4540680345865062 0.43724465294032294
-0.5072536263185774 0.3766221757671587
-0.4363395040091491 0.5584896072866514
-0.48952509574122033 0.5584896072866514
-0.5249821568959344 0.6494233230463978
-0.5427106874732915 0.7706682773927264
-0.48952509574122033 0.7706682773927264
-0.2413256676582214 0.7100458002195621
0.13097347446627702 0.7100458002195621
0.6982864529417031 0.4675558915269051
1.230142370262415 0.1947547442476659
1.8151838793151982 -0.1992913573779018
2.4002253883679816 -0.6842711747632159
2.9498098362660508 -1.0176947992156193
3.304380447813192 -1.3208071850814407
3.357566039545263 -1.5329858551875155
2.9852668974207646 -1.5632970937740975
2.311582735481196 -1.5329858551875155
1.460613267768057 -1.5026746166009335
0.20188759677570528 -1.2904959464948584
-1.1100236659487177 -0.9267610834558729
-2.1560069700127844 -0.6539599361766337
-2.829691131952353 -0.3811587888973946
-2.9006052542617815 -0.1992913573779018
-2.492849050982569 -0.017423925858409007
-2.049635786548642 0.16444350566108376
-1.730522236156215 0.3766221757671587
-1.3936801551864306 0.4675558915269051
-1.0745666047940035 0.4675558915269051
-0.8263671767110046 0.3766221757671587
-0.684538932092148 0.34631093718057654
-0.6136248097827197 0.3159996985939944
-0.5958962792053627 0.4069334143537408
-0.5249821568959344 0.4978671301134872
-0.41861097343179204 0.5888008458732336
-0.3831539122770779 0.4978671301134872
-0.36542538169972083 0.28568846000741227
-0.36542538169972083 0.43724465294032294
-0.34769685112236376 0.43724465294032294
-0.2945112593902926 0.6191120844598157
-0.2413256676582214 0.5584896072866514
-0.15268301477143606 0.4675558915269051
-0.20586860650350725 0.3766221757671587
-0.20586860650350725 0.4069334143537408
-0.15268301477143606 0.4978671301134872
-0.11722595361672192 0.5281783687000693
-0.06404036188465072 0.4978671301134872
-0.08176889246200779 0.4978671301134872
-0.08176889246200779 0.3766221757671587
-0.04631183130729365 0.34631093718057654
0.024602291002134614 0.43724465294032294
0.09551641331156288 0.4978671301134872
0.1841590661983482 0.4675558915269051
0.2550731885077765 0.3766221757671587
0.23734465793041942 0.3159996985939944
0.2905302496624906 0.3159996985939944
0.37917290254927594 0.34631093718057654
0.4855440860134183 0.4069334143537408
0.5387296777454895 0.43724465294032294
0.645100861209632 0.28568846000741227
0.645100861209632 0.22506598283424803
0.7160149835190602 0.1947547442476659
0.7514720446737744 0.16444350566108376
0.8046576364058455 0.3159996985939944
0.911028819869988 0.28568846000741227
0.9464858810247021 0.22506598283424803
0.9642144116020591 0.1947547442476659
1.0351285339114873 0.07350978990133739
1.0705855950662015 0.13413226707450165
1.1414997173756298 0.16444350566108376
1.2478709008397721 0.22506598283424803
1.230142370262415 0.13413226707450165
1.194685309107701 0.07350978990133739
1.1769567785303439 0.04319855131475525
1.1769567785303439 0.04319855131475525
1.2124138396850581 0.07350978990133739
1.2655994314171293 0.13413226707450165
1.2833279619944864 0.07350978990133739
1.2478709008397721 -0.017423925858409007
1.194685309107701 0.04319855131475525
1.1414997173756298 0.10382102848791952
1.194685309107701 0.22506598283424803
1.159228247952987 0.28568846000741227
1.194685309107701 0.10382102848791952
1.0705855950662015 -0.017423925858409007
0.911028819869988 0.07350978990133739
0.8046576364058455 0.13413226707450165
0.6805579223643461 0.28568846000741227
0.6273723306322748 0.4069334143537408
0.5741867389002037 0.34631093718057654
0.4500870248587042 0.3159996985939944
0.3437158413945618 0.3766221757671587
0.23734465793041942 0.34631093718057654
0.20188759677570528 0.43724465294032294
0.16643053562099114 0.4069334143537408
0.11324494388891995 0.34631093718057654
0.024602291002134614 0.4069334143537408
-0.028583300729936582 0.34631093718057654
-0.09949742303936485 0.43724465294032294
-0.1704115453487931 0.43724465294032294
-0.15268301477143606 0.4978671301134872
-0.22359713708086432 0.43724465294032294
-0.22359713708086432 0.3766221757671587
-0.34769685112236376 0.2553772214208302
-0.3299683205450067 0.4069334143537408
-0.3299683205450067 0.4675558915269051
-0.27678272881293553 0.4978671301134872
-0.3122397899676496 0.4069334143537408
-0.34769685112236376 0.43724465294032294
-0.36542538169972083 0.3159996985939944
-0.3299683205450067 0.34631093718057654
-0.3299683205450067 0.5281783687000693
-0.3122397899676496 0.4069334143537408
-0.3831539122770779 0.4069334143537408
-0.4363395040091491 0.4069334143537408
-0.47179656516386326 0.34631093718057654
-0.47179656516386326 0.43724465294032294
-0.41861097343179204 0.5281783687000693
-0.3299683205450067 0.5281783687000693
-0.3831539122770779 0.43724465294032294
-0.400882442854435 0.34631093718057654
-0.41861097343179204 0.34631093718057654
-0.41861097343179204 0.34631093718057654
-0.36542538169972083 0.5584896072866514
-0.25905419823557846 0.5584896072866514
-0.2413256676582214 0.4978671301134872
-0.25905419823557846 0.4675558915269051
-0.2945112593902926 0.43724465294032294
-0.3122397899676496 0.4675558915269051
-0.25905419823557846 0.67973456163298
-0.20586860650350725 0.6494233230463978
-0.1704115453487931 0.5584896072866514
-0.18814007592615017 0.4978671301134872
-0.25905419823557846 0.4675558915269051
-0.20586860650350725 0.5584896072866514
-0.11722595361672192 0.6191120844598157
-0.028583300729936582 0.6191120844598157
-0.04631183130729365 0.5281783687000693
0.024602291002134614 0.4978671301134872
0.006873760424777549 0.43724465294032294
-0.028583300729936582 0.4675558915269051
-0.04631183130729365 0.4069334143537408
-0.06404036188465072 0.43724465294032294
-0.09949742303936485 0.28568846000741227
-0.20586860650350725 0.2553772214208302
-0.2413256676582214 0.2553772214208302
-0.22359713708086432 0.3159996985939944
-0.25905419823557846 0.3159996985939944
-0.18814007592615017 0.3159996985939944
-0.22359713708086432 0.22506598283424803
-0.25905419823557846 0.16444350566108376
-0.3299683205450067 0.16444350566108376
-0.2945112593902926 0.2553772214208302
-0.2413256676582214 0.3159996985939944
-0.134954484194079 0.3766221757671587
-0.134954484194079 0.2553772214208302
-0.20586860650350725 0.22506598283424803
-0.2945112593902926 0.22506598283424803
-0.3831539122770779 0.22506598283424803
-0.3299683205450067 0.3159996985939944
-0.3299683205450067 0.4069334143537408
-0.3122397899676496 0.4069334143537408
-0.36542538169972083 0.22506598283424803
-0.4540680345865062 0.28568846000741227
-0.400882442854435 0.3159996985939944
-0.34769685112236376 0.43724465294032294
-0.3299683205450067 0.3766221757671587
-0.3299683205450067 0.28568846000741227
-0.3122397899676496 0.1947547442476659
-0.34769685112236376 0.13413226707450165
-0.34769685112236376 0.22506598283424803
-0.3122397899676496 0.34631093718057654
-0.25905419823557846 0.3766221757671587
-0.2945112593902926 0.28568846000741227
-0.36542538169972083 0.13413226707450165
-0.400882442854435 0.2553772214208302
-0.41861097343179204 0.3159996985939944
-0.36542538169972083 0.34631093718057654
-0.3122397899676496 0.34631093718057654
-0.3299683205450067 0.3159996985939944
-0.34769685112236376 0.2553772214208302
-0.41861097343179204 0.22506598283424803
-0.400882442854435 0.28568846000741227
-0.34769685112236376 0.3159996985939944
-0.2945112593902926 0.3766221757671587
-0.25905419823557846 0.3159996985939944
-0.27678272881293553 0.2553772214208302
-0.34769685112236376 0.10382102848791952
-0.36542538169972083 0.22506598283424803
-0.3299683205450067 0.3159996985939944
-0.3122397899676496 0.34631093718057654
-0.3299683205450067 0.2553772214208302
-0.34769685112236376 0.1947547442476659
-0.400882442854435 0.2553772214208302
-0.41861097343179204 0.34631093718057654
-0.36542538169972083 0.4675558915269051
-0.27678272881293553 0.5888008458732336
-0.06404036188465072 0.6494233230463978
0.30825878023984765 0.4069334143537408
0.8223861669832025 0.07350978990133739
1.3719706148812716 -0.07804640303157327
1.9570121239340548 -0.22960259596448393
2.577510694141552 -0.5933374590034695
3.1448236726169783 -0.8964498448692908
3.5171228147414766 -1.3511184236680227
3.7653222428244755 -1.654230809533844
3.6944081205150474 -1.8664094796399189
3.304380447813192 -1.9270319568130831
2.77252453049248 -1.9876544339862474
2.0279262462434833 -1.8664094796399189
0.8933002892926308 -1.8360982410533369
-0.4363395040091491 -1.5936083323606798
-1.6064225221147155 -1.3208071850814407
-2.3687493369410695 -1.0480060378022014
-2.5992202344467112 -0.8964498448692908
-2.4042063980957833 -0.6236486975900516
-2.014178725393928 -0.44178126607055884
-1.7659792973109292 -0.16898011879131966
-1.464594277495859 0.012887312728173124
-1.1632092576807889 0.1947547442476659
-0.8618242378657187 0.1947547442476659
-0.666810401514791 0.22506598283424803
-0.5072536263185774 0.07350978990133739
-0.48952509574122033 -0.04773516444499114
-0.41861097343179204 0.04319855131475525
-0.3299683205450067 0.13413226707450165
-0.2413256676582214 0.16444350566108376
-0.22359713708086432 0.16444350566108376
-0.2413256676582214 0.13413226707450165
-0.2413256676582214 0.04319855131475525
-0.2413256676582214 0.13413226707450165
-0.1704115453487931 0.3159996985939944
-0.15268301477143606 0.22506598283424803
-0.09949742303936485 0.1947547442476659
-0.134954484194079 0.07350978990133739
-0.11722595361672192 0.012887312728173124
-0.08176889246200779 0.10382102848791952
0.006873760424777549 0.1947547442476659
0.04233082157949168 0.1947547442476659
0.09551641331156288 0.10382102848791952
0.07778788273420581 0.012887312728173124
0.09551641331156288 0.10382102848791952
0.16643053562099114 0.10382102848791952
0.21961612735306235 0.13413226707450165
0.3259873108172047 0.10382102848791952
0.3437158413945618 0.04319855131475525
0.3259873108172047 0.04319855131475525
0.30825878023984765 -0.04773516444499114
0.3437158413945618 0.04319855131475525
0.4500870248587042 0.1947547442476659
0.5564582083228466 0.13413226707450165
0.6805579223643461 -0.017423925858409007
0.6805579223643461 -0.13866888020473753
0.6982864529417031 -0.16898011879131966
0.7869291058284884 -0.07804640303157327
0.9464858810247021 0.012887312728173124
1.0883141256435587 -0.07804640303157327
1.1414997173756298 -0.07804640303157327
1.159228247952987 -0.16898011879131966
1.1414997173756298 -0.1992913573779018
1.1769567785303439 -0.22960259596448393
1.2833279619944864 -0.1992913573779018
1.3542420843039147 -0.07804640303157327
1.4074276760359858 -0.25991383455106604
1.3896991454586287 -0.3205363117242303
1.3365135537265576 -0.35084755031081244
1.3896991454586287 -0.25991383455106604
1.4074276760359858 -0.16898011879131966
1.4428847371906999 -0.1992913573779018
1.460613267768057 -0.1992913573779018
1.460613267768057 -0.3205363117242303
1.4074276760359858 -0.29022507313764817
1.4074276760359858 -0.22960259596448393
1.3896991454586287 -0.13866888020473753
1.3719706148812716 -0.10835764161815539
1.2478709008397721 -0.16898011879131966
1.159228247952987 -0.25991383455106604
0.9819429421794161 -0.07804640303157327
0.911028819869988 -0.10835764161815539
0.8755717587152738 0.07350978990133739
0.8755717587152738 0.012887312728173124
0.7514720446737744 -0.017423925858409007
0.6096438000549178 -0.017423925858409007
0.5032726165907754 -0.10835764161815539
0.4146299637039901 0.04319855131475525
0.3437158413945618 0.07350978990133739
0.30825878023984765 0.07350978990133739
0.21961612735306235 0.07350978990133739
0.11324494388891995 0.012887312728173124
-0.028583300729936582 -0.07804640303157327
-0.11722595361672192 0.07350978990133739
-0.08176889246200779 0.2553772214208302
-0.08176889246200779 0.1947547442476659
-0.09949742303936485 0.13413226707450165
-0.134954484194079 0.04319855131475525
-0.2413256676582214 0.07350978990133739
-0.25905419823557846 0.04319855131475525
-0.18814007592615017 0.1947547442476659
-0.11722595361672192 0.1947547442476659
-0.134954484194079 0.13413226707450165
-0.22359713708086432 0.04319855131475525
-0.25905419823557846 -0.04773516444499114
-0.3122397899676496 0.07350978990133739
-0.25905419823557846 0.22506598283424803
-0.25905419823557846 0.16444350566108376
-0.27678272881293553 0.13413226707450165
-0.2945112593902926 0.07350978990133739
-0.3299683205450067 0.07350978990133739
-0.3122397899676496 0.13413226707450165
-0.25905419823557846 0.16444350566108376
-0.2413256676582214 0.10382102848791952
-0.20586860650350725 0.16444350566108376
-0.2413256676582214 0.04319855131475525
-0.2413256676582214 0.07350978990133739
-0.25905419823557846 0.13413226707450165
-0.20586860650350725 0.22506598283424803
-0.11722595361672192 0.34631093718057654
-0.11722595361672192 0.16444350566108376
-0.11722595361672192 0.10382102848791952
-0.20586860650350725 0.10382102848791952
-0.1704115453487931 0.2553772214208302
-0.06404036188465072 0.22506598283424803
0.060059352156848746 0.2553772214208302
0.11324494388891995 0.22506598283424803
0.14870200504363407 0.07350978990133739
0.07778788273420581 0.10382102848791952
0.024602291002134614 0.10382102848791952
-0.010854770152579518 0.13413226707450165
-0.06404036188465072 0.07350978990133739
-0.09949742303936485 -0.017423925858409007
-0.22359713708086432 -0.13866888020473753
-0.25905419823557846 -0.1992913573779018
-0.22359713708086432 -0.1992913573779018
-0.2413256676582214 -0.10835764161815539
-0.2413256676582214 -0.07804640303157327
-0.2413256676582214 -0.10835764161815539
-0.25905419823557846 -0.10835764161815539
-0.27678272881293553 -0.13866888020473753
-0.2945112593902926 -0.04773516444499114
-0.2945112593902926 0.04319855131475525
-0.3299683205450067 0.07350978990133739
-0.3831539122770779 -0.10835764161815539
-0.4363395040091491 -0.16898011879131966
-0.48952509574122033 -0.13866888020473753
-0.47179656516386326 0.012887312728173124
-0.400882442854435 -0.04773516444499114
-0.3831539122770779 0.012887312728173124
-0.36542538169972083 -0.07804640303157327
-0.34769685112236376 -0.16898011879131966
-0.4363395040091491 -0.13866888020473753
-0.4363395040091491 -0.10835764161815539
-0.3831539122770779 0.04319855131475525
-0.3299683205450067 0.07350978990133739
-0.3299683205450067 0.012887312728173124
-0.34769685112236376 -0.04773516444499114
-0.41861097343179204 -0.13866888020473753
-0.4363395040091491 -0.04773516444499114
-0.4363395040091491 0.012887312728173124
-0.3831539122770779 0.012887312728173124
-0.3831539122770779 -0.017423925858409007
-0.4363395040091491 -0.10835764161815539
-0.4540680345865062 -0.10835764161815539
-0.400882442854435 -0.10835764161815539
-0.3831539122770779 0.04319855131475525
-0.3299683205450067 0.012887312728173124
-0.3122397899676496 0.012887312728173124
-0.3831539122770779 -0.22960259596448393
-0.41861097343179204 -0.25991383455106604
-0.4540680345865062 -0.16898011879131966
-0.36542538169972083 -0.04773516444499114
-0.34769685112236376 -0.04773516444499114
-0.400882442854435 -0.10835764161815539
-0.4363395040091491 -0.13866888020473753
-0.4540680345865062 -0.16898011879131966
-0.48952509574122033 -0.04773516444499114
-0.4363395040091491 0.16444350566108376
-0.3299683205450067 0.34631093718057654
-0.06404036188465072 0.34631093718057654
0.4678155554360613 0.07350978990133739
1.0351285339114873 -0.22960259596448393
1.761998287583127 -0.502403743243723
2.506596571832124 -0.714582413349798
3.2334663255037634 -1.1086285149753656
3.836236365133904 -1.4723633780143512
4.137621384948974 -1.9573431953996654
4.066707262639546 -2.4726342513715616
3.4462086924320485 -2.59387920571789
2.7193389387604086 -2.654501682891054
1.9038265322019836 -2.5332567285447256
0.645100861209632 -2.321078058438651
-0.7554530544015763 -2.1695218655057404
-2.049635786548642 -1.8967207182265011
-2.758777009642925 -1.5936083323606798
-2.741048479065568 -1.1389397535619479
-2.2623781534769267 -0.6236486975900516
-1.8546219501977144 -0.29022507313764817
-1.482322808073216 -0.29022507313764817
-1.2341233799902172 -0.1992913573779018
-0.950466890752504 -0.1992913573779018
-0.684538932092148 -0.017423925858409007
-0.5072536263185774 -0.10835764161815539
-0.4363395040091491 -0.04773516444499114
-0.41861097343179204 -0.10835764161815539
-0.3831539122770779 -0.1992913573779018
-0.3831539122770779 -0.16898011879131966
-0.3299683205450067 -0.04773516444499114
-0.2413256676582214 -0.07804640303157327
-0.20586860650350725 0.012887312728173124
-0.25905419823557846 -0.16898011879131966
-0.2945112593902926 -0.22960259596448393
-0.25905419823557846 -0.07804640303157327
-0.18814007592615017 0.07350978990133739
-0.09949742303936485 -0.017423925858409007
-0.08176889246200779 -0.10835764161815539
-0.08176889246200779 -0.1992913573779018
-0.06404036188465072 -0.1992913573779018
0.006873760424777549 -0.22960259596448393
0.07778788273420581 -0.07804640303157327
0.16643053562099114 -0.04773516444499114
0.14870200504363407 -0.1992913573779018
0.14870200504363407 -0.25991383455106604
0.13097347446627702 -0.1992913573779018
0.14870200504363407 -0.16898011879131966
0.27280171908513356 -0.13866888020473753
0.37917290254927594 -0.16898011879131966
0.4500870248587042 -0.3205363117242303
0.4855440860134183 -0.35084755031081244
0.4678155554360613 -0.35084755031081244
0.5564582083228466 -0.29022507313764817
0.6805579223643461 -0.25991383455106604
0.8578432281379167 -0.22960259596448393
0.911028819869988 -0.3811587888973946
0.928757350447345 -0.44178126607055884
0.9642144116020591 -0.44178126607055884
0.9642144116020591 -0.3811587888973946
1.0705855950662015 -0.3205363117242303
1.194685309107701 -0.4114700274839767
1.194685309107701 -0.4114700274839767
1.1769567785303439 -0.5327149818303052
1.1769567785303439 -0.5327149818303052
1.2833279619944864 -0.472092504657141
1.3365135537265576 -0.44178126607055884
1.4074276760359858 -0.44178126607055884
1.4074276760359858 -0.472092504657141
1.3896991454586287 -0.5630262204168873
1.3365135537265576 -0.5933374590034695
1.3365135537265576 -0.502403743243723
1.3719706148812716 -0.44178126607055884
1.460613267768057 -0.35084755031081244
1.3896991454586287 -0.472092504657141
1.2833279619944864 -0.5327149818303052
1.2478709008397721 -0.5327149818303052
1.1237711867982727 -0.472092504657141
1.159228247952987 -0.25991383455106604
1.1060426562209156 -0.1992913573779018
0.9819429421794161 -0.25991383455106604
0.8755717587152738 -0.3205363117242303
0.7869291058284884 -0.25991383455106604
0.6982864529417031 -0.16898011879131966
0.6273723306322748 -0.017423925858409007
0.5741867389002037 -0.07804640303157327
0.5032726165907754 -0.017423925858409007
0.37917290254927594 -0.10835764161815539
0.21961612735306235 -0.10835764161815539
0.09551641331156288 0.012887312728173124
0.04233082157949168 0.07350978990133739
0.09551641331156288 0.13413226707450165
0.006873760424777549 -0.017423925858409007
-0.08176889246200779 -0.07804640303157327
-0.2413256676582214 -0.07804640303157327
-0.22359713708086432 -0.04773516444499114
-0.18814007592615017 0.07350978990133739
-0.15268301477143606 0.1947547442476659
-0.20586860650350725 0.10382102848791952
-0.25905419823557846 -0.017423925858409007
-0.2945112593902926 -0.07804640303157327
-0.3299683205450067 -0.04773516444499114
-0.34769685112236376 0.13413226707450165
-0.36542538169972083 0.10382102848791952
-0.36542538169972083 -0.017423925858409007
-0.400882442854435 -0.017423925858409007
-0.4363395040091491 -0.017423925858409007
-0.5072536263185774 0.07350978990133739
-0.4540680345865062 0.1947547442476659
-0.34769685112236376 0.13413226707450165
-0.36542538169972083 0.13413226707450165
-0.400882442854435 0.04319855131475525
-0.400882442854435 -0.04773516444499114
-0.3831539122770779 0.07350978990133739
-0.3831539122770779 0.1947547442476659
-0.3122397899676496 0.1947547442476659
-0.36542538169972083 0.13413226707450165
-0.3831539122770779 0.16444350566108376
-0.400882442854435 0.10382102848791952
-0.400882442854435 0.10382102848791952
-0.36542538169972083 0.2553772214208302
-0.27678272881293553 0.34631093718057654
-0.2413256676582214 0.28568846000741227
-0.2945112593902926 0.22506598283424803
-0.34769685112236376 0.16444350566108376
-0.2945112593902926 0.28568846000741227
-0.18814007592615017 0.3159996985939944
-0.15268301477143606 0.34631093718057654
-0.08176889246200779 0.34631093718057654
-0.08176889246200779 0.22506598283424803
-0.11722595361672192 0.22506598283424803
-0.09949742303936485 0.28568846000741227
-0.04631183130729365 0.3766221757671587
-0.028583300729936582 0.22506598283424803
-0.04631183130729365 0.1947547442476659
-0.1704115453487931 0.012887312728173124
-0.25905419823557846 0.012887312728173124
-0.3299683205450067 -0.017423925858409007
-0.27678272881293553 0.04319855131475525
-0.2945112593902926 0.07350978990133739
-0.3122397899676496 0.012887312728173124
-0.36542538169972083 -0.07804640303157327
-0.4363395040091491 -0.13866888020473753
-0.4540680345865062 -0.017423925858409007
-0.400882442854435 0.07350978990133739
-0.36542538169972083 0.16444350566108376
-0.34769685112236376 0.07350978990133739
-0.400882442854435 0.10382102848791952
-0.47179656516386326 0.13413226707450165
-0.5427106874732915 0.10382102848791952
-0.5781677486280057 0.1947547442476659
-0.5249821568959344 0.2553772214208302
-0.5072536263185774 0.10382102848791952
-0.5958962792053627 0.012887312728173124
-0.5958962792053627 0.012887312728173124
-0.5958962792053627 0.012887312728173124
-0.5958962792053627 0.22506598283424803
-0.48952509574122033 0.16444350566108376
-0.47179656516386326 0.13413226707450165
-0.47179656516386326 0.012887312728173124
-0.5427106874732915 -0.017423925858409007
-0.5072536263185774 0.04319855131475525
-0.48952509574122033 0.13413226707450165
-0.4363395040091491 0.13413226707450165
-0.47179656516386326 0.13413226707450165
-0.5427106874732915 0.012887312728173124
-0.5604392180506486 -0.017423925858409007
-0.5781677486280057 0.13413226707450165
-0.5072536263185774 0.13413226707450165
-0.48952509574122033 0.22506598283424803
-0.4540680345865062 0.16444350566108376
-0.5249821568959344 0.13413226707450165
-0.5604392180506486 0.07350978990133739
-0.5249821568959344 0.07350978990133739
-0.48952509574122033 0.22506598283424803
-0.4363395040091491 0.1947547442476659
-0.4363395040091491 0.04319855131475525
-0.5427106874732915 0.04319855131475525
-0.5781677486280057 -0.07804640303157327
-0.5604392180506486 0.012887312728173124
-0.5072536263185774 0.13413226707450165
-0.4540680345865062 0.13413226707450165
-0.5072536263185774 0.10382102848791952
-0.5427106874732915 0.012887312728173124
-0.5604392180506486 0.012887312728173124
-0.5427106874732915 0.07350978990133739
-0.48952509574122033 0.1947547442476659
-0.48952509574122033 0.1947547442476659
-0.5072536263185774 0.16444350566108376
-0.5781677486280057 0.2553772214208302
-0.5781677486280057 0.3766221757671587
-0.36542538169972083 0.4675558915269051
0.07778788273420581 0.4069334143537408
0.6805579223643461 0.2553772214208302
1.3719706148812716 -0.22960259596448393
1.9392835933566979 -0.5327149818303052
2.542053632986838 -0.8661386062827087
3.1980092643490496 -1.1086285149753656
3.7121366510924045 -1.4420521394277692
3.9957931403301172 -1.8057870024667546
3.924879018020689 -2.1695218655057404
3.357566039545263 -2.59387920571789
2.7193389387604086 -2.745435398650801
2.063383307398197 -2.654501682891054
1.1769567785303439 -2.4423230127849793
-0.010854770152579518 -2.2301443426789045
-1.3404945634543595 -1.9270319568130831
-2.3510208063637124 -1.7754757638801726
-2.9360623154164953 -1.5026746166009335
-2.9006052542617815 -1.0480060378022014
-2.492849050982569 -0.502403743243723
-2.049635786548642 -0.16898011879131966
-1.7127937055788578 0.012887312728173124
-1.51777986922793 -0.017423925858409007
-1.2873089717222883 0.07350978990133739
-1.0036524824845752 0.10382102848791952
-0.7199959932468621 0.16444350566108376
-0.5249821568959344 0.16444350566108376
-0.4540680345865062 0.13413226707450165
-0.47179656516386326 0.10382102848791952
-0.5249821568959344 0.07350978990133739
-0.5604392180506486 0.1947547442476659
-0.4540680345865062 0.3159996985939944
-0.400882442854435 0.28568846000741227
-0.36542538169972083 0.22506598283424803
-0.36542538169972083 0.10382102848791952
-0.34769685112236376 0.13413226707450165
-0.36542538169972083 0.13413226707450165
-0.25905419823557846 0.2553772214208302
-0.20586860650350725 0.2553772214208302
-0.1704115453487931 0.1947547442476659
-0.1704115453487931 0.10382102848791952
-0.20586860650350725 0.07350978990133739
-0.15268301477143606 0.16444350566108376
-0.06404036188465072 0.22506598283424803
-0.04631183130729365 0.1947547442476659
-0.06404036188465072 0.16444350566108376
-0.08176889246200779 0.10382102848791952
-0.010854770152579518 0.07350978990133739
0.006873760424777549 0.10382102848791952
0.14870200504363407 0.1947547442476659
0.2550731885077765 0.13413226707450165
0.30825878023984765 -0.017423925858409007
0.3259873108172047 0.04319855131475525
0.36144437197191887 -0.017423925858409007
0.43235849428134715 -0.017423925858409007
0.5741867389002037 0.10382102848791952
0.645100861209632 0.012887312728173124
0.6982864529417031 -0.04773516444499114
0.7514720446737744 -0.16898011879131966
0.7160149835190602 -0.1992913573779018
0.7869291058284884 -0.10835764161815539
0.911028819869988 -0.017423925858409007
0.9819429421794161 -0.07804640303157327
1.0174000033341304 -0.07804640303157327
1.0528570644888444 -0.29022507313764817
1.0528570644888444 -0.3205363117242303
1.0883141256435587 -0.16898011879131966
1.194685309107701 -0.07804640303157327
1.2655994314171293 -0.16898011879131966
1.3010564925718433 -0.16898011879131966
1.2478709008397721 -0.22960259596448393
1.2124138396850581 -0.29022507313764817
1.230142370262415 -0.25991383455106604
1.2833279619944864 -0.16898011879131966
1.3187850231492004 -0.1992913573779018
1.2833279619944864 -0.07804640303157327
1.2478709008397721 -0.25991383455106604
1.159228247952987 -0.3205363117242303
1.1237711867982727 -0.22960259596448393
1.1237711867982727 -0.10835764161815539
1.0883141256435587 -0.017423925858409007
0.9819429421794161 0.012887312728173124
0.8933002892926308 0.012887312728173124
0.7160149835190602 -0.017423925858409007
0.6805579223643461 0.10382102848791952
0.6096438000549178 0.1947547442476659
0.5210011471681325 0.2553772214208302
0.4500870248587042 0.2553772214208302
0.30825878023984765 0.16444350566108376
0.21961612735306235 0.10382102848791952
0.09551641331156288 0.1947547442476659
0.060059352156848746 0.34631093718057654
-0.010854770152579518 0.3159996985939944
-0.08176889246200779 0.28568846000741227
-0.18814007592615017 0.28568846000741227
-0.22359713708086432 0.3159996985939944
-0.27678272881293553 0.34631093718057654
-0.25905419823557846 0.4069334143537408
-0.22359713708086432 0.4675558915269051
-0.27678272881293553 0.5281783687000693
-0.3831539122770779 0.34631093718057654
-0.47179656516386326 0.2553772214208302
-0.4540680345865062 0.3766221757671587
-0.4363395040091491 0.43724465294032294
-0.41861097343179204 0.4069334143537408
-0.4540680345865062 0.4069334143537408
-0.47179656516386326 0.2553772214208302
-0.5249821568959344 0.2553772214208302
-0.5249821568959344 0.3159996985939944
-0.4540680345865062 0.3766221757671587
-0.400882442854435 0.4069334143537408
-0.41861097343179204 0.4069334143537408
-0.47179656516386326 0.28568846000741227
-0.5249821568959344 0.2553772214208302
-0.5427106874732915 0.3159996985939944
-0.48952509574122033 0.43724465294032294
-0.47179656516386326 0.4675558915269051
-0.4540680345865062 0.3766221757671587
-0.5072536263185774 0.2553772214208302
-0.5427106874732915 0.28568846000741227
-0.5072536263185774 0.43724465294032294
-0.3831539122770779 0.4675558915269051
-0.27678272881293553 0.5584896072866514
-0.2413256676582214 0.4978671301134872
-0.2945112593902926 0.4069334143537408
-0.34769685112236376 0.4069334143537408
-0.34769685112236376 0.5888008458732336
-0.2945112593902926 0.6191120844598157
-0.2413256676582214 0.7100458002195621
-0.2413256676582214 0.5888008458732336
-0.1704115453487931 0.4675558915269051
-0.27678272881293553 0.5584896072866514
-0.22359713708086432 0.6494233230463978
-0.15268301477143606 0.7403570388061442
-0.06404036188465072 0.67973456163298
-0.06404036188465072 0.6191120844598157
-0.15268301477143606 0.34631093718057654
-0.27678272881293553 0.28568846000741227
-0.2945112593902926 0.3159996985939944
-0.3122397899676496 0.4069334143537408
-0.25905419823557846 0.3766221757671587
-0.3299683205450067 0.3159996985939944
-0.3831539122770779 0.22506598283424803
-0.48952509574122033 0.2553772214208302
-0.5072536263185774 0.34631093718057654
-0.5249821568959344 0.4069334143537408
-0.47179656516386326 0.3159996985939944
-0.41861097343179204 0.28568846000741227
-0.4540680345865062 0.22506598283424803
-0.5072536263185774 0.22506598283424803
-0.5604392180506486 0.3766221757671587
-0.6490818709374339 0.4675558915269051
-0.6136248097827197 0.4675558915269051
-0.6313533403600768 0.4069334143537408
-0.6313533403600768 0.34631093718057654
-0.684538932092148 0.28568846000741227
-0.6490818709374339 0.28568846000741227
-0.5958962792053627 0.4069334143537408
-0.5427106874732915 0.4675558915269051
-0.5781677486280057 0.3766221757671587
-0.666810401514791 0.28568846000741227
-0.684538932092148 0.22506598283424803
-0.666810401514791 0.2553772214208302
-0.6136248097827197 0.4069334143537408
-0.5781677486280057 0.4675558915269051
-0.5604392180506486 0.4069334143537408
-0.6313533403600768 0.4069334143537408
-0.684538932092148 0.28568846000741227
-0.6136248097827197 0.43724465294032294
-0.5604392180506486 0.4978671301134872
-0.5249821568959344 0.43724465294032294
-0.5072536263185774 0.4978671301134872
-0.5958962792053627 0.28568846000741227
-0.666810401514791 0.3159996985939944
-0.684538932092148 0.4069334143537408
-0.5958962792053627 0.43724465294032294
-0.5604392180506486 0.4675558915269051
-0.5427106874732915 0.43724465294032294
-0.5958962792053627 0.2553772214208302
-0.6313533403600768 0.3159996985939944
-0.6136248097827197 0.28568846000741227
-0.5781677486280057 0.43724465294032294
-0.5072536263185774 0.4069334143537408
-0.48952509574122033 0.3766221757671587
-0.5072536263185774 0.22506598283424803
-0.5604392180506486 0.22506598283424803
-0.5249821568959344 0.34631093718057654
-0.5249821568959344 0.43724465294032294
-0.48952509574122033 0.4069334143537408
-0.5781677486280057 0.43724465294032294
-0.684538932092148 0.4675558915269051
-0.7022674626695051 0.5281783687000693
-0.6490818709374339 0.7403570388061442
-0.48952509574122033 0.8312907545658906
-0.1704115453487931 0.7403570388061442
0.27280171908513356 0.5888008458732336
0.7692005752511314 0.28568846000741227
1.2833279619944864 -0.10835764161815539
1.9038265322019836 -0.1992913573779018
2.5597821635641953 -0.502403743243723
3.1980092643490496 -0.9267610834558729
3.641222528782976 -1.3208071850814407
3.7830507734018326 -1.8057870024667546
3.623493998205619 -2.108899388332576
3.07390955030755 -2.290766819852069
2.4534109801000525 -2.290766819852069
1.8683694710472696 -2.2604555812654867
0.9464858810247021 -2.139210626919158
-0.3831539122770779 -2.048276911159412
-1.7127937055788578 -1.684542048120426
-2.652405826178782 -1.2904959464948584
-3.024704968303281 -0.8358273676961265
-2.811962601374996 -0.472092504657141
-2.3332922757863552 -0.16898011879131966
-1.9787216642392138 0.10382102848791952
-1.730522236156215 0.16444350566108376
-1.4114086857637878 0.3159996985939944
-1.1100236659487177 0.43724465294032294
-0.8440957072883616 0.43724465294032294
-0.7022674626695051 0.3159996985939944
-0.666810401514791 0.28568846000741227
-0.6490818709374339 0.22506598283424803
-0.6136248097827197 0.3766221757671587
-0.5072536263185774 0.4675558915269051
-0.4540680345865062 0.43724465294032294
-0.41861097343179204 0.4069334143537408
-0.41861097343179204 0.34631093718057654
-0.400882442854435 0.34631093718057654
-0.400882442854435 0.4069334143537408
-0.36542538169972083 0.4978671301134872
-0.2945112593902926 0.4978671301134872
-0.2945112593902926 0.4069334143537408
-0.27678272881293553 0.4069334143537408
-0.2945112593902926 0.34631093718057654
-0.3299683205450067 0.3766221757671587
-0.22359713708086432 0.5584896072866514
-0.15268301477143606 0.5281783687000693
-0.09949742303936485 0.5281783687000693
-0.1704115453487931 0.3766221757671587
-0.134954484194079 0.34631093718057654
-0.09949742303936485 0.3159996985939944
0.006873760424777549 0.4069334143537408
0.04233082157949168 0.4069334143537408
0.07778788273420581 0.4675558915269051
0.13097347446627702 0.22506598283424803
0.13097347446627702 0.3159996985939944
0.1841590661983482 0.3159996985939944
0.2550731885077765 0.4069334143537408
0.36144437197191887 0.4675558915269051
0.3259873108172047 0.3159996985939944
0.396901433126633 0.1947547442476659
0.4146299637039901 0.16444350566108376
0.43235849428134715 0.2553772214208302
0.5564582083228466 0.28568846000741227
0.6096438000549178 0.3159996985939944
0.7160149835190602 0.16444350566108376
0.7160149835190602 0.07350978990133739
0.7514720446737744 -0.017423925858409007
0.8046576364058455 0.07350978990133739
0.928757350447345 0.10382102848791952
0.9996714727567733 0.1947547442476659
1.0528570644888444 0.13413226707450165
0.9996714727567733 0.04319855131475525
1.0705855950662015 -0.07804640303157327
1.0528570644888444 -0.07804640303157327
1.1414997173756298 0.04319855131475525
1.1414997173756298 0.07350978990133739
1.1414997173756298 0.04319855131475525
1.194685309107701 0.012887312728173124
1.1769567785303439 -0.04773516444499114
1.1769567785303439 0.012887312728173124
1.2478709008397721 0.10382102848791952
1.2655994314171293 0.07350978990133739
1.230142370262415 0.10382102848791952
1.1414997173756298 -0.017423925858409007
1.0883141256435587 0.012887312728173124
1.0351285339114873 0.1947547442476659
1.0883141256435587 0.13413226707450165
1.0705855950662015 0.1947547442476659
0.9819429421794161 0.13413226707450165
0.8401146975605597 0.1947547442476659
0.6982864529417031 0.22506598283424803
0.6273723306322748 0.34631093718057654
0.5919152694775607 0.43724465294032294
0.5210011471681325 0.43724465294032294
0.4500870248587042 0.43724465294032294
0.3259873108172047 0.4069334143537408
0.16643053562099114 0.4069334143537408
0.11324494388891995 0.4978671301134872
0.07778788273420581 0.5888008458732336
0.060059352156848746 0.6494233230463978
0.006873760424777549 0.5281783687000693
-0.11722595361672192 0.5584896072866514
-0.22359713708086432 0.5888008458732336
-0.25905419823557846 0.6191120844598157
-0.25905419823557846 0.7100458002195621
-0.27678272881293553 0.7403570388061442
-0.3122397899676496 0.5888008458732336
-0.41861097343179204 0.5281783687000693
-0.47179656516386326 0.5281783687000693
-0.48952509574122033 0.5888008458732336
-0.47179656516386326 0.7706682773927264
-0.4363395040091491 0.7706682773927264
-0.4363395040091491 0.67973456163298
-0.48952509574122033 0.6191120844598157
-0.5427106874732915 0.5584896072866514
-0.5427106874732915 0.67973456163298
-0.4540680345865062 0.8312907545658906
-0.41861097343179204 0.7706682773927264
-0.4540680345865062 0.67973456163298
-0.5072536263185774 0.5584896072866514
-0.5958962792053627 0.5584896072866514
-0.5781677486280057 0.6191120844598157
-0.5249821568959344 0.7100458002195621
-0.5072536263185774 0.7100458002195621
-0.5072536263185774 0.67973456163298
-0.5427106874732915 0.5888008458732336
-0.5781677486280057 0.6191120844598157
-0.5781677486280057 0.7100458002195621
-0.5604392180506486 0.8919132317390549
-0.41861097343179204 0.7706682773927264
-0.47179656516386326 0.6494233230463978
-0.48952509574122033 0.5888008458732336
-0.5072536263185774 0.6494233230463978
-0.48952509574122033 0.7403570388061442
-0.41861097343179204 0.922224470325637
-0.400882442854435 0.8009795159793085
-0.400882442854435 0.8312907545658906
-0.400882442854435 0.8616019931524728
-0.4363395040091491 0.8616019931524728
-0.4363395040091491 0.922224470325637
-0.400882442854435 1.1040919018451298
-0.3299683205450067 1.0737806632585476
-0.27678272881293553 0.922224470325637
-0.27678272881293553 0.8312907545658906
-0.27678272881293553 0.8919132317390549
-0.22359713708086432 0.9525357089122192
-0.11722595361672192 1.0434694246719656
-0.028583300729936582 1.0131581860853833
-0.08176889246200779 1.0434694246719656
-0.09949742303936485 0.7100458002195621
-0.2413256676582214 0.6191120844598157
-0.27678272881293553 0.7100458002195621
-0.3122397899676496 0.7706682773927264
-0.2945112593902926 0.8009795159793085
-0.3122397899676496 0.7100458002195621
-0.3831539122770779 0.5888008458732336
-0.47179656516386326 0.5281783687000693
-0.5072536263185774 0.6494233230463978
-0.4540680345865062 0.6494233230463978
-0.47179656516386326 0.8009795159793085
-0.4363395040091491 0.67973456163298
-0.48952509574122033 0.5888008458732336
-0.48952509574122033 0.6191120844598157
-0.47179656516386326 0.7100458002195621
-0.48952509574122033 0.8919132317390549
-0.48952509574122033 0.7706682773927264
-0.5781677486280057 0.8919132317390549
-0.6490818709374339 0.67973456163298
-0.666810401514791 0.6494233230463978
-0.6490818709374339 0.67973456163298
-0.5781677486280057 0.8009795159793085
-0.5781677486280057 0.8009795159793085
-0.6136248097827197 0.8009795159793085
-0.6313533403600768 0.67973456163298
-0.684538932092148 0.67973456163298
-0.6313533403600768 0.7706682773927264
-0.6313533403600768 0.8312907545658906
-0.5781677486280057 0.7403570388061442
-0.5604392180506486 0.7403570388061442
-0.5781677486280057 0.5888008458732336
-0.6490818709374339 0.6494233230463978
-0.666810401514791 0.7100458002195621
-0.6136248097827197 0.8009795159793085
-0.5958962792053627 0.8919132317390549
-0.5249821568959344 0.7706682773927264
-0.6490818709374339 0.7100458002195621
-0.684538932092148 0.6191120844598157
-0.6490818709374339 0.7403570388061442
-0.6136248097827197 0.8312907545658906
-0.5958962792053627 0.8312907545658906
-0.5604392180506486 0.7403570388061442
-0.6136248097827197 0.67973456163298
-0.6313533403600768 0.6494233230463978
-0.6490818709374339 0.8009795159793085
-0.5958962792053627 0.8312907545658906
-0.5249821568959344 0.7706682773927264
-0.5604392180506486 0.67973456163298
-0.5958962792053627 0.67973456163298
-0.666810401514791 0.67973456163298
-0.6490818709374339 0.7100458002195621
-0.5781677486280057 0.8919132317390549
-0.5781677486280057 0.8312907545658906
-0.5604392180506486 0.7100458002195621
-0.6136248097827197 0.6494233230463978
-0.684538932092148 0.7100458002195621
-0.7199959932468621 0.8009795159793085
-0.7199959932468621 0.9828469474988013
-0.6313533403600768 1.0737806632585476
-0.48952509574122033 1.1344031404317119
-0.27678272881293553 1.0434694246719656
0.07778788273420581 0.8616019931524728
0.5741867389002037 0.5888008458732336
1.0883141256435587 0.34631093718057654
1.5669844512321993 0.07350978990133739
2.1520259602849827 -0.4114700274839767
2.754795999915123 -0.8661386062827087
3.07390955030755 -1.1389397535619479
3.1448236726169783 -1.5329858551875155
2.8966242445339794 -1.6239195709472618
2.3824968577906245 -1.684542048120426
1.7974553487378413 -1.654230809533844
0.9996714727567733 -1.6239195709472618
-0.11722595361672192 -1.411740900841187
-1.3050375022996454 -1.0480060378022014
-2.315563745208998 -0.5933374590034695
-2.9537908459938524 -0.3205363117242303
-2.9892479071485667 -0.10835764161815539
-2.581491703869354 0.1947547442476659
-2.1560069700127844 0.4978671301134872
-1.8191648890430003 0.67973456163298
-1.5355083998052872 0.7100458002195621
-1.1632092576807889 0.67973456163298
-0.932738360175147 0.6494233230463978
-0.7909101155562904 0.6494233230463978
-0.7554530544015763 0.5281783687000693
-0.666810401514791 0.7100458002195621
-0.5781677486280057 0.8009795159793085
-0.48952509574122033 0.7403570388061442
-0.400882442854435 0.7100458002195621
-0.4363395040091491 0.6494233230463978
-0.5249821568959344 0.67973456163298
-0.48952509574122033 0.7100458002195621
-0.3831539122770779 0.8616019931524728
-0.34769685112236376 0.8009795159793085
-0.34769685112236376 0.67973456163298
-0.36542538169972083 0.6494233230463978
-0.3831539122770779 0.5888008458732336
-0.3299683205450067 0.67973456163298
-0.2413256676582214 0.67973456163298
-0.2413256676582214 0.7706682773927264
-0.15268301477143606 0.7100458002195621
-0.09949742303936485 0.67973456163298
-0.134954484194079 0.5888008458732336
-0.09949742303936485 0.6494233230463978
-0.06404036188465072 0.7100458002195621
0.04233082157949168 0.7706682773927264
0.07778788273420581 0.6494233230463978
0.04233082157949168 0.4069334143537408
0.060059352156848746 0.4675558915269051
0.13097347446627702 0.4978671301134872
0.2550731885077765 0.6191120844598157
0.30825878023984765 0.5888008458732336
0.396901433126633 0.5281783687000693
0.43235849428134715 0.3766221757671587
0.4678155554360613 0.43724465294032294
0.5919152694775607 0.4069334143537408
0.6805579223643461 0.5281783687000693
0.7514720446737744 0.5584896072866514
0.8401146975605597 0.4675558915269051
0.8046576364058455 0.3159996985939944
0.7692005752511314 0.34631093718057654
0.8401146975605597 0.3766221757671587
0.911028819869988 0.4069334143537408
0.9642144116020591 0.34631093718057654
1.0174000033341304 0.2553772214208302
1.0174000033341304 0.28568846000741227
0.9996714727567733 0.28568846000741227
1.0351285339114873 0.34631093718057654
1.1414997173756298 0.4069334143537408
1.194685309107701 0.34631093718057654
1.230142370262415 0.3159996985939944
1.1769567785303439 0.22506598283424803
1.1237711867982727 0.2553772214208302
1.0705855950662015 0.34631093718057654
1.0705855950662015 0.43724465294032294
1.0883141256435587 0.3766221757671587
1.0528570644888444 0.3766221757671587
0.9642144116020591 0.34631093718057654
0.8401146975605597 0.2553772214208302
0.7692005752511314 0.43724465294032294
0.7869291058284884 0.5281783687000693
0.7514720446737744 0.6191120844598157
0.645100861209632 0.6191120844598157
0.5387296777454895 0.5281783687000693
0.4146299637039901 0.6191120844598157
0.3437158413945618 0.6494233230463978
0.30825878023984765 0.7706682773927264
0.23734465793041942 0.8312907545658906
0.11324494388891995 0.67973456163298
0.024602291002134614 0.67973456163298
-0.08176889246200779 0.7100458002195621
-0.134954484194079 0.8312907545658906
-0.15268301477143606 0.8919132317390549
-0.15268301477143606 0.8919132317390549
-0.20586860650350725 0.8312907545658906
-0.27678272881293553 0.8616019931524728
-0.36542538169972083 0.8312907545658906
-0.36542538169972083 0.8009795159793085
-0.34769685112236376 0.922224470325637
-0.3299683205450067 0.9828469474988013
-0.3831539122770779 0.8616019931524728
-0.5249821568959344 0.8616019931524728
-0.5781677486280057 0.8009795159793085
-0.5958962792053627 0.922224470325637
-0.48952509574122033 0.922224470325637
-0.47179656516386326 1.0434694246719656
-0.48952509574122033 0.922224470325637
-0.5249821568959344 0.8919132317390549
-0.5427106874732915 0.8919132317390549
-0.5427106874732915 0.922224470325637
-0.47179656516386326 0.9828469474988013
-0.4540680345865062 1.0131581860853833
-0.4540680345865062 0.8009795159793085
-0.5072536263185774 0.8009795159793085
-0.5604392180506486 0.8312907545658906
-0.5781677486280057 0.922224470325637
-0.5249821568959344 1.0131581860853833
-0.5072536263185774 1.0131581860853833
-0.48952509574122033 0.9828469474988013
-0.5249821568959344 0.8919132317390549
-0.5249821568959344 0.8616019931524728
-0.5249821568959344 0.9828469474988013
-0.47179656516386326 1.164714379018294
-0.400882442854435 1.0434694246719656
-0.36542538169972083 1.1040919018451298
-0.34769685112236376 0.9525357089122192
-0.3831539122770779 1.0434694246719656
-0.36542538169972083 1.1344031404317119
-0.3122397899676496 1.2253368561914584
-0.27678272881293553 1.2556480947780404
-0.3299683205450067 1.164714379018294
-0.27678272881293553 1.1344031404317119
-0.25905419823557846 1.1040919018451298
-0.22359713708086432 1.1950256176048761
-0.134954484194079 1.3162705719512047
-0.06404036188465072 1.2859593333646226
-0.06404036188465072 1.0737806632585476
-0.09949742303936485 1.0131581860853833
-0.20586860650350725 0.8919132317390549
-0.2413256676582214 0.8312907545658906
-0.2945112593902926 0.9525357089122192
-0.25905419823557846 1.0131581860853833
-0.2945112593902926 0.8312907545658906
-0.34769685112236376 0.7403570388061442
-0.4540680345865062 0.7100458002195621
-0.4363395040091491 0.7100458002195621
-0.4363395040091491 0.8616019931524728
-0.41861097343179204 0.8919132317390549
-0.3831539122770779 0.8919132317390549
-0.4540680345865062 0.8009795159793085
-0.4363395040091491 0.8009795159793085
-0.41861097343179204 0.9525357089122192
-0.4363395040091491 0.9828469474988013
-0.4363395040091491 0.9828469474988013
-0.47179656516386326 1.0131581860853833
-0.5249821568959344 0.922224470325637
-0.5958962792053627 0.8312907545658906
-0.5427106874732915 0.922224470325637
-0.5604392180506486 0.9525357089122192
-0.48952509574122033 1.0434694246719656
-0.5427106874732915 0.9525357089122192
-0.5427106874732915 0.8009795159793085
-0.6490818709374339 0.8312907545658906
-0.6136248097827197 0.8616019931524728
-0.5604392180506486 0.9525357089122192
-0.5249821568959344 1.0131581860853833
-0.5781677486280057 0.9828469474988013
-0.5604392180506486 0.8919132317390549
-0.5958962792053627 0.8919132317390549
-0.5958962792053627 0.8919132317390549
-0.5249821568959344 1.0131581860853833
-0.47179656516386326 0.922224470325637
-0.48952509574122033 0.9828469474988013
-0.5604392180506486 0.9525357089122192
-0.5781677486280057 0.8312907545658906
-0.6313533403600768 0.922224470325637
-0.6136248097827197 1.0131581860853833
-0.5781677486280057 1.0434694246719656
-0.5427106874732915 1.0131581860853833
-0.5604392180506486 0.8616019931524728
-0.5604392180506486 0.922224470325637
-0.5958962792053627 0.9525357089122192
-0.5249821568959344 0.9828469474988013
-0.47179656516386326 1.0131581860853833
-0.47179656516386326 0.8616019931524728
-0.5072536263185774 0.8312907545658906
-0.5604392180506486 0.8009795159793085
-0.5958962792053627 0.9828469474988013
-0.5072536263185774 0.9828469474988013
-0.48952509574122033 0.9828469474988013
-0.5781677486280057 0.922224470325637
-0.6136248097827197 0.922224470325637
-0.666810401514791 0.9828469474988013
-0.6490818709374339 1.2253368561914584
-0.6136248097827197 1.376893049124369
-0.41861097343179204 1.4072042877109512
-0.1704115453487931 1.2253368561914584
0.1841590661983482 0.9525357089122192
0.6096438000549178 0.67973456163298
1.1414997173756298 0.5281783687000693
1.6910841652736988 0.2553772214208302
2.2938542049038393 -0.07804640303157327
2.7370674693377657 -0.5327149818303052
2.9852668974207646 -0.9873835606290372
3.07390955030755 -1.2601847079082764
2.843438652801908 -1.381429662254605
2.3647683272132674 -1.3208071850814407
1.9570121239340548 -1.2601847079082764
1.194685309107701 -1.1995622307351121
0.13097347446627702 -1.0480060378022014
-1.0922951353713606 -0.714582413349798
-2.1382784394354273 -0.4114700274839767
-2.7942340707976387 -0.13866888020473753
-2.9360623154164953 0.04319855131475525
-2.652405826178782 0.28568846000741227
-2.226921092322213 0.5281783687000693
-1.9255360725071426 0.7100458002195621
-1.730522236156215 0.8919132317390549
-1.4291372163411449 0.9525357089122192
-1.0922951353713606 0.9828469474988013
-0.8795527684430757 0.922224470325637
-0.7909101155562904 0.8312907545658906
-0.684538932092148 0.8312907545658906
-0.6490818709374339 0.8919132317390549
-0.5427106874732915 0.922224470325637
-0.4363395040091491 0.922224470325637
-0.4540680345865062 0.9525357089122192
-0.4363395040091491 0.8312907545658906
-0.4540680345865062 0.922224470325637
-0.41861097343179204 1.0434694246719656
-0.36542538169972083 1.0434694246719656
-0.25905419823557846 1.0434694246719656
-0.25905419823557846 1.0131581860853833
-0.25905419823557846 0.8616019931524728
-0.2945112593902926 0.8312907545658906
-0.3122397899676496 0.9828469474988013
-0.25905419823557846 1.1344031404317119
-0.15268301477143606 1.0737806632585476
-0.134954484194079 1.0131581860853833
-0.15268301477143606 0.7706682773927264
-0.1704115453487931 0.7706682773927264
-0.134954484194079 0.8312907545658906
-0.028583300729936582 0.9525357089122192
0.024602291002134614 0.9828469474988013
0.04233082157949168 0.8919132317390549
0.07778788273420581 0.7403570388061442
0.04233082157949168 0.7706682773927264
0.14870200504363407 0.8919132317390549
0.21961612735306235 0.8919132317390549
0.30825878023984765 0.8919132317390549
0.2905302496624906 0.7706682773927264
0.30825878023984765 0.7403570388061442
0.30825878023984765 0.67973456163298
0.37917290254927594 0.6494233230463978
0.4855440860134183 0.7706682773927264
0.6273723306322748 0.7706682773927264
0.6805579223643461 0.6494233230463978
0.6805579223643461 0.6494233230463978
0.7160149835190602 0.5281783687000693
0.7514720446737744 0.5888008458732336
0.8933002892926308 0.7403570388061442
0.9464858810247021 0.7403570388061442
0.9464858810247021 0.7403570388061442
0.9996714727567733 0.5584896072866514
0.928757350447345 0.43724465294032294
0.9642144116020591 0.6191120844598157
1.0174000033341304 0.5888008458732336
1.0883141256435587 0.67973456163298
1.1060426562209156 0.5888008458732336
1.0528570644888444 0.4069334143537408
0.9996714727567733 0.4069334143537408
1.0351285339114873 0.4978671301134872
1.0351285339114873 0.6191120844598157
1.0883141256435587 0.6494233230463978
1.0883141256435587 0.5888008458732336
1.0705855950662015 0.5584896072866514
1.0883141256435587 0.4675558915269051
1.0174000033341304 0.4978671301134872
1.0528570644888444 0.7100458002195621
1.1237711867982727 0.7100458002195621
1.0351285339114873 0.6494233230463978
0.9819429421794161 0.5888008458732336
0.8755717587152738 0.6191120844598157
0.8046576364058455 0.67973456163298
0.7514720446737744 0.7706682773927264
0.7692005752511314 0.8009795159793085
0.6805579223643461 0.7706682773927264
0.5741867389002037 0.67973456163298
0.4678155554360613 0.6494233230463978
0.396901433126633 0.8919132317390549
0.396901433126633 0.922224470325637
0.3437158413945618 1.1040919018451298
0.2550731885077765 0.9525357089122192
0.14870200504363407 0.8919132317390549
0.024602291002134614 0.9525357089122192
-0.010854770152579518 0.9828469474988013
-0.04631183130729365 0.9525357089122192
0.006873760424777549 1.0434694246719656
-0.134954484194079 1.0737806632585476
-0.22359713708086432 0.9828469474988013
-0.27678272881293553 0.9828469474988013
-0.3122397899676496 1.0434694246719656
-0.2945112593902926 1.1344031404317119
-0.2945112593902926 1.0737806632585476
-0.34769685112236376 1.0434694246719656
-0.41861097343179204 0.9525357089122192
-0.4540680345865062 0.9525357089122192
-0.400882442854435 1.0434694246719656
-0.400882442854435 1.1344031404317119
-0.3299683205450067 1.1950256176048761
-0.3831539122770779 1.0434694246719656
-0.41861097343179204 0.9828469474988013
-0.47179656516386326 1.0434694246719656
-0.47179656516386326 1.0131581860853833
-0.4540680345865062 1.164714379018294
-0.41861097343179204 1.1344031404317119
-0.41861097343179204 1.1344031404317119
-0.47179656516386326 0.9828469474988013
-0.5072536263185774 0.9525357089122192
-0.5072536263185774 0.9828469474988013
-0.47179656516386326 1.0737806632585476
-0.41861097343179204 1.1344031404317119
-0.41861097343179204 1.0737806632585476
-0.4540680345865062 1.0131581860853833
-0.48952509574122033 1.0131581860853833
-0.5072536263185774 1.0131581860853833
-0.41861097343179204 1.1950256176048761
-0.36542538169972083 1.1344031404317119
-0.400882442854435 1.0737806632585476
-0.47179656516386326 1.0131581860853833
-0.47179656516386326 1.0434694246719656
-0.4540680345865062 1.1344031404317119
-0.4363395040091491 1.2253368561914584
-0.36542538169972083 1.4072042877109512
-0.3299683205450067 1.2859593333646226
-0.36542538169972083 1.1344031404317119
-0.400882442854435 1.164714379018294
-0.34769685112236376 1.3162705719512047
-0.27678272881293553 1.4375155262975332
-0.15268301477143606 1.2556480947780404
-0.15268301477143606 1.2253368561914584
-0.15268301477143606 1.1344031404317119
-0.18814007592615017 1.0434694246719656
-0.134954484194079 1.164714379018294
-0.028583300729936582 1.1950256176048761
-0.04631183130729365 1.0434694246719656
-0.09949742303936485 1.0131581860853833
-0.18814007592615017 0.8312907545658906
-0.27678272881293553 0.8919132317390549
-0.2945112593902926 0.8312907545658906
-0.2413256676582214 0.922224470325637
-0.2413256676582214 0.9828469474988013
-0.27678272881293553 0.8312907545658906
-0.3122397899676496 0.7403570388061442
-0.41861097343179204 0.67973456163298
-0.41861097343179204 0.7706682773927264
-0.34769685112236376 0.9828469474988013
-0.3122397899676496 1.0131581860853833
-0.2945112593902926 1.0131581860853833
-0.34769685112236376 0.9525357089122192
-0.47179656516386326 0.8616019931524728
-0.5249821568959344 0.9828469474988013
-0.5249821568959344 1.0434694246719656
-0.5427106874732915 1.1040919018451298
-0.5249821568959344 1.0737806632585476
-0.5781677486280057 0.922224470325637
-0.6490818709374339 0.8919132317390549
-0.666810401514791 0.9525357089122192
-0.5958962792053627 1.0131581860853833
-0.5072536263185774 0.9525357089122192
-0.5072536263185774 0.922224470325637
-0.5249821568959344 0.8919132317390549
-0.5249821568959344 0.9525357089122192
-0.5604392180506486 0.9525357089122192
-0.5249821568959344 1.1344031404317119
-0.47179656516386326 1.0131581860853833
-0.5249821568959344 0.9525357089122192
-0.5604392180506486 0.9525357089122192
-0.6313533403600768 0.8616019931524728
-0.6136248097827197 0.9828469474988013
-0.5604392180506486 1.1040919018451298
-0.5249821568959344 1.0434694246719656
-0.5427106874732915 0.9828469474988013
-0.5604392180506486 0.9525357089122192
-0.6136248097827197 0.922224470325637
-0.5958962792053627 0.9828469474988013
-0.5427106874732915 1.0737806632585476
-0.48952509574122033 1.0131581860853833
-0.5072536263185774 0.922224470325637
-0.5958962792053627 0.8312907545658906
-0.5958962792053627 0.7403570388061442
-0.6313533403600768 1.0131581860853833
-0.5427106874732915 1.0434694246719656
-0.48952509574122033 1.0434694246719656
-0.5072536263185774 0.9828469474988013
-0.5427106874732915 0.8009795159793085
-0.5604392180506486 0.8616019931524728
-0.5604392180506486 1.0737806632585476
-0.5427106874732915 1.1344031404317119
-0.5249821568959344 1.1344031404317119
-0.5604392180506486 1.164714379018294
-0.5604392180506486 1.164714379018294
-0.5249821568959344 1.2556480947780404
-0.22359713708086432 1.2253368561914584
0.14870200504363407 1.2253368561914584
0.6982864529417031 0.8616019931524728
1.1769567785303439 0.5584896072866514
1.726541226428413 0.16444350566108376
2.258397143749125 -0.1992913573779018
2.807981591647194 -0.472092504657141
3.1802807337716925 -0.6842711747632159
3.1980092643490496 -1.0176947992156193
2.861167183379265 -1.3511184236680227
2.240668613171768 -1.381429662254605
1.5492559206548424 -1.2601847079082764
0.5387296777454895 -1.0176947992156193
-0.7377245238242193 -0.6236486975900516
-1.8723504807750715 -0.29022507313764817
-2.6701343567561393 -0.22960259596448393
-2.9360623154164953 0.012887312728173124
-2.6878628873334964 0.28568846000741227
-2.1205499088580706 0.6494233230463978
-1.783707827888286 0.922224470325637
-1.51777986922793 0.9828469474988013
-1.198666318835503 0.9525357089122192
-0.9859239519072182 0.922224470325637
-0.7731815849789334 0.8919132317390549
-0.6313533403600768 0.8919132317390549
-0.5427106874732915 1.0131581860853833
-0.4540680345865062 1.0131581860853833
-0.4363395040091491 0.8919132317390549
-0.5072536263185774 0.8919132317390549
-0.47179656516386326 0.8009795159793085
-0.47179656516386326 1.0131581860853833
-0.400882442854435 1.1040919018451298
-0.3299683205450067 1.1040919018451298
-0.3299683205450067 0.9828469474988013
-0.3122397899676496 0.8616019931524728
-0.3299683205450067 0.8312907545658906
-0.2945112593902926 0.9525357089122192
-0.20586860650350725 0.9828469474988013
-0.1704115453487931 1.0131581860853833
-0.11722595361672192 0.8919132317390549
-0.134954484194079 0.8616019931524728
-0.134954484194079 0.8616019931524728
-0.09949742303936485 0.9525357089122192
-0.028583300729936582 1.0434694246719656
0.04233082157949168 1.0131581860853833
0.04233082157949168 0.8919132317390549
0.024602291002134614 0.8312907545658906
0.04233082157949168 0.8312907545658906
0.09551641331156288 0.8919132317390549
0.1841590661983482 0.8919132317390549
0.27280171908513356 0.8616019931524728
0.2905302496624906 0.7706682773927264
0.36144437197191887 0.7706682773927264
0.36144437197191887 0.7100458002195621
0.5032726165907754 0.7706682773927264
0.5919152694775607 0.7706682773927264
0.662829391786989 0.8312907545658906
0.6982864529417031 0.6494233230463978
0.6805579223643461 0.5888008458732336
0.7337435140964172 0.5888008458732336
0.7869291058284884 0.5888008458732336
0.8755717587152738 0.7100458002195621
0.9464858810247021 0.7100458002195621
0.9642144116020591 0.6494233230463978
0.9642144116020591 0.5281783687000693
0.9996714727567733 0.4978671301134872
1.0351285339114873 0.5281783687000693
1.1060426562209156 0.7100458002195621
1.1769567785303439 0.6191120844598157
1.194685309107701 0.5888008458732336
1.194685309107701 0.5584896072866514
1.1769567785303439 0.43724465294032294
1.230142370262415 0.5888008458732336
1.2833279619944864 0.6494233230463978
1.2655994314171293 0.67973456163298
1.230142370262415 0.5888008458732336
1.194685309107701 0.5281783687000693
1.1237711867982727 0.5281783687000693
1.1060426562209156 0.4978671301134872
1.0705855950662015 0.7100458002195621
1.1237711867982727 0.7403570388061442
0.9996714727567733 0.6191120844598157
0.911028819869988 0.5888008458732336
0.7869291058284884 0.6191120844598157
0.7337435140964172 0.7706682773927264
0.6982864529417031 0.8919132317390549
0.662829391786989 0.922224470325637
0.5919152694775607 0.9525357089122192
0.4146299637039901 0.7706682773927264
0.27280171908513356 0.8616019931524728
0.16643053562099114 0.8919132317390549
0.20188759677570528 1.0131581860853833
0.1841590661983482 1.0434694246719656
0.07778788273420581 1.0737806632585476
0.024602291002134614 1.0131581860853833
-0.08176889246200779 0.922224470325637
-0.134954484194079 0.9828469474988013
-0.1704115453487931 1.1344031404317119
-0.134954484194079 1.1950256176048761
-0.1704115453487931 1.1040919018451298
-0.2413256676582214 1.0434694246719656
-0.3299683205450067 0.8616019931524728
-0.2945112593902926 0.9828469474988013
-0.3299683205450067 0.9828469474988013
-0.3299683205450067 1.0434694246719656
-0.3831539122770779 1.0131581860853833
-0.4363395040091491 0.9525357089122192
-0.47179656516386326 0.9828469474988013
-0.47179656516386326 1.0434694246719656
-0.41861097343179204 1.0434694246719656
-0.400882442854435 1.164714379018294
-0.36542538169972083 1.1040919018451298
-0.4540680345865062 1.0131581860853833
-0.5072536263185774 0.9525357089122192
-0.5249821568959344 1.0131581860853833
-0.41861097343179204 1.1950256176048761
-0.3831539122770779 1.1344031404317119
-0.41861097343179204 1.0737806632585476
-0.47179656516386326 1.0434694246719656
-0.48952509574122033 0.9828469474988013
-0.5072536263185774 1.0737806632585476
-0.47179656516386326 1.1344031404317119
-0.4363395040091491 1.164714379018294
-0.41861097343179204 1.1040919018451298
-0.400882442854435 1.1040919018451298
-0.4363395040091491 1.0434694246719656
-0.400882442854435 1.0737806632585476
-0.36542538169972083 1.3162705719512047
-0.3122397899676496 1.2556480947780404
-0.3299683205450067 1.2253368561914584
-0.3122397899676496 1.1950256176048761
-0.3122397899676496 1.164714379018294
-0.2945112593902926 1.2253368561914584
-0.1704115453487931 1.346581810537787
-0.09949742303936485 1.4375155262975332
-0.08176889246200779 1.2556480947780404
-0.134954484194079 1.1950256176048761
-0.15268301477143606 1.2253368561914584
-0.134954484194079 1.1344031404317119
-0.11722595361672192 1.2556480947780404
-0.11722595361672192 1.0737806632585476
-0.1704115453487931 0.9525357089122192
-0.27678272881293553 0.8919132317390549
-0.34769685112236376 0.8616019931524728
-0.3122397899676496 0.922224470325637
-0.27678272881293553 1.0737806632585476
-0.2413256676582214 1.0434694246719656
-0.3122397899676496 0.9828469474988013
-0.36542538169972083 0.8312907545658906
-0.4363395040091491 0.8312907545658906
-0.41861097343179204 0.922224470325637
-0.3831539122770779 0.9525357089122192
-0.3299683205450067 1.0131581860853833
-0.34769685112236376 0.9828469474988013
-0.3831539122770779 0.8616019931524728
-0.47179656516386326 0.9828469474988013
-0.5249821568959344 0.9525357089122192
-0.5427106874732915 1.0131581860853833
-0.4363395040091491 1.0737806632585476
-0.47179656516386326 0.9828469474988013
-0.4540680345865062 0.8919132317390549
-0.5072536263185774 0.8919132317390549
-0.5249821568959344 0.9525357089122192
-0.5072536263185774 1.0737806632585476
-0.47179656516386326 1.0131581860853833
-0.48952509574122033 0.9828469474988013
-0.5072536263185774 0.8616019931524728
-0.5781677486280057 0.8312907545658906
-0.5604392180506486 0.8616019931524728
-0.5427106874732915 0.9828469474988013
-0.4540680345865062 1.0434694246719656
-0.47179656516386326 0.9828469474988013
-0.5072536263185774 0.922224470325637
-0.5427106874732915 0.8616019931524728
-0.5249821568959344 0.8919132317390549
-0.48952509574122033 0.9828469474988013
-0.48952509574122033 1.0434694246719656
-0.47179656516386326 0.9525357089122192
-0.5427106874732915 0.9525357089122192
-0.5427106874732915 0.9828469474988013
-0.5604392180506486 0.8616019931524728
-0.5427106874732915 1.0434694246719656
-0.5072536263185774 1.0434694246719656
-0.5604392180506486 0.9525357089122192
-0.5781677486280057 0.922224470325637
-0.5958962792053627 0.9525357089122192
-0.5958962792053627 0.9828469474988013
-0.5249821568959344 1.0434694246719656
-0.47179656516386326 1.0737806632585476
-0.4540680345865062 0.9828469474988013
-0.48952509574122033 0.9525357089122192
-0.5427106874732915 0.922224470325637
-0.5427106874732915 0.9525357089122192
-0.5072536263185774 1.0434694246719656
-0.41861097343179204 1.0131581860853833
-0.47179656516386326 1.0131581860853833
-0.6136248097827197 0.8312907545658906
-0.684538932092148 0.922224470325637
-0.6313533403600768 1.2253368561914584
-0.47179656516386326 1.4072042877109512
-0.134954484194079 1.4678267648841155
0.2905302496624906 1.164714379018294
0.8755717587152738 0.8009795159793085
1.4251562066133427 0.43724465294032294
2.0279262462434833 0.2553772214208302
2.77252453049248 0.04319855131475525
3.393023100699977 -0.29022507313764817
3.7475937122471183 -0.8055161291095444
3.818507834556547 -1.2601847079082764
3.4284801618546914 -1.6239195709472618
2.6838818776056947 -1.654230809533844
1.974740654511412 -1.6239195709472618
1.0528570644888444 -1.5632970937740975
-0.2413256676582214 -1.3511184236680227
-1.51777986922793 -1.0176947992156193
-2.492849050982569 -0.6539599361766337
-2.8828767236844244 -0.3811587888973946
-2.741048479065568 0.07350978990133739
-2.315563745208998 0.4675558915269051
-1.8900790113524286 0.6494233230463978
-1.6418795832694295 0.7403570388061442
-1.3936801551864306 0.8009795159793085
-1.1277521965260746 0.8919132317390549
-0.8086386461336474 0.9828469474988013
-0.6136248097827197 1.0434694246719656
-0.5781677486280057 0.8919132317390549
-0.5427106874732915 0.8312907545658906
-0.5604392180506486 0.7706682773927264
-0.5072536263185774 0.922224470325637
-0.4540680345865062 1.0131581860853833
-0.41861097343179204 1.0131581860853833
-0.36542538169972083 0.9525357089122192
-0.41861097343179204 0.8919132317390549
-0.4363395040091491 0.8616019931524728
-0.41861097343179204 1.0131581860853833
-0.36542538169972083 1.0434694246719656
-0.2413256676582214 1.0737806632585476
-0.22359713708086432 0.9828469474988013
-0.27678272881293553 0.8312907545658906
-0.2413256676582214 0.8919132317390549
-0.25905419823557846 0.9828469474988013
-0.22359713708086432 1.0737806632585476
-0.08176889246200779 0.9828469474988013
-0.09949742303936485 0.8616019931524728
-0.06404036188465072 0.7706682773927264
-0.11722595361672192 0.7403570388061442
-0.04631183130729365 0.8009795159793085
0.04233082157949168 0.9525357089122192
0.13097347446627702 0.922224470325637
0.16643053562099114 0.8616019931524728
0.20188759677570528 0.7706682773927264
0.21961612735306235 0.7706682773927264
0.27280171908513356 0.7100458002195621
0.37917290254927594 0.8616019931524728
0.4678155554360613 0.8919132317390549
0.4855440860134183 0.7706682773927264
0.5032726165907754 0.6191120844598157
0.5210011471681325 0.6494233230463978
0.5919152694775607 0.7100458002195621
0.662829391786989 0.8312907545658906
0.7692005752511314 0.7403570388061442
0.8401146975605597 0.6191120844598157
0.8223861669832025 0.67973456163298
0.8578432281379167 0.43724465294032294
0.928757350447345 0.5281783687000693
0.9996714727567733 0.6494233230463978
1.0883141256435587 0.5584896072866514
1.1237711867982727 0.5584896072866514
1.1414997173756298 0.43724465294032294
1.1237711867982727 0.4675558915269051
1.1060426562209156 0.4978671301134872
1.1414997173756298 0.6494233230463978
1.2124138396850581 0.6494233230463978
1.230142370262415 0.5584896072866514
1.2124138396850581 0.4978671301134872
1.159228247952987 0.4675558915269051
1.159228247952987 0.6191120844598157
1.159228247952987 0.6494233230463978
1.2124138396850581 0.7100458002195621
1.159228247952987 0.6191120844598157
1.0351285339114873 0.5888008458732336
0.9642144116020591 0.5584896072866514
0.8755717587152738 0.67973456163298
0.7692005752511314 0.8009795159793085
0.7514720446737744 0.8616019931524728
0.662829391786989 0.8312907545658906
0.5564582083228466 0.8616019931524728
0.396901433126633 0.8009795159793085
0.36144437197191887 0.922224470325637
0.23734465793041942 0.9828469474988013
0.20188759677570528 1.0131581860853833
0.16643053562099114 0.9525357089122192
0.07778788273420581 0.8312907545658906
-0.06404036188465072 0.8919132317390549
-0.11722595361672192 0.9828469474988013
-0.09949742303936485 1.0434694246719656
-0.11722595361672192 0.9828469474988013
-0.18814007592615017 1.0131581860853833
-0.27678272881293553 0.9525357089122192
-0.400882442854435 0.922224470325637
-0.3831539122770779 0.9828469474988013
-0.400882442854435 1.164714379018294
-0.36542538169972083 1.1344031404317119
-0.400882442854435 0.9828469474988013
-0.47179656516386326 0.8919132317390549
-0.5249821568959344 0.922224470325637
-0.5249821568959344 1.0131581860853833
-0.47179656516386326 1.1040919018451298
-0.4540680345865062 1.1040919018451298
-0.47179656516386326 1.1040919018451298
-0.5249821568959344 0.9525357089122192
-0.5427106874732915 1.0434694246719656
-0.5781677486280057 1.0131581860853833
-0.5427106874732915 1.1344031404317119
-0.48952509574122033 1.0131581860853833
-0.5427106874732915 0.9525357089122192
-0.5604392180506486 0.922224470325637
-0.6313533403600768 0.9525357089122192
-0.5781677486280057 0.9525357089122192
-0.5249821568959344 1.0434694246719656
-0.4540680345865062 1.1040919018451298
-0.4363395040091491 1.0434694246719656
-0.41861097343179204 1.0434694246719656
-0.4363395040091491 0.9525357089122192
-0.4540680345865062 1.0737806632585476
-0.3831539122770779 1.164714379018294
-0.3299683205450067 1.2556480947780404
-0.3299683205450067 1.1950256176048761
-0.3831539122770779 1.1040919018451298
-0.41861097343179204 1.0434694246719656
-0.3299683205450067 1.1344031404317119
-0.25905419823557846 1.2253368561914584
-0.18814007592615017 1.2556480947780404
-0.22359713708086432 1.1950256176048761
-0.1704115453487931 1.1040919018451298
-0.18814007592615017 1.164714379018294
-0.15268301477143606 1.1344031404317119
-0.1704115453487931 1.1040919018451298
-0.18814007592615017 0.9525357089122192
-0.20586860650350725 0.8616019931524728
-0.27678272881293553 0.8312907545658906
-0.34769685112236376 0.7706682773927264
-0.36542538169972083 0.8312907545658906
-0.3831539122770779 0.9828469474988013
-0.3831539122770779 0.8919132317390549
-0.4540680345865062 0.8312907545658906
-0.47179656516386326 0.7100458002195621
-0.5249821568959344 0.7100458002195621
-0.5249821568959344 0.7706682773927264
-0.4363395040091491 0.922224470325637
-0.41861097343179204 0.9525357089122192
-0.47179656516386326 0.9525357089122192
-0.5781677486280057 0.8312907545658906
-0.6490818709374339 0.7706682773927264
-0.6313533403600768 0.8919132317390549
-0.6490818709374339 0.9525357089122192
-0.6313533403600768 0.9828469474988013
-0.6136248097827197 0.8312907545658906
-0.6136248097827197 0.7706682773927264
-0.7022674626695051 0.922224470325637
-0.7022674626695051 0.9828469474988013
-0.6490818709374339 0.922224470325637
-0.5958962792053627 0.9525357089122192
-0.5958962792053627 0.8312907545658906
-0.5781677486280057 0.8919132317390549
-0.6490818709374339 0.8312907545658906
-0.6313533403600768 0.922224470325637
-0.5958962792053627 1.0131581860853833
-0.5249821568959344 0.9525357089122192
-0.5604392180506486 0.8919132317390549
-0.5958962792053627 0.8009795159793085
-0.666810401514791 0.7706682773927264
-0.6490818709374339 0.8919132317390549
-0.6313533403600768 0.9525357089122192
-0.5781677486280057 0.922224470325637
-0.5781677486280057 0.922224470325637
-0.6313533403600768 0.8312907545658906
-0.684538932092148 0.7100458002195621
-0.666810401514791 0.7706682773927264
-0.6313533403600768 0.8919132317390549
-0.5249821568959344 0.922224470325637
-0.5249821568959344 0.8312907545658906
-0.5958962792053627 0.8009795159793085
-0.666810401514791 0.7706682773927264
-0.666810401514791 0.8616019931524728
-0.6136248097827197 0.922224470325637
-0.5427106874732915 0.9525357089122192
-0.5781677486280057 0.8616019931524728
-0.684538932092148 0.8009795159793085
-0.7554530544015763 0.8919132317390549
-0.7377245238242193 1.0131581860853833
-0.6136248097827197 1.2253368561914584
-0.25905419823557846 1.376893049124369
0.21961612735306235 1.0737806632585476
0.7692005752511314 0.6494233230463978
1.3365135537265576 0.34631093718057654
1.9392835933566979 0.10382102848791952
2.6306962858736234 -0.13866888020473753
3.2689233866584777 -0.502403743243723
3.641222528782976 -0.9570723220424551
3.623493998205619 -1.5632970937740975
3.07390955030755 -1.9270319568130831
2.3824968577906245 -1.9573431953996654
1.6024415123869136 -1.8360982410533369
0.662829391786989 -1.5936083323606798
-0.7377245238242193 -1.3511184236680227
-2.049635786548642 -1.0783172763887836
-2.9006052542617815 -0.6842711747632159
-2.9892479071485667 -0.35084755031081244
-2.54603464271464 0.1947547442476659
-2.049635786548642 0.6191120844598157
-1.730522236156215 0.7706682773927264
-1.51777986922793 0.7706682773927264
-1.2695804411449312 0.67973456163298
-1.0213810130619323 0.8312907545658906
-0.7909101155562904 0.8312907545658906
-0.666810401514791 0.8919132317390549
-0.5958962792053627 0.8009795159793085
-0.5958962792053627 0.7706682773927264
-0.6136248097827197 0.8616019931524728
-0.5604392180506486 0.8919132317390549
-0.4363395040091491 0.9828469474988013
-0.36542538169972083 0.9828469474988013
-0.36542538169972083 0.922224470325637
-0.3831539122770779 0.8616019931524728
-0.4363395040091491 0.8616019931524728
-0.400882442854435 0.9525357089122192
-0.36542538169972083 0.8919132317390549
-0.27678272881293553 0.922224470325637
-0.2413256676582214 0.8616019931524728
-0.2413256676582214 0.67973456163298
-0.22359713708086432 0.7403570388061442
-0.20586860650350725 0.8312907545658906
-0.134954484194079 0.8616019931524728
-0.010854770152579518 0.9828469474988013
0.060059352156848746 0.8009795159793085
0.04233082157949168 0.7403570388061442
0.04233082157949168 0.67973456163298
0.07778788273420581 0.67973456163298
0.13097347446627702 0.7706682773927264
0.21961612735306235 0.7706682773927264
0.2905302496624906 0.7706682773927264
0.3259873108172047 0.67973456163298
0.3259873108172047 0.5888008458732336
0.396901433126633 0.67973456163298
0.5210011471681325 0.6191120844598157
0.662829391786989 0.6494233230463978
0.7337435140964172 0.4978671301134872
0.7514720446737744 0.4978671301134872
0.7514720446737744 0.4675558915269051
0.8223861669832025 0.5281783687000693
0.911028819869988 0.6494233230463978
0.928757350447345 0.5584896072866514
1.0174000033341304 0.4069334143537408
0.9819429421794161 0.34631093718057654
0.9464858810247021 0.3159996985939944
0.9642144116020591 0.4069334143537408
1.0174000033341304 0.5281783687000693
1.0705855950662015 0.4978671301134872
1.1060426562209156 0.5584896072866514
1.1060426562209156 0.43724465294032294
1.0883141256435587 0.3159996985939944
1.0705855950662015 0.4675558915269051
1.0705855950662015 0.5584896072866514
1.1060426562209156 0.5584896072866514
1.0528570644888444 0.5584896072866514
0.9464858810247021 0.4675558915269051
0.8046576364058455 0.5584896072866514
0.7337435140964172 0.5888008458732336
0.6982864529417031 0.7100458002195621
0.6805579223643461 0.8009795159793085
0.5919152694775607 0.7403570388061442
0.4678155554360613 0.67973456163298
0.3259873108172047 0.7100458002195621
0.2550731885077765 0.8312907545658906
0.1841590661983482 0.9828469474988013
0.21961612735306235 0.9828469474988013
0.11324494388891995 0.8919132317390549
-0.04631183130729365 0.8312907545658906
-0.1704115453487931 0.8919132317390549
-0.25905419823557846 0.8919132317390549
-0.25905419823557846 1.0737806632585476
-0.2945112593902926 1.1040919018451298
-0.3299683205450067 1.0131581860853833
-0.400882442854435 0.9525357089122192
-0.4540680345865062 0.9525357089122192
-0.47179656516386326 0.922224470325637
-0.4363395040091491 1.0434694246719656
-0.47179656516386326 1.0434694246719656
-0.47179656516386326 1.0131581860853833
-0.5249821568959344 0.8616019931524728
-0.5427106874732915 0.922224470325637
-0.5781677486280057 0.922224470325637
-0.5781677486280057 1.0131581860853833
-0.5604392180506486 1.0434694246719656
-0.5427106874732915 1.0434694246719656
-0.5958962792053627 0.9828469474988013
-0.6313533403600768 0.9525357089122192
-0.666810401514791 0.9828469474988013
-0.5781677486280057 1.1040919018451298
-0.5427106874732915 1.0131581860853833
-0.5072536263185774 0.922224470325637
-0.5427106874732915 0.8312907545658906
-0.5781677486280057 0.8919132317390549
-0.5781677486280057 0.9525357089122192
-0.5249821568959344 1.1040919018451298
-0.48952509574122033 1.1950256176048761
-0.48952509574122033 1.1950256176048761
-0.48952509574122033 1.0434694246719656
-0.5072536263185774 1.0131581860853833
-0.48952509574122033 1.1344031404317119
-0.4540680345865062 1.2556480947780404
-0.36542538169972083 1.2859593333646226
-0.4363395040091491 1.1950256176048761
-0.400882442854435 1.1040919018451298
-0.4540680345865062 1.0737806632585476
-0.400882442854435 1.1344031404317119
-0.3122397899676496 1.346581810537787
-0.2413256676582214 1.2253368561914584
-0.20586860650350725 1.2556480947780404
-0.22359713708086432 1.1344031404317119
-0.25905419823557846 1.0434694246719656
-0.3122397899676496 1.0737806632585476
-0.2945112593902926 1.0131581860853833
-0.3299683205450067 1.0434694246719656
-0.3831539122770779 0.922224470325637
-0.47179656516386326 0.7403570388061442
-0.48952509574122033 0.7403570388061442
-0.5427106874732915 0.7100458002195621
-0.48952509574122033 0.8312907545658906
-0.48952509574122033 0.7706682773927264
-0.5249821568959344 0.7706682773927264
-0.5604392180506486 0.67973456163298
-0.5781677486280057 0.7403570388061442
-0.5781677486280057 0.8312907545658906
-0.5249821568959344 0.8919132317390549
-0.5072536263185774 0.9525357089122192
-0.5604392180506486 0.922224470325637
-0.7022674626695051 0.7706682773927264
-0.7199959932468621 0.7706682773927264
-0.7022674626695051 0.8009795159793085
-0.6490818709374339 0.8919132317390549
-0.6490818709374339 0.8919132317390549
-0.6136248097827197 0.8009795159793085
-0.684538932092148 0.7706682773927264
-0.7022674626695051 0.7403570388061442
-0.666810401514791 0.8616019931524728
-0.6490818709374339 0.9828469474988013
-0.5958962792053627 0.8919132317390549
-0.6490818709374339 0.8616019931524728
-0.666810401514791 0.8616019931524728
-0.7377245238242193 0.7706682773927264
-0.7377245238242193 0.8009795159793085
-0.684538932092148 0.8616019931524728
-0.6136248097827197 0.8616019931524728
-0.6136248097827197 0.922224470325637
-0.684538932092148 0.8312907545658906
-0.684538932092148 0.7403570388061442
-0.666810401514791 0.8009795159793085
-0.6313533403600768 0.8919132317390549
-0.5958962792053627 0.8616019931524728
-0.5958962792053627 0.8312907545658906
-0.666810401514791 0.7706682773927264
-0.7022674626695051 0.67973456163298
-0.7022674626695051 0.8616019931524728
-0.6313533403600768 0.9525357089122192
-0.5958962792053627 1.0131581860853833
-0.6136248097827197 0.8616019931524728
-0.6490818709374339 0.8009795159793085
-0.6313533403600768 0.7403570388061442
-0.6313533403600768 0.8312907545658906
-0.6313533403600768 0.8009795159793085
-0.5958962792053627 0.8616019931524728
-0.6313533403600768 0.8009795159793085
-0.7022674626695051 0.8919132317390549
-0.7554530544015763 1.0131581860853833
-0.684538932092148 1.2253368561914584
-0.3299683205450067 1.3162705719512047
0.20188759677570528 1.0131581860853833
0.7514720446737744 0.67973456163298
1.2655994314171293 0.22506598283424803
1.761998287583127 -0.017423925858409007
2.4002253883679816 -0.3205363117242303
3.0029954279981217 -0.5630262204168873
3.37529457012262 -0.9570723220424551
3.4107516312773343 -1.4420521394277692
3.020723958575479 -1.8360982410533369
2.329311266058553 -2.0179656725728297
1.5847129818095564 -1.8664094796399189
0.7337435140964172 -1.7451645252935903
-0.5249821568959344 -1.4723633780143512
-1.8368934196203572 -1.0480060378022014
-2.829691131952353 -0.8358273676961265
-3.113347621190066 -0.502403743243723
-2.741048479065568 -0.017423925858409007
-2.209192561744856 0.4675558915269051
-1.783707827888286 0.7403570388061442
-1.482322808073216 0.7100458002195621
-1.2341233799902172 0.5888008458732336
-0.9859239519072182 0.5888008458732336
-0.8440957072883616 0.7100458002195621
-0.7377245238242193 0.7403570388061442
-0.6313533403600768 0.7403570388061442
-0.6490818709374339 0.7706682773927264
-0.6313533403600768 0.6494233230463978
-0.666810401514791 0.7403570388061442
-0.6313533403600768 0.7100458002195621
-0.5781677486280057 0.8009795159793085
-0.48952509574122033 0.8616019931524728
-0.4540680345865062 0.8312907545658906
-0.47179656516386326 0.7100458002195621
-0.5072536263185774 0.7706682773927264
-0.41861097343179204 0.7403570388061442
-0.34769685112236376 0.8009795159793085
-0.3122397899676496 0.8919132317390549
-0.27678272881293553 0.7706682773927264
-0.25905419823557846 0.6494233230463978
-0.34769685112236376 0.6191120844598157
-0.2945112593902926 0.7100458002195621
-0.20586860650350725 0.7403570388061442
-0.15268301477143606 0.7706682773927264
-0.09949742303936485 0.7403570388061442
-0.15268301477143606 0.67973456163298
-0.11722595361672192 0.5888008458732336
-0.028583300729936582 0.6494233230463978
0.04233082157949168 0.7403570388061442
0.16643053562099114 0.67973456163298
0.20188759677570528 0.67973456163298
0.23734465793041942 0.6494233230463978
0.2550731885077765 0.5281783687000693
0.2905302496624906 0.5888008458732336
0.396901433126633 0.67973456163298
0.5210011471681325 0.5888008458732336
0.5741867389002037 0.43724465294032294
0.5387296777454895 0.3766221757671587
0.5741867389002037 0.28568846000741227
0.645100861209632 0.4069334143537408
0.7337435140964172 0.4978671301134872
0.8046576364058455 0.5281783687000693
0.8401146975605597 0.4069334143537408
0.8223861669832025 0.3159996985939944
0.8755717587152738 0.3159996985939944
0.911028819869988 0.1947547442476659
0.9642144116020591 0.43724465294032294
1.0351285339114873 0.5281783687000693
1.0174000033341304 0.3766221757671587
0.9464858810247021 0.1947547442476659
0.911028819869988 0.2553772214208302
0.911028819869988 0.34631093718057654
0.9642144116020591 0.43724465294032294
1.0174000033341304 0.4675558915269051
0.9464858810247021 0.3766221757671587
0.9464858810247021 0.4069334143537408
0.8223861669832025 0.3766221757671587
0.8046576364058455 0.4978671301134872
0.7337435140964172 0.5888008458732336
0.7160149835190602 0.5584896072866514
0.6273723306322748 0.5888008458732336
0.4855440860134183 0.4675558915269051
0.396901433126633 0.6191120844598157
0.30825878023984765 0.6191120844598157
0.23734465793041942 0.7100458002195621
0.20188759677570528 0.7403570388061442
0.13097347446627702 0.7100458002195621
-0.028583300729936582 0.7403570388061442
-0.15268301477143606 0.7403570388061442
-0.1704115453487931 0.8919132317390549
-0.22359713708086432 0.922224470325637
-0.2413256676582214 0.8616019931524728
-0.27678272881293553 0.8919132317390549
-0.3831539122770779 0.8312907545658906
-0.4540680345865062 0.8009795159793085
-0.5249821568959344 0.8312907545658906
-0.48952509574122033 1.0131581860853833
-0.4540680345865062 0.8919132317390549
-0.48952509574122033 0.9525357089122192
-0.5604392180506486 0.8312907545658906
-0.6313533403600768 0.8009795159793085
-0.6313533403600768 0.8616019931524728
-0.6490818709374339 1.0131581860853833
-0.5604392180506486 0.9525357089122192
-0.5427106874732915 0.9525357089122192
-0.6136248097827197 0.8312907545658906
-0.6490818709374339 0.8312907545658906
-0.666810401514791 0.9525357089122192
-0.6313533403600768 0.9828469474988013
-0.5781677486280057 1.0434694246719656
-0.6136248097827197 0.8919132317390549
-0.684538932092148 0.8312907545658906
-0.7022674626695051 0.8616019931524728
-0.7199959932468621 0.8312907545658906
-0.666810401514791 1.0131581860853833
-0.5958962792053627 1.0434694246719656
-0.5958962792053627 0.922224470325637
-0.6136248097827197 0.8312907545658906
-0.666810401514791 0.8616019931524728
-0.5958962792053627 0.8919132317390549
-0.5604392180506486 1.0434694246719656
-0.47179656516386326 1.0737806632585476
-0.4540680345865062 1.1344031404317119
-0.5249821568959344 1.0737806632585476
-0.5072536263185774 1.1040919018451298
-0.5072536263185774 1.164714379018294
-0.4363395040091491 1.1950256176048761
-0.36542538169972083 1.2253368561914584
-0.41861097343179204 1.1950256176048761
-0.400882442854435 1.0737806632585476
-0.41861097343179204 1.0434694246719656
-0.400882442854435 1.164714379018294
-0.3299683205450067 1.1950256176048761
-0.18814007592615017 1.2253368561914584
-0.15268301477143606 1.1040919018451298
-0.2413256676582214 0.9828469474988013
-0.3299683205450067 0.8312907545658906
-0.400882442854435 0.8616019931524728
-0.41861097343179204 0.8919132317390549
-0.3831539122770779 0.8312907545658906
-0.41861097343179204 0.7706682773927264
-0.48952509574122033 0.5888008458732336
-0.5781677486280057 0.5584896072866514
-0.666810401514791 0.6494233230463978
-0.5958962792053627 0.7100458002195621
-0.5604392180506486 0.8009795159793085
-0.5427106874732915 0.8009795159793085
-0.5072536263185774 0.7403570388061442
-0.6313533403600768 0.8009795159793085
-0.666810401514791 0.8312907545658906
-0.684538932092148 0.8919132317390549
-0.6490818709374339 0.9828469474988013
-0.6490818709374339 0.8312907545658906
-0.7199959932468621 0.7706682773927264
-0.7731815849789334 0.7403570388061442
-0.7377245238242193 0.8616019931524728
-0.7554530544015763 0.8919132317390549
-0.7199959932468621 0.8919132317390549
-0.7022674626695051 0.8616019931524728
-0.7199959932468621 0.7100458002195621
-0.7909101155562904 0.7706682773927264
-0.7199959932468621 0.8616019931524728
-0.7022674626695051 0.8312907545658906
-0.6490818709374339 0.9828469474988013
-0.666810401514791 0.8919132317390549
-0.7554530544015763 0.7706682773927264
-0.8086386461336474 0.7403570388061442
-0.7554530544015763 0.8312907545658906
-0.684538932092148 0.8919132317390549
-0.684538932092148 0.922224470325637
-0.684538932092148 0.8312907545658906
-0.7554530544015763 0.7706682773927264
-0.7731815849789334 0.8009795159793085
-0.7377245238242193 0.7100458002195621
-0.6490818709374339 0.8919132317390549
-0.6136248097827197 0.8616019931524728
-0.5958962792053627 0.8009795159793085
-0.6490818709374339 0.7706682773927264
-0.7199959932468621 0.5888008458732336
-0.7199959932468621 0.7403570388061442
-0.684538932092148 0.8312907545658906
-0.6490818709374339 0.8616019931524728
-0.6313533403600768 0.7706682773927264
-0.666810401514791 0.7100458002195621
-0.684538932092148 0.7403570388061442
-0.7731815849789334 0.8919132317390549
-0.7377245238242193 1.0434694246719656
-0.6490818709374339 1.1950256176048761
-0.41861097343179204 1.1040919018451298
-0.09949742303936485 0.9525357089122192
0.30825878023984765 0.6494233230463978
0.8223861669832025 0.3159996985939944
1.460613267768057 0.04319855131475525
2.0988403685529113 -0.502403743243723
2.6129677552962662 -0.8661386062827087
2.8788957139566222 -1.3511184236680227
2.77252453049248 -1.6239195709472618
2.258397143749125 -1.7148532867070083
1.6201700429642705 -1.5632970937740975
0.928757350447345 -1.5026746166009335
-0.20586860650350725 -1.2904959464948584
-1.5000513386505732 -1.0480060378022014
-2.510577581559926 -0.7448936519363801
-3.095619090612709 -0.3811587888973946
-2.9360623154164953 0.07350978990133739
-2.386477867518426 0.4978671301134872
-1.9432646030844998 0.6191120844598157
-1.6418795832694295 0.6191120844598157
-1.4114086857637878 0.5888008458732336
-1.1277521965260746 0.6191120844598157
-0.8795527684430757 0.6191120844598157
-0.7022674626695051 0.67973456163298
-0.684538932092148 0.6494233230463978
-0.666810401514791 0.6191120844598157
-0.684538932092148 0.6494233230463978
-0.5958962792053627 0.7403570388061442
-0.5072536263185774 0.922224470325637
-0.41861097343179204 0.9525357089122192
-0.4363395040091491 0.8009795159793085
-0.41861097343179204 0.6494233230463978
-0.4540680345865062 0.6494233230463978
-0.4363395040091491 0.7100458002195621
-0.3831539122770779 0.8312907545658906
-0.27678272881293553 0.9525357089122192
-0.25905419823557846 0.7100458002195621
-0.2945112593902926 0.7100458002195621
-0.2945112593902926 0.6494233230463978
-0.22359713708086432 0.7403570388061442
-0.1704115453487931 0.8009795159793085
-0.08176889246200779 0.7100458002195621
-0.04631183130729365 0.7706682773927264
-0.04631183130729365 0.5584896072866514
-0.09949742303936485 0.5584896072866514
-0.010854770152579518 0.5584896072866514
0.060059352156848746 0.7403570388061442
0.16643053562099114 0.8009795159793085
0.20188759677570528 0.6494233230463978
0.21961612735306235 0.43724465294032294
0.2550731885077765 0.4675558915269051
0.36144437197191887 0.43724465294032294
0.4500870248587042 0.4978671301134872
0.5741867389002037 0.5281783687000693
0.6273723306322748 0.4675558915269051
0.662829391786989 0.4069334143537408
0.6805579223643461 0.28568846000741227
0.6982864529417031 0.3766221757671587
0.7869291058284884 0.43724465294032294
0.8755717587152738 0.43724465294032294
0.8578432281379167 0.34631093718057654
0.8755717587152738 0.2553772214208302
0.8578432281379167 0.1947547442476659
0.8401146975605597 0.28568846000741227
0.911028819869988 0.43724465294032294
0.9996714727567733 0.4069334143537408
1.0351285339114873 0.34631093718057654
1.0528570644888444 0.28568846000741227
0.9819429421794161 0.1947547442476659
0.9996714727567733 0.3159996985939944
0.9996714727567733 0.3766221757671587
0.9996714727567733 0.4069334143537408
0.9819429421794161 0.34631093718057654
0.8933002892926308 0.3766221757671587
0.8046576364058455 0.34631093718057654
0.7692005752511314 0.4675558915269051
0.7692005752511314 0.5281783687000693
0.7337435140964172 0.67973456163298
0.662829391786989 0.7100458002195621
0.4855440860134183 0.5281783687000693
0.36144437197191887 0.5584896072866514
0.3259873108172047 0.7100458002195621
0.27280171908513356 0.7706682773927264
0.23734465793041942 0.67973456163298
0.09551641331156288 0.6494233230463978
-0.04631183130729365 0.7100458002195621
-0.134954484194079 0.6191120844598157
-0.20586860650350725 0.6494233230463978
-0.1704115453487931 0.8616019931524728
-0.18814007592615017 0.8919132317390549
-0.2945112593902926 0.8312907545658906
-0.3299683205450067 0.7100458002195621
-0.3831539122770779 0.7706682773927264
-0.41861097343179204 0.8009795159793085
-0.41861097343179204 0.9525357089122192
-0.3831539122770779 0.9828469474988013
-0.400882442854435 0.8616019931524728
-0.4540680345865062 0.67973456163298
-0.5427106874732915 0.7706682773927264
-0.5249821568959344 0.8616019931524728
-0.48952509574122033 0.9525357089122192
-0.4363395040091491 0.922224470325637
-0.5249821568959344 0.8919132317390549
-0.5249821568959344 0.8616019931524728
-0.5958962792053627 0.8616019931524728
-0.5781677486280057 0.8312907545658906
-0.5249821568959344 0.922224470325637
-0.47179656516386326 0.9525357089122192
-0.47179656516386326 0.8312907545658906
-0.5604392180506486 0.7403570388061442
-0.5604392180506486 0.7100458002195621
-0.5958962792053627 0.8312907545658906
-0.5781677486280057 0.9828469474988013
-0.5604392180506486 0.8919132317390549
-0.5427106874732915 0.8616019931524728
-0.5781677486280057 0.8312907545658906
-0.5604392180506486 0.8616019931524728
-0.5604392180506486 0.922224470325637
-0.48952509574122033 1.0131581860853833
-0.4363395040091491 1.0131581860853833
-0.36542538169972083 1.0434694246719656
-0.36542538169972083 0.9828469474988013
-0.400882442854435 0.9525357089122192
-0.400882442854435 0.9525357089122192
-0.3299683205450067 1.1344031404317119
-0.2945112593902926 1.164714379018294
-0.25905419823557846 1.1344031404317119
-0.22359713708086432 0.9525357089122192
-0.2413256676582214 0.9525357089122192
-0.25905419823557846 1.0737806632585476
-0.22359713708086432 1.0737806632585476
-0.134954484194079 1.0434694246719656
-0.1704115453487931 0.922224470325637
-0.25905419823557846 0.7100458002195621
-0.3299683205450067 0.67973456163298
-0.34769685112236376 0.6191120844598157
-0.3299683205450067 0.7403570388061442
-0.27678272881293553 0.7100458002195621
-0.34769685112236376 0.6494233230463978
-0.41861097343179204 0.4978671301134872
-0.47179656516386326 0.5584896072866514
-0.5072536263185774 0.5888008458732336
-0.47179656516386326 0.7403570388061442
-0.400882442854435 0.7706682773927264
-0.3831539122770779 0.7100458002195621
-0.5072536263185774 0.7100458002195621
-0.6490818709374339 0.7403570388061442
-0.6490818709374339 0.7706682773927264
-0.6313533403600768 0.8312907545658906
-0.5604392180506486 0.8616019931524728
-0.5427106874732915 0.7706682773927264
-0.6136248097827197 0.67973456163298
-0.666810401514791 0.67973456163298
-0.7022674626695051 0.7100458002195621
-0.6490818709374339 0.7706682773927264
-0.5958962792053627 0.8312907545658906
-0.5958962792053627 0.7100458002195621
-0.6313533403600768 0.7100458002195621
-0.666810401514791 0.67973456163298
-0.666810401514791 0.7403570388061442
-0.6490818709374339 0.8312907545658906
-0.5958962792053627 0.8009795159793085
-0.5781677486280057 0.8009795159793085
-0.5958962792053627 0.6494233230463978
-0.6136248097827197 0.5888008458732336
-0.5958962792053627 0.6191120844598157
-0.6136248097827197 0.8919132317390549
-0.5604392180506486 0.8616019931524728
-0.5604392180506486 0.7706682773927264
-0.6136248097827197 0.67973456163298
-0.666810401514791 0.5584896072866514
-0.7022674626695051 0.7100458002195621
-0.5958962792053627 0.8616019931524728
-0.5072536263185774 0.8009795159793085
-0.5427106874732915 0.8009795159793085
-0.5958962792053627 0.67973456163298
-0.5958962792053627 0.6494233230463978
-0.5958962792053627 0.8009795159793085
-0.5427106874732915 0.8312907545658906
-0.48952509574122033 0.8616019931524728
-0.5427106874732915 0.8919132317390549
-0.6313533403600768 0.8616019931524728
-0.7199959932468621 0.8616019931524728
-0.684538932092148 1.0434694246719656
-0.47179656516386326 1.2253368561914584
-0.134954484194079 1.0434694246719656
0.2550731885077765 0.67973456163298
0.7337435140964172 0.28568846000741227
1.1769567785303439 0.04319855131475525
1.7442697570057701 -0.3811587888973946
2.4002253883679816 -0.6539599361766337
2.9143527751113365 -1.0480060378022014
3.038452489152836 -1.4723633780143512
2.6838818776056947 -1.7148532867070083
2.1165688991302685 -1.684542048120426
1.4251562066133427 -1.5026746166009335
0.4500870248587042 -1.16925099214853
-0.7377245238242193 -0.9570723220424551
-1.9078075419297855 -0.6842711747632159
-2.758777009642925 -0.44178126607055884
-2.9892479071485667 -0.25991383455106604
-2.652405826178782 0.07350978990133739
-2.1382784394354273 0.43724465294032294
-1.730522236156215 0.6191120844598157
-1.5355083998052872 0.5888008458732336
-1.2695804411449312 0.5584896072866514
-1.0568380742166463 0.4978671301134872
-0.8086386461336474 0.5584896072866514
-0.684538932092148 0.6191120844598157
-0.6490818709374339 0.67973456163298
-0.5958962792053627 0.6494233230463978
-0.5427106874732915 0.5584896072866514
-0.5427106874732915 0.5584896072866514
-0.48952509574122033 0.5888008458732336
-0.36542538169972083 0.7100458002195621
-0.27678272881293553 0.7100458002195621
-0.25905419823557846 0.6494233230463978
-0.3122397899676496 0.5584896072866514
-0.3122397899676496 0.4978671301134872
-0.3122397899676496 0.6191120844598157
-0.27678272881293553 0.6494233230463978
-0.18814007592615017 0.5888008458732336
-0.18814007592615017 0.5888008458732336
-0.15268301477143606 0.5281783687000693
-0.09949742303936485 0.5281783687000693
-0.11722595361672192 0.5281783687000693
-0.010854770152579518 0.6494233230463978
0.09551641331156288 0.6494233230463978
0.14870200504363407 0.4978671301134872
0.11324494388891995 0.5281783687000693
0.09551641331156288 0.34631093718057654
0.16643053562099114 0.5888008458732336
0.20188759677570528 0.6191120844598157
0.3259873108172047 0.5584896072866514
0.3437158413945618 0.4978671301134872
0.3437158413945618 0.34631093718057654
0.3437158413945618 0.3159996985939944
0.396901433126633 0.28568846000741227
0.5210011471681325 0.43724465294032294
0.6805579223643461 0.43724465294032294
0.7514720446737744 0.34631093718057654
0.7692005752511314 0.2553772214208302
0.7692005752511314 0.16444350566108376
0.8223861669832025 0.28568846000741227
0.9464858810247021 0.4069334143537408
0.9819429421794161 0.3159996985939944
1.0351285339114873 0.2553772214208302
0.9996714727567733 0.16444350566108376
1.0174000033341304 0.07350978990133739
1.0174000033341304 0.13413226707450165
1.0351285339114873 0.22506598283424803
1.1060426562209156 0.28568846000741227
1.1060426562209156 0.16444350566108376
1.0883141256435587 0.13413226707450165
1.0351285339114873 0.13413226707450165
1.0705855950662015 0.16444350566108376
1.1237711867982727 0.3159996985939944
1.1414997173756298 0.34631093718057654
1.1060426562209156 0.2553772214208302
0.9996714727567733 0.1947547442476659
0.928757350447345 0.22506598283424803
0.9464858810247021 0.2553772214208302
0.911028819869988 0.4069334143537408
0.8578432281379167 0.4978671301134872
0.7337435140964172 0.4978671301134872
0.645100861209632 0.34631093718057654
0.5387296777454895 0.43724465294032294
0.4678155554360613 0.43724465294032294
0.4678155554360613 0.5281783687000693
0.4146299637039901 0.4675558915269051
0.30825878023984765 0.5281783687000693
0.20188759677570528 0.5888008458732336
0.11324494388891995 0.4978671301134872
0.060059352156848746 0.6494233230463978
0.04233082157949168 0.7100458002195621
0.060059352156848746 0.7403570388061442
-0.04631183130729365 0.7100458002195621
-0.15268301477143606 0.6191120844598157
-0.2413256676582214 0.5584896072866514
-0.25905419823557846 0.6494233230463978
-0.27678272881293553 0.7706682773927264
-0.25905419823557846 0.8312907545658906
-0.2945112593902926 0.67973456163298
-0.3831539122770779 0.5584896072866514
-0.400882442854435 0.5281783687000693
-0.3831539122770779 0.6191120844598157
-0.36542538169972083 0.67973456163298
-0.3122397899676496 0.7100458002195621
-0.34769685112236376 0.7100458002195621
-0.400882442854435 0.6191120844598157
-0.41861097343179204 0.6191120844598157
-0.4540680345865062 0.5888008458732336
-0.4363395040091491 0.7100458002195621
-0.4363395040091491 0.7403570388061442
-0.4540680345865062 0.7706682773927264
-0.4540680345865062 0.6191120844598157
-0.5249821568959344 0.6191120844598157
-0.47179656516386326 0.7100458002195621
-0.48952509574122033 0.7403570388061442
-0.41861097343179204 0.8009795159793085
-0.4363395040091491 0.7403570388061442
-0.5072536263185774 0.67973456163298
-0.5072536263185774 0.6494233230463978
-0.47179656516386326 0.67973456163298
-0.41861097343179204 0.7100458002195621
-0.36542538169972083 0.8312907545658906
-0.34769685112236376 0.8009795159793085
-0.400882442854435 0.7403570388061442
-0.400882442854435 0.8009795159793085
-0.34769685112236376 0.7706682773927264
-0.2945112593902926 0.922224470325637
-0.22359713708086432 0.8616019931524728
-0.2413256676582214 0.8919132317390549
-0.3122397899676496 0.7403570388061442
-0.27678272881293553 0.8616019931524728
-0.25905419823557846 0.7706682773927264
-0.134954484194079 0.922224470325637
-0.028583300729936582 0.9525357089122192
0.006873760424777549 0.8919132317390549
-0.028583300729936582 0.8312907545658906
-0.028583300729936582 0.7100458002195621
-0.06404036188465072 0.7403570388061442
-0.06404036188465072 0.7706682773927264
-0.06404036188465072 0.6191120844598157
-0.134954484194079 0.5281783687000693
-0.1704115453487931 0.4978671301134872
-0.20586860650350725 0.43724465294032294
-0.25905419823557846 0.5281783687000693
-0.2413256676582214 0.6191120844598157
-0.22359713708086432 0.5281783687000693
-0.27678272881293553 0.4675558915269051
-0.3122397899676496 0.4069334143537408
-0.34769685112236376 0.34631093718057654
-0.3122397899676496 0.4675558915269051
-0.3122397899676496 0.6494233230463978
-0.27678272881293553 0.6494233230463978
-0.3831539122770779 0.5281783687000693
-0.48952509574122033 0.43724465294032294
-0.5072536263185774 0.5281783687000693
-0.5072536263185774 0.5281783687000693
-0.4540680345865062 0.6191120844598157
-0.41861097343179204 0.5888008458732336
-0.41861097343179204 0.5584896072866514
-0.4363395040091491 0.4069334143537408
-0.48952509574122033 0.4675558915269051
-0.48952509574122033 0.43724465294032294
-0.4363395040091491 0.6494233230463978
-0.400882442854435 0.6191120844598157
-0.4363395040091491 0.5281783687000693
-0.48952509574122033 0.4675558915269051
-0.5604392180506486 0.43724465294032294
-0.5427106874732915 0.4978671301134872
-0.47179656516386326 0.6191120844598157
-0.4363395040091491 0.6494233230463978
-0.48952509574122033 0.6494233230463978
-0.5072536263185774 0.5281783687000693
-0.5249821568959344 0.4675558915269051
-0.5427106874732915 0.5281783687000693
-0.4540680345865062 0.6494233230463978
-0.41861097343179204 0.5584896072866514
-0.41861097343179204 0.4978671301134872
-0.47179656516386326 0.4978671301134872
-0.5427106874732915 0.43724465294032294
-0.5072536263185774 0.5888008458732336
-0.5249821568959344 0.7403570388061442
-0.41861097343179204 0.6191120844598157
-0.47179656516386326 0.5888008458732336
-0.5249821568959344 0.5281783687000693
-0.5604392180506486 0.4978671301134872
-0.5427106874732915 0.5888008458732336
-0.5072536263185774 0.6494233230463978
-0.4540680345865062 0.6494233230463978
-0.4540680345865062 0.5584896072866514
-0.47179656516386326 0.4978671301134872
-0.5427106874732915 0.4978671301134872
-0.5781677486280057 0.67973456163298
-0.5781677486280057 0.8919132317390549
-0.4363395040091491 0.9828469474988013
-0.25905419823557846 0.8919132317390549
0.07778788273420581 0.6494233230463978
0.43235849428134715 0.34631093718057654
0.8401146975605597 0.13413226707450165
1.3896991454586287 -0.04773516444499114
2.0279262462434833 -0.44178126607055884
2.577510694141552 -0.8661386062827087
2.8966242445339794 -1.2601847079082764
3.056181019730193 -1.5632970937740975
2.861167183379265 -1.7148532867070083
2.524325102409481 -1.684542048120426
1.992469185088769 -1.4723633780143512
1.0883141256435587 -1.3511184236680227
-0.22359713708086432 -1.16925099214853
-1.5000513386505732 -0.8964498448692908
-2.492849050982569 -0.5327149818303052
-2.918333784839138 -0.22960259596448393
-2.6878628873334964 0.012887312728173124
-2.226921092322213 0.16444350566108376
