-0.22359713708086432 1.5587604806438617
-0.25905419823557846 1.589071719230444
-0.20586860650350725 1.619382957817026
-0.15268301477143606 1.7709391507499366
-0.06404036188465072 1.7406279121633546
-0.028583300729936582 1.7103166735767723
-0.08176889246200779 1.5284492420572797
-0.08176889246200779 1.4678267648841155
-0.134954484194079 1.6496941964036083
-0.08176889246200779 1.7103166735767723
0.04233082157949168 1.7709391507499366
0.04233082157949168 1.7709391507499366
0.024602291002134614 1.619382957817026
0.006873760424777549 1.5587604806438617
-0.09949742303936485 1.5587604806438617
-0.134954484194079 1.4981380034706975
-0.08176889246200779 1.4072042877109512
-0.11722595361672192 1.3162705719512047
-0.18814007592615017 1.1040919018451298
-0.25905419823557846 1.1040919018451298
-0.3299683205450067 1.1344031404317119
-0.36542538169972083 1.2253368561914584
-0.5249821568959344 1.2859593333646226
-0.5958962792053627 1.4678267648841155
-0.5604392180506486 1.376893049124369
-0.3831539122770779 1.346581810537787
-0.1704115453487931 1.4375155262975332
-0.1704115453487931 1.4375155262975332
-0.2413256676582214 1.4678267648841155
-0.41861097343179204 1.2556480947780404
-0.5072536263185774 1.3162705719512047
-0.5781677486280057 1.3162705719512047
-0.5427106874732915 1.4678267648841155
-0.4540680345865062 1.5284492420572797
-0.400882442854435 1.4678267648841155
-0.4540680345865062 1.376893049124369
-0.5072536263185774 1.376893049124369
-0.5604392180506486 1.346581810537787
-0.5249821568959344 1.4375155262975332
-0.47179656516386326 1.5284492420572797
-0.48952509574122033 1.5284492420572797
-0.5427106874732915 1.4981380034706975
-0.5072536263185774 1.346581810537787
-0.5072536263185774 1.2556480947780404
-0.4363395040091491 1.4981380034706975
-0.36542538169972083 1.619382957817026
-0.3831539122770779 1.5587604806438617
-0.4540680345865062 1.4072042877109512
-0.48952509574122033 1.2859593333646226
-0.400882442854435 1.2253368561914584
-0.3299683205450067 1.346581810537787
-0.3831539122770779 1.376893049124369
-0.400882442854435 1.4678267648841155
-0.4540680345865062 1.4375155262975332
-0.5427106874732915 1.376893049124369
-0.5781677486280057 1.4375155262975332
-0.48952509574122033 1.589071719230444
-0.36542538169972083 1.589071719230444
-0.2413256676582214 1.5284492420572797
-0.3122397899676496 1.4375155262975332
-0.41861097343179204 1.376893049124369
-0.5072536263185774 1.346581810537787
-0.5249821568959344 1.376893049124369
-0.41861097343179204 1.4981380034706975
-0.34769685112236376 1.4678267648841155
-0.3299683205450067 1.376893049124369
-0.36542538169972083 1.346581810537787
-0.3122397899676496 1.4072042877109512
-0.04631183130729365 1.5284492420572797
0.36144437197191887 1.5284492420572797
0.8046576364058455 1.346581810537787
1.1769567785303439 0.9828469474988013
1.5669844512321993 0.5888008458732336
2.063383307398197 0.4675558915269051
2.6129677552962662 0.28568846000741227
3.056181019730193 0.07350978990133739
3.357566039545263 -0.44178126607055884
3.2157377949264063 -0.8358273676961265
2.6838818776056947 -0.9873835606290372
2.010197715666126 -1.0480060378022014
1.2655994314171293 -0.8055161291095444
0.21961612735306235 -0.5630262204168873
-0.8618242378657187 -0.35084755031081244
-1.9255360725071426 -0.13866888020473753
-2.510577581559926 0.07350978990133739
-2.5283061121372827 0.34631093718057654
-2.1560069700127844 0.7706682773927264
-1.695065175001501 1.1040919018451298
-1.4114086857637878 1.2556480947780404
-1.1632092576807889 1.346581810537787
-0.9681954213298611 1.346581810537787
-0.7022674626695051 1.3162705719512047
-0.5249821568959344 1.2556480947780404
-0.3831539122770779 1.2859593333646226
-0.27678272881293553 1.3162705719512047
-0.22359713708086432 1.3162705719512047
-0.2413256676582214 1.1344031404317119
-0.34769685112236376 1.1040919018451298
-0.41861097343179204 1.2556480947780404
-0.2945112593902926 1.4981380034706975
-0.134954484194079 1.4375155262975332
-0.09949742303936485 1.376893049124369
-0.04631183130729365 1.2859593333646226
-0.06404036188465072 1.2556480947780404
-0.09949742303936485 1.376893049124369
-0.20586860650350725 1.4981380034706975
-0.22359713708086432 1.4981380034706975
-0.1704115453487931 1.4375155262975332
-0.134954484194079 1.376893049124369
-0.09949742303936485 1.2859593333646226
-0.08176889246200779 1.376893049124369
0.024602291002134614 1.4981380034706975
0.09551641331156288 1.4981380034706975
0.23734465793041942 1.4375155262975332
0.21961612735306235 1.4375155262975332
0.14870200504363407 1.346581810537787
0.16643053562099114 1.2859593333646226
0.1841590661983482 1.2556480947780404
0.3259873108172047 1.164714379018294
0.4855440860134183 1.1950256176048761
0.5210011471681325 1.1344031404317119
0.4500870248587042 1.1040919018451298
0.4146299637039901 1.2253368561914584
0.396901433126633 1.2859593333646226
0.5387296777454895 1.1950256176048761
0.5564582083228466 1.0737806632585476
0.4855440860134183 0.9828469474988013
0.5032726165907754 1.1344031404317119
0.645100861209632 1.2556480947780404
0.8578432281379167 1.2859593333646226
1.1414997173756298 1.0737806632585476
1.159228247952987 0.8009795159793085
1.0883141256435587 0.7706682773927264
1.0883141256435587 0.8312907545658906
1.0883141256435587 0.8919132317390549
1.1769567785303439 1.0434694246719656
1.230142370262415 0.9525357089122192
1.194685309107701 0.8919132317390549
1.1060426562209156 0.8616019931524728
1.1060426562209156 0.922224470325637
1.1414997173756298 0.922224470325637
1.2478709008397721 1.0131581860853833
1.3542420843039147 0.9525357089122192
1.3187850231492004 0.8312907545658906
1.230142370262415 0.7706682773927264
1.0705855950662015 0.922224470325637
1.1769567785303439 1.0131581860853833
1.2833279619944864 1.0737806632585476
1.3365135537265576 1.0434694246719656
1.230142370262415 0.9828469474988013
1.0351285339114873 0.9525357089122192
0.8223861669832025 0.922224470325637
0.7160149835190602 0.922224470325637
0.7514720446737744 1.1040919018451298
0.8401146975605597 1.0131581860853833
0.8578432281379167 0.9525357089122192
0.8401146975605597 0.8616019931524728
0.7514720446737744 0.8616019931524728
0.5741867389002037 1.0434694246719656
0.36144437197191887 1.346581810537787
0.2550731885077765 1.4678267648841155
0.11324494388891995 1.4375155262975332
0.024602291002134614 1.2859593333646226
0.006873760424777549 1.2253368561914584
-0.028583300729936582 1.346581810537787
-0.06404036188465072 1.4678267648841155
-0.08176889246200779 1.4072042877109512
-0.20586860650350725 1.2556480947780404
-0.27678272881293553 1.1344031404317119
-0.27678272881293553 1.2253368561914584
-0.27678272881293553 1.2859593333646226
-0.11722595361672192 1.4072042877109512
-0.06404036188465072 1.3162705719512047
-0.11722595361672192 1.2859593333646226
-0.134954484194079 1.1950256176048761
-0.18814007592615017 1.1344031404317119
-0.18814007592615017 1.2859593333646226
-0.22359713708086432 1.346581810537787
-0.25905419823557846 1.2859593333646226
-0.3299683205450067 1.3162705719512047
-0.3299683205450067 1.2859593333646226
-0.2413256676582214 1.346581810537787
-0.15268301477143606 1.4072042877109512
-0.18814007592615017 1.4072042877109512
-0.22359713708086432 1.4072042877109512
-0.2413256676582214 1.376893049124369
-0.22359713708086432 1.2556480947780404
-0.2413256676582214 1.2859593333646226
-0.25905419823557846 1.3162705719512047
-0.2413256676582214 1.346581810537787
-0.11722595361672192 1.376893049124369
-0.09949742303936485 1.4375155262975332
-0.11722595361672192 1.376893049124369
-0.09949742303936485 1.4678267648841155
-0.08176889246200779 1.5284492420572797
-0.08176889246200779 1.5587604806438617
-0.20586860650350725 1.589071719230444
-0.25905419823557846 1.4678267648841155
-0.2945112593902926 1.2253368561914584
-0.2945112593902926 1.2253368561914584
-0.22359713708086432 1.2556480947780404
-0.18814007592615017 1.2556480947780404
-0.04631183130729365 1.346581810537787
0.07778788273420581 1.376893049124369
0.13097347446627702 1.164714379018294
0.13097347446627702 1.1950256176048761
0.16643053562099114 1.2859593333646226
0.20188759677570528 1.3162705719512047
0.14870200504363407 1.2556480947780404
0.07778788273420581 1.2556480947780404
-0.04631183130729365 1.164714379018294
-0.08176889246200779 1.2556480947780404
-0.134954484194079 1.346581810537787
-0.11722595361672192 1.4678267648841155
-0.08176889246200779 1.4375155262975332
-0.134954484194079 1.2859593333646226
-0.18814007592615017 1.1040919018451298
-0.15268301477143606 0.9828469474988013
-0.09949742303936485 1.0131581860853833
-0.134954484194079 1.1344031404317119
-0.134954484194079 1.0434694246719656
-0.18814007592615017 0.9828469474988013
-0.1704115453487931 0.8312907545658906
-0.20586860650350725 0.8616019931524728
-0.15268301477143606 1.1040919018451298
-0.20586860650350725 1.2859593333646226
-0.2413256676582214 1.1950256176048761
-0.25905419823557846 1.1950256176048761
-0.2945112593902926 0.9828469474988013
-0.34769685112236376 1.0131581860853833
-0.36542538169972083 1.0737806632585476
-0.400882442854435 1.164714379018294
-0.3831539122770779 1.164714379018294
-0.34769685112236376 1.1344031404317119
-0.3122397899676496 1.1344031404317119
-0.3299683205450067 1.1950256176048761
-0.34769685112236376 1.3162705719512047
-0.2945112593902926 1.4072042877109512
-0.22359713708086432 1.4375155262975332
-0.20586860650350725 1.346581810537787
-0.27678272881293553 1.164714379018294
-0.3831539122770779 1.1040919018451298
-0.27678272881293553 1.0434694246719656
-0.134954484194079 1.1040919018451298
-0.028583300729936582 0.9828469474988013
-0.11722595361672192 1.0434694246719656
-0.27678272881293553 0.9525357089122192
-0.2413256676582214 0.9828469474988013
-0.1704115453487931 0.9828469474988013
-0.18814007592615017 1.0737806632585476
-0.2413256676582214 1.0434694246719656
-0.4540680345865062 1.0131581860853833
-0.5072536263185774 1.0434694246719656
-0.5427106874732915 1.0737806632585476
-0.5249821568959344 1.1950256176048761
-0.41861097343179204 1.376893049124369
-0.25905419823557846 1.3162705719512047
-0.20586860650350725 1.1950256176048761
-0.1704115453487931 1.0434694246719656
-0.2413256676582214 0.9828469474988013
-0.3831539122770779 1.1040919018451298
-0.36542538169972083 1.0737806632585476
-0.27678272881293553 1.1950256176048761
-0.22359713708086432 1.1344031404317119
-0.27678272881293553 1.1040919018451298
-0.2945112593902926 1.164714379018294
-0.18814007592615017 1.2859593333646226
0.04233082157949168 1.376893049124369
0.396901433126633 1.3162705719512047
0.8046576364058455 1.0131581860853833
1.1237711867982727 0.7706682773927264
1.4783417983454141 0.6191120844598157
1.9038265322019836 0.5584896072866514
2.3824968577906245 0.3766221757671587
2.861167183379265 -0.10835764161815539
3.127095142039621 -0.5933374590034695
3.2334663255037634 -1.0480060378022014
3.020723958575479 -1.2601847079082764
2.542053632986838 -1.2904959464948584
1.8860980016246265 -0.9873835606290372
0.8401146975605597 -0.9267610834558729
-0.36542538169972083 -0.8358273676961265
-1.4468657469185018 -0.472092504657141
-2.1914640311674987 -0.22960259596448393
-2.4219349286731404 -0.017423925858409007
-2.1737355005901415 0.28568846000741227
-1.6773366444241438 0.5888008458732336
-1.3936801551864306 0.6494233230463978
-1.198666318835503 0.7403570388061442
-1.1277521965260746 0.8312907545658906
-1.0391095436392894 0.9828469474988013
-0.7554530544015763 0.9525357089122192
-0.5249821568959344 0.9525357089122192
-0.3299683205450067 0.8009795159793085
-0.27678272881293553 0.7403570388061442
-0.22359713708086432 0.7100458002195621
-0.20586860650350725 0.8616019931524728
-0.15268301477143606 1.0131581860853833
-0.20586860650350725 0.8919132317390549
-0.25905419823557846 0.922224470325637
-0.3122397899676496 0.8919132317390549
-0.3122397899676496 0.922224470325637
-0.22359713708086432 0.9525357089122192
-0.11722595361672192 1.1344031404317119
-0.028583300729936582 0.922224470325637
-0.028583300729936582 0.8919132317390549
-0.028583300729936582 0.7403570388061442
-0.09949742303936485 0.8312907545658906
-0.06404036188465072 0.8312907545658906
0.07778788273420581 0.8919132317390549
0.16643053562099114 0.8616019931524728
0.21961612735306235 0.7706682773927264
0.23734465793041942 0.67973456163298
0.14870200504363407 0.7706682773927264
0.14870200504363407 0.8616019931524728
0.20188759677570528 0.8919132317390549
0.30825878023984765 0.8919132317390549
0.3259873108172047 0.8919132317390549
0.36144437197191887 0.8009795159793085
0.43235849428134715 0.67973456163298
0.4678155554360613 0.7100458002195621
0.5387296777454895 0.7706682773927264
0.6096438000549178 0.7706682773927264
0.6805579223643461 0.67973456163298
0.7514720446737744 0.7403570388061442
0.7869291058284884 0.5888008458732336
0.8755717587152738 0.67973456163298
0.9819429421794161 0.8009795159793085
0.9819429421794161 0.7706682773927264
1.0174000033341304 0.7403570388061442
0.9464858810247021 0.6494233230463978
0.9819429421794161 0.5281783687000693
1.0883141256435587 0.6494233230463978
1.2124138396850581 0.6494233230463978
1.3010564925718433 0.67973456163298
1.3010564925718433 0.5584896072866514
1.2833279619944864 0.4069334143537408
1.2655994314171293 0.3159996985939944
1.3010564925718433 0.3766221757671587
1.3542420843039147 0.67973456163298
1.460613267768057 0.5584896072866514
1.460613267768057 0.4978671301134872
1.4428847371906999 0.4978671301134872
1.4783417983454141 0.5584896072866514
1.4428847371906999 0.7100458002195621
1.460613267768057 0.67973456163298
1.4074276760359858 0.6494233230463978
1.2124138396850581 0.5584896072866514
1.1060426562209156 0.5584896072866514
1.0351285339114873 0.5888008458732336
1.0174000033341304 0.7100458002195621
1.0174000033341304 0.8009795159793085
1.0174000033341304 0.8312907545658906
0.9464858810247021 0.8312907545658906
0.8933002892926308 0.7403570388061442
0.7337435140964172 0.8009795159793085
0.6273723306322748 0.7100458002195621
0.5564582083228466 0.8312907545658906
0.4855440860134183 0.8616019931524728
0.4500870248587042 0.8616019931524728
0.396901433126633 0.7706682773927264
0.27280171908513356 0.6191120844598157
0.21961612735306235 0.6191120844598157
0.27280171908513356 0.7100458002195621
0.27280171908513356 0.7100458002195621
0.23734465793041942 0.8616019931524728
0.11324494388891995 0.5584896072866514
-0.010854770152579518 0.7100458002195621
-0.06404036188465072 0.7706682773927264
-0.11722595361672192 0.9525357089122192
-0.1704115453487931 1.0737806632585476
-0.27678272881293553 1.1040919018451298
-0.22359713708086432 1.1040919018451298
-0.1704115453487931 1.1040919018451298
-0.04631183130729365 1.1950256176048761
-0.06404036188465072 1.1040919018451298
-0.18814007592615017 1.0131581860853833
-0.22359713708086432 0.9525357089122192
-0.25905419823557846 0.9828469474988013
-0.20586860650350725 1.0434694246719656
-0.134954484194079 1.0737806632585476
-0.11722595361672192 0.9828469474988013
-0.134954484194079 0.8312907545658906
-0.18814007592615017 0.8009795159793085
-0.25905419823557846 0.8009795159793085
-0.27678272881293553 0.8616019931524728
-0.27678272881293553 0.9525357089122192
-0.2945112593902926 1.0131581860853833
-0.27678272881293553 1.1950256176048761
-0.18814007592615017 1.1040919018451298
-0.134954484194079 1.0131581860853833
-0.11722595361672192 0.9828469474988013
-0.08176889246200779 1.1040919018451298
-0.06404036188465072 1.2253368561914584
0.04233082157949168 1.1950256176048761
0.006873760424777549 0.9828469474988013
-0.09949742303936485 0.8312907545658906
-0.20586860650350725 0.9828469474988013
-0.1704115453487931 1.1344031404317119
-0.08176889246200779 1.2859593333646226
0.04233082157949168 1.1040919018451298
0.09551641331156288 1.164714379018294
0.11324494388891995 1.1344031404317119
0.1841590661983482 1.1344031404317119
0.1841590661983482 1.164714379018294
0.20188759677570528 1.1950256176048761
0.16643053562099114 1.0737806632585476
0.11324494388891995 0.922224470325637
0.04233082157949168 0.922224470325637
0.04233082157949168 0.8009795159793085
0.006873760424777549 0.9828469474988013
0.04233082157949168 0.9828469474988013
-0.010854770152579518 0.922224470325637
-0.06404036188465072 0.67973456163298
-0.04631183130729365 0.6191120844598157
-0.11722595361672192 0.6494233230463978
-0.1704115453487931 0.8009795159793085
-0.1704115453487931 0.8616019931524728
-0.18814007592615017 1.0131581860853833
-0.18814007592615017 0.9828469474988013
-0.15268301477143606 0.922224470325637
-0.134954484194079 0.9525357089122192
-0.15268301477143606 0.9828469474988013
-0.11722595361672192 0.9525357089122192
-0.08176889246200779 0.8616019931524728
-0.08176889246200779 0.8616019931524728
-0.22359713708086432 0.8616019931524728
-0.36542538169972083 0.9525357089122192
-0.36542538169972083 1.164714379018294
-0.27678272881293553 1.0737806632585476
-0.20586860650350725 0.9828469474988013
-0.20586860650350725 0.8312907545658906
-0.25905419823557846 0.8616019931524728
-0.3299683205450067 0.9828469474988013
-0.3831539122770779 1.0434694246719656
-0.36542538169972083 1.1040919018451298
-0.2945112593902926 1.0737806632585476
-0.20586860650350725 1.0434694246719656
-0.20586860650350725 1.0737806632585476
-0.27678272881293553 1.0737806632585476
-0.3122397899676496 1.0737806632585476
-0.3299683205450067 1.0737806632585476
-0.18814007592615017 1.0131581860853833
-0.1704115453487931 0.9525357089122192
-0.22359713708086432 0.8616019931524728
-0.3122397899676496 0.7403570388061442
-0.3122397899676496 0.8312907545658906
-0.27678272881293553 0.8919132317390549
-0.18814007592615017 0.8919132317390549
-0.15268301477143606 0.8616019931524728
-0.18814007592615017 0.67973456163298
-0.20586860650350725 0.7706682773927264
-0.18814007592615017 0.9525357089122192
-0.11722595361672192 1.0434694246719656
0.024602291002134614 0.9525357089122192
0.024602291002134614 0.922224470325637
-0.028583300729936582 0.6494233230463978
-0.11722595361672192 0.7706682773927264
-0.1704115453487931 0.9525357089122192
0.006873760424777549 1.2253368561914584
0.3437158413945618 1.2556480947780404
0.8755717587152738 0.9828469474988013
1.4251562066133427 0.67973456163298
1.9215550627793407 0.4069334143537408
2.4534109801000525 0.1947547442476659
3.127095142039621 0.04319855131475525
3.570308406473548 -0.29022507313764817
3.7298651816697617 -0.8964498448692908
3.4639372230094057 -1.4420521394277692
2.861167183379265 -1.684542048120426
2.1520259602849827 -1.7148532867070083
1.230142370262415 -1.5632970937740975
-0.010854770152579518 -1.2904959464948584
-1.251851910567574 -1.0783172763887836
-2.1205499088580706 -0.8358273676961265
-2.209192561744856 -0.5630262204168873
-1.9078075419297855 -0.07804640303157327
-1.5000513386505732 0.4069334143537408
-1.1632092576807889 0.6494233230463978
-0.932738360175147 0.7100458002195621
-0.7377245238242193 0.7100458002195621
-0.5249821568959344 0.7100458002195621
-0.400882442854435 0.8312907545658906
-0.3122397899676496 0.922224470325637
-0.2945112593902926 0.9525357089122192
-0.27678272881293553 0.922224470325637
-0.18814007592615017 0.8312907545658906
-0.134954484194079 0.9828469474988013
0.024602291002134614 1.0131581860853833
0.11324494388891995 0.8919132317390549
0.13097347446627702 0.8009795159793085
-0.06404036188465072 0.7403570388061442
-0.18814007592615017 0.7706682773927264
-0.1704115453487931 0.8312907545658906
-0.04631183130729365 0.922224470325637
0.04233082157949168 0.922224470325637
0.09551641331156288 0.9525357089122192
0.09551641331156288 0.8312907545658906
0.09551641331156288 0.7706682773927264
0.14870200504363407 0.7706682773927264
0.27280171908513356 0.8009795159793085
0.4146299637039901 0.922224470325637
0.5210011471681325 0.8009795159793085
0.4500870248587042 0.7100458002195621
0.21961612735306235 0.6191120844598157
0.13097347446627702 0.6191120844598157
0.23734465793041942 0.6191120844598157
0.36144437197191887 0.6494233230463978
0.43235849428134715 0.8312907545658906
0.4855440860134183 0.7706682773927264
0.5919152694775607 0.7403570388061442
0.6982864529417031 0.8009795159793085
0.8401146975605597 0.67973456163298
0.8578432281379167 0.8009795159793085
0.928757350447345 0.67973456163298
0.9642144116020591 0.5584896072866514
1.0705855950662015 0.4978671301134872
1.159228247952987 0.4675558915269051
1.194685309107701 0.5584896072866514
1.230142370262415 0.5888008458732336
1.2833279619944864 0.4978671301134872
1.3719706148812716 0.3766221757671587
1.3896991454586287 0.1947547442476659
1.4428847371906999 0.1947547442476659
1.4251562066133427 0.22506598283424803
1.460613267768057 0.3766221757671587
1.5492559206548424 0.34631093718057654
1.6378985735416276 0.4069334143537408
1.6024415123869136 0.3159996985939944
1.460613267768057 0.34631093718057654
1.4074276760359858 0.4978671301134872
1.4251562066133427 0.6494233230463978
1.460613267768057 0.5888008458732336
1.3365135537265576 0.5888008458732336
1.194685309107701 0.43724465294032294
1.1769567785303439 0.4675558915269051
1.194685309107701 0.6191120844598157
1.2124138396850581 0.8009795159793085
1.0883141256435587 0.6494233230463978
0.911028819869988 0.5584896072866514
0.7514720446737744 0.4978671301134872
0.645100861209632 0.6191120844598157
0.6096438000549178 0.7100458002195621
0.5741867389002037 0.7100458002195621
0.5210011471681325 0.5281783687000693
0.396901433126633 0.5584896072866514
0.3437158413945618 0.5888008458732336
0.3437158413945618 0.5888008458732336
0.36144437197191887 0.7403570388061442
0.3259873108172047 0.8009795159793085
0.2905302496624906 0.8009795159793085
0.23734465793041942 0.67973456163298
0.11324494388891995 0.5888008458732336
0.11324494388891995 0.5584896072866514
0.04233082157949168 0.5888008458732336
-0.04631183130729365 0.7403570388061442
-0.134954484194079 0.67973456163298
-0.18814007592615017 0.7706682773927264
-0.20586860650350725 0.7100458002195621
-0.134954484194079 0.7706682773927264
-0.09949742303936485 0.8616019931524728
-0.06404036188465072 0.922224470325637
-0.010854770152579518 0.8919132317390549
-0.04631183130729365 0.8312907545658906
-0.11722595361672192 0.6191120844598157
-0.2945112593902926 0.6191120844598157
-0.3831539122770779 0.8009795159793085
-0.34769685112236376 1.0434694246719656
-0.1704115453487931 1.0131581860853833
-0.028583300729936582 0.9525357089122192
-0.09949742303936485 0.7706682773927264
-0.22359713708086432 0.7706682773927264
-0.22359713708086432 0.8919132317390549
-0.08176889246200779 0.9828469474988013
0.04233082157949168 0.9525357089122192
0.04233082157949168 0.7706682773927264
-0.06404036188465072 0.5281783687000693
-0.134954484194079 0.4675558915269051
-0.09949742303936485 0.7100458002195621
-0.010854770152579518 0.8009795159793085
0.060059352156848746 0.8312907545658906
0.07778788273420581 0.7403570388061442
-0.010854770152579518 0.7403570388061442
-0.028583300729936582 0.8312907545658906
0.09551641331156288 0.8616019931524728
0.27280171908513356 0.922224470325637
0.3437158413945618 0.8009795159793085
0.27280171908513356 0.67973456163298
0.23734465793041942 0.5888008458732336
0.21961612735306235 0.5584896072866514
0.20188759677570528 0.6191120844598157
0.23734465793041942 0.7100458002195621
0.16643053562099114 0.6494233230463978
0.23734465793041942 0.6494233230463978
0.21961612735306235 0.5281783687000693
0.07778788273420581 0.3766221757671587
-0.11722595361672192 0.4978671301134872
-0.2413256676582214 0.7100458002195621
-0.08176889246200779 0.8009795159793085
0.07778788273420581 0.7403570388061442
-0.04631183130729365 0.4675558915269051
-0.27678272881293553 0.3159996985939944
-0.34769685112236376 0.4978671301134872
-0.34769685112236376 0.67973456163298
-0.25905419823557846 0.7706682773927264
-0.25905419823557846 0.7706682773927264
-0.3122397899676496 0.6494233230463978
-0.34769685112236376 0.6191120844598157
-0.2945112593902926 0.6191120844598157
-0.18814007592615017 0.7100458002195621
-0.08176889246200779 0.6191120844598157
-0.08176889246200779 0.6494233230463978
-0.1704115453487931 0.5888008458732336
-0.3299683205450067 0.5888008458732336
-0.400882442854435 0.7100458002195621
-0.36542538169972083 0.7706682773927264
-0.25905419823557846 0.6494233230463978
-0.20586860650350725 0.5888008458732336
-0.20586860650350725 0.4675558915269051
-0.22359713708086432 0.43724465294032294
-0.134954484194079 0.6494233230463978
-0.06404036188465072 0.6191120844598157
-0.04631183130729365 0.5888008458732336
-0.25905419823557846 0.5584896072866514
-0.3831539122770779 0.5281783687000693
-0.3831539122770779 0.6494233230463978
-0.25905419823557846 0.7403570388061442
-0.1704115453487931 0.7100458002195621
-0.11722595361672192 0.5584896072866514
-0.1704115453487931 0.4069334143537408
-0.20586860650350725 0.4978671301134872
-0.20586860650350725 0.6494233230463978
-0.20586860650350725 0.7403570388061442
-0.18814007592615017 0.6494233230463978
-0.134954484194079 0.5888008458732336
-0.15268301477143606 0.4978671301134872
-0.1704115453487931 0.43724465294032294
-0.2413256676582214 0.5584896072866514
-0.25905419823557846 0.6494233230463978
-0.11722595361672192 0.8009795159793085
0.20188759677570528 0.7706682773927264
0.6982864529417031 0.7100458002195621
1.3365135537265576 0.43724465294032294
1.9215550627793407 0.07350978990133739
2.488868041254767 -0.13866888020473753
3.056181019730193 -0.44178126607055884
3.4993942841641195 -0.6842711747632159
3.7475937122471183 -1.1995622307351121
3.641222528782976 -1.7148532867070083
3.127095142039621 -2.048276911159412
2.5597821635641953 -1.9876544339862474
1.7974553487378413 -1.9270319568130831
0.6982864529417031 -1.8057870024667546
-0.5604392180506486 -1.684542048120426
-1.5886939915373584 -1.5026746166009335
-2.209192561744856 -1.2601847079082764
-2.209192561744856 -0.7752048905229623
-1.8368934196203572 -0.25991383455106604
-1.4291372163411449 0.2553772214208302
-0.9681954213298611 0.4069334143537408
-0.6313533403600768 0.34631093718057654
-0.400882442854435 0.3159996985939944
-0.25905419823557846 0.34631093718057654
-0.20586860650350725 0.5281783687000693
-0.18814007592615017 0.4978671301134872
-0.22359713708086432 0.4978671301134872
-0.25905419823557846 0.4978671301134872
-0.27678272881293553 0.5281783687000693
-0.25905419823557846 0.67973456163298
-0.1704115453487931 0.7100458002195621
-0.028583300729936582 0.8009795159793085
0.11324494388891995 0.7100458002195621
0.20188759677570528 0.5584896072866514
0.21961612735306235 0.5281783687000693
0.23734465793041942 0.43724465294032294
0.1841590661983482 0.4675558915269051
0.07778788273420581 0.4978671301134872
0.006873760424777549 0.5584896072866514
0.060059352156848746 0.6191120844598157
0.21961612735306235 0.6494233230463978
0.396901433126633 0.6191120844598157
0.4146299637039901 0.5888008458732336
0.4146299637039901 0.4675558915269051
0.21961612735306235 0.4978671301134872
0.060059352156848746 0.5281783687000693
0.006873760424777549 0.3766221757671587
0.11324494388891995 0.4675558915269051
0.3437158413945618 0.67973456163298
0.5210011471681325 0.5888008458732336
0.5564582083228466 0.5281783687000693
0.4678155554360613 0.34631093718057654
0.5032726165907754 0.3766221757671587
0.662829391786989 0.3766221757671587
0.8933002892926308 0.4069334143537408
1.0174000033341304 0.3159996985939944
0.928757350447345 0.28568846000741227
0.8223861669832025 0.3766221757671587
0.8933002892926308 0.3766221757671587
1.0883141256435587 0.3766221757671587
1.3187850231492004 0.3766221757671587
1.496070328922771 0.28568846000741227
1.4251562066133427 0.10382102848791952
1.3542420843039147 0.04319855131475525
1.3010564925718433 -0.017423925858409007
1.4074276760359858 0.16444350566108376
1.4783417983454141 0.28568846000741227
1.5492559206548424 0.1947547442476659
1.5137988595001282 0.22506598283424803
1.460613267768057 0.13413226707450165
1.4428847371906999 0.04319855131475525
1.460613267768057 0.13413226707450165
1.6378985735416276 0.16444350566108376
1.726541226428413 0.2553772214208302
1.6378985735416276 0.07350978990133739
1.3187850231492004 0.07350978990133739
1.1060426562209156 0.13413226707450165
0.9996714727567733 0.22506598283424803
1.0351285339114873 0.43724465294032294
1.1237711867982727 0.4978671301134872
1.0174000033341304 0.4069334143537408
0.9642144116020591 0.3159996985939944
0.9464858810247021 0.4069334143537408
1.0351285339114873 0.5584896072866514
1.0883141256435587 0.5584896072866514
0.928757350447345 0.5281783687000693
0.7160149835190602 0.34631093718057654
0.43235849428134715 0.3159996985939944
0.30825878023984765 0.28568846000741227
0.2905302496624906 0.3766221757671587
0.3259873108172047 0.4675558915269051
0.2905302496624906 0.4978671301134872
0.14870200504363407 0.4675558915269051
0.024602291002134614 0.5281783687000693
-0.028583300729936582 0.6191120844598157
0.07778788273420581 0.6191120844598157
0.11324494388891995 0.5888008458732336
0.09551641331156288 0.5281783687000693
-0.010854770152579518 0.5281783687000693
-0.134954484194079 0.4675558915269051
-0.1704115453487931 0.4675558915269051
-0.09949742303936485 0.6191120844598157
-0.06404036188465072 0.67973456163298
-0.09949742303936485 0.7100458002195621
-0.11722595361672192 0.7100458002195621
-0.18814007592615017 0.67973456163298
-0.18814007592615017 0.6191120844598157
-0.08176889246200779 0.7706682773927264
-0.04631183130729365 0.8009795159793085
-0.08176889246200779 0.8009795159793085
-0.20586860650350725 0.7100458002195621
-0.27678272881293553 0.34631093718057654
-0.3122397899676496 0.4069334143537408
-0.18814007592615017 0.4978671301134872
-0.11722595361672192 0.7100458002195621
-0.010854770152579518 0.8919132317390549
0.006873760424777549 0.7403570388061442
-0.04631183130729365 0.6494233230463978
-0.11722595361672192 0.4978671301134872
0.006873760424777549 0.67973456163298
0.14870200504363407 0.7706682773927264
0.20188759677570528 0.67973456163298
0.14870200504363407 0.5281783687000693
-0.028583300729936582 0.4978671301134872
-0.15268301477143606 0.5584896072866514
-0.08176889246200779 0.7706682773927264
0.09551641331156288 0.8616019931524728
0.2905302496624906 0.8312907545658906
0.4146299637039901 0.8009795159793085
0.2905302496624906 0.7100458002195621
0.1841590661983482 0.6494233230463978
0.11324494388891995 0.7706682773927264
0.11324494388891995 0.922224470325637
0.024602291002134614 0.8616019931524728
-0.04631183130729365 0.7403570388061442
-0.028583300729936582 0.4978671301134872
0.060059352156848746 0.4069334143537408
0.13097347446627702 0.28568846000741227
0.09551641331156288 0.4069334143537408
0.07778788273420581 0.3766221757671587
0.07778788273420581 0.28568846000741227
0.060059352156848746 0.34631093718057654
-0.028583300729936582 0.3766221757671587
-0.028583300729936582 0.4675558915269051
0.060059352156848746 0.6191120844598157
0.024602291002134614 0.5281783687000693
-0.15268301477143606 0.5281783687000693
-0.3831539122770779 0.43724465294032294
-0.48952509574122033 0.5584896072866514
-0.34769685112236376 0.6494233230463978
-0.15268301477143606 0.5888008458732336
-0.06404036188465072 0.5584896072866514
-0.09949742303936485 0.4069334143537408
-0.1704115453487931 0.4675558915269051
-0.2413256676582214 0.43724465294032294
-0.2945112593902926 0.43724465294032294
-0.22359713708086432 0.5584896072866514
-0.08176889246200779 0.5584896072866514
-0.06404036188465072 0.5888008458732336
-0.1704115453487931 0.4675558915269051
-0.27678272881293553 0.43724465294032294
-0.2945112593902926 0.5584896072866514
-0.22359713708086432 0.5584896072866514
-0.15268301477143606 0.4978671301134872
-0.1704115453487931 0.4675558915269051
-0.04631183130729365 0.4675558915269051
-0.028583300729936582 0.4675558915269051
-0.09949742303936485 0.4675558915269051
-0.2413256676582214 0.43724465294032294
-0.27678272881293553 0.5888008458732336
-0.18814007592615017 0.4978671301134872
-0.06404036188465072 0.4069334143537408
-0.028583300729936582 0.3159996985939944
-0.06404036188465072 0.3159996985939944
-0.09949742303936485 0.43724465294032294
-0.09949742303936485 0.4978671301134872
-0.18814007592615017 0.43724465294032294
-0.3122397899676496 0.4069334143537408
-0.400882442854435 0.4978671301134872
-0.3299683205450067 0.6191120844598157
-0.2413256676582214 0.7100458002195621
-0.028583300729936582 0.8009795159793085
0.1841590661983482 0.922224470325637
0.5919152694775607 0.67973456163298
1.2655994314171293 0.3159996985939944
1.9038265322019836 0.012887312728173124
2.4711395106774097 -0.22960259596448393
3.056181019730193 -0.472092504657141
3.4816657535867623 -0.8055161291095444
3.7475937122471183 -1.381429662254605
3.7121366510924045 -1.9270319568130831
3.322108978390549 -2.351389297025233
2.6838818776056947 -2.351389297025233
1.8860980016246265 -2.2604555812654867
0.6805579223643461 -2.108899388332576
-0.7377245238242193 -1.8967207182265011
-1.9255360725071426 -1.5936083323606798
-2.315563745208998 -1.0783172763887836
-1.9787216642392138 -0.5933374590034695
-1.464594277495859 -0.16898011879131966
-1.21639484941286 0.13413226707450165
-1.1277521965260746 0.2553772214208302
-0.9150098295977899 0.4978671301134872
-0.4540680345865062 0.4675558915269051
-0.11722595361672192 0.3766221757671587
-0.028583300729936582 0.1947547442476659
-0.1704115453487931 0.10382102848791952
-0.2413256676582214 0.16444350566108376
-0.2945112593902926 0.28568846000741227
-0.20586860650350725 0.5281783687000693
-0.04631183130729365 0.6191120844598157
0.04233082157949168 0.5281783687000693
0.07778788273420581 0.4069334143537408
0.09551641331156288 0.2553772214208302
-0.010854770152579518 0.1947547442476659
0.006873760424777549 0.34631093718057654
0.04233082157949168 0.43724465294032294
0.20188759677570528 0.4675558915269051
0.23734465793041942 0.3159996985939944
0.16643053562099114 0.22506598283424803
0.16643053562099114 0.28568846000741227
0.21961612735306235 0.4069334143537408
0.2550731885077765 0.4978671301134872
0.396901433126633 0.3766221757671587
0.43235849428134715 0.34631093718057654
0.4500870248587042 0.16444350566108376
0.5032726165907754 0.07350978990133739
0.4146299637039901 0.2553772214208302
0.4678155554360613 0.43724465294032294
0.43235849428134715 0.4675558915269051
0.4500870248587042 0.4675558915269051
0.5564582083228466 0.1947547442476659
0.662829391786989 0.04319855131475525
0.8223861669832025 0.04319855131475525
0.9819429421794161 0.04319855131475525
1.1237711867982727 0.07350978990133739
1.2655994314171293 0.012887312728173124
1.2833279619944864 -0.16898011879131966
1.230142370262415 -0.16898011879131966
1.2655994314171293 -0.16898011879131966
1.3187850231492004 -0.017423925858409007
1.4074276760359858 -0.10835764161815539
1.3187850231492004 -0.1992913573779018
1.2124138396850581 -0.10835764161815539
1.2124138396850581 0.04319855131475525
1.3010564925718433 0.07350978990133739
1.4783417983454141 0.13413226707450165
1.4251562066133427 -0.07804640303157327
1.3365135537265576 -0.017423925858409007
1.3365135537265576 -0.10835764161815539
1.3719706148812716 -0.16898011879131966
1.460613267768057 -0.13866888020473753
1.496070328922771 -0.1992913573779018
1.4428847371906999 -0.10835764161815539
1.3896991454586287 -0.04773516444499114
1.3896991454586287 -0.10835764161815539
1.4074276760359858 -0.10835764161815539
1.3896991454586287 -0.07804640303157327
1.4251562066133427 0.16444350566108376
1.460613267768057 0.04319855131475525
1.3187850231492004 -0.07804640303157327
1.1414997173756298 -0.1992913573779018
0.8755717587152738 -0.07804640303157327
0.7337435140964172 0.16444350566108376
0.6273723306322748 0.28568846000741227
0.5919152694775607 0.22506598283424803
0.5564582083228466 0.2553772214208302
0.5032726165907754 0.1947547442476659
0.3437158413945618 0.10382102848791952
0.16643053562099114 0.22506598283424803
0.14870200504363407 0.3159996985939944
0.23734465793041942 0.4675558915269051
0.21961612735306235 0.4675558915269051
0.11324494388891995 0.3159996985939944
0.04233082157949168 0.3159996985939944
0.07778788273420581 0.28568846000741227
0.13097347446627702 0.3766221757671587
0.20188759677570528 0.28568846000741227
0.20188759677570528 0.1947547442476659
0.09551641331156288 0.13413226707450165
-0.09949742303936485 0.012887312728173124
-0.028583300729936582 0.10382102848791952
0.006873760424777549 0.34631093718057654
0.060059352156848746 0.3766221757671587
0.024602291002134614 0.3159996985939944
-0.04631183130729365 0.2553772214208302
-0.11722595361672192 0.22506598283424803
-0.134954484194079 0.3159996985939944
-0.028583300729936582 0.4978671301134872
-0.09949742303936485 0.43724465294032294
-0.1704115453487931 0.4069334143537408
-0.22359713708086432 0.22506598283424803
-0.25905419823557846 0.22506598283424803
-0.15268301477143606 0.34631093718057654
-0.11722595361672192 0.43724465294032294
-0.06404036188465072 0.4069334143537408
-0.028583300729936582 0.3766221757671587
0.006873760424777549 0.28568846000741227
0.04233082157949168 0.3159996985939944
0.07778788273420581 0.43724465294032294
0.1841590661983482 0.5584896072866514
0.20188759677570528 0.43724465294032294
0.1841590661983482 0.3159996985939944
0.11324494388891995 0.2553772214208302
0.060059352156848746 0.3159996985939944
0.060059352156848746 0.43724465294032294
0.1841590661983482 0.4675558915269051
0.27280171908513356 0.43724465294032294
0.23734465793041942 0.3159996985939944
0.1841590661983482 0.28568846000741227
0.21961612735306235 0.34631093718057654
0.2905302496624906 0.34631093718057654
0.23734465793041942 0.3159996985939944
0.21961612735306235 0.13413226707450165
0.13097347446627702 -0.017423925858409007
0.07778788273420581 0.04319855131475525
0.09551641331156288 -0.017423925858409007
0.14870200504363407 0.16444350566108376
0.1841590661983482 0.3159996985939944
0.09551641331156288 0.2553772214208302
-0.010854770152579518 0.16444350566108376
-0.09949742303936485 0.012887312728173124
-0.08176889246200779 -0.1992913573779018
-0.028583300729936582 0.07350978990133739
0.024602291002134614 0.1947547442476659
-0.010854770152579518 0.2553772214208302
-0.010854770152579518 0.22506598283424803
-0.11722595361672192 0.16444350566108376
-0.34769685112236376 0.012887312728173124
-0.47179656516386326 0.2553772214208302
-0.41861097343179204 0.3766221757671587
-0.36542538169972083 0.34631093718057654
-0.27678272881293553 0.2553772214208302
-0.3299683205450067 0.22506598283424803
-0.3299683205450067 0.28568846000741227
-0.27678272881293553 0.3159996985939944
-0.18814007592615017 0.28568846000741227
-0.09949742303936485 0.34631093718057654
-0.04631183130729365 0.2553772214208302
-0.04631183130729365 0.07350978990133739
-0.04631183130729365 0.04319855131475525
-0.11722595361672192 -0.017423925858409007
-0.08176889246200779 0.13413226707450165
-0.06404036188465072 0.04319855131475525
-0.11722595361672192 0.07350978990133739
-0.18814007592615017 0.07350978990133739
-0.27678272881293553 0.16444350566108376
-0.27678272881293553 0.34631093718057654
-0.25905419823557846 0.3766221757671587
-0.15268301477143606 0.28568846000741227
-0.028583300729936582 0.04319855131475525
0.024602291002134614 0.07350978990133739
0.006873760424777549 0.07350978990133739
0.024602291002134614 0.13413226707450165
-0.028583300729936582 0.13413226707450165
-0.22359713708086432 0.012887312728173124
-0.3831539122770779 -0.017423925858409007
-0.4363395040091491 0.04319855131475525
-0.34769685112236376 0.16444350566108376
-0.27678272881293553 0.3766221757671587
-0.18814007592615017 0.4069334143537408
-0.010854770152579518 0.4978671301134872
0.396901433126633 0.34631093718057654
0.911028819869988 0.04319855131475525
1.2833279619944864 -0.1992913573779018
1.726541226428413 -0.3811587888973946
2.2938542049038393 -0.5933374590034695
2.8788957139566222 -1.0176947992156193
3.286651917235835 -1.4723633780143512
3.339837508967906 -1.8664094796399189
3.07390955030755 -1.9573431953996654
2.577510694141552 -2.048276911159412
2.010197715666126 -1.8967207182265011
1.2124138396850581 -1.8057870024667546
0.060059352156848746 -1.7451645252935903
-1.0391095436392894 -1.5329858551875155
-1.8900790113524286 -1.2904959464948584
-2.3510208063637124 -1.0176947992156193
-2.2623781534769267 -0.7752048905229623
-1.8368934196203572 -0.3811587888973946
-1.464594277495859 -0.1992913573779018
-1.2341233799902172 -0.16898011879131966
-1.0213810130619323 -0.07804640303157327
-0.8263671767110046 0.07350978990133739
-0.5249821568959344 0.13413226707450165
-0.3122397899676496 0.07350978990133739
-0.20586860650350725 0.012887312728173124
-0.2413256676582214 -0.13866888020473753
-0.20586860650350725 -0.16898011879131966
-0.09949742303936485 -0.04773516444499114
0.060059352156848746 0.07350978990133739
0.09551641331156288 0.16444350566108376
-0.028583300729936582 0.012887312728173124
-0.15268301477143606 0.04319855131475525
-0.134954484194079 0.04319855131475525
-0.04631183130729365 0.16444350566108376
0.04233082157949168 0.16444350566108376
0.16643053562099114 0.04319855131475525
0.2550731885077765 -0.04773516444499114
0.1841590661983482 -0.13866888020473753
0.07778788273420581 -0.017423925858409007
-0.08176889246200779 -0.017423925858409007
-0.06404036188465072 0.10382102848791952
0.060059352156848746 0.07350978990133739
0.21961612735306235 -0.07804640303157327
0.27280171908513356 -0.04773516444499114
0.2905302496624906 -0.04773516444499114
0.36144437197191887 0.012887312728173124
0.396901433126633 0.04319855131475525
0.4500870248587042 -0.017423925858409007
0.4855440860134183 -0.07804640303157327
0.4500870248587042 -0.04773516444499114
0.5919152694775607 0.04319855131475525
0.7869291058284884 -0.04773516444499114
0.911028819869988 -0.017423925858409007
0.9996714727567733 -0.13866888020473753
0.9819429421794161 -0.29022507313764817
1.0174000033341304 -0.22960259596448393
1.0351285339114873 -0.3205363117242303
1.0883141256435587 -0.22960259596448393
1.159228247952987 -0.22960259596448393
1.194685309107701 -0.29022507313764817
1.1769567785303439 -0.3205363117242303
1.1060426562209156 -0.502403743243723
1.1237711867982727 -0.5933374590034695
1.2124138396850581 -0.5327149818303052
1.3010564925718433 -0.4114700274839767
1.3719706148812716 -0.3811587888973946
1.4074276760359858 -0.25991383455106604
1.3719706148812716 -0.35084755031081244
1.3719706148812716 -0.3811587888973946
1.460613267768057 -0.25991383455106604
1.5315273900774853 -0.16898011879131966
1.460613267768057 -0.22960259596448393
1.3719706148812716 -0.44178126607055884
1.2833279619944864 -0.6236486975900516
1.2478709008397721 -0.6236486975900516
1.1769567785303439 -0.472092504657141
1.159228247952987 -0.3205363117242303
1.0174000033341304 -0.3205363117242303
0.928757350447345 -0.16898011879131966
0.8933002892926308 -0.25991383455106604
0.8223861669832025 -0.1992913573779018
0.7514720446737744 -0.04773516444499114
0.7337435140964172 0.012887312728173124
0.6273723306322748 0.012887312728173124
0.5032726165907754 -0.10835764161815539
0.396901433126633 -0.10835764161815539
0.2550731885077765 -0.10835764161815539
0.23734465793041942 0.012887312728173124
0.2905302496624906 0.10382102848791952
0.3437158413945618 0.10382102848791952
0.30825878023984765 0.07350978990133739
0.1841590661983482 -0.04773516444499114
0.024602291002134614 -0.16898011879131966
-0.11722595361672192 -0.10835764161815539
-0.08176889246200779 0.07350978990133739
-0.06404036188465072 0.07350978990133739
-0.11722595361672192 0.10382102848791952
-0.134954484194079 0.10382102848791952
-0.09949742303936485 0.10382102848791952
-0.11722595361672192 0.22506598283424803
-0.22359713708086432 0.28568846000741227
-0.2945112593902926 0.16444350566108376
-0.36542538169972083 0.1947547442476659
-0.41861097343179204 0.16444350566108376
-0.36542538169972083 0.13413226707450165
-0.1704115453487931 0.1947547442476659
-0.04631183130729365 0.13413226707450165
-0.010854770152579518 0.012887312728173124
-0.028583300729936582 -0.13866888020473753
-0.06404036188465072 -0.22960259596448393
-0.1704115453487931 0.012887312728173124
-0.20586860650350725 0.13413226707450165
-0.25905419823557846 0.28568846000741227
-0.20586860650350725 0.1947547442476659
-0.18814007592615017 0.10382102848791952
-0.18814007592615017 -0.017423925858409007
-0.18814007592615017 -0.017423925858409007
-0.09949742303936485 0.22506598283424803
-0.09949742303936485 0.3159996985939944
-0.134954484194079 0.34631093718057654
-0.134954484194079 0.22506598283424803
-0.15268301477143606 0.13413226707450165
-0.11722595361672192 0.13413226707450165
-0.04631183130729365 0.28568846000741227
0.060059352156848746 0.3766221757671587
0.14870200504363407 0.34631093718057654
0.21961612735306235 0.1947547442476659
0.1841590661983482 0.07350978990133739
0.13097347446627702 0.10382102848791952
0.11324494388891995 0.22506598283424803
0.20188759677570528 0.22506598283424803
0.16643053562099114 0.10382102848791952
0.04233082157949168 -0.017423925858409007
-0.06404036188465072 -0.13866888020473753
-0.06404036188465072 -0.13866888020473753
-0.028583300729936582 -0.04773516444499114
0.04233082157949168 -0.017423925858409007
-0.010854770152579518 -0.04773516444499114
-0.04631183130729365 -0.04773516444499114
-0.134954484194079 -0.16898011879131966
-0.25905419823557846 -0.10835764161815539
-0.34769685112236376 0.012887312728173124
-0.27678272881293553 0.13413226707450165
-0.09949742303936485 0.13413226707450165
0.024602291002134614 -0.017423925858409007
0.024602291002134614 -0.04773516444499114
-0.11722595361672192 -0.017423925858409007
-0.2413256676582214 0.04319855131475525
-0.3122397899676496 0.07350978990133739
-0.3831539122770779 0.07350978990133739
-0.400882442854435 0.04319855131475525
-0.34769685112236376 -0.07804640303157327
-0.25905419823557846 -0.13866888020473753
-0.27678272881293553 -0.10835764161815539
-0.3299683205450067 -0.07804640303157327
-0.34769685112236376 0.012887312728173124
-0.3299683205450067 -0.04773516444499114
-0.2945112593902926 -0.22960259596448393
-0.3122397899676496 -0.1992913573779018
-0.2413256676582214 -0.13866888020473753
-0.20586860650350725 -0.07804640303157327
-0.15268301477143606 -0.07804640303157327
-0.18814007592615017 -0.1992913573779018
-0.2945112593902926 -0.10835764161815539
-0.48952509574122033 -0.1992913573779018
-0.4363395040091491 -0.04773516444499114
-0.3299683205450067 0.13413226707450165
-0.2413256676582214 -0.017423925858409007
-0.1704115453487931 -0.10835764161815539
-0.27678272881293553 -0.22960259596448393
-0.36542538169972083 -0.04773516444499114
-0.3299683205450067 0.04319855131475525
-0.25905419823557846 0.13413226707450165
-0.2413256676582214 0.04319855131475525
-0.27678272881293553 -0.16898011879131966
-0.36542538169972083 -0.25991383455106604
-0.34769685112236376 -0.1992913573779018
-0.27678272881293553 -0.10835764161815539
-0.22359713708086432 0.012887312728173124
-0.22359713708086432 -0.017423925858409007
-0.27678272881293553 -0.07804640303157327
-0.27678272881293553 -0.16898011879131966
-0.22359713708086432 -0.017423925858409007
-0.06404036188465072 0.1947547442476659
0.2550731885077765 0.22506598283424803
0.6982864529417031 0.07350978990133739
1.1769567785303439 -0.25991383455106604
1.4783417983454141 -0.5933374590034695
1.8151838793151982 -0.8661386062827087
2.3470397966359102 -0.9570723220424551
2.9320813056886936 -1.1389397535619479
3.286651917235835 -1.5329858551875155
3.4639372230094057 -1.9573431953996654
3.2334663255037634 -2.2301443426789045
2.7016104081830514 -2.290766819852069
1.992469185088769 -2.108899388332576
0.9464858810247021 -2.0179656725728297
-0.2945112593902926 -1.7451645252935903
-1.464594277495859 -1.4723633780143512
-2.315563745208998 -1.3208071850814407
-2.5283061121372827 -1.0783172763887836
-2.226921092322213 -0.6539599361766337
-1.783707827888286 -0.3205363117242303
-1.482322808073216 -0.25991383455106604
-1.251851910567574 -0.1992913573779018
-1.0213810130619323 -0.07804640303157327
-0.7909101155562904 -0.017423925858409007
-0.5958962792053627 -0.04773516444499114
-0.3831539122770779 -0.04773516444499114
-0.25905419823557846 -0.16898011879131966
-0.2413256676582214 -0.29022507313764817
-0.27678272881293553 -0.22960259596448393
-0.25905419823557846 -0.16898011879131966
-0.18814007592615017 -0.017423925858409007
-0.08176889246200779 0.1947547442476659
-0.09949742303936485 0.04319855131475525
-0.20586860650350725 -0.04773516444499114
-0.2945112593902926 -0.13866888020473753
-0.3299683205450067 -0.1992913573779018
-0.25905419823557846 -0.13866888020473753
-0.18814007592615017 -0.017423925858409007
0.006873760424777549 0.012887312728173124
0.09551641331156288 -0.017423925858409007
0.09551641331156288 -0.25991383455106604
0.060059352156848746 -0.16898011879131966
0.07778788273420581 -0.10835764161815539
0.16643053562099114 -0.04773516444499114
0.1841590661983482 -0.10835764161815539
0.20188759677570528 -0.16898011879131966
0.16643053562099114 -0.29022507313764817
0.2550731885077765 -0.3811587888973946
0.3437158413945618 -0.29022507313764817
0.5741867389002037 -0.25991383455106604
0.6805579223643461 -0.3205363117242303
0.6805579223643461 -0.29022507313764817
0.5387296777454895 -0.4114700274839767
0.5032726165907754 -0.4114700274839767
0.4500870248587042 -0.3205363117242303
0.5210011471681325 -0.16898011879131966
0.7160149835190602 -0.10835764161815539
0.7869291058284884 -0.22960259596448393
0.8578432281379167 -0.35084755031081244
0.8755717587152738 -0.44178126607055884
0.8401146975605597 -0.3811587888973946
0.9819429421794161 -0.35084755031081244
1.0883141256435587 -0.4114700274839767
1.1237711867982727 -0.4114700274839767
1.1237711867982727 -0.472092504657141
1.1237711867982727 -0.3811587888973946
1.2124138396850581 -0.4114700274839767
1.2655994314171293 -0.3205363117242303
1.3719706148812716 -0.3205363117242303
1.3542420843039147 -0.35084755031081244
1.2833279619944864 -0.4114700274839767
1.2478709008397721 -0.4114700274839767
1.3542420843039147 -0.3205363117242303
1.4251562066133427 -0.25991383455106604
1.3896991454586287 -0.4114700274839767
1.2124138396850581 -0.5327149818303052
1.0528570644888444 -0.5630262204168873
1.0351285339114873 -0.44178126607055884
1.1414997173756298 -0.22960259596448393
1.2655994314171293 -0.22960259596448393
1.3010564925718433 -0.29022507313764817
1.1414997173756298 -0.4114700274839767
0.911028819869988 -0.4114700274839767
0.7337435140964172 -0.35084755031081244
0.5919152694775607 -0.10835764161815539
0.5919152694775607 0.012887312728173124
0.5741867389002037 0.012887312728173124
0.5210011471681325 -0.017423925858409007
0.36144437197191887 -0.04773516444499114
0.16643053562099114 -0.13866888020473753
0.14870200504363407 -0.10835764161815539
0.16643053562099114 0.012887312728173124
0.13097347446627702 0.012887312728173124
-0.010854770152579518 -0.04773516444499114
-0.06404036188465072 -0.10835764161815539
-0.1704115453487931 -0.017423925858409007
-0.18814007592615017 0.012887312728173124
-0.20586860650350725 0.1947547442476659
-0.22359713708086432 0.1947547442476659
-0.25905419823557846 0.13413226707450165
-0.36542538169972083 -0.017423925858409007
-0.4540680345865062 -0.04773516444499114
-0.36542538169972083 0.07350978990133739
-0.27678272881293553 0.22506598283424803
-0.18814007592615017 0.1947547442476659
-0.18814007592615017 0.07350978990133739
-0.3299683205450067 0.04319855131475525
-0.36542538169972083 0.04319855131475525
-0.3299683205450067 0.04319855131475525
-0.27678272881293553 0.07350978990133739
-0.15268301477143606 -0.04773516444499114
-0.15268301477143606 -0.13866888020473753
-0.20586860650350725 -0.16898011879131966
-0.2413256676582214 -0.13866888020473753
-0.27678272881293553 -0.017423925858409007
-0.22359713708086432 0.07350978990133739
-0.22359713708086432 0.10382102848791952
-0.2413256676582214 -0.04773516444499114
-0.20586860650350725 -0.16898011879131966
-0.25905419823557846 -0.16898011879131966
-0.36542538169972083 -0.04773516444499114
-0.41861097343179204 -0.017423925858409007
-0.34769685112236376 0.10382102848791952
-0.2413256676582214 0.10382102848791952
-0.09949742303936485 0.2553772214208302
-0.06404036188465072 0.2553772214208302
-0.06404036188465072 0.2553772214208302
-0.15268301477143606 0.3159996985939944
-0.20586860650350725 0.28568846000741227
-0.22359713708086432 0.3159996985939944
-0.1704115453487931 0.10382102848791952
-0.15268301477143606 0.10382102848791952
-0.08176889246200779 0.22506598283424803
0.024602291002134614 0.3159996985939944
0.13097347446627702 0.4069334143537408
0.16643053562099114 0.34631093718057654
0.060059352156848746 0.10382102848791952
-0.010854770152579518 0.07350978990133739
-0.08176889246200779 0.012887312728173124
-0.1704115453487931 0.04319855131475525
-0.1704115453487931 -0.04773516444499114
-0.11722595361672192 -0.07804640303157327
-0.18814007592615017 -0.22960259596448393
-0.3299683205450067 -0.3205363117242303
-0.3122397899676496 -0.16898011879131966
-0.20586860650350725 0.04319855131475525
-0.1704115453487931 0.07350978990133739
-0.15268301477143606 -0.017423925858409007
-0.11722595361672192 -0.13866888020473753
-0.11722595361672192 -0.07804640303157327
-0.11722595361672192 0.04319855131475525
-0.1704115453487931 0.16444350566108376
-0.22359713708086432 0.13413226707450165
-0.3299683205450067 -0.04773516444499114
-0.4363395040091491 -0.16898011879131966
-0.5427106874732915 -0.13866888020473753
-0.5072536263185774 0.07350978990133739
-0.4540680345865062 0.3159996985939944
-0.47179656516386326 0.34631093718057654
-0.400882442854435 0.07350978990133739
-0.36542538169972083 -0.1992913573779018
-0.400882442854435 -0.10835764161815539
-0.41861097343179204 0.012887312728173124
-0.3831539122770779 0.1947547442476659
-0.25905419823557846 0.16444350566108376
-0.22359713708086432 0.04319855131475525
-0.2413256676582214 -0.10835764161815539
-0.27678272881293553 -0.13866888020473753
-0.3299683205450067 -0.017423925858409007
-0.3831539122770779 0.10382102848791952
-0.41861097343179204 0.04319855131475525
-0.4540680345865062 -0.04773516444499114
-0.47179656516386326 -0.07804640303157327
-0.5249821568959344 -0.017423925858409007
-0.5072536263185774 0.07350978990133739
-0.4363395040091491 0.2553772214208302
-0.27678272881293553 0.07350978990133739
-0.08176889246200779 -0.017423925858409007
-0.028583300729936582 -0.16898011879131966
-0.134954484194079 -0.1992913573779018
-0.25905419823557846 -0.017423925858409007
-0.36542538169972083 0.16444350566108376
-0.36542538169972083 0.16444350566108376
-0.3122397899676496 -0.04773516444499114
-0.2413256676582214 -0.16898011879131966
-0.3299683205450067 -0.1992913573779018
-0.34769685112236376 0.012887312728173124
-0.4363395040091491 0.2553772214208302
-0.47179656516386326 0.2553772214208302
-0.400882442854435 0.1947547442476659
-0.2945112593902926 0.22506598283424803
-0.08176889246200779 0.2553772214208302
0.27280171908513356 0.1947547442476659
0.8755717587152738 0.22506598283424803
1.4428847371906999 -0.10835764161815539
1.992469185088769 -0.5327149818303052
2.488868041254767 -0.7752048905229623
2.9675383668434074 -1.1389397535619479
3.304380447813192 -1.2601847079082764
3.5348513453188337 -1.4420521394277692
3.552579875896191 -1.7148532867070083
3.1980092643490496 -2.0785881497459937
2.577510694141552 -2.351389297025233
2.081111837975554 -2.4726342513715616
1.460613267768057 -2.3817005356118153
0.6805579223643461 -2.2604555812654867
-0.47179656516386326 -2.0179656725728297
-1.5886939915373584 -1.8664094796399189
-2.3510208063637124 -1.7754757638801726
-2.54603464271464 -1.4723633780143512
-2.3332922757863552 -1.1086285149753656
-1.9255360725071426 -0.5630262204168873
-1.5532369303826443 -0.3205363117242303
-1.2695804411449312 -0.07804640303157327
-1.0922951353713606 -0.1992913573779018
-0.9859239519072182 -0.04773516444499114
-0.8440957072883616 0.07350978990133739
-0.7731815849789334 0.1947547442476659
-0.5958962792053627 0.1947547442476659
-0.5249821568959344 0.07350978990133739
-0.47179656516386326 0.012887312728173124
-0.41861097343179204 0.012887312728173124
-0.27678272881293553 0.10382102848791952
-0.20586860650350725 0.16444350566108376
-0.09949742303936485 -0.017423925858409007
-0.028583300729936582 -0.07804640303157327
-0.010854770152579518 -0.1992913573779018
-0.04631183130729365 -0.16898011879131966
-0.04631183130729365 0.07350978990133739
-0.06404036188465072 0.16444350566108376
-0.08176889246200779 0.1947547442476659
-0.09949742303936485 0.16444350566108376
-0.134954484194079 0.07350978990133739
-0.08176889246200779 0.04319855131475525
-0.134954484194079 0.04319855131475525
-0.11722595361672192 0.13413226707450165
-0.134954484194079 0.22506598283424803
-0.028583300729936582 0.10382102848791952
0.024602291002134614 -0.017423925858409007
0.060059352156848746 -0.07804640303157327
0.07778788273420581 -0.017423925858409007
0.2550731885077765 0.07350978990133739
0.4146299637039901 -0.04773516444499114
0.4678155554360613 -0.07804640303157327
0.4146299637039901 -0.3205363117242303
0.3259873108172047 -0.22960259596448393
0.3259873108172047 -0.16898011879131966
0.3259873108172047 -0.017423925858409007
0.4678155554360613 -0.07804640303157327
0.6273723306322748 -0.04773516444499114
0.7160149835190602 -0.22960259596448393
0.7160149835190602 -0.22960259596448393
0.7869291058284884 -0.10835764161815539
0.8578432281379167 -0.04773516444499114
0.9464858810247021 -0.07804640303157327
1.0174000033341304 -0.22960259596448393
0.9642144116020591 -0.35084755031081244
0.8578432281379167 -0.29022507313764817
0.9464858810247021 -0.07804640303157327
1.0883141256435587 -0.017423925858409007
1.2478709008397721 -0.1992913573779018
1.2655994314171293 -0.3811587888973946
1.230142370262415 -0.5327149818303052
1.2478709008397721 -0.6236486975900516
1.230142370262415 -0.4114700274839767
1.1237711867982727 -0.25991383455106604
1.1060426562209156 -0.13866888020473753
1.159228247952987 -0.16898011879131966
1.2655994314171293 -0.35084755031081244
1.3187850231492004 -0.4114700274839767
1.2655994314171293 -0.25991383455106604
1.2833279619944864 -0.07804640303157327
1.194685309107701 -0.017423925858409007
1.194685309107701 -0.22960259596448393
1.2655994314171293 -0.4114700274839767
1.2478709008397721 -0.472092504657141
1.2655994314171293 -0.4114700274839767
1.159228247952987 -0.25991383455106604
1.0351285339114873 -0.22960259596448393
0.8933002892926308 -0.29022507313764817
0.662829391786989 -0.22960259596448393
0.5564582083228466 -0.07804640303157327
0.5564582083228466 0.012887312728173124
0.662829391786989 0.10382102848791952
0.645100861209632 0.04319855131475525
0.5387296777454895 -0.04773516444499114
0.37917290254927594 -0.1992913573779018
0.2905302496624906 -0.1992913573779018
0.1841590661983482 -0.10835764161815539
0.09551641331156288 0.012887312728173124
0.16643053562099114 0.10382102848791952
0.27280171908513356 0.04319855131475525
0.2550731885077765 -0.13866888020473753
0.14870200504363407 -0.07804640303157327
-0.04631183130729365 -0.017423925858409007
-0.18814007592615017 0.13413226707450165
-0.1704115453487931 0.2553772214208302
-0.15268301477143606 0.13413226707450165
-0.22359713708086432 0.012887312728173124
-0.25905419823557846 0.012887312728173124
-0.25905419823557846 0.13413226707450165
-0.20586860650350725 0.1947547442476659
-0.134954484194079 0.07350978990133739
-0.27678272881293553 -0.017423925858409007
-0.3831539122770779 -0.04773516444499114
-0.400882442854435 -0.07804640303157327
-0.2413256676582214 0.04319855131475525
-0.04631183130729365 -0.017423925858409007
0.006873760424777549 -0.04773516444499114
-0.18814007592615017 -0.16898011879131966
-0.4363395040091491 -0.1992913573779018
-0.48952509574122033 -0.13866888020473753
-0.47179656516386326 0.16444350566108376
-0.36542538169972083 0.34631093718057654
-0.3299683205450067 0.4069334143537408
-0.3299683205450067 0.3766221757671587
-0.27678272881293553 0.1947547442476659
-0.15268301477143606 0.16444350566108376
-0.1704115453487931 0.1947547442476659
-0.20586860650350725 0.13413226707450165
-0.25905419823557846 0.13413226707450165
-0.22359713708086432 0.10382102848791952
-0.2413256676582214 -0.07804640303157327
-0.1704115453487931 -0.07804640303157327
-0.06404036188465072 0.07350978990133739
0.060059352156848746 0.13413226707450165
0.04233082157949168 0.012887312728173124
-0.04631183130729365 0.13413226707450165
-0.08176889246200779 0.07350978990133739
-0.06404036188465072 0.22506598283424803
-0.028583300729936582 0.22506598283424803
0.07778788273420581 0.1947547442476659
0.07778788273420581 0.04319855131475525
0.07778788273420581 -0.07804640303157327
0.006873760424777549 -0.10835764161815539
-0.11722595361672192 -0.16898011879131966
-0.09949742303936485 -0.04773516444499114
-0.06404036188465072 0.10382102848791952
-0.028583300729936582 0.07350978990133739
-0.08176889246200779 -0.04773516444499114
-0.11722595361672192 -0.13866888020473753
-0.15268301477143606 -0.16898011879131966
-0.22359713708086432 -0.04773516444499114
-0.2945112593902926 0.04319855131475525
-0.3299683205450067 -0.04773516444499114
-0.34769685112236376 -0.04773516444499114
-0.3299683205450067 -0.07804640303157327
-0.41861097343179204 0.10382102848791952
-0.5249821568959344 0.16444350566108376
-0.5249821568959344 0.1947547442476659
-0.48952509574122033 0.07350978990133739
-0.47179656516386326 -0.16898011879131966
-0.48952509574122033 -0.22960259596448393
-0.5958962792053627 -0.16898011879131966
-0.6313533403600768 0.012887312728173124
-0.5958962792053627 0.28568846000741227
-0.41861097343179204 0.3766221757671587
-0.3831539122770779 0.22506598283424803
-0.3299683205450067 0.10382102848791952
-0.34769685112236376 -0.017423925858409007
-0.25905419823557846 -0.10835764161815539
-0.20586860650350725 -0.10835764161815539
-0.27678272881293553 -0.10835764161815539
-0.3299683205450067 -0.25991383455106604
-0.3831539122770779 -0.3205363117242303
-0.3299683205450067 -0.25991383455106604
-0.2945112593902926 -0.13866888020473753
-0.27678272881293553 -0.04773516444499114
-0.34769685112236376 -0.04773516444499114
-0.400882442854435 0.10382102848791952
-0.36542538169972083 0.04319855131475525
-0.34769685112236376 -0.04773516444499114
-0.3299683205450067 -0.13866888020473753
-0.34769685112236376 0.012887312728173124
-0.3831539122770779 -0.07804640303157327
-0.4363395040091491 -0.07804640303157327
-0.47179656516386326 -0.10835764161815539
-0.5604392180506486 -0.017423925858409007
-0.5781677486280057 0.04319855131475525
-0.6136248097827197 0.13413226707450165
-0.4540680345865062 0.16444350566108376
-0.5249821568959344 -0.07804640303157327
-0.5072536263185774 -0.16898011879131966
-0.5781677486280057 -0.10835764161815539
-0.47179656516386326 0.012887312728173124
-0.3299683205450067 0.012887312728173124
-0.3122397899676496 -0.10835764161815539
-0.34769685112236376 -0.10835764161815539
-0.3122397899676496 0.04319855131475525
-0.06404036188465072 0.13413226707450165
0.5032726165907754 0.2553772214208302
1.230142370262415 0.012887312728173124
1.992469185088769 -0.25991383455106604
2.6661533470283376 -0.7448936519363801
3.2157377949264063 -1.3511184236680227
3.5348513453188337 -1.654230809533844
3.6766795899376903 -1.9573431953996654
3.5171228147414766 -2.2604555812654867
3.07390955030755 -2.745435398650801
2.4356824495226954 -3.048547784516622
1.6910841652736988 -3.1091702616897865
0.7337435140964172 -2.9273028301702935
-0.41861097343179204 -2.563567967131308
-1.464594277495859 -2.139210626919158
-2.1560069700127844 -1.8057870024667546
-2.3332922757863552 -1.5329858551875155
-2.1382784394354273 -1.2904959464948584
-1.8368934196203572 -0.7752048905229623
-1.6064225221147155 -0.502403743243723
-1.5000513386505732 -0.25991383455106604
-1.2341233799902172 -0.16898011879131966
-0.9859239519072182 -0.1992913573779018
-0.7199959932468621 -0.25991383455106604
-0.5249821568959344 -0.16898011879131966
-0.4363395040091491 -0.16898011879131966
-0.36542538169972083 -0.04773516444499114
-0.25905419823557846 -0.07804640303157327
-0.18814007592615017 -0.22960259596448393
-0.2945112593902926 -0.3811587888973946
-0.47179656516386326 -0.22960259596448393
-0.5604392180506486 0.04319855131475525
-0.5958962792053627 0.22506598283424803
-0.6136248097827197 0.16444350566108376
-0.5072536263185774 0.012887312728173124
-0.4363395040091491 -0.04773516444499114
-0.3831539122770779 -0.04773516444499114
-0.3122397899676496 0.10382102848791952
-0.25905419823557846 0.16444350566108376
-0.22359713708086432 0.04319855131475525
-0.11722595361672192 -0.13866888020473753
-0.028583300729936582 -0.3205363117242303
0.09551641331156288 -0.3811587888973946
0.20188759677570528 -0.3205363117242303
0.27280171908513356 -0.22960259596448393
0.14870200504363407 -0.3205363117242303
0.20188759677570528 -0.25991383455106604
0.2550731885077765 -0.3811587888973946
0.23734465793041942 -0.22960259596448393
0.09551641331156288 -0.16898011879131966
0.006873760424777549 -0.07804640303157327
0.006873760424777549 -0.10835764161815539
0.20188759677570528 -0.16898011879131966
0.396901433126633 -0.3205363117242303
0.4678155554360613 -0.4114700274839767
0.4678155554360613 -0.25991383455106604
0.4855440860134183 -0.25991383455106604
0.6096438000549178 -0.4114700274839767
0.6805579223643461 -0.502403743243723
0.7337435140964172 -0.5327149818303052
0.7869291058284884 -0.3811587888973946
0.8401146975605597 -0.29022507313764817
0.8578432281379167 -0.29022507313764817
0.8578432281379167 -0.29022507313764817
0.8401146975605597 -0.3811587888973946
0.8933002892926308 -0.44178126607055884
1.0174000033341304 -0.44178126607055884
1.1237711867982727 -0.3811587888973946
1.0883141256435587 -0.44178126607055884
1.0528570644888444 -0.5630262204168873
1.0705855950662015 -0.5933374590034695
1.0883141256435587 -0.6236486975900516
1.1414997173756298 -0.44178126607055884
1.2655994314171293 -0.44178126607055884
1.3896991454586287 -0.472092504657141
1.4428847371906999 -0.472092504657141
1.3896991454586287 -0.6539599361766337
1.2124138396850581 -0.6842711747632159
1.0705855950662015 -0.7448936519363801
0.8933002892926308 -0.472092504657141
0.8578432281379167 -0.25991383455106604
0.8755717587152738 -0.3205363117242303
0.7337435140964172 -0.3205363117242303
0.5741867389002037 -0.35084755031081244
0.4146299637039901 -0.22960259596448393
0.27280171908513356 -0.04773516444499114
0.23734465793041942 -0.04773516444499114
0.23734465793041942 -0.10835764161815539
0.2550731885077765 -0.25991383455106604
0.2550731885077765 -0.3205363117242303
0.23734465793041942 -0.3205363117242303
0.23734465793041942 -0.22960259596448393
0.16643053562099114 -0.10835764161815539
0.07778788273420581 -0.04773516444499114
0.07778788273420581 -0.1992913573779018
0.04233082157949168 -0.22960259596448393
-0.08176889246200779 -0.13866888020473753
-0.15268301477143606 -0.04773516444499114
-0.27678272881293553 0.04319855131475525
-0.2945112593902926 0.07350978990133739
-0.2945112593902926 -0.017423925858409007
-0.27678272881293553 -0.13866888020473753
-0.3299683205450067 -0.13866888020473753
-0.27678272881293553 -0.07804640303157327
-0.25905419823557846 0.04319855131475525
-0.3122397899676496 -0.017423925858409007
-0.3831539122770779 -0.16898011879131966
-0.400882442854435 -0.3205363117242303
-0.3299683205450067 -0.1992913573779018
-0.34769685112236376 -0.04773516444499114
-0.36542538169972083 0.07350978990133739
-0.3831539122770779 -0.07804640303157327
-0.47179656516386326 -0.13866888020473753
-0.5072536263185774 -0.22960259596448393
-0.4540680345865062 -0.16898011879131966
-0.4363395040091491 0.07350978990133739
-0.4540680345865062 0.07350978990133739
-0.5249821568959344 -0.017423925858409007
-0.5958962792053627 -0.16898011879131966
-0.6490818709374339 -0.13866888020473753
-0.5604392180506486 0.012887312728173124
-0.47179656516386326 0.13413226707450165
-0.36542538169972083 0.16444350566108376
-0.34769685112236376 0.22506598283424803
-0.3299683205450067 0.13413226707450165
-0.3122397899676496 0.10382102848791952
-0.25905419823557846 -0.04773516444499114
-0.27678272881293553 0.07350978990133739
-0.27678272881293553 0.16444350566108376
-0.20586860650350725 0.07350978990133739
-0.22359713708086432 0.07350978990133739
-0.2413256676582214 0.04319855131475525
-0.18814007592615017 0.04319855131475525
-0.1704115453487931 0.13413226707450165
-0.18814007592615017 0.22506598283424803
-0.18814007592615017 0.2553772214208302
-0.04631183130729365 0.4069334143537408
0.13097347446627702 0.3159996985939944
0.14870200504363407 0.2553772214208302
-0.04631183130729365 0.04319855131475525
-0.09949742303936485 -0.13866888020473753
-0.20586860650350725 -0.22960259596448393
-0.3122397899676496 -0.1992913573779018
-0.4363395040091491 -0.16898011879131966
-0.41861097343179204 0.04319855131475525
-0.2945112593902926 0.012887312728173124
-0.15268301477143606 -0.07804640303157327
-0.134954484194079 -0.22960259596448393
-0.25905419823557846 -0.35084755031081244
-0.47179656516386326 -0.1992913573779018
-0.6313533403600768 -0.16898011879131966
-0.666810401514791 0.04319855131475525
-0.6490818709374339 0.13413226707450165
-0.5958962792053627 0.1947547442476659
-0.5781677486280057 -0.017423925858409007
-0.6313533403600768 -0.10835764161815539
-0.5604392180506486 -0.1992913573779018
-0.47179656516386326 -0.1992913573779018
-0.4363395040091491 -0.07804640303157327
-0.4363395040091491 -0.017423925858409007
-0.5072536263185774 -0.10835764161815539
-0.6136248097827197 -0.017423925858409007
-0.5427106874732915 0.012887312728173124
-0.36542538169972083 0.10382102848791952
-0.18814007592615017 -0.017423925858409007
-0.20586860650350725 -0.1992913573779018
-0.2945112593902926 -0.4114700274839767
-0.4540680345865062 -0.3811587888973946
-0.5604392180506486 -0.3811587888973946
-0.666810401514791 -0.16898011879131966
-0.5958962792053627 0.012887312728173124
-0.6490818709374339 -0.017423925858409007
-0.666810401514791 -0.1992913573779018
-0.7022674626695051 -0.16898011879131966
-0.666810401514791 -0.04773516444499114
-0.5781677486280057 0.07350978990133739
-0.5604392180506486 0.13413226707450165
-0.5249821568959344 0.07350978990133739
-0.48952509574122033 -0.04773516444499114
-0.5427106874732915 -0.16898011879131966
-0.5072536263185774 -0.29022507313764817
-0.400882442854435 -0.16898011879131966
-0.36542538169972083 -0.07804640303157327
-0.3831539122770779 -0.017423925858409007
-0.47179656516386326 -0.16898011879131966
-0.5781677486280057 -0.16898011879131966
-0.684538932092148 -0.10835764161815539
-0.7199959932468621 0.04319855131475525
-0.5958962792053627 0.10382102848791952
-0.47179656516386326 0.04319855131475525
-0.3122397899676496 -0.10835764161815539
-0.3831539122770779 -0.29022507313764817
-0.4363395040091491 -0.1992913573779018
-0.41861097343179204 -0.017423925858409007
-0.4363395040091491 0.1947547442476659
-0.41861097343179204 0.16444350566108376
-0.3299683205450067 0.13413226707450165
-0.010854770152579518 -0.017423925858409007
0.5210011471681325 -0.16898011879131966
1.1769567785303439 -0.25991383455106604
1.8329124098925553 -0.502403743243723
2.4002253883679816 -0.8358273676961265
2.807981591647194 -1.3208071850814407
3.1980092643490496 -1.654230809533844
3.4462086924320485 -1.8057870024667546
3.623493998205619 -2.048276911159412
3.4107516312773343 -2.3817005356118153
2.7370674693377657 -2.7757466372373827
1.9392835933566979 -2.8666803529971294
1.3365135537265576 -2.836369114410547
0.662829391786989 -2.7151241600642186
-0.36542538169972083 -2.4726342513715616
-1.3759516246090737 -2.1998331040923222
-2.24464962289957 -1.8967207182265011
-2.7233199484882107 -1.684542048120426
-2.6878628873334964 -1.4723633780143512
-2.386477867518426 -1.1086285149753656
-1.9432646030844998 -0.6236486975900516
-1.6241510526920726 -0.25991383455106604
-1.4114086857637878 -0.13866888020473753
-1.2341233799902172 -0.29022507313764817
-1.0213810130619323 -0.22960259596448393
-0.8440957072883616 -0.16898011879131966
-0.6490818709374339 -0.1992913573779018
-0.5072536263185774 -0.13866888020473753
-0.41861097343179204 -0.07804640303157327
-0.47179656516386326 -0.10835764161815539
-0.41861097343179204 -0.16898011879131966
-0.2945112593902926 -0.10835764161815539
-0.15268301477143606 0.012887312728173124
-0.22359713708086432 -0.07804640303157327
-0.3831539122770779 -0.16898011879131966
-0.5249821568959344 -0.13866888020473753
-0.48952509574122033 0.012887312728173124
-0.41861097343179204 0.04319855131475525
-0.27678272881293553 0.13413226707450165
-0.18814007592615017 0.1947547442476659
-0.2945112593902926 0.22506598283424803
-0.48952509574122033 0.04319855131475525
-0.5781677486280057 -0.10835764161815539
-0.5072536263185774 -0.1992913573779018
-0.34769685112236376 -0.10835764161815539
-0.22359713708086432 -0.10835764161815539
-0.15268301477143606 -0.13866888020473753
-0.09949742303936485 -0.16898011879131966
-0.06404036188465072 -0.07804640303157327
-0.08176889246200779 -0.07804640303157327
-0.09949742303936485 -0.04773516444499114
-0.010854770152579518 -0.10835764161815539
0.060059352156848746 -0.07804640303157327
0.16643053562099114 -0.1992913573779018
0.16643053562099114 -0.3205363117242303
0.14870200504363407 -0.1992913573779018
0.3437158413945618 0.012887312728173124
0.5919152694775607 0.10382102848791952
0.7160149835190602 -0.07804640303157327
0.6982864529417031 -0.1992913573779018
0.5210011471681325 -0.3205363117242303
0.4500870248587042 -0.4114700274839767
0.5387296777454895 -0.4114700274839767
0.6982864529417031 -0.4114700274839767
0.7514720446737744 -0.472092504657141
0.7514720446737744 -0.5933374590034695
0.6805579223643461 -0.7448936519363801
0.645100861209632 -0.714582413349798
0.6805579223643461 -0.472092504657141
0.7514720446737744 -0.44178126607055884
0.8401146975605597 -0.29022507313764817
0.9464858810247021 -0.29022507313764817
0.9464858810247021 -0.4114700274839767
0.911028819869988 -0.35084755031081244
0.928757350447345 -0.3205363117242303
1.0351285339114873 -0.35084755031081244
1.1769567785303439 -0.3811587888973946
1.2124138396850581 -0.5630262204168873
1.0528570644888444 -0.6236486975900516
0.911028819869988 -0.472092504657141
0.8578432281379167 -0.4114700274839767
0.9464858810247021 -0.3205363117242303
1.0174000033341304 -0.3811587888973946
1.0351285339114873 -0.5327149818303052
0.9996714727567733 -0.5933374590034695
1.0351285339114873 -0.502403743243723
1.0174000033341304 -0.29022507313764817
0.9642144116020591 -0.22960259596448393
0.7869291058284884 -0.3205363117242303
0.6273723306322748 -0.3811587888973946
0.4855440860134183 -0.44178126607055884
0.396901433126633 -0.1992913573779018
0.4146299637039901 0.012887312728173124
0.4500870248587042 0.13413226707450165
0.5032726165907754 -0.04773516444499114
0.3259873108172047 -0.1992913573779018
0.04233082157949168 -0.1992913573779018
-0.04631183130729365 -0.13866888020473753
0.060059352156848746 -0.1992913573779018
0.060059352156848746 -0.04773516444499114
0.006873760424777549 0.012887312728173124
-0.134954484194079 0.04319855131475525
-0.18814007592615017 0.1947547442476659
-0.134954484194079 0.07350978990133739
-0.04631183130729365 -0.017423925858409007
-0.11722595361672192 -0.07804640303157327
-0.2945112593902926 -0.13866888020473753
-0.41861097343179204 -0.16898011879131966
-0.5249821568959344 -0.13866888020473753
-0.5427106874732915 -0.04773516444499114
-0.4363395040091491 0.10382102848791952
-0.34769685112236376 0.16444350566108376
-0.36542538169972083 -0.04773516444499114
-0.5604392180506486 0.04319855131475525
-0.6313533403600768 0.04319855131475525
-0.5958962792053627 0.16444350566108376
-0.5072536263185774 0.16444350566108376
-0.41861097343179204 0.012887312728173124
-0.4363395040091491 -0.04773516444499114
-0.5249821568959344 -0.07804640303157327
-0.6313533403600768 -0.10835764161815539
-0.7377245238242193 0.16444350566108376
-0.7554530544015763 0.28568846000741227
-0.7022674626695051 0.28568846000741227
-0.666810401514791 0.22506598283424803
-0.6313533403600768 0.04319855131475525
-0.6313533403600768 -0.10835764161815539
-0.5781677486280057 -0.13866888020473753
-0.5604392180506486 -0.04773516444499114
-0.48952509574122033 0.13413226707450165
-0.47179656516386326 0.1947547442476659
-0.48952509574122033 0.10382102848791952
-0.47179656516386326 0.10382102848791952
-0.3831539122770779 0.07350978990133739
-0.2945112593902926 0.10382102848791952
-0.27678272881293553 0.22506598283424803
-0.34769685112236376 0.2553772214208302
-0.4540680345865062 0.2553772214208302
-0.4363395040091491 0.1947547442476659
-0.3299683205450067 0.16444350566108376
-0.18814007592615017 0.1947547442476659
-0.06404036188465072 0.2553772214208302
-0.010854770152579518 0.13413226707450165
0.060059352156848746 0.04319855131475525
0.09551641331156288 -0.13866888020473753
0.060059352156848746 -0.16898011879131966
-0.11722595361672192 -0.017423925858409007
-0.2413256676582214 0.10382102848791952
-0.20586860650350725 0.04319855131475525
-0.20586860650350725 0.07350978990133739
-0.2945112593902926 -0.22960259596448393
-0.400882442854435 -0.22960259596448393
-0.48952509574122033 -0.16898011879131966
-0.5958962792053627 -0.017423925858409007
-0.5249821568959344 -0.04773516444499114
-0.5427106874732915 -0.017423925858409007
-0.5781677486280057 -0.017423925858409007
-0.5072536263185774 0.07350978990133739
-0.48952509574122033 0.10382102848791952
-0.4540680345865062 -0.017423925858409007
-0.400882442854435 -0.10835764161815539
-0.5781677486280057 -0.16898011879131966
-0.7199959932468621 -0.13866888020473753
-0.7731815849789334 0.012887312728173124
-0.684538932092148 0.07350978990133739
-0.5604392180506486 0.012887312728173124
-0.5427106874732915 -0.017423925858409007
-0.5781677486280057 -0.1992913573779018
-0.6490818709374339 -0.07804640303157327
-0.666810401514791 0.04319855131475525
-0.6313533403600768 0.13413226707450165
-0.6313533403600768 0.10382102848791952
-0.666810401514791 0.22506598283424803
-0.6490818709374339 0.10382102848791952
-0.7377245238242193 -0.017423925858409007
-0.7554530544015763 -0.13866888020473753
-0.6136248097827197 -0.13866888020473753
-0.5072536263185774 -0.10835764161815539
-0.5072536263185774 -0.13866888020473753
-0.5604392180506486 -0.07804640303157327
-0.6136248097827197 -0.017423925858409007
-0.6490818709374339 -0.07804640303157327
-0.5781677486280057 0.012887312728173124
-0.47179656516386326 0.13413226707450165
-0.48952509574122033 0.13413226707450165
-0.666810401514791 -0.017423925858409007
-0.7731815849789334 -0.16898011879131966
-0.7199959932468621 -0.16898011879131966
-0.666810401514791 -0.13866888020473753
-0.6490818709374339 -0.04773516444499114
-0.6313533403600768 -0.10835764161815539
-0.5781677486280057 0.04319855131475525
-0.5427106874732915 0.07350978990133739
-0.5072536263185774 0.07350978990133739
-0.5427106874732915 0.012887312728173124
-0.5249821568959344 -0.04773516444499114
-0.5072536263185774 -0.10835764161815539
-0.5249821568959344 -0.04773516444499114
-0.5781677486280057 -0.017423925858409007
-0.6313533403600768 0.07350978990133739
-0.5072536263185774 0.2553772214208302
-0.1704115453487931 0.34631093718057654
0.20188759677570528 0.2553772214208302
0.5564582083228466 0.07350978990133739
0.8578432281379167 -0.16898011879131966
1.230142370262415 -0.4114700274839767
1.7974553487378413 -0.714582413349798
2.4002253883679816 -0.9873835606290372
2.825710122224551 -1.381429662254605
3.0029954279981217 -1.8057870024667546
2.825710122224551 -2.1998331040923222
2.3647683272132674 -2.290766819852069
1.8329124098925553 -2.351389297025233
1.194685309107701 -2.3817005356118153
0.20188759677570528 -2.2604555812654867
-0.9859239519072182 -2.0179656725728297
-1.9255360725071426 -1.7451645252935903
-2.510577581559926 -1.4723633780143512
-2.652405826178782 -1.2601847079082764
-2.4573919898278547 -0.8964498448692908
-2.1914640311674987 -0.3205363117242303
-1.996450194816571 0.012887312728173124
-1.7127937055788578 0.13413226707450165
-1.3759516246090737 0.012887312728173124
-0.9859239519072182 0.012887312728173124
-0.6136248097827197 0.012887312728173124
-0.41861097343179204 -0.10835764161815539
-0.400882442854435 -0.29022507313764817
-0.5072536263185774 -0.3811587888973946
-0.684538932092148 -0.16898011879131966
-0.7199959932468621 0.07350978990133739
-0.5072536263185774 0.3159996985939944
-0.2413256676582214 0.3159996985939944
-0.08176889246200779 -0.017423925858409007
-0.06404036188465072 -0.10835764161815539
-0.27678272881293553 -0.1992913573779018
-0.6136248097827197 -0.04773516444499114
-0.666810401514791 0.10382102848791952
-0.6136248097827197 0.1947547442476659
-0.5249821568959344 0.07350978990133739
-0.4363395040091491 0.07350978990133739
-0.41861097343179204 0.012887312728173124
-0.3122397899676496 0.04319855131475525
-0.134954484194079 0.04319855131475525
-0.08176889246200779 -0.07804640303157327
-0.04631183130729365 -0.1992913573779018
-0.09949742303936485 -0.13866888020473753
-0.028583300729936582 -0.017423925858409007
0.060059352156848746 0.012887312728173124
0.024602291002134614 0.04319855131475525
-0.06404036188465072 -0.07804640303157327
-0.06404036188465072 -0.22960259596448393
0.006873760424777549 -0.3811587888973946
0.13097347446627702 -0.35084755031081244
0.2550731885077765 -0.35084755031081244
0.4500870248587042 -0.1992913573779018
0.5387296777454895 -0.35084755031081244
0.5032726165907754 -0.3811587888973946
0.43235849428134715 -0.44178126607055884
0.4678155554360613 -0.4114700274839767
0.5919152694775607 -0.3205363117242303
0.7337435140964172 -0.25991383455106604
0.7869291058284884 -0.3205363117242303
0.7692005752511314 -0.502403743243723
0.6982864529417031 -0.3811587888973946
0.6805579223643461 -0.16898011879131966
0.7869291058284884 -0.04773516444499114
0.911028819869988 0.012887312728173124
0.9642144116020591 -0.35084755031081244
0.928757350447345 -0.5630262204168873
0.8578432281379167 -0.7752048905229623
0.8578432281379167 -0.5630262204168873
0.9819429421794161 -0.3811587888973946
0.9996714727567733 -0.29022507313764817
0.8933002892926308 -0.22960259596448393
0.662829391786989 -0.13866888020473753
0.5919152694775607 -0.1992913573779018
0.5919152694775607 -0.13866888020473753
0.7514720446737744 -0.16898011879131966
0.8578432281379167 -0.22960259596448393
0.928757350447345 -0.3811587888973946
0.8046576364058455 -0.44178126607055884
0.662829391786989 -0.5327149818303052
0.6273723306322748 -0.3205363117242303
0.5919152694775607 -0.16898011879131966
0.4855440860134183 -0.10835764161815539
0.4146299637039901 -0.3205363117242303
0.23734465793041942 -0.4114700274839767
0.04233082157949168 -0.35084755031081244
-0.028583300729936582 -0.10835764161815539
-0.08176889246200779 0.10382102848791952
-0.08176889246200779 0.10382102848791952
-0.18814007592615017 0.13413226707450165
-0.2945112593902926 -0.017423925858409007
-0.36542538169972083 0.012887312728173124
-0.41861097343179204 0.10382102848791952
-0.4540680345865062 0.13413226707450165
-0.47179656516386326 0.1947547442476659
-0.48952509574122033 0.07350978990133739
-0.47179656516386326 -0.017423925858409007
-0.5604392180506486 0.07350978990133739
-0.48952509574122033 0.16444350566108376
-0.4540680345865062 0.16444350566108376
-0.400882442854435 0.16444350566108376
-0.4540680345865062 0.13413226707450165
-0.5781677486280057 -0.04773516444499114
-0.7377245238242193 0.07350978990133739
-0.8440957072883616 0.1947547442476659
-0.8086386461336474 0.3766221757671587
-0.684538932092148 0.43724465294032294
-0.6136248097827197 0.4069334143537408
-0.6490818709374339 0.07350978990133739
-0.684538932092148 -0.16898011879131966
-0.684538932092148 -0.07804640303157327
-0.6136248097827197 0.13413226707450165
-0.5781677486280057 0.16444350566108376
-0.6313533403600768 0.04319855131475525
-0.7554530544015763 0.10382102848791952
-0.8795527684430757 0.10382102848791952
-0.8440957072883616 0.3159996985939944
-0.666810401514791 0.34631093718057654
-0.3831539122770779 0.34631093718057654
-0.2413256676582214 0.10382102848791952
-0.18814007592615017 -0.07804640303157327
-0.18814007592615017 -0.10835764161815539
-0.36542538169972083 -0.04773516444499114
-0.666810401514791 0.1947547442476659
-0.8795527684430757 0.3159996985939944
-0.950466890752504 0.4978671301134872
-0.8795527684430757 0.5888008458732336
-0.7909101155562904 0.5584896072866514
-0.7022674626695051 0.4978671301134872
-0.5781677486280057 0.4675558915269051
-0.48952509574122033 0.4069334143537408
-0.3831539122770779 0.3159996985939944
-0.34769685112236376 0.28568846000741227
-0.2945112593902926 0.16444350566108376
-0.22359713708086432 0.3159996985939944
-0.08176889246200779 0.28568846000741227
0.07778788273420581 0.28568846000741227
0.14870200504363407 -0.017423925858409007
-0.028583300729936582 -0.16898011879131966
-0.3299683205450067 -0.35084755031081244
-0.666810401514791 -0.13866888020473753
-0.8618242378657187 0.04319855131475525
-0.8972812990204329 0.3766221757671587
-0.8263671767110046 0.5281783687000693
-0.7731815849789334 0.28568846000741227
-0.7199959932468621 0.10382102848791952
-0.684538932092148 -0.07804640303157327
-0.5072536263185774 0.04319855131475525
-0.2945112593902926 0.13413226707450165
-0.2945112593902926 0.04319855131475525
-0.27678272881293553 0.04319855131475525
-0.34769685112236376 -0.04773516444499114
-0.4540680345865062 0.07350978990133739
-0.5958962792053627 0.2553772214208302
-0.6313533403600768 0.3766221757671587
-0.6490818709374339 0.2553772214208302
-0.7022674626695051 0.10382102848791952
-0.8618242378657187 -0.10835764161815539
-1.0568380742166463 -0.10835764161815539
-1.1632092576807889 0.10382102848791952
-1.0922951353713606 0.34631093718057654
-0.9859239519072182 0.43724465294032294
-0.8263671767110046 0.4069334143537408
-0.8618242378657187 0.16444350566108376
-0.7731815849789334 0.16444350566108376
-0.7199959932468621 0.16444350566108376
-0.5958962792053627 0.2553772214208302
-0.666810401514791 0.07350978990133739
-0.7022674626695051 0.13413226707450165
-0.8086386461336474 -0.04773516444499114
-0.8263671767110046 0.13413226707450165
-0.8086386461336474 0.22506598283424803
-0.8086386461336474 0.34631093718057654
-0.7377245238242193 0.1947547442476659
-0.7022674626695051 0.13413226707450165
-0.7022674626695051 0.07350978990133739
-0.7022674626695051 0.10382102848791952
-0.7199959932468621 0.13413226707450165
-0.684538932092148 0.3159996985939944
-0.666810401514791 0.1947547442476659
-0.5958962792053627 -0.04773516444499114
-0.666810401514791 -0.1992913573779018
-0.6490818709374339 -0.13866888020473753
-0.5958962792053627 0.012887312728173124
-0.5958962792053627 0.04319855131475525
-0.5958962792053627 0.10382102848791952
-0.6313533403600768 -0.017423925858409007
-0.666810401514791 -0.04773516444499114
-0.7022674626695051 -0.017423925858409007
-0.7022674626695051 0.04319855131475525
-0.684538932092148 0.1947547442476659
-0.6490818709374339 0.3766221757671587
-0.5604392180506486 0.43724465294032294
-0.3831539122770779 0.43724465294032294
-0.11722595361672192 0.28568846000741227
0.2905302496624906 0.13413226707450165
0.7514720446737744 -0.10835764161815539
1.2124138396850581 -0.35084755031081244
1.6556271041189847 -0.6539599361766337
2.1165688991302685 -0.9570723220424551
2.542053632986838 -1.16925099214853
2.861167183379265 -1.3511184236680227
3.038452489152836 -1.5936083323606798
2.754795999915123 -1.8360982410533369
2.276125674326482 -2.139210626919158
1.726541226428413 -2.1695218655057404
0.9819429421794161 -2.0785881497459937
-0.11722595361672192 -1.8664094796399189
-1.2873089717222883 -1.684542048120426
-2.297835214631641 -1.411740900841187
-2.8651481931070673 -1.3208071850814407
-2.84741966252971 -1.1086285149753656
-2.492849050982569 -0.8055161291095444
-2.0850928477033563 -0.44178126607055884
-1.8014363584656432 -0.1992913573779018
-1.6064225221147155 -0.10835764161815539
-1.3582230940317166 -0.10835764161815539
-1.1632092576807889 -0.07804640303157327
-0.9681954213298611 -0.07804640303157327
-0.8263671767110046 -0.017423925858409007
-0.7199959932468621 0.16444350566108376
-0.666810401514791 0.07350978990133739
-0.7377245238242193 0.012887312728173124
-0.7554530544015763 -0.07804640303157327
-0.7199959932468621 -0.04773516444499114
-0.6313533403600768 0.07350978990133739
-0.5072536263185774 0.1947547442476659
-0.4540680345865062 0.13413226707450165
-0.3299683205450067 0.012887312728173124
-0.34769685112236376 0.04319855131475525
-0.4363395040091491 0.012887312728173124
-0.5781677486280057 0.07350978990133739
-0.5781677486280057 0.04319855131475525
-0.5604392180506486 -0.017423925858409007
-0.47179656516386326 -0.16898011879131966
-0.41861097343179204 -0.25991383455106604
-0.3831539122770779 -0.13866888020473753
-0.3122397899676496 0.04319855131475525
-0.22359713708086432 0.07350978990133739
-0.15268301477143606 0.07350978990133739
-0.18814007592615017 -0.07804640303157327
-0.2945112593902926 -0.16898011879131966
-0.3299683205450067 -0.10835764161815539
-0.27678272881293553 -0.04773516444499114
-0.1704115453487931 0.16444350566108376
-0.06404036188465072 0.04319855131475525
0.04233082157949168 -0.04773516444499114
0.1841590661983482 -0.07804640303157327
0.23734465793041942 -0.07804640303157327
0.36144437197191887 -0.017423925858409007
0.36144437197191887 0.012887312728173124
0.23734465793041942 0.10382102848791952
0.13097347446627702 0.04319855131475525
0.14870200504363407 -0.04773516444499114
0.23734465793041942 -0.1992913573779018
0.36144437197191887 -0.25991383455106604
0.5387296777454895 -0.16898011879131966
0.6982864529417031 -0.22960259596448393
0.662829391786989 -0.44178126607055884
0.645100861209632 -0.6539599361766337
0.6273723306322748 -0.5933374590034695
0.6982864529417031 -0.3205363117242303
0.7514720446737744 -0.13866888020473753
0.8223861669832025 -0.1992913573779018
0.911028819869988 -0.3811587888973946
0.928757350447345 -0.5630262204168873
0.8046576364058455 -0.5933374590034695
0.7514720446737744 -0.44178126607055884
0.8401146975605597 -0.3205363117242303
0.9819429421794161 -0.3205363117242303
0.9819429421794161 -0.3205363117242303
0.8755717587152738 -0.44178126607055884
0.7337435140964172 -0.3811587888973946
0.8223861669832025 -0.1992913573779018
0.928757350447345 -0.07804640303157327
0.8755717587152738 -0.017423925858409007
0.8223861669832025 -0.07804640303157327
0.7692005752511314 -0.1992913573779018
0.7692005752511314 -0.35084755031081244
0.8223861669832025 -0.3205363117242303
0.662829391786989 -0.3811587888973946
0.3437158413945618 -0.44178126607055884
-0.028583300729936582 -0.3205363117242303
-0.18814007592615017 -0.1992913573779018
-0.11722595361672192 0.10382102848791952
-0.08176889246200779 0.13413226707450165
-0.04631183130729365 0.22506598283424803
-0.09949742303936485 0.10382102848791952
-0.18814007592615017 0.012887312728173124
-0.2413256676582214 0.012887312728173124
-0.2413256676582214 0.07350978990133739
-0.22359713708086432 0.22506598283424803
-0.22359713708086432 0.1947547442476659
-0.22359713708086432 0.012887312728173124
-0.3122397899676496 -0.04773516444499114
-0.400882442854435 0.04319855131475525
-0.3831539122770779 0.012887312728173124
-0.3831539122770779 0.07350978990133739
-0.34769685112236376 0.07350978990133739
-0.2945112593902926 -0.07804640303157327
-0.1704115453487931 -0.16898011879131966
-0.11722595361672192 -0.25991383455106604
-0.2413256676582214 -0.16898011879131966
-0.5072536263185774 -0.04773516444499114
-0.5958962792053627 0.07350978990133739
-0.5781677486280057 0.04319855131475525
-0.6136248097827197 0.012887312728173124
-0.7199959932468621 -0.07804640303157327
-0.7554530544015763 0.10382102848791952
-0.7554530544015763 0.22506598283424803
-0.684538932092148 0.3159996985939944
-0.7199959932468621 0.28568846000741227
-0.7731815849789334 0.22506598283424803
-0.7731815849789334 0.13413226707450165
-0.6313533403600768 0.2553772214208302
-0.41861097343179204 0.3159996985939944
-0.3299683205450067 0.1947547442476659
-0.47179656516386326 -0.04773516444499114
-0.7199959932468621 -0.10835764161815539
-0.8972812990204329 -0.10835764161815539
-0.8972812990204329 0.10382102848791952
-0.7554530544015763 0.3766221757671587
-0.6313533403600768 0.4069334143537408
-0.5781677486280057 0.3766221757671587
-0.684538932092148 0.3766221757671587
-0.684538932092148 0.4069334143537408
-0.6313533403600768 0.4978671301134872
-0.5604392180506486 0.5888008458732336
-0.41861097343179204 0.6191120844598157
-0.34769685112236376 0.4675558915269051
-0.27678272881293553 0.1947547442476659
-0.2945112593902926 0.10382102848791952
-0.27678272881293553 0.16444350566108376
-0.15268301477143606 0.3766221757671587
-0.20586860650350725 0.4069334143537408
-0.41861097343179204 0.2553772214208302
-0.5958962792053627 0.012887312728173124
-0.6313533403600768 -0.07804640303157327
-0.6313533403600768 0.012887312728173124
-0.5072536263185774 0.13413226707450165
-0.41861097343179204 0.16444350566108376
-0.4540680345865062 0.13413226707450165
-0.6136248097827197 -0.04773516444499114
-0.6313533403600768 0.012887312728173124
-0.5781677486280057 0.012887312728173124
-0.5781677486280057 0.04319855131475525
-0.6136248097827197 0.04319855131475525
-0.6136248097827197 0.04319855131475525
-0.666810401514791 0.04319855131475525
-0.6136248097827197 0.012887312728173124
-0.6313533403600768 -0.04773516444499114
-0.6136248097827197 -0.04773516444499114
-0.7199959932468621 0.04319855131475525
-0.8086386461336474 0.16444350566108376
-0.8795527684430757 0.10382102848791952
-0.8972812990204329 0.04319855131475525
-0.8440957072883616 0.04319855131475525
-0.7554530544015763 0.07350978990133739
-0.666810401514791 0.22506598283424803
-0.5604392180506486 0.13413226707450165
-0.47179656516386326 0.04319855131475525
-0.4363395040091491 -0.07804640303157327
-0.5604392180506486 -0.16898011879131966
-0.6490818709374339 0.012887312728173124
-0.666810401514791 0.04319855131475525
-0.7377245238242193 0.07350978990133739
-0.7909101155562904 0.10382102848791952
-0.932738360175147 0.13413226707450165
-0.932738360175147 0.28568846000741227
-0.7909101155562904 0.34631093718057654
-0.6313533403600768 0.34631093718057654
-0.5249821568959344 0.13413226707450165
-0.48952509574122033 -0.017423925858409007
-0.5604392180506486 -0.13866888020473753
-0.666810401514791 0.012887312728173124
-0.7554530544015763 0.13413226707450165
-0.7022674626695051 0.28568846000741227
-0.6313533403600768 0.07350978990133739
-0.684538932092148 -0.10835764161815539
-0.8263671767110046 -0.16898011879131966
-0.8972812990204329 -0.07804640303157327
-0.7554530544015763 0.10382102848791952
-0.6313533403600768 0.16444350566108376
-0.666810401514791 0.16444350566108376
-0.6490818709374339 0.13413226707450165
-0.7199959932468621 0.04319855131475525
-0.7022674626695051 0.1947547442476659
-0.6136248097827197 0.3766221757671587
-0.5427106874732915 0.5281783687000693
-0.47179656516386326 0.4675558915269051
-0.18814007592615017 0.3159996985939944
0.30825878023984765 0.16444350566108376
0.9464858810247021 -0.10835764161815539
1.5492559206548424 -0.3205363117242303
2.1165688991302685 -0.5933374590034695
2.6306962858736234 -0.9267610834558729
3.020723958575479 -1.3208071850814407
3.2334663255037634 -1.8057870024667546
3.0029954279981217 -2.290766819852069
2.4002253883679816 -2.502945489958144
1.7088126958510559 -2.351389297025233
0.9642144116020591 -2.351389297025233
-0.11722595361672192 -2.2301443426789045
-1.2873089717222883 -2.0179656725728297
-2.297835214631641 -1.7754757638801726
-2.9006052542617815 -1.3208071850814407
-2.829691131952353 -0.9873835606290372
-2.510577581559926 -0.6842711747632159
-2.067364317125999 -0.4114700274839767
-1.8014363584656432 -0.16898011879131966
-1.51777986922793 0.04319855131475525
-1.1632092576807889 0.07350978990133739
-0.8972812990204329 0.012887312728173124
-0.7731815849789334 0.16444350566108376
-0.7909101155562904 0.012887312728173124
-0.9150098295977899 0.012887312728173124
-0.8972812990204329 -0.017423925858409007
-0.7554530544015763 0.07350978990133739
-0.684538932092148 0.22506598283424803
-0.6490818709374339 0.22506598283424803
-0.6136248097827197 0.16444350566108376
-0.5958962792053627 0.10382102848791952
-0.5781677486280057 0.16444350566108376
-0.4540680345865062 0.22506598283424803
-0.400882442854435 0.28568846000741227
-0.400882442854435 0.2553772214208302
-0.47179656516386326 -0.017423925858409007
-0.4363395040091491 -0.07804640303157327
-0.34769685112236376 -0.017423925858409007
-0.27678272881293553 -0.04773516444499114
-0.3299683205450067 0.04319855131475525
-0.3831539122770779 0.012887312728173124
-0.5249821568959344 -0.07804640303157327
-0.6136248097827197 -0.07804640303157327
-0.5604392180506486 0.07350978990133739
-0.41861097343179204 0.22506598283424803
-0.22359713708086432 0.2553772214208302
-0.18814007592615017 0.13413226707450165
-0.22359713708086432 -0.10835764161815539
-0.18814007592615017 -0.04773516444499114
-0.134954484194079 0.04319855131475525
0.024602291002134614 0.10382102848791952
0.13097347446627702 0.07350978990133739
0.07778788273420581 -0.13866888020473753
0.07778788273420581 -0.22960259596448393
0.09551641331156288 -0.25991383455106604
0.13097347446627702 -0.13866888020473753
0.21961612735306235 -0.10835764161815539
0.3259873108172047 0.012887312728173124
0.396901433126633 -0.017423925858409007
0.4146299637039901 -0.10835764161815539
0.43235849428134715 -0.1992913573779018
0.5210011471681325 -0.16898011879131966
0.5919152694775607 -0.13866888020473753
0.645100861209632 -0.10835764161815539
0.6273723306322748 -0.13866888020473753
0.645100861209632 -0.22960259596448393
0.645100861209632 -0.25991383455106604
0.7692005752511314 -0.35084755031081244
0.8755717587152738 -0.3811587888973946
0.9464858810247021 -0.3205363117242303
0.928757350447345 -0.44178126607055884
0.8401146975605597 -0.502403743243723
0.7692005752511314 -0.44178126607055884
0.7869291058284884 -0.29022507313764817
0.8578432281379167 -0.07804640303157327
0.911028819869988 -0.13866888020473753
0.9819429421794161 -0.16898011879131966
0.9819429421794161 -0.25991383455106604
0.7869291058284884 -0.25991383455106604
0.645100861209632 -0.1992913573779018
0.5387296777454895 -0.10835764161815539
0.6096438000549178 -0.07804640303157327
0.6096438000549178 -0.16898011879131966
0.4500870248587042 -0.29022507313764817
0.27280171908513356 -0.25991383455106604
0.2905302496624906 -0.22960259596448393
0.4855440860134183 -0.04773516444499114
0.7692005752511314 0.012887312728173124
0.7337435140964172 -0.04773516444499114
0.396901433126633 -0.07804640303157327
-0.11722595361672192 -0.07804640303157327
-0.5249821568959344 0.04319855131475525
-0.6490818709374339 0.28568846000741227
-0.666810401514791 0.3159996985939944
-0.6313533403600768 0.28568846000741227
-0.7022674626695051 0.1947547442476659
-0.666810401514791 0.28568846000741227
-0.666810401514791 0.34631093718057654
-0.6136248097827197 0.5281783687000693
-0.5958962792053627 0.43724465294032294
-0.5958962792053627 0.2553772214208302
-0.666810401514791 0.07350978990133739
-0.7554530544015763 -0.10835764161815539
-0.7377245238242193 0.04319855131475525
-0.6490818709374339 0.13413226707450165
-0.5427106874732915 0.34631093718057654
-0.5072536263185774 0.4069334143537408
-0.48952509574122033 0.4069334143537408
-0.47179656516386326 0.3159996985939944
-0.27678272881293553 0.2553772214208302
-0.2413256676582214 0.04319855131475525
-0.3831539122770779 -0.04773516444499114
-0.666810401514791 -0.22960259596448393
-0.8440957072883616 -0.16898011879131966
-0.8972812990204329 0.04319855131475525
-0.8086386461336474 0.16444350566108376
-0.7554530544015763 0.28568846000741227
-0.684538932092148 0.3159996985939944
-0.684538932092148 0.22506598283424803
-0.6313533403600768 0.2553772214208302
-0.6490818709374339 0.3159996985939944
-0.6313533403600768 0.28568846000741227
-0.4540680345865062 0.28568846000741227
-0.27678272881293553 0.4069334143537408
-0.134954484194079 0.2553772214208302
-0.18814007592615017 0.22506598283424803
-0.3831539122770779 0.22506598283424803
-0.5958962792053627 0.3159996985939944
-0.7022674626695051 0.43724465294032294
-0.6136248097827197 0.5888008458732336
-0.48952509574122033 0.4069334143537408
-0.3299683205450067 0.3159996985939944
-0.27678272881293553 0.13413226707450165
-0.18814007592615017 0.16444350566108376
-0.06404036188465072 0.1947547442476659
-0.028583300729936582 0.22506598283424803
-0.20586860650350725 0.012887312728173124
-0.4363395040091491 -0.16898011879131966
-0.5604392180506486 -0.04773516444499114
-0.5781677486280057 0.07350978990133739
-0.5427106874732915 0.1947547442476659
-0.48952509574122033 0.22506598283424803
-0.5072536263185774 0.16444350566108376
-0.5072536263185774 0.04319855131475525
-0.5427106874732915 0.012887312728173124
-0.6136248097827197 0.04319855131475525
-0.7199959932468621 0.10382102848791952
-0.8263671767110046 0.13413226707450165
-0.8263671767110046 0.3159996985939944
-0.7199959932468621 0.1947547442476659
-0.7377245238242193 0.1947547442476659
-0.8440957072883616 0.16444350566108376
-1.0036524824845752 0.22506598283424803
-1.0568380742166463 0.28568846000741227
-1.0036524824845752 0.3766221757671587
-0.950466890752504 0.3159996985939944
-0.950466890752504 0.22506598283424803
-0.9150098295977899 0.1947547442476659
-0.8440957072883616 0.22506598283424803
-0.7554530544015763 0.28568846000741227
-0.7199959932468621 0.16444350566108376
-0.7554530544015763 0.22506598283424803
-0.8795527684430757 0.13413226707450165
-1.0391095436392894 0.28568846000741227
-1.1100236659487177 0.3766221757671587
-0.9859239519072182 0.3766221757671587
-0.9150098295977899 0.16444350566108376
-0.8440957072883616 0.012887312728173124
-0.8972812990204329 -0.07804640303157327
-0.8795527684430757 -0.017423925858409007
-0.7731815849789334 0.10382102848791952
-0.7022674626695051 0.13413226707450165
-0.6490818709374339 0.10382102848791952
-0.666810401514791 -0.017423925858409007
-0.7199959932468621 -0.017423925858409007
-0.8263671767110046 0.012887312728173124
-0.8618242378657187 0.10382102848791952
-0.8263671767110046 0.28568846000741227
-0.7909101155562904 0.22506598283424803
-0.684538932092148 0.10382102848791952
-0.684538932092148 -0.04773516444499114
-0.7199959932468621 -0.07804640303157327
-0.7022674626695051 -0.07804640303157327
-0.6490818709374339 -0.017423925858409007
-0.5781677486280057 -0.10835764161815539
-0.5604392180506486 -0.1992913573779018
-0.5958962792053627 -0.25991383455106604
-0.684538932092148 -0.13866888020473753
-0.7022674626695051 0.10382102848791952
-0.6313533403600768 0.28568846000741227
-0.5249821568959344 0.3159996985939944
-0.15268301477143606 0.2553772214208302
0.37917290254927594 0.1947547442476659
0.928757350447345 -0.04773516444499114
1.496070328922771 -0.3205363117242303
2.010197715666126 -0.44178126607055884
2.577510694141552 -0.9267610834558729
2.9852668974207646 -1.381429662254605
3.1980092643490496 -1.8967207182265011
3.091638080884907 -2.139210626919158
2.595239224718909 -2.2301443426789045
2.04565477682084 -2.3817005356118153
1.3896991454586287 -2.5332567285447256
0.5387296777454895 -2.6241904443044723
-0.684538932092148 -2.502945489958144
-1.7659792973109292 -2.048276911159412
-2.475120520405212 -1.7148532867070083
-2.7233199484882107 -1.411740900841187
-2.6169487650240684 -1.1389397535619479
-2.297835214631641 -0.7752048905229623
-1.9432646030844998 -0.44178126607055884
-1.5709654609600014 -0.10835764161815539
-1.2341233799902172 0.04319855131475525
-0.9859239519072182 0.012887312728173124
-0.7909101155562904 0.012887312728173124
-0.7554530544015763 0.012887312728173124
-0.8440957072883616 -0.04773516444499114
-0.8972812990204329 0.012887312728173124
-0.932738360175147 0.07350978990133739
-0.7909101155562904 0.1947547442476659
-0.684538932092148 0.16444350566108376
-0.6313533403600768 -0.04773516444499114
-0.7022674626695051 -0.13866888020473753
-0.7199959932468621 -0.07804640303157327
-0.684538932092148 0.07350978990133739
-0.5427106874732915 0.28568846000741227
-0.4540680345865062 0.22506598283424803
-0.47179656516386326 -0.04773516444499114
-0.41861097343179204 -0.13866888020473753
-0.4363395040091491 -0.10835764161815539
-0.41861097343179204 0.04319855131475525
-0.3299683205450067 0.10382102848791952
-0.3122397899676496 0.012887312728173124
-0.27678272881293553 -0.04773516444499114
-0.25905419823557846 -0.22960259596448393
-0.2413256676582214 -0.04773516444499114
-0.1704115453487931 -0.04773516444499114
-0.06404036188465072 -0.04773516444499114
-0.06404036188465072 -0.10835764161815539
-0.11722595361672192 -0.16898011879131966
-0.134954484194079 -0.10835764161815539
-0.06404036188465072 -0.04773516444499114
0.11324494388891995 0.07350978990133739
0.27280171908513356 0.1947547442476659
0.3259873108172047 0.16444350566108376
0.37917290254927594 -0.04773516444499114
0.396901433126633 -0.1992913573779018
0.4500870248587042 -0.3205363117242303
0.4500870248587042 -0.22960259596448393
0.4146299637039901 -0.16898011879131966
0.5032726165907754 -0.29022507313764817
0.5741867389002037 -0.502403743243723
0.6096438000549178 -0.502403743243723
0.5741867389002037 -0.5933374590034695
0.5919152694775607 -0.4114700274839767
0.6805579223643461 -0.25991383455106604
0.7692005752511314 -0.29022507313764817
0.7337435140964172 -0.44178126607055884
0.7514720446737744 -0.4114700274839767
0.8755717587152738 -0.3811587888973946
1.0351285339114873 -0.22960259596448393
1.194685309107701 -0.1992913573779018
1.1237711867982727 -0.29022507313764817
1.0705855950662015 -0.4114700274839767
0.9464858810247021 -0.5327149818303052
0.8401146975605597 -0.472092504657141
0.8578432281379167 -0.3205363117242303
0.9642144116020591 -0.1992913573779018
0.911028819869988 -0.1992913573779018
0.8578432281379167 -0.13866888020473753
0.7869291058284884 -0.16898011879131966
0.662829391786989 -0.04773516444499114
0.5387296777454895 -0.017423925858409007
0.3437158413945618 -0.07804640303157327
0.09551641331156288 -0.13866888020473753
-0.028583300729936582 -0.22960259596448393
-0.04631183130729365 -0.25991383455106604
0.006873760424777549 -0.07804640303157327
0.060059352156848746 0.07350978990133739
0.16643053562099114 0.07350978990133739
0.20188759677570528 -0.04773516444499114
0.09551641331156288 -0.1992913573779018
-0.134954484194079 -0.22960259596448393
-0.48952509574122033 -0.22960259596448393
-0.666810401514791 0.10382102848791952
-0.666810401514791 0.2553772214208302
-0.5958962792053627 0.2553772214208302
-0.6136248097827197 0.22506598283424803
-0.7199959932468621 0.28568846000741227
-0.6490818709374339 0.34631093718057654
-0.5249821568959344 0.43724465294032294
-0.5249821568959344 0.34631093718057654
-0.5958962792053627 0.10382102848791952
-0.666810401514791 0.012887312728173124
-0.5958962792053627 -0.07804640303157327
-0.5958962792053627 -0.017423925858409007
-0.6490818709374339 0.10382102848791952
-0.5958962792053627 0.2553772214208302
-0.5958962792053627 0.1947547442476659
-0.7022674626695051 0.07350978990133739
-0.8263671767110046 0.04319855131475525
-0.950466890752504 0.07350978990133739
-0.8618242378657187 0.1947547442476659
-0.7199959932468621 0.4069334143537408
-0.5958962792053627 0.2553772214208302
-0.6136248097827197 0.13413226707450165
-0.684538932092148 -0.017423925858409007
-0.684538932092148 0.04319855131475525
-0.6313533403600768 0.1947547442476659
-0.5781677486280057 0.16444350566108376
-0.5604392180506486 0.16444350566108376
-0.5427106874732915 0.10382102848791952
-0.5249821568959344 0.13413226707450165
-0.41861097343179204 0.22506598283424803
-0.48952509574122033 0.2553772214208302
-0.47179656516386326 0.34631093718057654
-0.4540680345865062 0.28568846000741227
-0.4363395040091491 0.13413226707450165
-0.3831539122770779 0.10382102848791952
-0.25905419823557846 0.16444350566108376
-0.2413256676582214 0.1947547442476659
-0.22359713708086432 0.2553772214208302
-0.3122397899676496 0.16444350566108376
-0.4540680345865062 -0.017423925858409007
-0.5249821568959344 -0.04773516444499114
-0.5781677486280057 -0.13866888020473753
-0.5427106874732915 -0.10835764161815539
-0.5427106874732915 0.10382102848791952
-0.6490818709374339 0.07350978990133739
-0.7022674626695051 0.07350978990133739
-0.666810401514791 0.04319855131475525
-0.5958962792053627 -0.04773516444499114
-0.5958962792053627 -0.017423925858409007
-0.6136248097827197 0.1947547442476659
-0.5781677486280057 0.07350978990133739
-0.666810401514791 -0.017423925858409007
-0.7199959932468621 -0.13866888020473753
-0.8263671767110046 0.012887312728173124
-0.8086386461336474 -0.017423925858409007
-0.7731815849789334 -0.04773516444499114
-0.7199959932468621 0.012887312728173124
-0.7377245238242193 0.04319855131475525
-0.8263671767110046 -0.13866888020473753
-0.8086386461336474 -0.13866888020473753
-0.684538932092148 -0.07804640303157327
-0.6313533403600768 -0.017423925858409007
-0.7377245238242193 -0.04773516444499114
-0.8972812990204329 -0.07804640303157327
-0.9681954213298611 0.04319855131475525
-0.8795527684430757 0.10382102848791952
-0.7731815849789334 0.13413226707450165
-0.5958962792053627 0.1947547442476659
-0.5958962792053627 0.10382102848791952
-0.7022674626695051 -0.10835764161815539
-0.7909101155562904 -0.04773516444499114
-0.8086386461336474 0.012887312728173124
-0.7199959932468621 0.10382102848791952
-0.6490818709374339 0.10382102848791952
-0.6490818709374339 0.10382102848791952
-0.7377245238242193 0.012887312728173124
-0.8263671767110046 -0.017423925858409007
-0.8618242378657187 0.012887312728173124
-0.7377245238242193 0.10382102848791952
-0.6313533403600768 0.16444350566108376
-0.684538932092148 0.012887312728173124
-0.7731815849789334 -0.16898011879131966
-0.8618242378657187 -0.1992913573779018
-0.8086386461336474 -0.13866888020473753
-0.6313533403600768 0.10382102848791952
-0.5781677486280057 0.1947547442476659
-0.5958962792053627 0.13413226707450165
-0.6136248097827197 0.10382102848791952
-0.4363395040091491 0.13413226707450165
-0.028583300729936582 0.28568846000741227
0.5741867389002037 0.2553772214208302
1.2655994314171293 -0.10835764161815539
1.974740654511412 -0.5630262204168873
2.4711395106774097 -1.1389397535619479
2.754795999915123 -1.6239195709472618
2.8966242445339794 -1.8664094796399189
2.9320813056886936 -2.0179656725728297
2.6661533470283376 -2.139210626919158
2.04565477682084 -2.4423230127849793
1.3896991454586287 -2.563567967131308
0.5032726165907754 -2.563567967131308
-0.684538932092148 -2.351389297025233
-1.748250766733572 -1.9270319568130831
-2.581491703869354 -1.684542048120426
-2.8828767236844244 -1.4420521394277692
-2.6878628873334964 -1.2601847079082764
-2.4042063980957833 -0.8661386062827087
-2.0850928477033563 -0.472092504657141
-1.748250766733572 -0.10835764161815539
-1.3936801551864306 0.04319855131475525
-1.0568380742166463 0.04319855131475525
-0.8086386461336474 -0.10835764161815539
-0.7377245238242193 -0.1992913573779018
-0.684538932092148 -0.1992913573779018
-0.5958962792053627 -0.04773516444499114
-0.5249821568959344 -0.13866888020473753
-0.5781677486280057 0.04319855131475525
-0.7377245238242193 0.1947547442476659
-0.8263671767110046 0.22506598283424803
-0.7199959932468621 0.1947547442476659
-0.4363395040091491 0.13413226707450165
-0.22359713708086432 -0.04773516444499114
-0.2413256676582214 -0.29022507313764817
-0.400882442854435 -0.3811587888973946
-0.5958962792053627 -0.35084755031081244
-0.5781677486280057 -0.04773516444499114
-0.34769685112236376 0.13413226707450165
-0.09949742303936485 0.04319855131475525
-0.134954484194079 -0.1992913573779018
-0.47179656516386326 -0.1992913573779018
-0.684538932092148 -0.1992913573779018
-0.5249821568959344 -0.017423925858409007
-0.1704115453487931 0.22506598283424803
0.07778788273420581 0.13413226707450165
0.060059352156848746 -0.04773516444499114
0.006873760424777549 -0.29022507313764817
-0.06404036188465072 -0.3205363117242303
0.024602291002134614 -0.13866888020473753
0.07778788273420581 -0.04773516444499114
0.16643053562099114 0.012887312728173124
0.14870200504363407 -0.07804640303157327
0.04233082157949168 -0.25991383455106604
-0.010854770152579518 -0.29022507313764817
-0.010854770152579518 -0.1992913573779018
0.07778788273420581 -0.10835764161815539
0.16643053562099114 -0.04773516444499114
0.2905302496624906 -0.07804640303157327
0.37917290254927594 -0.22960259596448393
0.4855440860134183 -0.25991383455106604
0.5564582083228466 -0.3205363117242303
0.645100861209632 -0.22960259596448393
0.7160149835190602 -0.1992913573779018
0.6982864529417031 -0.29022507313764817
0.5387296777454895 -0.3205363117242303
0.4678155554360613 -0.25991383455106604
0.5564582083228466 -0.22960259596448393
0.6805579223643461 -0.29022507313764817
0.8401146975605597 -0.4114700274839767
0.8046576364058455 -0.3205363117242303
0.6982864529417031 -0.35084755031081244
0.5919152694775607 -0.4114700274839767
0.5564582083228466 -0.35084755031081244
0.645100861209632 -0.3205363117242303
0.8046576364058455 -0.29022507313764817
0.6805579223643461 -0.29022507313764817
0.5032726165907754 -0.25991383455106604
0.37917290254927594 -0.29022507313764817
0.43235849428134715 -0.22960259596448393
0.4146299637039901 -0.13866888020473753
0.37917290254927594 -0.16898011879131966
0.2905302496624906 -0.1992913573779018
0.14870200504363407 -0.1992913573779018
0.024602291002134614 -0.25991383455106604
-0.010854770152579518 -0.16898011879131966
-0.08176889246200779 -0.07804640303157327
-0.08176889246200779 -0.017423925858409007
-0.15268301477143606 -0.017423925858409007
-0.25905419823557846 -0.13866888020473753
-0.36542538169972083 -0.10835764161815539
-0.36542538169972083 -0.07804640303157327
-0.3299683205450067 0.07350978990133739
-0.27678272881293553 0.07350978990133739
-0.2945112593902926 -0.04773516444499114
-0.4363395040091491 -0.13866888020473753
-0.5249821568959344 -0.16898011879131966
-0.5781677486280057 -0.16898011879131966
-0.5072536263185774 -0.017423925858409007
-0.41861097343179204 -0.04773516444499114
-0.47179656516386326 0.04319855131475525
-0.5427106874732915 -0.16898011879131966
-0.666810401514791 -0.22960259596448393
-0.6490818709374339 -0.1992913573779018
-0.48952509574122033 0.04319855131475525
-0.36542538169972083 0.07350978990133739
-0.4540680345865062 -0.017423925858409007
-0.6490818709374339 -0.16898011879131966
-0.7909101155562904 0.04319855131475525
-0.8795527684430757 0.22506598283424803
-0.8263671767110046 0.3159996985939944
-0.7377245238242193 0.3159996985939944
-0.6313533403600768 0.10382102848791952
-0.6313533403600768 -0.13866888020473753
-0.6490818709374339 -0.13866888020473753
-0.6313533403600768 -0.13866888020473753
-0.48952509574122033 0.04319855131475525
-0.41861097343179204 0.10382102848791952
-0.36542538169972083 0.012887312728173124
-0.47179656516386326 -0.07804640303157327
-0.6136248097827197 -0.10835764161815539
-0.7377245238242193 0.012887312728173124
-0.7554530544015763 0.10382102848791952
-0.684538932092148 0.2553772214208302
-0.5958962792053627 0.13413226707450165
-0.6490818709374339 0.07350978990133739
-0.666810401514791 0.10382102848791952
-0.6313533403600768 0.2553772214208302
-0.5249821568959344 0.4069334143537408
-0.41861097343179204 0.43724465294032294
-0.3299683205450067 0.3766221757671587
-0.2945112593902926 0.1947547442476659
-0.2413256676582214 0.07350978990133739
-0.20586860650350725 0.10382102848791952
-0.15268301477143606 0.13413226707450165
-0.2413256676582214 -0.07804640303157327
-0.36542538169972083 -0.1992913573779018
-0.47179656516386326 -0.22960259596448393
-0.5781677486280057 -0.29022507313764817
-0.6490818709374339 -0.25991383455106604
-0.5958962792053627 -0.13866888020473753
-0.5604392180506486 -0.10835764161815539
-0.5958962792053627 -0.017423925858409007
-0.7199959932468621 -0.10835764161815539
-0.7377245238242193 -0.10835764161815539
-0.7199959932468621 -0.10835764161815539
-0.6136248097827197 -0.04773516444499114
-0.5249821568959344 0.07350978990133739
-0.48952509574122033 0.04319855131475525
-0.5958962792053627 -0.04773516444499114
-0.7731815849789334 -0.22960259596448393
-0.8618242378657187 -0.1992913573779018
-0.7909101155562904 -0.04773516444499114
-0.6136248097827197 0.012887312728173124
-0.5604392180506486 -0.017423925858409007
-0.684538932092148 -0.10835764161815539
-0.7554530544015763 -0.1992913573779018
-0.7554530544015763 0.07350978990133739
-0.6490818709374339 0.10382102848791952
-0.5072536263185774 0.10382102848791952
-0.5072536263185774 -0.04773516444499114
-0.6490818709374339 -0.16898011879131966
-0.8086386461336474 -0.13866888020473753
-0.8795527684430757 0.10382102848791952
-0.7909101155562904 0.28568846000741227
-0.7377245238242193 0.22506598283424803
-0.7909101155562904 0.012887312728173124
-0.8263671767110046 -0.07804640303157327
-0.8440957072883616 -0.017423925858409007
-0.8086386461336474 0.10382102848791952
-0.7554530544015763 0.16444350566108376
-0.6490818709374339 0.13413226707450165
-0.7199959932468621 0.07350978990133739
-0.7909101155562904 -0.13866888020473753
-0.7909101155562904 -0.16898011879131966
-0.7022674626695051 -0.10835764161815539
-0.666810401514791 -0.16898011879131966
-0.6313533403600768 -0.1992913573779018
-0.6313533403600768 -0.29022507313764817
-0.7377245238242193 -0.29022507313764817
-0.8086386461336474 -0.35084755031081244
-0.7554530544015763 -0.10835764161815539
-0.7554530544015763 -0.13866888020473753
-0.684538932092148 -0.10835764161815539
-0.7909101155562904 0.04319855131475525
-0.8086386461336474 0.04319855131475525
-0.7199959932468621 0.13413226707450165
-0.48952509574122033 0.34631093718057654
-0.028583300729936582 0.3159996985939944
0.645100861209632 0.10382102848791952
1.194685309107701 -0.22960259596448393
1.7088126958510559 -0.6842711747632159
2.1697544908623394 -1.0783172763887836
2.506596571832124 -1.4420521394277692
2.7193389387604086 -1.654230809533844
2.790253061069837 -1.9876544339862474
2.488868041254767 -2.2604555812654867
1.9038265322019836 -2.6241904443044723
1.2833279619944864 -2.7151241600642186
0.4146299637039901 -2.6848129214776364
-0.6490818709374339 -2.321078058438651
-1.6418795832694295 -2.0179656725728297
-2.4219349286731404 -1.8057870024667546
-2.8828767236844244 -1.5936083323606798
-2.918333784839138 -1.3511184236680227
-2.563763173291997 -0.8661386062827087
-2.1028213782807135 -0.4114700274839767
-1.6773366444241438 -0.22960259596448393
-1.3582230940317166 -0.1992913573779018
-1.1632092576807889 -0.25991383455106604
-1.0213810130619323 -0.13866888020473753
-0.9859239519072182 -0.04773516444499114
-0.8795527684430757 0.012887312728173124
-0.7909101155562904 0.012887312728173124
-0.684538932092148 -0.07804640303157327
-0.666810401514791 -0.13866888020473753
-0.6136248097827197 -0.22960259596448393
-0.5604392180506486 -0.10835764161815539
-0.5072536263185774 -0.04773516444499114
-0.47179656516386326 -0.13866888020473753
-0.5604392180506486 -0.29022507313764817
-0.6136248097827197 -0.16898011879131966
-0.5958962792053627 -0.1992913573779018
-0.5072536263185774 0.04319855131475525
-0.3831539122770779 -0.07804640303157327
-0.27678272881293553 -0.1992913573779018
-0.2413256676582214 -0.25991383455106604
-0.3122397899676496 -0.44178126607055884
-0.34769685112236376 -0.3811587888973946
-0.22359713708086432 -0.13866888020473753
0.006873760424777549 -0.017423925858409007
0.09551641331156288 -0.16898011879131966
-0.04631183130729365 -0.1992913573779018
-0.3299683205450067 -0.29022507313764817
-0.41861097343179204 -0.35084755031081244
-0.400882442854435 -0.29022507313764817
-0.27678272881293553 -0.017423925858409007
-0.09949742303936485 0.10382102848791952
0.060059352156848746 0.1947547442476659
0.14870200504363407 -0.017423925858409007
0.2905302496624906 -0.1992913573779018
0.4146299637039901 -0.25991383455106604
0.5210011471681325 -0.29022507313764817
0.6805579223643461 -0.3205363117242303
0.6805579223643461 -0.44178126607055884
0.7337435140964172 -0.5327149818303052
0.8046576364058455 -0.5630262204168873
0.8755717587152738 -0.6842711747632159
0.9642144116020591 -0.6539599361766337
0.7869291058284884 -0.7448936519363801
0.5032726165907754 -0.5327149818303052
0.30825878023984765 -0.5933374590034695
0.4146299637039901 -0.472092504657141
0.6096438000549178 -0.35084755031081244
0.8578432281379167 -0.3205363117242303
1.0528570644888444 -0.22960259596448393
1.0174000033341304 -0.3811587888973946
0.8933002892926308 -0.472092504657141
0.8401146975605597 -0.6236486975900516
0.8223861669832025 -0.5933374590034695
0.911028819869988 -0.502403743243723
0.928757350447345 -0.4114700274839767
0.7869291058284884 -0.3811587888973946
0.6273723306322748 -0.44178126607055884
0.5210011471681325 -0.472092504657141
0.396901433126633 -0.3811587888973946
0.37917290254927594 -0.1992913573779018
0.4146299637039901 -0.017423925858409007
0.4855440860134183 -0.10835764161815539
0.43235849428134715 -0.25991383455106604
0.3259873108172047 -0.35084755031081244
0.23734465793041942 -0.3205363117242303
0.23734465793041942 -0.1992913573779018
