-0.0011784476158020825 -0.42919357349587584
-0.019827494464683976 -0.3296319954714425
-0.07577463501132967 -0.23007041744700918
-0.05712558816244777 -0.13050883942257582
-0.05712558816244777 -0.13050883942257582
-0.03847654131356587 -0.23007041744700918
0.03611964608196171 -0.27985120645922584
0.017470599233079812 -0.42919357349587584
-0.019827494464683976 -0.23007041744700918
-0.019827494464683976 -0.23007041744700918
-0.0011784476158020825 -0.08072805041035916
0.09206678662860739 -0.27985120645922584
0.09206678662860739 -0.23007041744700918
0.16666297402413496 -0.23007041744700918
0.22261011457078064 -0.1802896284347925
0.24125916141966255 0.11839510563850754
0.20396106772189876 0.01883352761407419
0.16666297402413496 0.11839510563850754
0.24125916141966255 -0.08072805041035916
0.2972063019663082 -0.23007041744700918
0.2972063019663082 -0.23007041744700918
0.27855725511742635 0.01883352761407419
0.3158553488151901 0.01883352761407419
0.2972063019663082 0.01883352761407419
0.3158553488151901 -0.27985120645922584
0.3158553488151901 -0.27985120645922584
0.33450439566407203 -0.13050883942257582
0.4091005830595996 0.11839510563850754
0.4650477236062453 0.16817589465072422
0.6328891452461823 0.06861431662629086
0.6328891452461823 -0.03094726139814248
0.5955910515484185 -0.3296319954714425
0.5582929578506548 -0.08072805041035916
0.6142400983973004 -0.03094726139814248
0.7261343794905918 0.01883352761407419
0.8007305668861194 0.16817589465072422
0.8939758011305289 0.01883352761407419
0.9685719885260564 -0.13050883942257582
0.9872210353749383 0.11839510563850754
1.0058700822238202 0.21795668366294088
1.0991153164682297 0.21795668366294088
1.1364134101659935 0.11839510563850754
1.1550624570148753 0.06861431662629086
1.043168175921584 -0.03094726139814248
1.0618172227704659 0.31751826168737424
1.0804662696193479 0.3672990506995909
1.1364134101659935 0.31751826168737424
1.2669567381081668 0.01883352761407419
1.229658644410403 -0.03094726139814248
1.229658644410403 0.01883352761407419
1.2110095975615212 0.16817589465072422
1.2110095975615212 0.31751826168737424
1.2669567381081668 0.2677374726751576
1.2856057849570486 0.06861431662629086
1.1550624570148753 -0.03094726139814248
1.0991153164682297 -0.03094726139814248
1.0618172227704659 0.11839510563850754
1.0618172227704659 0.16817589465072422
1.0804662696193479 0.01883352761407419
0.9685719885260564 -0.03094726139814248
0.8939758011305289 -0.08072805041035916
0.7820815200372375 -0.08072805041035916
0.7261343794905918 0.06861431662629086
0.7261343794905918 0.06861431662629086
0.6888362857928281 -0.03094726139814248
0.5955910515484185 -0.08072805041035916
0.3718024893618358 -0.13050883942257582
0.2972063019663082 -0.08072805041035916
0.27855725511742635 0.01883352761407419
0.3718024893618358 0.01883352761407419
0.4277496299084815 -0.08072805041035916
0.3718024893618358 -0.27985120645922584
0.22261011457078064 -0.23007041744700918
0.18531202087301687 -0.37941278448365917
0.24125916141966255 -0.27985120645922584
0.35315344251295394 -0.08072805041035916
0.3158553488151901 -0.13050883942257582
0.22261011457078064 -0.1802896284347925
0.12936488032637117 -0.1802896284347925
0.16666297402413496 -0.1802896284347925
0.14801392717525308 -0.1802896284347925
0.20396106772189876 -0.03094726139814248
0.20396106772189876 -0.08072805041035916
0.16666297402413496 -0.23007041744700918
0.11071583347748928 -0.27985120645922584
0.11071583347748928 -0.37941278448365917
0.18531202087301687 -0.3296319954714425
0.25990820826854444 -0.13050883942257582
0.2972063019663082 0.01883352761407419
0.24125916141966255 0.01883352761407419
0.2972063019663082 0.06861431662629086
0.33450439566407203 -0.03094726139814248
0.35315344251295394 0.16817589465072422
0.35315344251295394 0.21795668366294088
0.3158553488151901 0.2677374726751576
0.25990820826854444 0.06861431662629086
0.33450439566407203 -0.08072805041035916
0.35315344251295394 -0.1802896284347925
0.3158553488151901 -0.03094726139814248
0.33450439566407203 0.11839510563850754
0.3904515362107177 0.16817589465072422
0.4277496299084815 0.01883352761407419
0.3904515362107177 -0.27985120645922584
0.35315344251295394 -0.23007041744700918
0.33450439566407203 -0.23007041744700918
0.4463986767573634 0.01883352761407419
0.5955910515484185 0.16817589465072422
0.6328891452461823 0.01883352761407419
0.6515381920950643 0.01883352761407419
0.6328891452461823 0.01883352761407419
0.6142400983973004 0.16817589465072422
0.6142400983973004 0.2677374726751576
0.6515381920950643 0.41707983971180757
0.6888362857928281 0.31751826168737424
0.6515381920950643 0.2677374726751576
0.6142400983973004 0.06861431662629086
0.5769420046995366 -0.03094726139814248
0.5769420046995366 -0.13050883942257582
0.6142400983973004 -0.1802896284347925
0.5769420046995366 -0.3296319954714425
0.6142400983973004 -0.5287551515203092
0.5396439110017729 -0.5287551515203092
0.520994864152891 -0.3296319954714425
0.520994864152891 -0.27985120645922584
0.520994864152891 -0.42919357349587584
0.5582929578506548 -0.5785359405325259
0.520994864152891 -0.7776590965813925
0.48369677045512716 -0.8772206746058259
0.4650477236062453 -0.8772206746058259
0.4650477236062453 -0.8274398855936093
0.520994864152891 -0.7776590965813925
0.5582929578506548 -0.9270014636180426
0.5023458173040091 -1.0763438306546926
0.4650477236062453 -0.9767822526302593
0.4463986767573634 -0.7776590965813925
0.4277496299084815 -0.5287551515203092
0.3904515362107177 -0.42919357349587584
0.33450439566407203 -0.47897436250809255
0.2972063019663082 -0.6283167295447426
0.16666297402413496 -0.5785359405325259
-0.05712558816244777 -0.37941278448365917
-0.09442368186021155 -0.1802896284347925
-0.03847654131356587 -0.27985120645922584
0.017470599233079812 -0.3296319954714425
-0.019827494464683976 -0.47897436250809255
-0.019827494464683976 -0.37941278448365917
-0.019827494464683976 -0.23007041744700918
-0.0011784476158020825 -0.08072805041035916
0.11071583347748928 -0.1802896284347925
0.03611964608196171 -0.3296319954714425
-0.03847654131356587 -0.47897436250809255
-0.09442368186021155 -0.42919357349587584
-0.07577463501132967 -0.27985120645922584
-0.0011784476158020825 -0.27985120645922584
0.017470599233079812 -0.47897436250809255
-0.07577463501132967 -0.47897436250809255
-0.2436160566512667 -0.6283167295447426
-0.41145747829120377 -0.5785359405325259
-0.44875557198896754 -0.42919357349587584
-0.5233517593844952 -0.13050883942257582
-0.5792988999311408 0.11839510563850754
-0.6352460404777865 0.31751826168737424
-0.542000806233377 0.516641417736241
-0.05712558816244777 0.7157645737851076
0.6701872389439462 0.8153261518095409
1.583990534539159 0.8651069408217577
2.628337158076545 0.8651069408217577
3.709981875311695 0.9148877298339743
4.623785170906908 0.8153261518095409
5.03406420158231 0.6162029957606743
4.717030405151317 -0.08072805041035916
3.7659290158583407 -0.9767822526302593
2.292654314796671 -1.9723980328745927
0.3718024893618358 -2.2710827669478926
-1.5117512423752355 -2.2710827669478926
-2.5933959596103855 -2.2710827669478926
-2.7612373812503224 -2.221301977935676
-2.518799772214858 -2.221301977935676
-2.2390640694816293 -2.221301977935676
-1.9033812262017553 -2.320863555960109
-1.5117512423752355 -2.3706443449723262
-1.0455250711531883 -2.2710827669478926
-0.8030874621177235 -1.9723980328745927
-0.5979479467800227 -1.5243709317646426
-0.5233517593844952 -1.2256861976913427
-0.5047027125356133 -1.0763438306546926
-0.46740461883784945 -0.9767822526302593
-0.37415938459344 -0.6780975185569592
-0.31821224404679427 -0.6780975185569592
-0.22496700980238482 -0.6283167295447426
-0.22496700980238482 -0.5785359405325259
-0.2995631971979124 -0.6780975185569592
-0.2809141503490305 -0.7278783075691759
-0.31821224404679427 -0.6283167295447426
-0.2809141503490305 -0.5287551515203092
-0.20631796295350294 -0.37941278448365917
-0.2436160566512667 -0.27985120645922584
-0.3555103377445581 -0.23007041744700918
-0.2995631971979124 -0.5287551515203092
-0.31821224404679427 -0.5287551515203092
-0.2809141503490305 -0.37941278448365917
-0.2436160566512667 -0.1802896284347925
-0.2622651035001486 -0.13050883942257582
-0.2436160566512667 -0.3296319954714425
-0.2436160566512667 -0.47897436250809255
-0.2622651035001486 -0.47897436250809255
-0.20631796295350294 -0.5287551515203092
-0.18766891610462103 -0.27985120645922584
-0.18766891610462103 -0.27985120645922584
-0.16901986925573914 -0.3296319954714425
-0.20631796295350294 -0.42919357349587584
-0.22496700980238482 -0.5785359405325259
-0.22496700980238482 -0.37941278448365917
-0.18766891610462103 -0.23007041744700918
-0.13172177555797535 -0.3296319954714425
-0.09442368186021155 -0.27985120645922584
-0.09442368186021155 -0.5287551515203092
-0.07577463501132967 -0.5785359405325259
-0.03847654131356587 -0.27985120645922584
0.09206678662860739 -0.03094726139814248
0.22261011457078064 0.11839510563850754
0.3158553488151901 -0.03094726139814248
0.2972063019663082 -0.1802896284347925
0.33450439566407203 -0.1802896284347925
0.3158553488151901 -0.08072805041035916
0.4650477236062453 0.16817589465072422
0.5955910515484185 0.11839510563850754
0.5955910515484185 0.01883352761407419
0.5955910515484185 -0.1802896284347925
0.5582929578506548 -0.27985120645922584
0.5396439110017729 -0.23007041744700918
0.6142400983973004 0.06861431662629086
0.7074853326417099 0.06861431662629086
0.8193796137350012 -0.03094726139814248
0.8007305668861194 -0.1802896284347925
0.7820815200372375 -0.08072805041035916
0.7634324731883556 -0.03094726139814248
0.8566777074327651 0.16817589465072422
0.9499229416771745 0.16817589465072422
0.9685719885260564 -0.03094726139814248
0.9312738948282927 -0.13050883942257582
0.8380286605838831 -0.03094726139814248
0.7820815200372375 0.06861431662629086
0.8566777074327651 0.31751826168737424
0.875326754281647 0.3672990506995909
0.8566777074327651 0.21795668366294088
0.8193796137350012 0.21795668366294088
0.7447834263394737 0.21795668366294088
0.6701872389439462 0.2677374726751576
0.6515381920950643 0.516641417736241
0.6515381920950643 0.46686062872402423
0.6515381920950643 0.11839510563850754
0.5582929578506548 0.11839510563850754
0.48369677045512716 0.06861431662629086
0.4091005830595996 0.16817589465072422
0.3904515362107177 0.31751826168737424
0.4277496299084815 0.21795668366294088
0.3718024893618358 0.11839510563850754
0.27855725511742635 -0.03094726139814248
0.12936488032637117 -0.08072805041035916
0.03611964608196171 0.06861431662629086
0.0734177397797255 0.21795668366294088
0.0734177397797255 0.11839510563850754
0.03611964608196171 -0.13050883942257582
-0.0011784476158020825 -0.03094726139814248
-0.09442368186021155 -0.13050883942257582
-0.15037082240685723 0.06861431662629086
-0.05712558816244777 0.16817589465072422
-0.05712558816244777 0.11839510563850754
-0.09442368186021155 -0.03094726139814248
-0.20631796295350294 -0.03094726139814248
-0.2809141503490305 -0.03094726139814248
-0.2622651035001486 0.16817589465072422
-0.11307272870909345 0.3672990506995909
-0.07577463501132967 0.31751826168737424
-0.05712558816244777 0.2677374726751576
-0.20631796295350294 0.06861431662629086
-0.3368612908956762 0.01883352761407419
-0.3555103377445581 0.16817589465072422
-0.2436160566512667 0.2677374726751576
-0.11307272870909345 0.31751826168737424
-0.09442368186021155 0.06861431662629086
-0.18766891610462103 -0.03094726139814248
-0.2622651035001486 -0.08072805041035916
-0.2622651035001486 0.11839510563850754
-0.15037082240685723 0.16817589465072422
-0.03847654131356587 0.21795668366294088
-0.07577463501132967 0.01883352761407419
-0.15037082240685723 -0.03094726139814248
-0.15037082240685723 0.06861431662629086
-0.0011784476158020825 0.21795668366294088
0.017470599233079812 0.41707983971180757
0.0734177397797255 0.2677374726751576
0.017470599233079812 0.21795668366294088
-0.019827494464683976 0.21795668366294088
-0.03847654131356587 0.16817589465072422
-0.0011784476158020825 0.516641417736241
0.017470599233079812 0.5664222067484576
0.09206678662860739 0.46686062872402423
0.14801392717525308 0.46686062872402423
0.11071583347748928 0.3672990506995909
0.12936488032637117 0.41707983971180757
0.18531202087301687 0.6659837847728909
0.3158553488151901 0.8651069408217577
0.3718024893618358 0.9148877298339743
0.3158553488151901 0.8651069408217577
0.27855725511742635 0.9148877298339743
0.25990820826854444 0.9148877298339743
0.2972063019663082 1.0144493078584076
0.4277496299084815 1.2135724639072742
0.5023458173040091 0.964668518846191
0.48369677045512716 0.6659837847728909
0.4650477236062453 0.3672990506995909
0.4091005830595996 0.3672990506995909
0.3718024893618358 0.2677374726751576
0.3904515362107177 0.31751826168737424
0.4277496299084815 0.41707983971180757
0.35315344251295394 0.3672990506995909
0.3158553488151901 0.2677374726751576
0.3158553488151901 0.3672990506995909
0.3158553488151901 0.46686062872402423
0.35315344251295394 0.3672990506995909
0.4091005830595996 0.2677374726751576
0.3718024893618358 0.21795668366294088
0.2972063019663082 0.06861431662629086
0.2972063019663082 0.06861431662629086
0.3158553488151901 0.21795668366294088
0.3158553488151901 0.31751826168737424
0.3158553488151901 0.2677374726751576
0.2972063019663082 0.31751826168737424
0.27855725511742635 0.31751826168737424
0.25990820826854444 0.516641417736241
0.24125916141966255 0.6659837847728909
0.20396106772189876 0.7157645737851076
0.18531202087301687 0.8153261518095409
0.03611964608196171 0.7157645737851076
-0.13172177555797535 0.6162029957606743
-0.03847654131356587 0.516641417736241
-0.019827494464683976 0.5664222067484576
0.03611964608196171 0.6162029957606743
0.0734177397797255 0.6162029957606743
0.017470599233079812 0.6162029957606743
0.017470599233079812 0.46686062872402423
0.09206678662860739 0.516641417736241
0.12936488032637117 0.6659837847728909
0.18531202087301687 0.6162029957606743
0.18531202087301687 0.6659837847728909
0.16666297402413496 0.7157645737851076
0.14801392717525308 0.7157645737851076
0.09206678662860739 0.6162029957606743
0.11071583347748928 0.6659837847728909
0.0734177397797255 0.8153261518095409
0.03611964608196171 0.8153261518095409
-0.0011784476158020825 0.7157645737851076
-0.13172177555797535 0.6659837847728909
-0.2622651035001486 0.9148877298339743
-0.2995631971979124 1.3131340419317077
-0.09442368186021155 1.860722721066091
0.22261011457078064 2.1096266661271743
0.6701872389439462 2.159407455139391
1.3602019723525762 1.9602842990905245
2.143461940005616 1.711380354029441
3.1318614229963564 1.711380354029441
4.213506140231506 1.8109419320538744
5.052713248431191 1.6615995650172244
5.63083370074653 1.1637916748950576
5.388396091711066 0.46686062872402423
4.530539936662499 -0.7278783075691759
3.16915951669412 -1.5741517207768594
1.5280433939925133 -1.8230556658379427
-0.20631796295350294 -1.7234940878135094
-1.791486945108464 -1.5741517207768594
-2.3882564442726846 -1.623932509789076
-2.2390640694816293 -1.773274876825726
-1.772837898259582 -1.7234940878135094
-1.3812079144330622 -1.474590142752426
-1.0455250711531883 -1.474590142752426
-0.6911931810244322 -1.3750285647279927
-0.44875557198896754 -1.2754669867035593
-0.2809141503490305 -1.1261246196669092
-0.11307272870909345 -0.7776590965813925
-0.0011784476158020825 -0.3296319954714425
0.09206678662860739 -0.03094726139814248
0.09206678662860739 0.01883352761407419
0.054768692930843604 -0.08072805041035916
0.03611964608196171 -0.08072805041035916
0.09206678662860739 0.06861431662629086
0.18531202087301687 0.3672990506995909
0.22261011457078064 0.21795668366294088
0.22261011457078064 0.11839510563850754
0.14801392717525308 -0.03094726139814248
0.054768692930843604 -0.03094726139814248
0.03611964608196171 0.06861431662629086
0.03611964608196171 0.11839510563850754
0.12936488032637117 0.16817589465072422
0.18531202087301687 -0.03094726139814248
0.14801392717525308 -0.13050883942257582
0.09206678662860739 -0.08072805041035916
0.0734177397797255 0.16817589465072422
0.0734177397797255 0.31751826168737424
0.18531202087301687 0.21795668366294088
0.14801392717525308 0.06861431662629086
0.017470599233079812 0.01883352761407419
0.03611964608196171 0.06861431662629086
0.0734177397797255 0.11839510563850754
0.12936488032637117 0.21795668366294088
0.24125916141966255 0.31751826168737424
0.24125916141966255 0.2677374726751576
0.2972063019663082 0.11839510563850754
0.27855725511742635 0.21795668366294088
0.3158553488151901 0.2677374726751576
0.4650477236062453 0.31751826168737424
0.48369677045512716 0.16817589465072422
0.48369677045512716 0.16817589465072422
0.4277496299084815 0.06861431662629086
0.3904515362107177 0.11839510563850754
0.5396439110017729 0.31751826168737424
0.6328891452461823 0.2677374726751576
0.7074853326417099 0.31751826168737424
0.7074853326417099 0.2677374726751576
0.6701872389439462 0.21795668366294088
0.7447834263394737 0.21795668366294088
0.8193796137350012 0.41707983971180757
0.9499229416771745 0.3672990506995909
1.043168175921584 0.21795668366294088
1.0618172227704659 0.31751826168737424
1.043168175921584 0.31751826168737424
1.0058700822238202 0.41707983971180757
1.1550624570148753 0.46686062872402423
1.2669567381081668 0.6162029957606743
1.3602019723525762 0.6162029957606743
1.3229038786548124 0.6162029957606743
1.2669567381081668 0.6162029957606743
1.2483076912592848 0.41707983971180757
1.3042548318059306 0.6162029957606743
1.3602019723525762 0.7157645737851076
1.378851019201458 0.7157645737851076
1.39750006605034 0.7655453627973243
1.3415529255036944 0.46686062872402423
1.3042548318059306 0.5664222067484576
1.3042548318059306 0.46686062872402423
1.3229038786548124 0.41707983971180757
1.3415529255036944 0.46686062872402423
1.2669567381081668 0.46686062872402423
1.2110095975615212 0.41707983971180757
1.1923605507126391 0.516641417736241
1.229658644410403 0.5664222067484576
1.1737115038637573 0.5664222067484576
1.0804662696193479 0.516641417736241
1.043168175921584 0.41707983971180757
0.9499229416771745 0.21795668366294088
0.875326754281647 0.3672990506995909
0.8007305668861194 0.31751826168737424
0.6888362857928281 0.46686062872402423
0.6515381920950643 0.46686062872402423
0.6328891452461823 0.21795668366294088
0.6888362857928281 0.11839510563850754
0.6142400983973004 0.06861431662629086
0.5582929578506548 0.16817589465072422
0.4091005830595996 0.41707983971180757
0.27855725511742635 0.516641417736241
0.27855725511742635 0.3672990506995909
0.3718024893618358 0.2677374726751576
0.4463986767573634 0.16817589465072422
0.3904515362107177 0.16817589465072422
0.27855725511742635 0.16817589465072422
0.11071583347748928 0.31751826168737424
0.09206678662860739 0.41707983971180757
-0.019827494464683976 0.21795668366294088
-0.05712558816244777 0.16817589465072422
-0.09442368186021155 0.21795668366294088
-0.0011784476158020825 0.3672990506995909
0.054768692930843604 0.3672990506995909
0.054768692930843604 0.11839510563850754
-0.05712558816244777 -0.1802896284347925
-0.05712558816244777 -0.13050883942257582
-0.03847654131356587 -0.08072805041035916
0.03611964608196171 0.01883352761407419
0.03611964608196171 -0.13050883942257582
0.11071583347748928 -0.23007041744700918
0.14801392717525308 -0.27985120645922584
0.3158553488151901 -0.27985120645922584
0.4463986767573634 -0.1802896284347925
0.520994864152891 -0.03094726139814248
0.5582929578506548 0.01883352761407419
0.520994864152891 -0.27985120645922584
0.5955910515484185 -0.27985120645922584
0.5769420046995366 -0.23007041744700918
0.3718024893618358 0.11839510563850754
0.11071583347748928 0.31751826168737424
-0.09442368186021155 0.16817589465072422
0.017470599233079812 0.01883352761407419
0.12936488032637117 -0.08072805041035916
0.22261011457078064 -0.13050883942257582
0.14801392717525308 0.11839510563850754
0.14801392717525308 0.16817589465072422
0.2972063019663082 0.11839510563850754
0.24125916141966255 0.06861431662629086
0.09206678662860739 0.06861431662629086
0.0734177397797255 0.16817589465072422
0.18531202087301687 0.31751826168737424
0.3718024893618358 0.5664222067484576
0.5023458173040091 0.516641417736241
0.4650477236062453 0.516641417736241
0.3904515362107177 0.31751826168737424
0.3904515362107177 0.31751826168737424
0.3904515362107177 0.5664222067484576
0.4463986767573634 0.7655453627973243
0.4650477236062453 0.8153261518095409
0.520994864152891 0.7655453627973243
0.5023458173040091 0.46686062872402423
0.5023458173040091 0.11839510563850754
0.5023458173040091 0.01883352761407419
0.5023458173040091 -0.23007041744700918
0.48369677045512716 -0.27985120645922584
0.48369677045512716 -0.47897436250809255
0.48369677045512716 -0.6283167295447426
0.48369677045512716 -0.5785359405325259
0.5396439110017729 -0.42919357349587584
0.6142400983973004 -0.23007041744700918
0.6328891452461823 -0.1802896284347925
0.4277496299084815 -0.13050883942257582
0.2972063019663082 -0.47897436250809255
0.16666297402413496 -0.6780975185569592
0.22261011457078064 -0.8772206746058259
0.33450439566407203 -1.026563041642476
0.3158553488151901 -1.1759054086791259
0.27855725511742635 -1.1759054086791259
0.16666297402413496 -1.474590142752426
0.16666297402413496 -1.3750285647279927
0.09206678662860739 -1.026563041642476
0.0734177397797255 -0.7278783075691759
0.0734177397797255 -0.7776590965813925
0.11071583347748928 -0.8274398855936093
0.0734177397797255 -1.026563041642476
-0.019827494464683976 -0.9767822526302593
-0.0011784476158020825 -0.7776590965813925
0.017470599233079812 -0.5287551515203092
0.03611964608196171 -0.6283167295447426
0.054768692930843604 -0.7278783075691759
-0.05712558816244777 -0.9270014636180426
-0.15037082240685723 -0.8772206746058259
-0.22496700980238482 -0.7278783075691759
-0.2436160566512667 -0.6283167295447426
-0.11307272870909345 -0.7776590965813925
-0.13172177555797535 -0.9270014636180426
-0.11307272870909345 -1.1261246196669092
-0.13172177555797535 -1.0763438306546926
-0.03847654131356587 -0.7278783075691759
0.017470599233079812 -0.5287551515203092
0.03611964608196171 -0.37941278448365917
-0.03847654131356587 -0.3296319954714425
-0.15037082240685723 -0.5785359405325259
-0.22496700980238482 -0.6780975185569592
-0.22496700980238482 -0.6283167295447426
-0.20631796295350294 -0.37941278448365917
-0.18766891610462103 -0.08072805041035916
-0.2436160566512667 0.06861431662629086
-0.15037082240685723 0.31751826168737424
0.09206678662860739 0.516641417736241
0.3904515362107177 0.46686062872402423
0.9685719885260564 0.5664222067484576
1.733182909330214 0.41707983971180757
2.684284298623191 0.41707983971180757
3.504842359973994 0.3672990506995909
4.213506140231506 0.3672990506995909
4.64243421775579 0.16817589465072422
4.455943749266971 -0.27985120645922584
3.7286309221605767 -1.2754669867035593
2.4231976427388444 -2.5697675010211927
0.7634324731883556 -3.2169177581800095
-1.0268760243043062 -3.017794602131143
-2.4069054911215666 -2.8684522350944928
-2.817184521796968 -2.669329079045626
-2.667992147005913 -2.669329079045626
-2.350958350574921 -2.818671446082276
-2.14581883523722 -2.9182330241067094
-1.8287850388062277 -2.7688906570700595
-1.437155054979708 -2.4702059229967595
-1.06417411800207 -1.922617243862376
-0.9522798369087787 -1.3750285647279927
-0.8590346026643693 -0.8772206746058259
-0.8403855558154874 -0.7278783075691759
-0.8403855558154874 -0.9767822526302593
-0.6911931810244322 -0.9270014636180426
-0.542000806233377 -0.7278783075691759
-0.4301065251400857 -0.6283167295447426
-0.5047027125356133 -1.1759054086791259
-0.5606498530822589 -1.5741517207768594
-0.5606498530822589 -1.623932509789076
-0.44875557198896754 -1.474590142752426
-0.37415938459344 -1.2754669867035593
-0.2436160566512667 -1.3750285647279927
-0.11307272870909345 -1.5243709317646426
-0.15037082240685723 -1.5243709317646426
-0.44875557198896754 -1.474590142752426
-0.5979479467800227 -1.0763438306546926
-0.5047027125356133 -0.7278783075691759
-0.3555103377445581 -0.8274398855936093
-0.2809141503490305 -1.0763438306546926
-0.2809141503490305 -1.325247775715776
-0.3368612908956762 -1.0763438306546926
-0.3555103377445581 -0.8772206746058259
-0.22496700980238482 -0.5785359405325259
-0.07577463501132967 -0.5785359405325259
-0.03847654131356587 -0.6283167295447426
-0.11307272870909345 -0.6283167295447426
-0.11307272870909345 -0.3296319954714425
-0.09442368186021155 -0.03094726139814248
0.054768692930843604 -0.08072805041035916
0.12936488032637117 -0.23007041744700918
0.14801392717525308 -0.3296319954714425
0.18531202087301687 -0.42919357349587584
0.24125916141966255 -0.42919357349587584
0.33450439566407203 -0.23007041744700918
0.4463986767573634 -0.42919357349587584
0.5396439110017729 -0.37941278448365917
0.5955910515484185 -0.47897436250809255
0.6328891452461823 -0.7278783075691759
0.6328891452461823 -0.6283167295447426
0.6888362857928281 -0.5785359405325259
0.7074853326417099 -0.5287551515203092
0.8566777074327651 -0.3296319954714425
0.875326754281647 -0.27985120645922584
0.8380286605838831 -0.3296319954714425
0.7074853326417099 -0.37941278448365917
0.7820815200372375 0.01883352761407419
0.8380286605838831 0.516641417736241
0.9312738948282927 0.7157645737851076
0.9685719885260564 0.6162029957606743
1.024519129072702 0.16817589465072422
0.9126248479794108 0.06861431662629086
0.8380286605838831 0.11839510563850754
0.8007305668861194 0.3672990506995909
0.8566777074327651 0.31751826168737424
0.8566777074327651 -0.3296319954714425
0.875326754281647 -0.47897436250809255
0.8939758011305289 -0.47897436250809255
0.8380286605838831 -0.27985120645922584
0.6888362857928281 -0.3296319954714425
0.5769420046995366 -0.5785359405325259
0.4277496299084815 -0.8772206746058259
0.3158553488151901 -0.9767822526302593
0.33450439566407203 -0.9767822526302593
0.27855725511742635 -0.9270014636180426
0.2972063019663082 -0.7776590965813925
0.25990820826854444 -0.6283167295447426
0.14801392717525308 -0.6283167295447426
0.0734177397797255 -0.5785359405325259
-0.05712558816244777 -0.7278783075691759
-0.11307272870909345 -0.5287551515203092
-0.13172177555797535 -0.47897436250809255
-0.13172177555797535 -0.3296319954714425
-0.18766891610462103 -0.42919357349587584
-0.2622651035001486 -0.5785359405325259
-0.2436160566512667 -0.7776590965813925
-0.2622651035001486 -0.7278783075691759
-0.22496700980238482 -0.42919357349587584
-0.22496700980238482 -0.3296319954714425
-0.2436160566512667 -0.37941278448365917
-0.2995631971979124 -0.42919357349587584
-0.41145747829120377 -0.47897436250809255
-0.4301065251400857 -0.5785359405325259
-0.46740461883784945 -0.37941278448365917
-0.46740461883784945 -0.27985120645922584
-0.5233517593844952 -0.27985120645922584
-0.5233517593844952 -0.23007041744700918
-0.5047027125356133 -0.42919357349587584
-0.44875557198896754 -0.27985120645922584
-0.44875557198896754 -0.1802896284347925
-0.46740461883784945 -0.23007041744700918
-0.542000806233377 -0.23007041744700918
-0.5606498530822589 -0.37941278448365917
-0.5606498530822589 -0.3296319954714425
-0.5979479467800227 -0.23007041744700918
-0.5979479467800227 0.16817589465072422
-0.6538950873266683 0.8153261518095409
-0.542000806233377 1.7611611430416576
-0.5047027125356133 2.1096266661271743
-0.37415938459344 1.6615995650172244
-0.2995631971979124 0.7157645737851076
-0.22496700980238482 -0.03094726139814248
-0.20631796295350294 -0.47897436250809255
-0.2436160566512667 -0.7776590965813925
-0.2436160566512667 -1.1261246196669092
-0.37415938459344 -1.4248093537402093
-0.5233517593844952 -1.2256861976913427
-0.39280843144232186 -0.8772206746058259
-0.2809141503490305 -0.6780975185569592
-0.2436160566512667 -0.7278783075691759
-0.37415938459344 -0.8772206746058259
-0.5233517593844952 -0.6780975185569592
-0.6165969936289046 -0.5287551515203092
-0.542000806233377 -0.27985120645922584
-0.41145747829120377 0.01883352761407419
-0.3555103377445581 0.01883352761407419
-0.41145747829120377 -0.03094726139814248
-0.31821224404679427 -0.1802896284347925
-0.18766891610462103 -0.08072805041035916
-0.03847654131356587 0.21795668366294088
-0.019827494464683976 0.516641417736241
0.054768692930843604 0.516641417736241
0.017470599233079812 0.31751826168737424
0.0734177397797255 0.21795668366294088
0.11071583347748928 0.06861431662629086
0.18531202087301687 0.11839510563850754
0.25990820826854444 0.01883352761407419
0.14801392717525308 0.06861431662629086
-0.05712558816244777 -0.23007041744700918
-0.11307272870909345 -0.1802896284347925
0.017470599233079812 -0.13050883942257582
0.0734177397797255 -0.03094726139814248
0.017470599233079812 -0.27985120645922584
-0.13172177555797535 -0.47897436250809255
-0.2809141503490305 -0.5785359405325259
-0.2995631971979124 -0.47897436250809255
-0.2622651035001486 -0.1802896284347925
-0.16901986925573914 -0.08072805041035916
-0.11307272870909345 -0.13050883942257582
-0.15037082240685723 -0.47897436250809255
-0.18766891610462103 -0.7776590965813925
-0.2995631971979124 -0.7776590965813925
-0.3555103377445581 -0.6283167295447426
-0.2622651035001486 -0.37941278448365917
-0.15037082240685723 -0.37941278448365917
-0.03847654131356587 -0.5785359405325259
-0.11307272870909345 -0.3296319954714425
-0.2995631971979124 -0.23007041744700918
-0.37415938459344 0.01883352761407419
-0.3555103377445581 0.06861431662629086
-0.3368612908956762 0.06861431662629086
-0.37415938459344 -0.1802896284347925
-0.5047027125356133 -0.27985120645922584
-0.5233517593844952 -0.1802896284347925
-0.48605366568673136 0.11839510563850754
-0.4301065251400857 0.01883352761407419
-0.2622651035001486 0.01883352761407419
-0.22496700980238482 0.06861431662629086
-0.22496700980238482 -0.1802896284347925
-0.20631796295350294 -0.13050883942257582
-0.16901986925573914 -0.08072805041035916
-0.3555103377445581 0.01883352761407419
-0.48605366568673136 0.31751826168737424
-0.4301065251400857 0.31751826168737424
-0.41145747829120377 0.16817589465072422
-0.3555103377445581 0.31751826168737424
-0.3368612908956762 0.2677374726751576
-0.2436160566512667 0.41707983971180757
-0.20631796295350294 0.41707983971180757
-0.2436160566512667 0.2677374726751576
-0.37415938459344 0.41707983971180757
-0.48605366568673136 0.6162029957606743
-0.46740461883784945 1.114010885882841
-0.22496700980238482 1.412695619956141
0.24125916141966255 1.6118187760050078
0.9312738948282927 1.562037986992791
1.6585867219346866 1.7611611430416576
2.460495736436608 1.7611611430416576
3.2810537977874112 1.8109419320538744
4.232155187080388 1.6118187760050078
4.8289246862446085 1.0642300968706242
4.735679452000199 0.6162029957606743
3.915121390649396 -0.08072805041035916
2.6096881112276633 -1.026563041642476
0.9685719885260564 -1.623932509789076
-0.8217365089666054 -1.8728364548501593
-2.2390640694816293 -1.8728364548501593
-2.7612373812503224 -1.7234940878135094
-2.6866411938547947 -1.5741517207768594
-2.313660256877157 -1.5243709317646426
-1.8474340856551097 -1.3750285647279927
-1.4558041018285899 -1.2256861976913427
-1.0455250711531883 -1.2754669867035593
-0.896332696362133 -1.1759054086791259
-0.7844384152688416 -1.0763438306546926
-0.6725441341755503 -0.7776590965813925
-0.5606498530822589 -0.6780975185569592
-0.48605366568673136 -0.37941278448365917
-0.4301065251400857 -0.1802896284347925
-0.3555103377445581 -0.13050883942257582
-0.31821224404679427 -0.23007041744700918
-0.37415938459344 -0.27985120645922584
-0.37415938459344 -0.3296319954714425
-0.41145747829120377 -0.37941278448365917
-0.3368612908956762 -0.23007041744700918
-0.3555103377445581 -0.23007041744700918
-0.37415938459344 -0.37941278448365917
-0.37415938459344 -0.5287551515203092
-0.31821224404679427 -0.42919357349587584
-0.2809141503490305 -0.27985120645922584
-0.18766891610462103 -0.37941278448365917
-0.2436160566512667 -0.27985120645922584
-0.2436160566512667 -0.47897436250809255
-0.2436160566512667 -0.42919357349587584
-0.11307272870909345 -0.37941278448365917
-0.09442368186021155 -0.23007041744700918
-0.11307272870909345 -0.1802896284347925
-0.11307272870909345 -0.08072805041035916
-0.11307272870909345 -0.27985120645922584
-0.09442368186021155 -0.3296319954714425
-0.05712558816244777 -0.23007041744700918
0.054768692930843604 -0.1802896284347925
0.0734177397797255 -0.23007041744700918
0.0734177397797255 -0.1802896284347925
0.017470599233079812 -0.37941278448365917
0.054768692930843604 -0.42919357349587584
0.12936488032637117 -0.5287551515203092
0.18531202087301687 -0.37941278448365917
0.20396106772189876 -0.27985120645922584
0.14801392717525308 -0.47897436250809255
0.0734177397797255 -0.5785359405325259
0.017470599233079812 -0.6780975185569592
0.11071583347748928 -0.47897436250809255
0.2972063019663082 -0.27985120645922584
0.4463986767573634 -0.3296319954714425
0.4277496299084815 -0.3296319954714425
0.3904515362107177 -0.37941278448365917
0.5396439110017729 -0.37941278448365917
0.6328891452461823 -0.23007041744700918
0.7074853326417099 -0.08072805041035916
0.7261343794905918 -0.03094726139814248
0.7074853326417099 -0.03094726139814248
0.6328891452461823 -0.23007041744700918
0.6328891452461823 -0.42919357349587584
0.7447834263394737 -0.47897436250809255
0.8566777074327651 -0.3296319954714425
0.875326754281647 -0.13050883942257582
0.8193796137350012 -0.23007041744700918
0.7634324731883556 -0.3296319954714425
0.8007305668861194 -0.5287551515203092
0.8380286605838831 -0.47897436250809255
0.8566777074327651 -0.3296319954714425
0.9872210353749383 -0.27985120645922584
0.9685719885260564 -0.37941278448365917
0.9685719885260564 -0.5785359405325259
0.9685719885260564 -0.6780975185569592
1.043168175921584 -0.5785359405325259
1.1737115038637573 -0.5785359405325259
1.1177643633171117 -0.47897436250809255
1.1177643633171117 -0.5785359405325259
1.1550624570148753 -0.5785359405325259
1.1923605507126391 -0.3296319954714425
1.1737115038637573 -0.27985120645922584
1.0991153164682297 -0.37941278448365917
0.9685719885260564 -0.3296319954714425
0.6888362857928281 -0.47897436250809255
0.4650477236062453 -0.47897436250809255
0.3718024893618358 -0.42919357349587584
0.5955910515484185 -0.23007041744700918
0.7634324731883556 -0.13050883942257582
0.6328891452461823 -0.23007041744700918
0.25990820826854444 -0.23007041744700918
0.03611964608196171 -0.13050883942257582
0.11071583347748928 0.06861431662629086
0.12936488032637117 0.01883352761407419
0.27855725511742635 0.2677374726751576
0.3158553488151901 0.21795668366294088
0.2972063019663082 0.06861431662629086
0.27855725511742635 -0.03094726139814248
0.22261011457078064 -0.08072805041035916
0.25990820826854444 -0.08072805041035916
0.2972063019663082 -0.03094726139814248
0.27855725511742635 -0.08072805041035916
0.20396106772189876 -0.13050883942257582
0.14801392717525308 -0.1802896284347925
0.16666297402413496 -0.27985120645922584
0.20396106772189876 -0.23007041744700918
0.20396106772189876 -0.13050883942257582
0.12936488032637117 -0.27985120645922584
0.0734177397797255 -0.23007041744700918
0.017470599233079812 -0.23007041744700918
0.017470599233079812 -0.23007041744700918
0.054768692930843604 -0.1802896284347925
0.09206678662860739 0.06861431662629086
0.0734177397797255 -0.08072805041035916
0.03611964608196171 -0.13050883942257582
0.017470599233079812 -0.23007041744700918
0.017470599233079812 -0.23007041744700918
0.017470599233079812 -0.13050883942257582
0.11071583347748928 -0.13050883942257582
0.12936488032637117 -0.13050883942257582
0.03611964608196171 -0.08072805041035916
0.0734177397797255 -0.13050883942257582
0.14801392717525308 -0.13050883942257582
0.14801392717525308 -0.13050883942257582
0.11071583347748928 -0.08072805041035916
0.03611964608196171 -0.08072805041035916
-0.0011784476158020825 -0.1802896284347925
0.11071583347748928 -0.1802896284347925
0.16666297402413496 -0.23007041744700918
0.16666297402413496 -0.08072805041035916
0.18531202087301687 -0.03094726139814248
0.22261011457078064 -0.03094726139814248
0.20396106772189876 -0.13050883942257582
0.20396106772189876 -0.13050883942257582
0.27855725511742635 -0.1802896284347925
0.35315344251295394 -0.3296319954714425
0.4650477236062453 -0.23007041744700918
0.520994864152891 -0.1802896284347925
0.5582929578506548 -0.1802896284347925
0.5769420046995366 -0.13050883942257582
0.5769420046995366 -0.13050883942257582
0.6328891452461823 -0.08072805041035916
0.6701872389439462 0.01883352761407419
0.6701872389439462 0.16817589465072422
0.6515381920950643 0.21795668366294088
0.6142400983973004 0.11839510563850754
0.6142400983973004 0.2677374726751576
0.6328891452461823 0.31751826168737424
0.7261343794905918 0.16817589465072422
0.6888362857928281 -0.03094726139814248
0.7074853326417099 -0.1802896284347925
0.6142400983973004 -0.37941278448365917
0.5769420046995366 -0.5287551515203092
0.520994864152891 -0.5785359405325259
0.6142400983973004 -0.5785359405325259
0.5955910515484185 -0.5287551515203092
0.5396439110017729 -0.7776590965813925
0.5396439110017729 -0.8274398855936093
0.6328891452461823 -0.7278783075691759
0.6328891452461823 -0.7278783075691759
0.6142400983973004 -0.7776590965813925
0.5396439110017729 -0.9767822526302593
0.48369677045512716 -1.1759054086791259
0.4277496299084815 -1.325247775715776
0.35315344251295394 -1.3750285647279927
0.3718024893618358 -1.3750285647279927
0.4091005830595996 -1.2754669867035593
0.4463986767573634 -1.2256861976913427
0.4277496299084815 -1.3750285647279927
0.4091005830595996 -1.3750285647279927
0.3158553488151901 -1.2754669867035593
0.2972063019663082 -0.9270014636180426
0.3158553488151901 -0.6780975185569592
0.3158553488151901 -0.6283167295447426
0.3158553488151901 -0.8274398855936093
0.16666297402413496 -0.9767822526302593
0.03611964608196171 -0.8772206746058259
-0.07577463501132967 -0.6283167295447426
-0.07577463501132967 -0.5785359405325259
0.017470599233079812 -0.5287551515203092
0.03611964608196171 -0.7278783075691759
0.017470599233079812 -0.7278783075691759
-0.09442368186021155 -0.7776590965813925
-0.09442368186021155 -0.7278783075691759
-0.05712558816244777 -0.42919357349587584
0.0734177397797255 -0.5785359405325259
0.14801392717525308 -0.7278783075691759
0.12936488032637117 -0.9270014636180426
0.03611964608196171 -0.8274398855936093
-0.0011784476158020825 -0.6780975185569592
0.017470599233079812 -0.42919357349587584
0.09206678662860739 -0.42919357349587584
0.14801392717525308 -0.5785359405325259
0.12936488032637117 -0.7278783075691759
0.017470599233079812 -0.6283167295447426
-0.09442368186021155 -0.5785359405325259
-0.16901986925573914 -0.23007041744700918
-0.15037082240685723 -0.03094726139814248
-0.16901986925573914 0.01883352761407419
-0.20631796295350294 0.21795668366294088
-0.11307272870909345 0.516641417736241
0.16666297402413496 0.8153261518095409
0.5955910515484185 1.0642300968706242
1.2669567381081668 1.0642300968706242
1.938322424667915 1.0642300968706242
2.796178579716482 0.8651069408217577
3.6167366410672854 0.8153261518095409
4.437294702418089 0.9148877298339743
5.03406420158231 0.9148877298339743
5.164607529524483 0.41707983971180757
4.530539936662499 -0.6283167295447426
3.337000938334057 -1.8728364548501593
1.8264281435746237 -2.7688906570700595
0.0734177397797255 -2.719109868057843
-1.5117512423752355 -2.519986712008976
-2.350958350574921 -2.4702059229967595
-2.4069054911215666 -2.5697675010211927
-2.127169788388338 -2.818671446082276
-1.791486945108464 -2.818671446082276
-1.4744531486774717 -2.719109868057843
-1.0455250711531883 -2.3706443449723262
-0.6725441341755503 -2.1217403999112427
-0.44875557198896754 -1.8728364548501593
-0.31821224404679427 -1.922617243862376
-0.2622651035001486 -1.7234940878135094
-0.13172177555797535 -1.3750285647279927
-0.07577463501132967 -0.9270014636180426
-0.07577463501132967 -0.6780975185569592
-0.0011784476158020825 -0.7278783075691759
0.017470599233079812 -0.8274398855936093
-0.03847654131356587 -0.6780975185569592
-0.03847654131356587 -0.6283167295447426
-0.0011784476158020825 -0.47897436250809255
0.054768692930843604 -0.37941278448365917
0.11071583347748928 -0.3296319954714425
0.054768692930843604 -0.5287551515203092
0.11071583347748928 -0.6283167295447426
0.20396106772189876 -0.37941278448365917
0.22261011457078064 -0.23007041744700918
0.24125916141966255 -0.27985120645922584
0.20396106772189876 -0.23007041744700918
0.12936488032637117 -0.47897436250809255
0.12936488032637117 -0.47897436250809255
0.20396106772189876 -0.5287551515203092
0.22261011457078064 -0.3296319954714425
0.27855725511742635 -0.27985120645922584
0.27855725511742635 -0.27985120645922584
0.3158553488151901 -0.5287551515203092
0.33450439566407203 -0.5785359405325259
0.2972063019663082 -0.47897436250809255
0.2972063019663082 -0.3296319954714425
0.33450439566407203 -0.27985120645922584
0.3718024893618358 -0.3296319954714425
0.2972063019663082 -0.5287551515203092
0.3718024893618358 -0.5785359405325259
0.3904515362107177 -0.5287551515203092
0.4463986767573634 -0.1802896284347925
0.5023458173040091 -0.23007041744700918
0.5396439110017729 -0.23007041744700918
0.5023458173040091 -0.42919357349587584
0.48369677045512716 -0.37941278448365917
0.5396439110017729 -0.42919357349587584
0.6142400983973004 -0.27985120645922584
0.6701872389439462 -0.23007041744700918
0.6701872389439462 -0.1802896284347925
0.6328891452461823 -0.47897436250809255
0.6142400983973004 -0.47897436250809255
0.6328891452461823 -0.42919357349587584
0.6888362857928281 -0.37941278448365917
0.7074853326417099 -0.3296319954714425
0.7634324731883556 -0.3296319954714425
0.6888362857928281 -0.47897436250809255
0.7074853326417099 -0.47897436250809255
0.7634324731883556 -0.47897436250809255
0.8566777074327651 -0.37941278448365917
0.9499229416771745 -0.47897436250809255
0.9685719885260564 -0.37941278448365917
0.8939758011305289 -0.47897436250809255
0.9685719885260564 -0.27985120645922584
0.9872210353749383 -0.42919357349587584
1.0058700822238202 -0.37941278448365917
1.043168175921584 -0.23007041744700918
1.024519129072702 -0.13050883942257582
0.9685719885260564 -0.13050883942257582
0.9126248479794108 -0.1802896284347925
0.9312738948282927 -0.27985120645922584
0.9872210353749383 0.06861431662629086
1.043168175921584 -0.03094726139814248
0.9872210353749383 -0.03094726139814248
0.8566777074327651 -0.13050883942257582
0.8193796137350012 -0.13050883942257582
0.8566777074327651 -0.08072805041035916
0.8380286605838831 -0.08072805041035916
0.8380286605838831 -0.1802896284347925
0.7634324731883556 -0.1802896284347925
0.6701872389439462 -0.1802896284347925
0.7261343794905918 -0.13050883942257582
0.6515381920950643 -0.08072805041035916
0.6328891452461823 -0.23007041744700918
0.6142400983973004 -0.27985120645922584
0.5582929578506548 -0.37941278448365917
0.4650477236062453 -0.47897436250809255
0.4091005830595996 -0.37941278448365917
0.4091005830595996 -0.42919357349587584
0.4463986767573634 -0.37941278448365917
0.4463986767573634 -0.37941278448365917
0.3718024893618358 -0.42919357349587584
0.24125916141966255 -0.5287551515203092
0.25990820826854444 -0.37941278448365917
0.25990820826854444 -0.37941278448365917
0.25990820826854444 -0.3296319954714425
0.24125916141966255 -0.3296319954714425
0.18531202087301687 -0.47897436250809255
0.09206678662860739 -0.5785359405325259
-0.019827494464683976 -0.47897436250809255
0.017470599233079812 -0.47897436250809255
0.11071583347748928 -0.5287551515203092
0.0734177397797255 -0.47897436250809255
-0.0011784476158020825 -0.42919357349587584
-0.09442368186021155 -0.42919357349587584
-0.13172177555797535 -0.47897436250809255
-0.019827494464683976 -0.3296319954714425
-0.0011784476158020825 -0.3296319954714425
-0.0011784476158020825 -0.42919357349587584
-0.05712558816244777 -0.47897436250809255
-0.07577463501132967 -0.6283167295447426
-0.13172177555797535 -0.7278783075691759
-0.05712558816244777 -0.6780975185569592
-0.03847654131356587 -0.6780975185569592
-0.0011784476158020825 -0.5785359405325259
-0.11307272870909345 -0.6283167295447426
-0.15037082240685723 -0.6283167295447426
-0.18766891610462103 -0.5785359405325259
-0.15037082240685723 -0.42919357349587584
-0.09442368186021155 -0.37941278448365917
-0.03847654131356587 -0.23007041744700918
-0.07577463501132967 -0.42919357349587584
-0.07577463501132967 -0.37941278448365917
-0.0011784476158020825 -0.3296319954714425
-0.0011784476158020825 -0.23007041744700918
0.0734177397797255 -0.1802896284347925
0.11071583347748928 -0.23007041744700918
0.054768692930843604 -0.23007041744700918
-0.0011784476158020825 -0.37941278448365917
-0.07577463501132967 -0.27985120645922584
-0.03847654131356587 -0.03094726139814248
0.054768692930843604 0.06861431662629086
0.12936488032637117 0.01883352761407419
0.09206678662860739 0.01883352761407419
0.054768692930843604 -0.1802896284347925
0.09206678662860739 -0.03094726139814248
0.27855725511742635 0.16817589465072422
0.3904515362107177 0.31751826168737424
0.4463986767573634 0.2677374726751576
0.3718024893618358 0.2677374726751576
0.35315344251295394 0.31751826168737424
0.27855725511742635 0.41707983971180757
0.3718024893618358 0.516641417736241
0.4650477236062453 0.516641417736241
0.48369677045512716 0.3672990506995909
0.4091005830595996 0.01883352761407419
0.27855725511742635 -0.23007041744700918
0.22261011457078064 -0.23007041744700918
0.22261011457078064 -0.1802896284347925
0.3158553488151901 -0.13050883942257582
0.3904515362107177 -0.08072805041035916
0.35315344251295394 -0.1802896284347925
0.27855725511742635 -0.3296319954714425
0.25990820826854444 -0.23007041744700918
0.25990820826854444 -0.23007041744700918
0.2972063019663082 -0.23007041744700918
0.20396106772189876 -0.27985120645922584
0.18531202087301687 -0.5785359405325259
0.14801392717525308 -0.8772206746058259
0.12936488032637117 -0.5785359405325259
0.14801392717525308 -0.37941278448365917
0.12936488032637117 -0.42919357349587584
0.18531202087301687 -0.3296319954714425
0.18531202087301687 -0.37941278448365917
0.0734177397797255 -0.27985120645922584
0.03611964608196171 -0.3296319954714425
-0.0011784476158020825 -0.23007041744700918
-0.019827494464683976 -0.03094726139814248
-0.019827494464683976 -0.1802896284347925
-0.07577463501132967 -0.1802896284347925
-0.16901986925573914 -0.13050883942257582
-0.2809141503490305 0.06861431662629086
-0.22496700980238482 0.31751826168737424
-0.2809141503490305 0.3672990506995909
-0.20631796295350294 0.21795668366294088
-0.2436160566512667 0.06861431662629086
-0.3555103377445581 -0.23007041744700918
-0.41145747829120377 -0.37941278448365917
-0.44875557198896754 -0.1802896284347925
-0.37415938459344 -0.1802896284347925
-0.2809141503490305 -0.13050883942257582
-0.2622651035001486 -0.13050883942257582
-0.3368612908956762 0.01883352761407419
-0.3368612908956762 0.11839510563850754
-0.2436160566512667 0.11839510563850754
-0.22496700980238482 0.2677374726751576
-0.22496700980238482 0.06861431662629086
-0.2995631971979124 -0.03094726139814248
-0.41145747829120377 -0.08072805041035916
-0.4301065251400857 0.06861431662629086
-0.48605366568673136 0.2677374726751576
-0.5047027125356133 0.6162029957606743
-0.5792988999311408 0.6659837847728909
-0.6352460404777865 0.8153261518095409
-0.5606498530822589 1.0144493078584076
-0.2809141503490305 1.263353252919491
0.25990820826854444 1.5122571979805743
0.9126248479794108 1.412695619956141
1.751831956179096 1.3629148309439243
2.5350919238321357 1.3131340419317077
3.392948078880703 1.2135724639072742
4.138909952835979 1.2135724639072742
4.605136124058026 0.9148877298339743
4.3813475618714435 0.46686062872402423
3.6540347347650495 -0.37941278448365917
2.441846689587726 -1.4248093537402093
0.9872210353749383 -1.922617243862376
-0.6911931810244322 -1.7234940878135094
-2.0898716946905744 -1.474590142752426
-2.742588334401441 -1.2256861976913427
-2.7239392875525588 -1.1261246196669092
-2.53744881906374 -1.2256861976913427
-2.2577131163305113 -1.325247775715776
-1.9220302730506373 -1.4248093537402093
-1.5117512423752355 -1.1759054086791259
-1.101472211699834 -1.1261246196669092
-0.8217365089666054 -1.026563041642476
-0.7471403215710779 -0.7776590965813925
-0.7098422278733141 -0.6283167295447426
-0.728491274722196 -0.3296319954714425
-0.6911931810244322 -0.03094726139814248
-0.6352460404777865 0.06861431662629086
-0.5047027125356133 0.11839510563850754
-0.41145747829120377 -0.1802896284347925
-0.39280843144232186 -0.23007041744700918
-0.44875557198896754 -0.03094726139814248
-0.39280843144232186 0.2677374726751576
-0.31821224404679427 0.41707983971180757
-0.18766891610462103 0.41707983971180757
-0.15037082240685723 0.06861431662629086
-0.20631796295350294 0.06861431662629086
-0.2809141503490305 0.21795668366294088
-0.2995631971979124 0.16817589465072422
-0.22496700980238482 0.31751826168737424
-0.13172177555797535 0.41707983971180757
-0.11307272870909345 0.41707983971180757
-0.09442368186021155 0.2677374726751576
-0.07577463501132967 0.2677374726751576
-0.09442368186021155 0.31751826168737424
-0.0011784476158020825 0.5664222067484576
0.03611964608196171 0.6162029957606743
-0.03847654131356587 0.6659837847728909
-0.05712558816244777 0.31751826168737424
-0.11307272870909345 0.31751826168737424
-0.03847654131356587 0.3672990506995909
-0.0011784476158020825 0.5664222067484576
0.03611964608196171 0.7157645737851076
-0.019827494464683976 0.5664222067484576
-0.05712558816244777 0.41707983971180757
-0.019827494464683976 0.46686062872402423
0.03611964608196171 0.3672990506995909
0.03611964608196171 0.46686062872402423
0.03611964608196171 0.516641417736241
-0.03847654131356587 0.3672990506995909
-0.03847654131356587 0.2677374726751576
0.017470599233079812 0.21795668366294088
0.16666297402413496 0.46686062872402423
0.27855725511742635 0.3672990506995909
0.2972063019663082 0.46686062872402423
0.2972063019663082 0.3672990506995909
0.27855725511742635 0.2677374726751576
0.27855725511742635 0.21795668366294088
0.2972063019663082 0.16817589465072422
0.4277496299084815 0.31751826168737424
0.4650477236062453 0.3672990506995909
0.520994864152891 0.31751826168737424
0.520994864152891 0.31751826168737424
0.5955910515484185 0.31751826168737424
0.6515381920950643 0.31751826168737424
0.7634324731883556 0.41707983971180757
0.8380286605838831 0.3672990506995909
0.8193796137350012 0.3672990506995909
0.7820815200372375 0.31751826168737424
0.8566777074327651 0.2677374726751576
0.9312738948282927 0.41707983971180757
0.9685719885260564 0.41707983971180757
0.9499229416771745 0.5664222067484576
0.9499229416771745 0.46686062872402423
0.9126248479794108 0.2677374726751576
0.9312738948282927 0.3672990506995909
0.9499229416771745 0.46686062872402423
1.0058700822238202 0.41707983971180757
1.0804662696193479 0.31751826168737424
1.0618172227704659 0.2677374726751576
1.0058700822238202 0.2677374726751576
1.0058700822238202 0.31751826168737424
0.9685719885260564 0.2677374726751576
1.043168175921584 0.3672990506995909
1.043168175921584 0.2677374726751576
0.9685719885260564 0.16817589465072422
0.8566777074327651 0.11839510563850754
0.8380286605838831 0.16817589465072422
0.8566777074327651 0.06861431662629086
0.8566777074327651 0.16817589465072422
0.8007305668861194 0.01883352761407419
0.7074853326417099 -0.08072805041035916
0.5769420046995366 -0.03094726139814248
0.4277496299084815 -0.03094726139814248
0.48369677045512716 0.06861431662629086
0.520994864152891 0.06861431662629086
0.5582929578506548 0.06861431662629086
0.48369677045512716 0.01883352761407419
0.4463986767573634 0.01883352761407419
0.27855725511742635 -0.08072805041035916
0.22261011457078064 0.01883352761407419
0.20396106772189876 0.06861431662629086
0.25990820826854444 0.11839510563850754
0.22261011457078064 -0.03094726139814248
0.054768692930843604 -0.27985120645922584
-0.03847654131356587 -0.23007041744700918
-0.03847654131356587 -0.13050883942257582
-0.0011784476158020825 -0.08072805041035916
0.017470599233079812 -0.23007041744700918
0.017470599233079812 -0.37941278448365917
-0.05712558816244777 -0.37941278448365917
-0.15037082240685723 -0.5287551515203092
-0.16901986925573914 -0.27985120645922584
-0.15037082240685723 -0.3296319954714425
-0.07577463501132967 -0.27985120645922584
-0.05712558816244777 -0.37941278448365917
-0.15037082240685723 -0.6283167295447426
-0.20631796295350294 -0.5785359405325259
-0.18766891610462103 -0.5785359405325259
-0.22496700980238482 -0.27985120645922584
-0.11307272870909345 -0.23007041744700918
-0.09442368186021155 -0.37941278448365917
-0.09442368186021155 -0.5287551515203092
-0.11307272870909345 -0.6283167295447426
-0.09442368186021155 -0.23007041744700918
-0.11307272870909345 -0.08072805041035916
-0.019827494464683976 -0.08072805041035916
0.017470599233079812 -0.1802896284347925
-0.03847654131356587 -0.23007041744700918
-0.07577463501132967 -0.1802896284347925
-0.11307272870909345 -0.1802896284347925
-0.07577463501132967 -0.08072805041035916
-0.05712558816244777 -0.13050883942257582
-0.07577463501132967 -0.1802896284347925
-0.07577463501132967 -0.37941278448365917
-0.13172177555797535 -0.47897436250809255
-0.11307272870909345 -0.27985120645922584
0.017470599233079812 -0.1802896284347925
0.0734177397797255 -0.13050883942257582
0.12936488032637117 -0.27985120645922584
0.054768692930843604 -0.47897436250809255
0.054768692930843604 -0.5287551515203092
0.017470599233079812 -0.3296319954714425
0.11071583347748928 -0.03094726139814248
0.22261011457078064 0.01883352761407419
0.2972063019663082 0.01883352761407419
0.24125916141966255 -0.1802896284347925
0.18531202087301687 -0.08072805041035916
0.20396106772189876 0.01883352761407419
0.25990820826854444 0.31751826168737424
0.35315344251295394 0.41707983971180757
0.35315344251295394 0.16817589465072422
0.33450439566407203 -0.03094726139814248
0.25990820826854444 -0.08072805041035916
0.25990820826854444 -0.13050883942257582
0.24125916141966255 -0.03094726139814248
0.24125916141966255 -0.13050883942257582
0.22261011457078064 -0.27985120645922584
0.24125916141966255 -0.47897436250809255
0.20396106772189876 -0.47897436250809255
0.22261011457078064 -0.42919357349587584
0.22261011457078064 -0.23007041744700918
0.25990820826854444 -0.3296319954714425
0.27855725511742635 -0.3296319954714425
0.25990820826854444 -0.47897436250809255
0.22261011457078064 -0.5785359405325259
0.22261011457078064 -0.6283167295447426
0.20396106772189876 -0.7776590965813925
0.22261011457078064 -0.7776590965813925
0.20396106772189876 -0.7278783075691759
0.16666297402413496 -0.8274398855936093
0.14801392717525308 -0.9270014636180426
0.14801392717525308 -0.8274398855936093
0.18531202087301687 -0.6283167295447426
0.16666297402413496 -0.47897436250809255
0.14801392717525308 -0.47897436250809255
0.14801392717525308 -0.37941278448365917
0.16666297402413496 -0.37941278448365917
0.16666297402413496 -0.3296319954714425
0.054768692930843604 -0.23007041744700918
-0.07577463501132967 -0.1802896284347925
-0.13172177555797535 -0.1802896284347925
-0.15037082240685723 -0.23007041744700918
-0.13172177555797535 -0.23007041744700918
-0.07577463501132967 -0.13050883942257582
-0.05712558816244777 -0.1802896284347925
-0.019827494464683976 -0.08072805041035916
-0.0011784476158020825 -0.03094726139814248
-0.03847654131356587 -0.27985120645922584
-0.03847654131356587 -0.3296319954714425
-0.13172177555797535 -0.27985120645922584
-0.20631796295350294 -0.13050883942257582
-0.2622651035001486 -0.23007041744700918
-0.31821224404679427 -0.27985120645922584
-0.31821224404679427 -0.3296319954714425
-0.37415938459344 -0.37941278448365917
-0.41145747829120377 -0.37941278448365917
-0.41145747829120377 -0.37941278448365917
-0.41145747829120377 -0.37941278448365917
-0.46740461883784945 -0.5287551515203092
-0.6538950873266683 -0.47897436250809255
-0.7844384152688416 -0.42919357349587584
-0.8030874621177235 -0.03094726139814248
-0.6538950873266683 0.3672990506995909
-0.5047027125356133 0.516641417736241
-0.16901986925573914 0.6162029957606743
0.24125916141966255 0.7157645737851076
0.8007305668861194 0.8651069408217577
1.6399376750858046 0.7655453627973243
2.5723900175298993 0.964668518846191
3.504842359973994 1.0144493078584076
4.25080423392927 1.114010885882841
4.679732311453553 0.8651069408217577
4.698381358302435 0.5664222067484576
4.288102327627033 -0.08072805041035916
3.6353856879161675 -0.8274398855936093
2.7215823923209546 -1.773274876825726
1.39750006605034 -2.071959610899026
-0.2995631971979124 -2.221301977935676
-1.7541888514107002 -2.071959610899026
-2.425554537970448 -1.8728364548501593
-2.4815016785170942 -1.6737132988012926
-2.2390640694816293 -1.8728364548501593
-2.0898716946905744 -2.1715211889234594
-1.9033812262017553 -2.221301977935676
-1.5304002892241175 -2.1715211889234594
-1.1201212585487157 -2.071959610899026
-0.8030874621177235 -1.8230556658379427
-0.7098422278733141 -1.7234940878135094
-0.728491274722196 -1.623932509789076
-0.7844384152688416 -1.2754669867035593
-0.7471403215710779 -1.2256861976913427
-0.6165969936289046 -1.026563041642476
-0.48605366568673136 -0.9767822526302593
-0.44875557198896754 -0.8772206746058259
-0.48605366568673136 -0.8274398855936093
-0.5047027125356133 -0.9270014636180426
-0.542000806233377 -0.9767822526302593
-0.46740461883784945 -0.8274398855936093
-0.37415938459344 -0.7278783075691759
-0.2809141503490305 -0.6780975185569592
-0.3555103377445581 -0.8772206746058259
-0.39280843144232186 -0.9270014636180426
-0.5233517593844952 -0.7776590965813925
-0.46740461883784945 -0.6780975185569592
-0.3368612908956762 -0.5785359405325259
-0.2436160566512667 -0.5785359405325259
-0.2809141503490305 -0.7776590965813925
-0.31821224404679427 -0.9270014636180426
-0.3555103377445581 -0.8772206746058259
-0.2995631971979124 -0.8274398855936093
-0.20631796295350294 -0.8772206746058259
-0.16901986925573914 -0.9767822526302593
-0.2995631971979124 -1.0763438306546926
-0.31821224404679427 -1.026563041642476
-0.31821224404679427 -0.9767822526302593
-0.2436160566512667 -0.8274398855936093
-0.13172177555797535 -0.7776590965813925
-0.03847654131356587 -0.7776590965813925
-0.11307272870909345 -0.9767822526302593
-0.18766891610462103 -1.2256861976913427
-0.16901986925573914 -1.1261246196669092
-0.11307272870909345 -1.026563041642476
-0.0011784476158020825 -0.7278783075691759
0.11071583347748928 -0.7776590965813925
0.20396106772189876 -0.8772206746058259
0.20396106772189876 -0.9270014636180426
0.20396106772189876 -0.9270014636180426
0.16666297402413496 -0.7278783075691759
0.2972063019663082 -0.6780975185569592
0.4277496299084815 -0.6780975185569592
0.4277496299084815 -0.6283167295447426
0.5023458173040091 -0.7776590965813925
0.4650477236062453 -0.9270014636180426
0.4650477236062453 -0.7776590965813925
0.5769420046995366 -0.5785359405325259
0.6701872389439462 -0.6780975185569592
0.8007305668861194 -0.6283167295447426
0.7820815200372375 -0.8274398855936093
0.7820815200372375 -0.9270014636180426
0.7820815200372375 -0.7776590965813925
0.8939758011305289 -0.6283167295447426
0.9499229416771745 -0.6283167295447426
0.9872210353749383 -0.7278783075691759
1.0058700822238202 -0.7776590965813925
0.9312738948282927 -0.7776590965813925
0.875326754281647 -0.6283167295447426
0.9126248479794108 -0.37941278448365917
1.024519129072702 -0.47897436250809255
1.043168175921584 -0.5287551515203092
0.9872210353749383 -0.6780975185569592
0.9126248479794108 -0.6283167295447426
0.875326754281647 -0.5287551515203092
0.9126248479794108 -0.47897436250809255
0.9872210353749383 -0.5785359405325259
0.9499229416771745 -0.5785359405325259
0.875326754281647 -0.7278783075691759
0.7820815200372375 -0.6283167295447426
0.7074853326417099 -0.5785359405325259
0.6888362857928281 -0.47897436250809255
0.6701872389439462 -0.6780975185569592
0.5582929578506548 -0.8772206746058259
0.4277496299084815 -0.9767822526302593
0.3158553488151901 -0.8772206746058259
0.33450439566407203 -0.7776590965813925
0.3718024893618358 -0.8274398855936093
0.2972063019663082 -0.8772206746058259
0.3158553488151901 -0.9270014636180426
0.12936488032637117 -1.026563041642476
0.017470599233079812 -0.9270014636180426
-0.019827494464683976 -0.9270014636180426
0.054768692930843604 -0.7776590965813925
0.12936488032637117 -0.8274398855936093
0.0734177397797255 -0.7776590965813925
0.017470599233079812 -0.8274398855936093
-0.0011784476158020825 -0.9270014636180426
0.03611964608196171 -0.7776590965813925
0.12936488032637117 -0.6780975185569592
0.16666297402413496 -0.7278783075691759
0.0734177397797255 -0.8274398855936093
-0.0011784476158020825 -0.9270014636180426
-0.07577463501132967 -0.8772206746058259
-0.05712558816244777 -0.6780975185569592
0.0734177397797255 -0.6283167295447426
0.0734177397797255 -0.7278783075691759
-0.03847654131356587 -0.6780975185569592
-0.03847654131356587 -0.7278783075691759
-0.05712558816244777 -0.7278783075691759
-0.09442368186021155 -0.7776590965813925
-0.05712558816244777 -0.6283167295447426
-0.03847654131356587 -0.6780975185569592
-0.09442368186021155 -0.8274398855936093
-0.11307272870909345 -0.9767822526302593
-0.13172177555797535 -0.9767822526302593
-0.07577463501132967 -1.026563041642476
-0.0011784476158020825 -0.9767822526302593
-0.019827494464683976 -1.026563041642476
-0.03847654131356587 -1.1261246196669092
-0.03847654131356587 -1.0763438306546926
-0.07577463501132967 -1.0763438306546926
-0.03847654131356587 -0.9767822526302593
0.0734177397797255 -0.8772206746058259
0.09206678662860739 -1.026563041642476
0.054768692930843604 -1.1759054086791259
0.017470599233079812 -1.1261246196669092
-0.0011784476158020825 -1.2256861976913427
0.03611964608196171 -0.9270014636180426
0.11071583347748928 -0.9767822526302593
0.14801392717525308 -1.0763438306546926
0.11071583347748928 -1.0763438306546926
0.054768692930843604 -1.026563041642476
0.017470599233079812 -0.8274398855936093
0.0734177397797255 -0.7278783075691759
0.11071583347748928 -0.5785359405325259
0.11071583347748928 -0.6283167295447426
0.18531202087301687 -0.6780975185569592
0.12936488032637117 -0.8274398855936093
0.11071583347748928 -0.7776590965813925
0.16666297402413496 -0.6283167295447426
0.27855725511742635 -0.5785359405325259
0.25990820826854444 -0.7278783075691759
0.20396106772189876 -0.9270014636180426
0.03611964608196171 -1.1759054086791259
0.03611964608196171 -1.1261246196669092
0.054768692930843604 -1.2256861976913427
0.12936488032637117 -1.1759054086791259
0.16666297402413496 -1.325247775715776
0.16666297402413496 -1.3750285647279927
0.054768692930843604 -1.3750285647279927
-0.11307272870909345 -1.3750285647279927
-0.09442368186021155 -1.1759054086791259
-0.05712558816244777 -1.1759054086791259
-0.0011784476158020825 -1.1759054086791259
0.017470599233079812 -1.5741517207768594
-0.05712558816244777 -1.7234940878135094
-0.11307272870909345 -1.6737132988012926
-0.09442368186021155 -1.5243709317646426
-0.05712558816244777 -1.325247775715776
0.017470599233079812 -1.2754669867035593
0.017470599233079812 -1.2754669867035593
-0.13172177555797535 -1.325247775715776
-0.18766891610462103 -1.2754669867035593
-0.22496700980238482 -1.026563041642476
-0.20631796295350294 -0.9270014636180426
-0.18766891610462103 -0.9767822526302593
-0.2809141503490305 -1.1759054086791259
-0.4301065251400857 -1.2754669867035593
-0.5606498530822589 -1.3750285647279927
-0.542000806233377 -1.2256861976913427
-0.46740461883784945 -1.026563041642476
-0.37415938459344 -1.2256861976913427
-0.37415938459344 -1.0763438306546926
-0.44875557198896754 -1.2256861976913427
-0.5233517593844952 -1.2256861976913427
-0.5979479467800227 -1.026563041642476
-0.48605366568673136 -0.8772206746058259
-0.4301065251400857 -1.026563041642476
-0.39280843144232186 -0.9767822526302593
-0.44875557198896754 -1.1261246196669092
-0.48605366568673136 -0.9270014636180426
-0.5233517593844952 -0.8772206746058259
-0.48605366568673136 -0.7278783075691759
-0.5233517593844952 -0.7776590965813925
-0.5233517593844952 -0.7776590965813925
-0.5792988999311408 -0.9270014636180426
-0.6538950873266683 -0.7776590965813925
-0.728491274722196 -0.6283167295447426
-0.7098422278733141 -0.1802896284347925
-0.7098422278733141 0.01883352761407419
-0.6725441341755503 0.16817589465072422
-0.542000806233377 0.2677374726751576
-0.18766891610462103 0.3672990506995909
0.33450439566407203 0.6659837847728909
1.1177643633171117 0.7655453627973243
1.956971471516797 0.7157645737851076
2.852125720263128 0.516641417736241
3.7659290158583407 0.46686062872402423
4.418645655569207 0.3672990506995909
4.623785170906908 0.16817589465072422
4.269453280778152 -0.3296319954714425
3.392948078880703 -1.1759054086791259
2.0875147994589702 -2.071959610899026
0.4277496299084815 -2.420425133984543
-1.2879626801886528 -2.221301977935676
-2.4815016785170942 -1.9723980328745927
-2.7798864280992044 -1.6737132988012926
-2.5560978659126214 -1.8230556658379427
-2.2763621631793933 -2.071959610899026
-1.977977413597283 -2.221301977935676
-1.604996476619645 -2.221301977935676
-1.2320155396420072 -2.0221788218868095
-0.9522798369087787 -1.7234940878135094
-0.7471403215710779 -1.4248093537402093
-0.6538950873266683 -1.2256861976913427
-0.6165969936289046 -1.0763438306546926
-0.5792988999311408 -0.7776590965813925
-0.542000806233377 -0.5287551515203092
-0.48605366568673136 -0.3296319954714425
-0.39280843144232186 -0.42919357349587584
-0.3555103377445581 -0.47897436250809255
-0.4301065251400857 -0.5785359405325259
-0.48605366568673136 -0.5287551515203092
-0.48605366568673136 -0.3296319954714425
-0.39280843144232186 -0.27985120645922584
-0.2995631971979124 -0.47897436250809255
-0.2436160566512667 -0.5785359405325259
-0.3555103377445581 -0.5287551515203092
-0.3555103377445581 -0.6283167295447426
-0.3555103377445581 -0.42919357349587584
-0.2622651035001486 -0.27985120645922584
-0.22496700980238482 -0.3296319954714425
-0.22496700980238482 -0.5785359405325259
-0.2622651035001486 -0.6780975185569592
-0.2995631971979124 -0.5785359405325259
-0.2809141503490305 -0.37941278448365917
-0.20631796295350294 -0.3296319954714425
-0.11307272870909345 -0.3296319954714425
-0.13172177555797535 -0.5287551515203092
-0.15037082240685723 -0.6283167295447426
-0.2622651035001486 -0.42919357349587584
-0.20631796295350294 -0.3296319954714425
-0.15037082240685723 0.01883352761407419
-0.05712558816244777 -0.03094726139814248
-0.019827494464683976 -0.08072805041035916
-0.05712558816244777 -0.3296319954714425
-0.03847654131356587 -0.3296319954714425
0.054768692930843604 -0.13050883942257582
0.03611964608196171 0.06861431662629086
0.12936488032637117 -0.03094726139814248
0.14801392717525308 -0.23007041744700918
0.18531202087301687 -0.3296319954714425
0.24125916141966255 -0.42919357349587584
0.2972063019663082 -0.13050883942257582
0.3158553488151901 -0.03094726139814248
0.3718024893618358 -0.1802896284347925
0.3718024893618358 -0.08072805041035916
0.4463986767573634 -0.42919357349587584
0.48369677045512716 -0.3296319954714425
0.5396439110017729 -0.13050883942257582
0.6328891452461823 0.06861431662629086
0.7074853326417099 0.11839510563850754
0.7447834263394737 -0.13050883942257582
0.7447834263394737 -0.13050883942257582
0.7447834263394737 -0.08072805041035916
0.8193796137350012 0.01883352761407419
0.875326754281647 0.2677374726751576
0.9499229416771745 0.2677374726751576
0.9499229416771745 0.2677374726751576
0.9126248479794108 0.16817589465072422
0.8939758011305289 0.16817589465072422
0.8380286605838831 0.2677374726751576
0.9312738948282927 0.516641417736241
0.9126248479794108 0.46686062872402423
0.9312738948282927 0.31751826168737424
0.875326754281647 0.21795668366294088
0.8380286605838831 0.31751826168737424
0.8566777074327651 0.3672990506995909
0.875326754281647 0.516641417736241
0.875326754281647 0.7157645737851076
0.7820815200372375 0.41707983971180757
0.6888362857928281 0.21795668366294088
0.5769420046995366 0.2677374726751576
0.520994864152891 0.2677374726751576
0.5396439110017729 0.5664222067484576
0.5955910515484185 0.46686062872402423
0.5769420046995366 0.21795668366294088
0.4463986767573634 0.21795668366294088
0.33450439566407203 0.2677374726751576
0.27855725511742635 0.3672990506995909
0.2972063019663082 0.41707983971180757
0.2972063019663082 0.41707983971180757
0.25990820826854444 0.2677374726751576
0.14801392717525308 0.11839510563850754
0.0734177397797255 0.2677374726751576
0.017470599233079812 0.41707983971180757
0.03611964608196171 0.41707983971180757
-0.0011784476158020825 0.41707983971180757
-0.05712558816244777 0.2677374726751576
-0.11307272870909345 0.31751826168737424
-0.09442368186021155 0.21795668366294088
-0.09442368186021155 0.31751826168737424
-0.05712558816244777 0.46686062872402423
-0.05712558816244777 0.516641417736241
-0.09442368186021155 0.3672990506995909
-0.18766891610462103 0.31751826168737424
-0.2622651035001486 0.21795668366294088
-0.20631796295350294 0.3672990506995909
-0.15037082240685723 0.31751826168737424
-0.11307272870909345 0.41707983971180757
-0.09442368186021155 0.41707983971180757
-0.11307272870909345 0.11839510563850754
-0.11307272870909345 0.16817589465072422
-0.05712558816244777 0.31751826168737424
-0.03847654131356587 0.41707983971180757
0.11071583347748928 0.2677374726751576
0.0734177397797255 0.41707983971180757
0.017470599233079812 0.41707983971180757
-0.03847654131356587 0.41707983971180757
-0.05712558816244777 0.46686062872402423
0.03611964608196171 0.5664222067484576
0.12936488032637117 0.516641417736241
0.12936488032637117 0.46686062872402423
0.054768692930843604 0.41707983971180757
0.054768692930843604 0.6162029957606743
0.09206678662860739 0.6659837847728909
0.14801392717525308 0.8651069408217577
0.24125916141966255 0.7655453627973243
0.16666297402413496 0.6162029957606743
0.12936488032637117 0.46686062872402423
0.11071583347748928 0.41707983971180757
0.14801392717525308 0.46686062872402423
0.3158553488151901 0.6659837847728909
0.4091005830595996 0.5664222067484576
0.4277496299084815 0.516641417736241
0.4091005830595996 0.41707983971180757
0.35315344251295394 0.6162029957606743
0.33450439566407203 0.8651069408217577
0.35315344251295394 0.9148877298339743
0.3904515362107177 0.7655453627973243
0.4091005830595996 0.7157645737851076
0.3904515362107177 0.6659837847728909
0.4277496299084815 0.516641417736241
0.4277496299084815 0.41707983971180757
0.4091005830595996 0.3672990506995909
0.4463986767573634 0.16817589465072422
0.3904515362107177 0.01883352761407419
0.33450439566407203 -0.1802896284347925
0.3158553488151901 -0.13050883942257582
0.3718024893618358 -0.03094726139814248
0.3904515362107177 0.16817589465072422
0.5023458173040091 0.16817589465072422
0.4650477236062453 0.06861431662629086
0.33450439566407203 -0.1802896284347925
0.3158553488151901 -0.13050883942257582
0.2972063019663082 -0.1802896284347925
0.35315344251295394 -0.3296319954714425
0.4091005830595996 -0.47897436250809255
0.4277496299084815 -0.27985120645922584
0.3718024893618358 -0.3296319954714425
0.33450439566407203 -0.3296319954714425
0.2972063019663082 -0.27985120645922584
0.2972063019663082 -0.08072805041035916
0.27855725511742635 -0.03094726139814248
0.22261011457078064 -0.03094726139814248
0.16666297402413496 -0.08072805041035916
0.0734177397797255 -0.13050883942257582
0.054768692930843604 -0.1802896284347925
0.03611964608196171 -0.1802896284347925
0.017470599233079812 -0.27985120645922584
-0.03847654131356587 -0.23007041744700918
-0.16901986925573914 -0.3296319954714425
-0.16901986925573914 -0.37941278448365917
-0.09442368186021155 -0.23007041744700918
-0.03847654131356587 -0.08072805041035916
-0.03847654131356587 -0.08072805041035916
-0.07577463501132967 -0.08072805041035916
-0.15037082240685723 0.01883352761407419
-0.18766891610462103 0.01883352761407419
-0.15037082240685723 -0.03094726139814248
-0.09442368186021155 0.06861431662629086
-0.11307272870909345 0.06861431662629086
-0.11307272870909345 0.11839510563850754
-0.2436160566512667 0.01883352761407419
-0.2436160566512667 0.06861431662629086
-0.2436160566512667 0.01883352761407419
-0.2995631971979124 0.11839510563850754
-0.3555103377445581 0.2677374726751576
-0.48605366568673136 0.46686062872402423
-0.5047027125356133 0.8153261518095409
-0.3555103377445581 0.964668518846191
-0.03847654131356587 1.0642300968706242
0.5023458173040091 1.263353252919491
1.043168175921584 1.2135724639072742
1.8637262372723873 1.263353252919491
2.833476673414246 1.1637916748950576
3.7472799690094587 1.2135724639072742
4.717030405151317 1.0642300968706242
5.201905623222246 0.8651069408217577
4.959468014186782 0.46686062872402423
4.082962812289333 -0.5287551515203092
2.7775295328676 -1.5243709317646426
1.4161491128992219 -1.7234940878135094
-0.2436160566512667 -1.474590142752426
-1.7541888514107002 -1.2754669867035593
-2.518799772214858 -1.2256861976913427
-2.5560978659126214 -1.1759054086791259
-2.2950112100282754 -1.4248093537402093
-2.033924554143929 -1.474590142752426
-1.6609436171662908 -1.5243709317646426
-1.2320155396420072 -1.5741517207768594
-0.9149817432110149 -1.325247775715776
-0.6725441341755503 -1.0763438306546926
-0.5233517593844952 -1.0763438306546926
-0.46740461883784945 -0.8772206746058259
-0.3368612908956762 -0.5785359405325259
-0.20631796295350294 -0.42919357349587584
-0.13172177555797535 -0.27985120645922584
-0.13172177555797535 -0.23007041744700918
-0.20631796295350294 -0.23007041744700918
-0.2622651035001486 -0.1802896284347925
-0.18766891610462103 -0.23007041744700918
-0.15037082240685723 -0.08072805041035916
-0.07577463501132967 -0.03094726139814248
-0.13172177555797535 -0.13050883942257582
-0.11307272870909345 -0.1802896284347925
-0.11307272870909345 -0.23007041744700918
-0.07577463501132967 -0.13050883942257582
0.054768692930843604 0.06861431662629086
0.11071583347748928 -0.03094726139814248
0.09206678662860739 0.16817589465072422
-0.0011784476158020825 0.11839510563850754
-0.0011784476158020825 0.06861431662629086
0.0734177397797255 0.2677374726751576
0.12936488032637117 0.31751826168737424
0.14801392717525308 0.21795668366294088
0.0734177397797255 0.31751826168737424
0.054768692930843604 0.21795668366294088
0.09206678662860739 0.31751826168737424
0.11071583347748928 0.3672990506995909
0.22261011457078064 0.31751826168737424
0.20396106772189876 0.41707983971180757
0.18531202087301687 0.2677374726751576
0.11071583347748928 0.21795668366294088
0.12936488032637117 0.2677374726751576
0.16666297402413496 0.2677374726751576
0.20396106772189876 0.31751826168737424
0.24125916141966255 0.3672990506995909
0.25990820826854444 0.3672990506995909
0.33450439566407203 0.31751826168737424
0.3718024893618358 0.16817589465072422
0.48369677045512716 0.16817589465072422
0.5769420046995366 0.2677374726751576
0.6328891452461823 0.46686062872402423
0.5955910515484185 0.41707983971180757
0.6142400983973004 0.3672990506995909
0.6515381920950643 0.31751826168737424
0.6701872389439462 0.31751826168737424
0.7074853326417099 0.5664222067484576
0.7820815200372375 0.5664222067484576
0.7820815200372375 0.516641417736241
0.8193796137350012 0.41707983971180757
0.8193796137350012 0.46686062872402423
0.8939758011305289 0.41707983971180757
0.8939758011305289 0.6659837847728909
1.0058700822238202 0.6162029957606743
1.043168175921584 0.6659837847728909
1.0991153164682297 0.46686062872402423
1.024519129072702 0.31751826168737424
1.0058700822238202 0.41707983971180757
0.9312738948282927 0.6162029957606743
0.8939758011305289 0.6659837847728909
0.8939758011305289 0.5664222067484576
0.8566777074327651 0.2677374726751576
0.8939758011305289 0.2677374726751576
0.9126248479794108 0.41707983971180757
0.9312738948282927 0.5664222067484576
0.9312738948282927 0.5664222067484576
0.8939758011305289 0.516641417736241
0.7820815200372375 0.2677374726751576
0.6888362857928281 0.2677374726751576
0.6142400983973004 0.31751826168737424
0.6515381920950643 0.41707983971180757
0.6142400983973004 0.41707983971180757
0.5023458173040091 0.41707983971180757
0.4277496299084815 0.31751826168737424
0.27855725511742635 0.21795668366294088
0.24125916141966255 0.31751826168737424
0.20396106772189876 0.516641417736241
0.25990820826854444 0.5664222067484576
0.20396106772189876 0.31751826168737424
0.054768692930843604 0.11839510563850754
-0.05712558816244777 0.06861431662629086
-0.11307272870909345 0.21795668366294088
-0.13172177555797535 0.2677374726751576
-0.15037082240685723 0.11839510563850754
-0.16901986925573914 0.01883352761407419
-0.22496700980238482 -0.13050883942257582
-0.2809141503490305 -0.13050883942257582
-0.2622651035001486 0.06861431662629086
-0.18766891610462103 0.06861431662629086
-0.11307272870909345 0.06861431662629086
-0.18766891610462103 -0.08072805041035916
-0.22496700980238482 -0.1802896284347925
-0.3368612908956762 -0.13050883942257582
-0.3555103377445581 0.11839510563850754
-0.31821224404679427 0.11839510563850754
-0.2622651035001486 0.01883352761407419
-0.2622651035001486 -0.03094726139814248
-0.2995631971979124 -0.08072805041035916
-0.41145747829120377 0.06861431662629086
-0.44875557198896754 0.06861431662629086
-0.31821224404679427 0.16817589465072422
-0.31821224404679427 0.11839510563850754
-0.37415938459344 0.06861431662629086
-0.39280843144232186 0.01883352761407419
-0.41145747829120377 0.06861431662629086
-0.3368612908956762 0.16817589465072422
-0.22496700980238482 0.16817589465072422
-0.20631796295350294 0.11839510563850754
-0.2622651035001486 -0.08072805041035916
-0.2995631971979124 -0.08072805041035916
-0.3368612908956762 0.01883352761407419
-0.2809141503490305 -0.08072805041035916
-0.22496700980238482 0.06861431662629086
-0.20631796295350294 0.11839510563850754
-0.18766891610462103 -0.03094726139814248
-0.15037082240685723 -0.08072805041035916
-0.16901986925573914 -0.13050883942257582
-0.05712558816244777 0.01883352761407419
0.054768692930843604 0.11839510563850754
0.09206678662860739 0.31751826168737424
0.054768692930843604 0.41707983971180757
-0.07577463501132967 0.5664222067484576
-0.05712558816244777 0.3672990506995909
0.017470599233079812 0.46686062872402423
0.14801392717525308 0.5664222067484576
0.20396106772189876 0.5664222067484576
0.14801392717525308 0.516641417736241
0.0734177397797255 0.11839510563850754
0.03611964608196171 -0.03094726139814248
-0.03847654131356587 -0.03094726139814248
0.017470599233079812 -0.08072805041035916
0.11071583347748928 -0.08072805041035916
0.14801392717525308 -0.08072805041035916
0.16666297402413496 -0.1802896284347925
0.22261011457078064 -0.37941278448365917
0.24125916141966255 -0.37941278448365917
0.24125916141966255 -0.3296319954714425
0.12936488032637117 -0.42919357349587584
-0.019827494464683976 -0.5287551515203092
-0.09442368186021155 -0.6283167295447426
-0.09442368186021155 -0.7278783075691759
-0.03847654131356587 -0.6780975185569592
0.03611964608196171 -0.7278783075691759
-0.03847654131356587 -0.6780975185569592
-0.15037082240685723 -0.6780975185569592
-0.16901986925573914 -0.6283167295447426
-0.20631796295350294 -0.5785359405325259
-0.13172177555797535 -0.37941278448365917
-0.13172177555797535 -0.23007041744700918
-0.20631796295350294 -0.1802896284347925
-0.2809141503490305 -0.23007041744700918
-0.39280843144232186 -0.27985120645922584
-0.41145747829120377 -0.3296319954714425
-0.4301065251400857 -0.3296319954714425
-0.3368612908956762 -0.27985120645922584
-0.2995631971979124 -0.1802896284347925
-0.3555103377445581 -0.13050883942257582
-0.44875557198896754 -0.23007041744700918
-0.41145747829120377 -0.27985120645922584
-0.41145747829120377 -0.27985120645922584
-0.41145747829120377 -0.27985120645922584
-0.41145747829120377 -0.23007041744700918
-0.37415938459344 -0.23007041744700918
-0.37415938459344 -0.3296319954714425
-0.3555103377445581 -0.23007041744700918
-0.39280843144232186 -0.23007041744700918
-0.3555103377445581 -0.13050883942257582
-0.31821224404679427 -0.23007041744700918
-0.37415938459344 -0.23007041744700918
-0.46740461883784945 -0.1802896284347925
-0.5792988999311408 -0.13050883942257582
-0.728491274722196 -0.08072805041035916
-0.7657893684199598 0.2677374726751576
-0.728491274722196 0.7157645737851076
-0.6165969936289046 0.9148877298339743
-0.22496700980238482 0.9148877298339743
0.25990820826854444 0.8153261518095409
0.9685719885260564 0.964668518846191
1.8264281435746237 1.114010885882841
2.7029333454720725 1.0642300968706242
3.6353856879161675 1.0144493078584076
4.344049468173679 0.6659837847728909
4.530539936662499 0.06861431662629086
4.138909952835979 -0.8274398855936093
3.2251066572407656 -1.773274876825726
1.901024330970151 -2.519986712008976
0.11071583347748928 -2.818671446082276
-1.772837898259582 -2.8684522350944928
-2.9290788028902597 -2.7688906570700595
-3.0969202245301966 -2.7688906570700595
-2.83583356864585 -2.519986712008976
-2.4628526316682122 -2.5697675010211927
-2.14581883523722 -2.6195482900334093
-1.7541888514107002 -2.5697675010211927
-1.4931021955263537 -2.4702059229967595
-1.269313633339771 -2.221301977935676
-1.1574193522464795 -1.773274876825726
-1.0828231648509519 -1.325247775715776
-1.06417411800207 -1.2754669867035593
-1.0082269774554244 -1.0763438306546926
-0.9336307900598968 -1.0763438306546926
-0.896332696362133 -1.026563041642476
-0.8403855558154874 -0.8274398855936093
-0.8403855558154874 -0.7776590965813925
-0.8776836495132512 -0.6780975185569592
-0.8776836495132512 -0.7776590965813925
-0.8030874621177235 -0.7776590965813925
-0.728491274722196 -0.6780975185569592
-0.728491274722196 -0.5287551515203092
-0.7657893684199598 -0.3296319954714425
-0.9336307900598968 -0.47897436250809255
-0.896332696362133 -0.6780975185569592
-0.8776836495132512 -0.7278783075691759
-0.7657893684199598 -0.5287551515203092
-0.6538950873266683 -0.5785359405325259
-0.5792988999311408 -0.42919357349587584
-0.6165969936289046 -0.5287551515203092
-0.7098422278733141 -0.6283167295447426
-0.6725441341755503 -0.7776590965813925
-0.8030874621177235 -0.7278783075691759
-0.8030874621177235 -0.5287551515203092
-0.7844384152688416 -0.5785359405325259
-0.7098422278733141 -0.7278783075691759
-0.7657893684199598 -0.8772206746058259
-0.7657893684199598 -0.8772206746058259
-0.7657893684199598 -0.7776590965813925
-0.7098422278733141 -0.5785359405325259
-0.5792988999311408 -0.5785359405325259
-0.44875557198896754 -0.5785359405325259
-0.4301065251400857 -0.7278783075691759
-0.44875557198896754 -0.6780975185569592
-0.41145747829120377 -0.47897436250809255
-0.3555103377445581 -0.37941278448365917
-0.20631796295350294 -0.23007041744700918
-0.15037082240685723 -0.37941278448365917
-0.15037082240685723 -0.6283167295447426
-0.18766891610462103 -0.6283167295447426
-0.07577463501132967 -0.27985120645922584
0.0734177397797255 -0.23007041744700918
0.20396106772189876 -0.27985120645922584
0.22261011457078064 -0.3296319954714425
0.18531202087301687 -0.42919357349587584
0.0734177397797255 -0.42919357349587584
0.054768692930843604 -0.37941278448365917
0.16666297402413496 -0.1802896284347925
0.2972063019663082 -0.23007041744700918
0.33450439566407203 -0.23007041744700918
0.35315344251295394 -0.3296319954714425
0.3158553488151901 -0.27985120645922584
0.2972063019663082 -0.08072805041035916
0.4463986767573634 -0.03094726139814248
0.6515381920950643 0.01883352761407419
0.6701872389439462 0.06861431662629086
0.6328891452461823 -0.1802896284347925
0.5396439110017729 -0.08072805041035916
0.520994864152891 0.01883352761407419
0.5023458173040091 0.21795668366294088
0.48369677045512716 0.21795668366294088
0.4463986767573634 0.06861431662629086
0.3718024893618358 -0.08072805041035916
0.24125916141966255 -0.03094726139814248
0.18531202087301687 0.01883352761407419
0.16666297402413496 0.11839510563850754
0.11071583347748928 -0.08072805041035916
0.03611964608196171 -0.03094726139814248
-0.09442368186021155 -0.13050883942257582
-0.20631796295350294 -0.08072805041035916
-0.20631796295350294 0.01883352761407419
-0.20631796295350294 -0.03094726139814248
-0.22496700980238482 -0.13050883942257582
-0.2809141503490305 -0.1802896284347925
-0.2809141503490305 -0.13050883942257582
-0.2995631971979124 -0.1802896284347925
-0.3555103377445581 -0.13050883942257582
-0.46740461883784945 0.16817589465072422
-0.5233517593844952 0.01883352761407419
-0.6352460404777865 -0.03094726139814248
-0.7844384152688416 -0.08072805041035916
-0.8030874621177235 0.01883352761407419
-0.7471403215710779 -0.08072805041035916
-0.7098422278733141 0.01883352761407419
-0.6538950873266683 0.06861431662629086
-0.6538950873266683 0.06861431662629086
-0.6725441341755503 -0.13050883942257582
-0.7471403215710779 0.06861431662629086
-0.728491274722196 0.11839510563850754
-0.6165969936289046 0.16817589465072422
-0.5606498530822589 0.16817589465072422
-0.5792988999311408 0.11839510563850754
-0.6352460404777865 0.01883352761407419
-0.7657893684199598 -0.03094726139814248
-0.728491274722196 0.06861431662629086
-0.6352460404777865 0.16817589465072422
-0.5979479467800227 0.21795668366294088
-0.6165969936289046 -0.03094726139814248
-0.6538950873266683 -0.08072805041035916
-0.6911931810244322 -0.1802896284347925
-0.5979479467800227 0.01883352761407419
-0.5233517593844952 0.06861431662629086
-0.46740461883784945 0.16817589465072422
-0.4301065251400857 0.01883352761407419
-0.48605366568673136 -0.08072805041035916
-0.5047027125356133 -0.03094726139814248
-0.44875557198896754 0.11839510563850754
-0.39280843144232186 0.2677374726751576
-0.3368612908956762 0.31751826168737424
-0.3555103377445581 0.2677374726751576
-0.4301065251400857 0.21795668366294088
-0.44875557198896754 0.16817589465072422
-0.44875557198896754 0.41707983971180757
-0.3368612908956762 0.41707983971180757
-0.2622651035001486 0.41707983971180757
-0.20631796295350294 0.46686062872402423
-0.22496700980238482 0.46686062872402423
-0.2622651035001486 0.46686062872402423
-0.20631796295350294 0.6162029957606743
-0.15037082240685723 0.7655453627973243
-0.05712558816244777 0.7655453627973243
-0.07577463501132967 0.7655453627973243
-0.16901986925573914 0.7157645737851076
-0.15037082240685723 0.5664222067484576
-0.09442368186021155 0.46686062872402423
-0.05712558816244777 0.41707983971180757
-0.09442368186021155 0.2677374726751576
-0.16901986925573914 0.16817589465072422
-0.2995631971979124 -0.1802896284347925
-0.2622651035001486 -0.23007041744700918
-0.2436160566512667 -0.08072805041035916
-0.15037082240685723 -0.03094726139814248
-0.18766891610462103 -0.03094726139814248
-0.20631796295350294 -0.13050883942257582
-0.2622651035001486 -0.13050883942257582
-0.3368612908956762 -0.23007041744700918
-0.37415938459344 -0.23007041744700918
-0.41145747829120377 -0.3296319954714425
-0.39280843144232186 -0.3296319954714425
-0.3555103377445581 -0.3296319954714425
-0.41145747829120377 -0.23007041744700918
-0.41145747829120377 -0.27985120645922584
-0.44875557198896754 -0.13050883942257582
-0.41145747829120377 0.16817589465072422
-0.3368612908956762 0.21795668366294088
-0.44875557198896754 0.3672990506995909
-0.5233517593844952 0.41707983971180757
-0.5792988999311408 0.31751826168737424
-0.7471403215710779 0.2677374726751576
-0.7844384152688416 0.2677374726751576
-0.7844384152688416 0.2677374726751576
-0.728491274722196 0.31751826168737424
-0.7657893684199598 0.16817589465072422
-0.7098422278733141 0.11839510563850754
-0.6911931810244322 0.2677374726751576
-0.6725441341755503 0.31751826168737424
-0.6352460404777865 0.41707983971180757
-0.6725441341755503 0.31751826168737424
-0.7844384152688416 0.11839510563850754
-0.8403855558154874 0.11839510563850754
-0.8030874621177235 0.31751826168737424
-0.7844384152688416 0.41707983971180757
-0.6911931810244322 0.46686062872402423
-0.6911931810244322 0.41707983971180757
-0.728491274722196 0.21795668366294088
-0.728491274722196 0.21795668366294088
-0.7657893684199598 0.2677374726751576
-0.8217365089666054 0.41707983971180757
-0.9336307900598968 0.41707983971180757
-1.06417411800207 0.6162029957606743
-1.1760683990953615 0.9148877298339743
-1.1574193522464795 1.2135724639072742
-0.9522798369087787 1.5122571979805743
-0.542000806233377 1.8109419320538744
-0.11307272870909345 1.7611611430416576
0.4650477236062453 1.7611611430416576
1.1923605507126391 1.562037986992791
2.0875147994589702 1.3629148309439243
3.0199671419030647 1.4624764089683577
3.989717578044923 1.562037986992791
4.437294702418089 1.3629148309439243
4.232155187080388 0.6659837847728909
3.486193313125112 -0.08072805041035916
2.4045485958899624 -0.8772206746058259
0.8939758011305289 -1.1759054086791259
-0.8403855558154874 -0.9270014636180426
-2.332309303726039 -0.6780975185569592
-2.9850259434369053 -0.47897436250809255
-3.0036749902857873 -0.5785359405325259
-2.873131662343614 -0.6283167295447426
-2.649343100157031 -0.7278783075691759
-2.2390640694816293 -0.9270014636180426
-1.8101359919573459 -0.8274398855936093
-1.4931021955263537 -0.7776590965813925
-1.3625588675841804 -0.6283167295447426
-1.2320155396420072 -0.37941278448365917
-1.2320155396420072 -0.03094726139814248
-1.1201212585487157 0.21795668366294088
-1.0082269774554244 0.3672990506995909
-0.9709288837576606 0.31751826168737424
-0.9522798369087787 0.2677374726751576
-0.9522798369087787 0.31751826168737424
-0.9522798369087787 0.46686062872402423
-0.8403855558154874 0.516641417736241
-0.8217365089666054 0.516641417736241
-0.7844384152688416 0.5664222067484576
-0.8030874621177235 0.31751826168737424
-0.7657893684199598 0.41707983971180757
-0.7471403215710779 0.5664222067484576
-0.6911931810244322 0.6162029957606743
-0.5792988999311408 0.7157645737851076
-0.542000806233377 0.7655453627973243
-0.5792988999311408 0.6659837847728909
-0.5792988999311408 0.6162029957606743
-0.48605366568673136 0.6659837847728909
-0.4301065251400857 0.7157645737851076
-0.3368612908956762 0.8153261518095409
-0.3368612908956762 0.7157645737851076
-0.3555103377445581 0.5664222067484576
-0.4301065251400857 0.6162029957606743
-0.37415938459344 0.7157645737851076
-0.3368612908956762 0.8651069408217577
-0.39280843144232186 1.0642300968706242
-0.39280843144232186 1.0144493078584076
-0.3555103377445581 0.7655453627973243
-0.37415938459344 0.8153261518095409
-0.31821224404679427 0.7157645737851076
-0.22496700980238482 0.8651069408217577
-0.20631796295350294 0.8651069408217577
-0.22496700980238482 0.8153261518095409
-0.18766891610462103 0.7157645737851076
-0.09442368186021155 0.6162029957606743
-0.019827494464683976 0.6659837847728909
0.0734177397797255 0.7157645737851076
0.14801392717525308 0.8153261518095409
0.16666297402413496 0.8153261518095409
0.24125916141966255 0.7157645737851076
0.25990820826854444 0.6659837847728909
0.33450439566407203 0.6659837847728909
0.3718024893618358 0.7157645737851076
0.5023458173040091 0.7655453627973243
0.520994864152891 0.7655453627973243
0.5955910515484185 0.6659837847728909
0.6701872389439462 0.5664222067484576
0.6515381920950643 0.6162029957606743
0.6701872389439462 0.6162029957606743
0.7261343794905918 0.8651069408217577
0.7820815200372375 0.7655453627973243
0.7634324731883556 0.7655453627973243
0.7634324731883556 0.516641417736241
0.7634324731883556 0.6659837847728909
0.8007305668861194 0.7655453627973243
0.7820815200372375 0.9148877298339743
0.7074853326417099 0.8153261518095409
0.7074853326417099 0.6162029957606743
0.7820815200372375 0.7157645737851076
0.7820815200372375 0.6659837847728909
0.8193796137350012 0.6162029957606743
0.8939758011305289 0.8153261518095409
0.8939758011305289 0.6659837847728909
0.9126248479794108 0.516641417736241
0.9312738948282927 0.6162029957606743
0.8193796137350012 0.5664222067484576
0.7820815200372375 0.7157645737851076
0.7074853326417099 0.8651069408217577
0.6701872389439462 0.964668518846191
0.6701872389439462 0.8651069408217577
0.5769420046995366 0.7655453627973243
0.5582929578506548 0.8651069408217577
0.5396439110017729 0.6659837847728909
0.5396439110017729 0.6162029957606743
0.5023458173040091 0.46686062872402423
0.4650477236062453 0.31751826168737424
0.3718024893618358 0.11839510563850754
0.24125916141966255 -0.08072805041035916
0.18531202087301687 0.01883352761407419
0.16666297402413496 0.06861431662629086
0.0734177397797255 0.2677374726751576
-0.0011784476158020825 0.16817589465072422
-0.0011784476158020825 0.21795668366294088
-0.019827494464683976 0.516641417736241
-0.05712558816244777 0.6659837847728909
-0.09442368186021155 1.0144493078584076
-0.16901986925573914 1.0144493078584076
-0.20631796295350294 1.0144493078584076
-0.2809141503490305 0.8651069408217577
-0.3368612908956762 0.6659837847728909
-0.3555103377445581 0.6659837847728909
-0.41145747829120377 0.516641417736241
-0.44875557198896754 0.516641417736241
-0.5233517593844952 0.516641417736241
-0.5233517593844952 0.3672990506995909
-0.5233517593844952 0.5664222067484576
-0.48605366568673136 0.5664222067484576
-0.5233517593844952 0.7655453627973243
-0.5606498530822589 0.7157645737851076
-0.5606498530822589 0.46686062872402423
-0.5233517593844952 0.516641417736241
-0.5792988999311408 0.6162029957606743
-0.5792988999311408 0.8153261518095409
-0.542000806233377 0.8651069408217577
-0.48605366568673136 0.8651069408217577
-0.5792988999311408 0.8651069408217577
-0.5979479467800227 0.9148877298339743
-0.6165969936289046 1.1637916748950576
-0.5979479467800227 1.6118187760050078
-0.6165969936289046 1.711380354029441
-0.5233517593844952 1.7611611430416576
-0.5233517593844952 1.4624764089683577
-0.5047027125356133 1.114010885882841
-0.44875557198896754 0.9148877298339743
-0.48605366568673136 0.9148877298339743
-0.5047027125356133 1.2135724639072742
-0.5606498530822589 1.711380354029441
-0.5792988999311408 1.6118187760050078
-0.6352460404777865 1.263353252919491
-0.6538950873266683 1.114010885882841
-0.5979479467800227 1.263353252919491
-0.3555103377445581 1.4624764089683577
0.11071583347748928 1.8109419320538744
0.6701872389439462 2.010065088102741
1.4534472065969857 2.0598458771149577
2.4045485958899624 2.159407455139391
3.337000938334057 2.0598458771149577
4.288102327627033 1.860722721066091
4.922169920489018 1.3629148309439243
4.791626592546844 0.41707983971180757
3.85917425010275 -0.8274398855936093
2.162110986854498 -1.8230556658379427
0.22261011457078064 -2.1715211889234594
-1.604996476619645 -1.8728364548501593
-2.9104297560413777 -1.5243709317646426
-3.1155692713790786 -1.5243709317646426
-2.500150725365976 -1.7234940878135094
-1.7168907577129364 -1.7234940878135094
-1.0268760243043062 -1.3750285647279927
-0.728491274722196 -0.9767822526302593
-0.5979479467800227 -0.47897436250809255
-0.542000806233377 -0.3296319954714425
-0.4301065251400857 -0.13050883942257582
-0.3555103377445581 0.06861431662629086
-0.44875557198896754 0.31751826168737424
-0.4301065251400857 0.46686062872402423
-0.44875557198896754 0.5664222067484576
-0.44875557198896754 0.41707983971180757
-0.5047027125356133 0.3672990506995909
-0.5792988999311408 0.516641417736241
-0.542000806233377 0.6162029957606743
-0.5233517593844952 0.7655453627973243
-0.5233517593844952 0.7655453627973243
-0.48605366568673136 0.6659837847728909
-0.46740461883784945 0.5664222067484576
-0.542000806233377 0.6162029957606743
-0.542000806233377 0.8153261518095409
-0.5606498530822589 0.7157645737851076
-0.5606498530822589 0.7157645737851076
-0.48605366568673136 0.46686062872402423
-0.48605366568673136 0.3672990506995909
-0.542000806233377 0.516641417736241
-0.5047027125356133 0.8651069408217577
-0.48605366568673136 0.9148877298339743
-0.5233517593844952 0.8651069408217577
-0.5606498530822589 0.6162029957606743
-0.5047027125356133 0.46686062872402423
-0.46740461883784945 0.516641417736241
-0.46740461883784945 0.6162029957606743
-0.37415938459344 0.8153261518095409
-0.31821224404679427 0.6162029957606743
-0.2995631971979124 0.41707983971180757
-0.2995631971979124 0.16817589465072422
-0.2622651035001486 0.11839510563850754
-0.22496700980238482 0.31751826168737424
-0.22496700980238482 0.46686062872402423
-0.2809141503490305 0.3672990506995909
-0.2809141503490305 0.21795668366294088
-0.2809141503490305 0.31751826168737424
-0.2995631971979124 0.3672990506995909
-0.2436160566512667 0.516641417736241
-0.15037082240685723 0.6659837847728909
-0.019827494464683976 0.9148877298339743
0.054768692930843604 0.7655453627973243
0.054768692930843604 0.7157645737851076
0.03611964608196171 0.9148877298339743
0.054768692930843604 1.114010885882841
0.11071583347748928 1.1637916748950576
0.20396106772189876 1.0642300968706242
0.27855725511742635 0.8651069408217577
0.25990820826854444 0.6162029957606743
0.25990820826854444 0.5664222067484576
0.3718024893618358 0.6659837847728909
0.4091005830595996 1.0144493078584076
0.3904515362107177 1.263353252919491
0.3718024893618358 1.3131340419317077
0.35315344251295394 1.5122571979805743
0.3718024893618358 1.5122571979805743
0.35315344251295394 1.5122571979805743
0.35315344251295394 1.5122571979805743
0.35315344251295394 1.3629148309439243
0.4091005830595996 1.0144493078584076
0.4277496299084815 0.7157645737851076
0.4463986767573634 0.6162029957606743
0.4277496299084815 0.7157645737851076
0.3904515362107177 0.6659837847728909
0.33450439566407203 0.7157645737851076
0.2972063019663082 0.3672990506995909
0.27855725511742635 0.21795668366294088
0.22261011457078064 0.21795668366294088
0.16666297402413496 0.41707983971180757
0.0734177397797255 0.6162029957606743
0.03611964608196171 0.6659837847728909
0.017470599233079812 0.6162029957606743
-0.09442368186021155 0.516641417736241
-0.16901986925573914 0.5664222067484576
-0.22496700980238482 0.8651069408217577
-0.15037082240685723 0.9148877298339743
-0.16901986925573914 1.114010885882841
-0.2436160566512667 0.8651069408217577
-0.3368612908956762 0.5664222067484576
-0.44875557198896754 0.6162029957606743
-0.44875557198896754 0.7157645737851076
-0.44875557198896754 0.8153261518095409
-0.39280843144232186 0.5664222067484576
-0.41145747829120377 0.31751826168737424
-0.44875557198896754 0.16817589465072422
-0.4301065251400857 0.31751826168737424
-0.39280843144232186 0.6162029957606743
-0.37415938459344 0.964668518846191
-0.37415938459344 0.9148877298339743
-0.39280843144232186 0.7157645737851076
-0.41145747829120377 0.5664222067484576
-0.5047027125356133 0.7157645737851076
-0.5047027125356133 1.1637916748950576
-0.46740461883784945 1.562037986992791
-0.44875557198896754 1.5122571979805743
-0.4301065251400857 1.3131340419317077
-0.44875557198896754 1.114010885882841
-0.39280843144232186 1.0642300968706242
-0.3555103377445581 0.9148877298339743
-0.2995631971979124 0.8153261518095409
-0.2995631971979124 0.8651069408217577
-0.3555103377445581 0.9148877298339743
-0.4301065251400857 1.114010885882841
-0.44875557198896754 1.1637916748950576
-0.4301065251400857 1.263353252919491
-0.3368612908956762 0.9148877298339743
-0.2995631971979124 0.5664222067484576
-0.2995631971979124 0.41707983971180757
-0.2995631971979124 0.516641417736241
-0.31821224404679427 0.46686062872402423
-0.39280843144232186 0.5664222067484576
-0.3555103377445581 0.46686062872402423
-0.41145747829120377 0.46686062872402423
-0.44875557198896754 0.46686062872402423
-0.5047027125356133 0.516641417736241
-0.5233517593844952 0.6162029957606743
-0.5047027125356133 0.7655453627973243
-0.4301065251400857 0.8153261518095409
-0.44875557198896754 0.8153261518095409
-0.5233517593844952 0.6659837847728909
-0.6165969936289046 0.6162029957606743
-0.5792988999311408 0.7157645737851076
-0.6352460404777865 0.964668518846191
-0.5792988999311408 1.0144493078584076
-0.5606498530822589 0.9148877298339743
-0.5606498530822589 1.0642300968706242
-0.6352460404777865 1.0144493078584076
-0.7471403215710779 1.412695619956141
-0.6725441341755503 1.6118187760050078
-0.6538950873266683 1.7611611430416576
-0.6165969936289046 1.412695619956141
-0.6165969936289046 1.0144493078584076
-0.6352460404777865 0.8651069408217577
-0.6911931810244322 1.0144493078584076
-0.6538950873266683 1.263353252919491
-0.5979479467800227 1.114010885882841
-0.542000806233377 0.964668518846191
-0.6538950873266683 0.7655453627973243
-0.7844384152688416 0.9148877298339743
-0.8776836495132512 1.0144493078584076
-0.8030874621177235 0.8651069408217577
-0.6911931810244322 0.6659837847728909
-0.6725441341755503 0.46686062872402423
-0.6538950873266683 0.2677374726751576
-0.6352460404777865 0.21795668366294088
-0.6165969936289046 0.3672990506995909
-0.5606498530822589 0.6162029957606743
-0.5606498530822589 0.7655453627973243
-0.5792988999311408 0.8651069408217577
-0.5606498530822589 1.0144493078584076
-0.6165969936289046 1.0642300968706242
-0.6725441341755503 1.2135724639072742
-0.5979479467800227 1.412695619956141
-0.48605366568673136 1.412695619956141
-0.41145747829120377 1.114010885882841
-0.4301065251400857 0.5664222067484576
-0.39280843144232186 0.3672990506995909
-0.3555103377445581 0.6162029957606743
-0.22496700980238482 1.0144493078584076
-0.13172177555797535 1.1637916748950576
-0.13172177555797535 1.2135724639072742
-0.16901986925573914 1.263353252919491
-0.2436160566512667 1.2135724639072742
-0.22496700980238482 1.263353252919491
-0.13172177555797535 1.3629148309439243
-0.09442368186021155 1.412695619956141
-0.13172177555797535 1.1637916748950576
-0.18766891610462103 0.9148877298339743
-0.31821224404679427 0.964668518846191
-0.3368612908956762 0.964668518846191
-0.3555103377445581 0.964668518846191
-0.37415938459344 0.8153261518095409
-0.3555103377445581 0.8153261518095409
-0.37415938459344 0.7157645737851076
-0.37415938459344 0.6162029957606743
-0.37415938459344 0.7157645737851076
-0.31821224404679427 0.964668518846191
-0.2995631971979124 1.114010885882841
-0.2809141503490305 1.1637916748950576
-0.31821224404679427 0.8153261518095409
-0.2622651035001486 0.21795668366294088
-0.2436160566512667 -0.23007041744700918
-0.20631796295350294 -0.08072805041035916
-0.18766891610462103 -0.03094726139814248
-0.2622651035001486 0.01883352761407419
-0.2622651035001486 0.06861431662629086
-0.2622651035001486 0.06861431662629086
-0.2622651035001486 0.3672990506995909
-0.2809141503490305 0.6162029957606743
-0.31821224404679427 0.8651069408217577
-0.2809141503490305 0.7655453627973243
-0.3555103377445581 0.7655453627973243
-0.44875557198896754 0.6162029957606743
-0.6165969936289046 0.6659837847728909
-0.6725441341755503 0.8153261518095409
-0.6352460404777865 0.8153261518095409
-0.6352460404777865 0.9148877298339743
-0.728491274722196 0.964668518846191
-0.6911931810244322 1.114010885882841
-0.7098422278733141 1.3131340419317077
-0.6911931810244322 1.1637916748950576
-0.6165969936289046 1.0642300968706242
-0.6725441341755503 0.9148877298339743
-0.7098422278733141 0.9148877298339743
-0.728491274722196 0.964668518846191
-0.6911931810244322 1.0144493078584076
-0.6911931810244322 0.8153261518095409
-0.6538950873266683 0.6162029957606743
-0.6911931810244322 0.46686062872402423
-0.728491274722196 0.46686062872402423
-0.7844384152688416 0.3672990506995909
-0.8776836495132512 0.8153261518095409
-0.896332696362133 1.4624764089683577
-0.8776836495132512 1.8109419320538744
-0.8590346026643693 1.860722721066091
-0.8030874621177235 1.860722721066091
-0.542000806233377 1.9602842990905245
-0.03847654131356587 2.1096266661271743
0.520994864152891 2.1096266661271743
1.1923605507126391 1.9602842990905245
2.0129186120634426 1.7611611430416576
2.8894238139608914 1.4624764089683577
3.6167366410672854 1.4624764089683577
3.9524194843471596 1.114010885882841
3.709981875311695 0.516641417736241
2.833476673414246 -0.47897436250809255
1.4161491128992219 -1.474590142752426
-0.31821224404679427 -1.6737132988012926
-2.0712226478416924 -1.3750285647279927
-3.264761646170134 -0.8274398855936093
-3.4512521146589528 -0.1802896284347925
-3.040973083983551 -0.03094726139814248
-2.6866411938547947 0.06861431662629086
-2.350958350574921 -0.23007041744700918
-2.033924554143929 -0.6283167295447426
-1.6795926640151726 -0.8274398855936093
-1.4931021955263537 -0.5287551515203092
-1.3812079144330622 -0.27985120645922584
-1.3066117270375348 0.11839510563850754
-1.2320155396420072 0.46686062872402423
-1.1574193522464795 0.5664222067484576
-1.101472211699834 0.516641417736241
-1.0455250711531883 0.7157645737851076
-1.0082269774554244 0.6659837847728909
-0.9895779306065425 0.516641417736241
-1.06417411800207 0.2677374726751576
-1.1387703053975977 0.11839510563850754
-1.2320155396420072 0.16817589465072422
-1.1574193522464795 0.31751826168737424
-1.101472211699834 0.516641417736241
-1.06417411800207 0.516641417736241
-1.06417411800207 0.5664222067484576
-1.1201212585487157 0.5664222067484576
-1.1574193522464795 0.7655453627973243
-1.101472211699834 0.964668518846191
-1.0455250711531883 0.9148877298339743
-0.9895779306065425 0.8153261518095409
-0.9709288837576606 0.7157645737851076
-1.0082269774554244 0.6162029957606743
-1.0268760243043062 0.6659837847728909
-0.9709288837576606 0.7655453627973243
-0.9709288837576606 0.8651069408217577
-0.8776836495132512 0.8651069408217577
-0.9709288837576606 0.7655453627973243
-0.9709288837576606 0.7157645737851076
-0.8776836495132512 1.0144493078584076
-0.8403855558154874 1.1637916748950576
-0.7471403215710779 1.3131340419317077
-0.7657893684199598 1.412695619956141
-0.7098422278733141 1.4624764089683577
-0.6911931810244322 1.412695619956141
-0.6725441341755503 1.263353252919491
-0.5792988999311408 1.0642300968706242
-0.5979479467800227 0.8651069408217577
-0.5606498530822589 0.41707983971180757
-0.5792988999311408 0.11839510563850754
-0.5047027125356133 -0.03094726139814248
-0.37415938459344 0.21795668366294088
-0.2436160566512667 0.41707983971180757
-0.13172177555797535 0.46686062872402423
-0.07577463501132967 0.516641417736241
-0.11307272870909345 0.516641417736241
-0.11307272870909345 0.6659837847728909
-0.05712558816244777 0.7655453627973243
0.017470599233079812 0.964668518846191
0.09206678662860739 0.9148877298339743
0.054768692930843604 0.964668518846191
-0.05712558816244777 1.0144493078584076
-0.09442368186021155 1.0642300968706242
-0.09442368186021155 1.1637916748950576
-0.03847654131356587 1.1637916748950576
-0.05712558816244777 1.263353252919491
-0.11307272870909345 1.3629148309439243
-0.15037082240685723 1.3629148309439243
-0.11307272870909345 1.263353252919491
-0.019827494464683976 1.2135724639072742
0.09206678662860739 1.263353252919491
0.12936488032637117 1.263353252919491
0.0734177397797255 1.3629148309439243
-0.05712558816244777 1.6118187760050078
-0.20631796295350294 1.860722721066091
-0.2622651035001486 2.0598458771149577
-0.18766891610462103 1.860722721066091
-0.07577463501132967 1.5122571979805743
-0.05712558816244777 1.3629148309439243
-0.07577463501132967 1.3131340419317077
-0.09442368186021155 1.114010885882841
-0.019827494464683976 0.8651069408217577
0.11071583347748928 0.7655453627973243
0.18531202087301687 0.7157645737851076
0.16666297402413496 0.6162029957606743
0.0734177397797255 0.2677374726751576
-0.019827494464683976 0.11839510563850754
-0.09442368186021155 0.16817589465072422
-0.11307272870909345 0.46686062872402423
-0.11307272870909345 0.6162029957606743
-0.18766891610462103 0.7157645737851076
-0.39280843144232186 0.6659837847728909
-0.5606498530822589 0.46686062872402423
-0.6538950873266683 0.5664222067484576
-0.5233517593844952 0.8153261518095409
-0.39280843144232186 0.9148877298339743
-0.39280843144232186 0.9148877298339743
-0.44875557198896754 0.7655453627973243
-0.542000806233377 0.6659837847728909
-0.5792988999311408 0.7157645737851076
-0.5233517593844952 0.7655453627973243
-0.5047027125356133 1.0144493078584076
-0.5233517593844952 1.114010885882841
-0.5606498530822589 1.2135724639072742
-0.542000806233377 1.3629148309439243
-0.4301065251400857 1.562037986992791
-0.20631796295350294 1.412695619956141
-0.09442368186021155 1.0642300968706242
-0.16901986925573914 0.7655453627973243
-0.15037082240685723 0.6162029957606743
-0.07577463501132967 0.6659837847728909
-0.03847654131356587 0.6659837847728909
-0.13172177555797535 0.7157645737851076
-0.15037082240685723 0.6659837847728909
-0.2622651035001486 0.5664222067484576
-0.31821224404679427 0.2677374726751576
-0.31821224404679427 0.16817589465072422
-0.2622651035001486 0.41707983971180757
-0.15037082240685723 0.6659837847728909
-0.019827494464683976 0.5664222067484576
-0.05712558816244777 0.46686062872402423
-0.019827494464683976 0.3672990506995909
-0.03847654131356587 0.31751826168737424
-0.07577463501132967 0.5664222067484576
-0.05712558816244777 0.7157645737851076
-0.07577463501132967 0.8651069408217577
-0.09442368186021155 0.8153261518095409
-0.03847654131356587 0.516641417736241
0.0734177397797255 0.3672990506995909
0.14801392717525308 0.41707983971180757
0.25990820826854444 0.41707983971180757
0.27855725511742635 0.41707983971180757
0.24125916141966255 0.46686062872402423
0.24125916141966255 0.46686062872402423
0.18531202087301687 0.7157645737851076
0.24125916141966255 0.9148877298339743
0.35315344251295394 0.964668518846191
0.4091005830595996 0.964668518846191
0.3718024893618358 0.8651069408217577
0.24125916141966255 0.6659837847728909
0.14801392717525308 0.2677374726751576
0.12936488032637117 0.01883352761407419
0.20396106772189876 0.21795668366294088
0.2972063019663082 0.2677374726751576
0.25990820826854444 0.31751826168737424
0.16666297402413496 0.16817589465072422
0.03611964608196171 0.2677374726751576
-0.019827494464683976 0.3672990506995909
-0.05712558816244777 0.41707983971180757
-0.0011784476158020825 0.41707983971180757
0.017470599233079812 0.41707983971180757
-0.09442368186021155 0.2677374726751576
-0.13172177555797535 0.16817589465072422
-0.22496700980238482 -0.03094726139814248
-0.3368612908956762 0.01883352761407419
-0.41145747829120377 0.11839510563850754
-0.3555103377445581 0.2677374726751576
-0.3555103377445581 0.16817589465072422
-0.41145747829120377 0.06861431662629086
-0.39280843144232186 -0.13050883942257582
-0.46740461883784945 0.01883352761407419
-0.542000806233377 0.3672990506995909
-0.542000806233377 0.5664222067484576
-0.5606498530822589 0.2677374726751576
-0.6538950873266683 0.01883352761407419
-0.728491274722196 -0.08072805041035916
-0.5792988999311408 0.01883352761407419
-0.44875557198896754 0.21795668366294088
-0.39280843144232186 0.16817589465072422
-0.48605366568673136 0.21795668366294088
-0.6352460404777865 0.31751826168737424
-0.728491274722196 0.41707983971180757
-0.6538950873266683 0.41707983971180757
-0.5979479467800227 0.3672990506995909
-0.5047027125356133 0.16817589465072422
-0.542000806233377 0.21795668366294088
-0.7098422278733141 0.21795668366294088
-0.7471403215710779 0.31751826168737424
-0.728491274722196 0.5664222067484576
-0.896332696362133 0.5664222067484576
-1.1387703053975977 0.5664222067484576
-1.2320155396420072 0.7655453627973243
-1.101472211699834 0.7655453627973243
-0.8030874621177235 0.8153261518095409
-0.2622651035001486 1.0144493078584076
0.5769420046995366 1.1637916748950576
1.6772357687835684 0.8651069408217577
2.852125720263128 0.7157645737851076
3.8218761564049863 0.7655453627973243
4.120260905987097 0.31751826168737424
3.504842359973994 -0.6283167295447426
2.0129186120634426 -1.4248093537402093
-0.3368612908956762 -1.623932509789076
-2.3696073974238026 -1.1261246196669092
-3.0969202245301966 -1.026563041642476
-2.7239392875525588 -0.9767822526302593
-2.0898716946905744 -1.1261246196669092
-1.4931021955263537 -1.0763438306546926
-1.1947174459442433 -0.8772206746058259
-1.0828231648509519 -0.6283167295447426
-0.9522798369087787 -0.37941278448365917
-0.9149817432110149 -0.3296319954714425
-0.7844384152688416 -0.42919357349587584
-0.7471403215710779 -0.5785359405325259
-0.8217365089666054 -0.5287551515203092
-0.8403855558154874 -0.5785359405325259
-0.7471403215710779 -0.6283167295447426
-0.6165969936289046 -0.42919357349587584
-0.5606498530822589 -0.27985120645922584
-0.542000806233377 -0.08072805041035916
-0.5233517593844952 -0.1802896284347925
-0.46740461883784945 -0.3296319954714425
-0.44875557198896754 -0.37941278448365917
-0.44875557198896754 -0.23007041744700918
-0.37415938459344 -0.03094726139814248
-0.4301065251400857 0.11839510563850754
-0.5047027125356133 -0.03094726139814248
-0.48605366568673136 -0.1802896284347925
-0.48605366568673136 -0.1802896284347925
-0.44875557198896754 0.01883352761407419
-0.41145747829120377 0.06861431662629086
-0.37415938459344 0.06861431662629086
-0.31821224404679427 0.2677374726751576
-0.3555103377445581 0.2677374726751576
-0.39280843144232186 0.46686062872402423
-0.46740461883784945 0.7157645737851076
-0.41145747829120377 0.8153261518095409
-0.2622651035001486 0.11839510563850754
-0.15037082240685723 -1.1759054086791259
-0.20631796295350294 -1.8728364548501593
-0.22496700980238482 -1.6737132988012926
-0.16901986925573914 -1.2754669867035593
-0.05712558816244777 -0.9767822526302593
0.054768692930843604 -1.026563041642476
0.0734177397797255 -1.026563041642476
-0.019827494464683976 -0.8772206746058259
-0.11307272870909345 -0.7776590965813925
-0.09442368186021155 -0.6283167295447426
0.017470599233079812 -0.5785359405325259
0.09206678662860739 -0.47897436250809255
0.18531202087301687 -0.42919357349587584
0.14801392717525308 -0.6283167295447426
0.11071583347748928 -0.42919357349587584
0.09206678662860739 -0.42919357349587584
0.20396106772189876 -0.37941278448365917
0.4091005830595996 -0.23007041744700918
0.4650477236062453 -0.42919357349587584
0.35315344251295394 -0.6283167295447426
0.22261011457078064 -0.7278783075691759
0.16666297402413496 -0.6780975185569592
0.27855725511742635 -0.3296319954714425
0.4650477236062453 -0.37941278448365917
0.48369677045512716 -0.42919357349587584
0.4650477236062453 -0.42919357349587584
0.4650477236062453 -0.3296319954714425
0.4463986767573634 -0.23007041744700918
0.520994864152891 0.06861431662629086
0.48369677045512716 0.01883352761407419
0.4091005830595996 0.2677374726751576
0.25990820826854444 0.3672990506995909
0.14801392717525308 0.6659837847728909
0.22261011457078064 1.0144493078584076
0.3158553488151901 1.2135724639072742
0.4463986767573634 1.114010885882841
0.4463986767573634 0.41707983971180757
0.33450439566407203 -0.27985120645922584
0.22261011457078064 -0.7278783075691759
0.16666297402413496 -1.1261246196669092
0.11071583347748928 -1.2256861976913427
0.11071583347748928 -1.2256861976913427
0.054768692930843604 -1.1261246196669092
-0.07577463501132967 -1.2256861976913427
-0.2436160566512667 -1.0763438306546926
-0.31821224404679427 -0.9270014636180426
-0.2995631971979124 -0.7776590965813925
-0.37415938459344 -0.6283167295447426
-0.39280843144232186 -0.5785359405325259
-0.5233517593844952 -0.6283167295447426
-0.5233517593844952 -0.47897436250809255
-0.5979479467800227 -0.27985120645922584
-0.5233517593844952 -0.23007041744700918
-0.44875557198896754 -0.23007041744700918
-0.41145747829120377 -0.3296319954714425
-0.5233517593844952 -0.5785359405325259
-0.728491274722196 -0.42919357349587584
-0.7471403215710779 -0.23007041744700918
-0.6725441341755503 0.01883352761407419
-0.6165969936289046 0.516641417736241
-0.48605366568673136 0.8651069408217577
-0.39280843144232186 0.964668518846191
-0.46740461883784945 0.7157645737851076
-0.5979479467800227 0.11839510563850754
-0.6352460404777865 -0.47897436250809255
-0.5979479467800227 -0.9270014636180426
-0.6165969936289046 -1.026563041642476
-0.7098422278733141 -0.8274398855936093
-0.6725441341755503 -0.7776590965813925
-0.6725441341755503 -0.6780975185569592
-0.5792988999311408 -0.6283167295447426
-0.5979479467800227 -0.47897436250809255
-0.6165969936289046 -0.5785359405325259
-0.5792988999311408 -0.5287551515203092
-0.5233517593844952 -0.5287551515203092
-0.5047027125356133 -0.37941278448365917
-0.46740461883784945 -0.3296319954714425
-0.31821224404679427 -0.23007041744700918
-0.37415938459344 -0.27985120645922584
-0.41145747829120377 -0.42919357349587584
-0.48605366568673136 -0.47897436250809255
-0.5233517593844952 -0.5287551515203092
-0.5047027125356133 -0.42919357349587584
-0.39280843144232186 -0.1802896284347925
-0.37415938459344 -0.08072805041035916
-0.4301065251400857 0.21795668366294088
-0.44875557198896754 0.11839510563850754
-0.39280843144232186 0.2677374726751576
-0.31821224404679427 0.01883352761407419
-0.2995631971979124 -0.13050883942257582
-0.3555103377445581 -0.1802896284347925
-0.2809141503490305 -0.03094726139814248
-0.18766891610462103 0.21795668366294088
-0.07577463501132967 0.16817589465072422
-0.05712558816244777 0.16817589465072422
-0.09442368186021155 -0.23007041744700918
-0.13172177555797535 -0.42919357349587584
-0.18766891610462103 -0.5287551515203092
-0.2436160566512667 -0.6780975185569592
-0.2809141503490305 -0.7278783075691759
-0.2809141503490305 -0.7776590965813925
-0.2622651035001486 -0.7278783075691759
-0.2436160566512667 -0.6780975185569592
-0.3368612908956762 -0.8274398855936093
-0.3555103377445581 -0.7776590965813925
-0.2622651035001486 -0.37941278448365917
-0.2809141503490305 0.06861431662629086
-0.2622651035001486 0.3672990506995909
-0.3368612908956762 0.31751826168737424
-0.41145747829120377 -0.13050883942257582
-0.542000806233377 -0.7278783075691759
-0.5233517593844952 -1.0763438306546926
-0.5047027125356133 -1.1261246196669092
-0.3368612908956762 -1.1759054086791259
-0.31821224404679427 -1.4248093537402093
-0.3555103377445581 -1.5243709317646426
-0.5047027125356133 -1.1261246196669092
-0.5792988999311408 -0.8274398855936093
-0.5792988999311408 -0.6780975185569592
-0.5233517593844952 -0.7776590965813925
-0.542000806233377 -0.9270014636180426
-0.5606498530822589 -0.9767822526302593
-0.6538950873266683 -0.9270014636180426
-0.7844384152688416 -0.9270014636180426
-0.8403855558154874 -0.7776590965813925
-0.7657893684199598 -0.5287551515203092
-0.728491274722196 -0.5785359405325259
-0.7098422278733141 -0.7278783075691759
-0.728491274722196 -0.7278783075691759
-0.728491274722196 -0.6780975185569592
-0.6911931810244322 -0.47897436250809255
-0.5792988999311408 -0.13050883942257582
-0.5792988999311408 0.06861431662629086
-0.5979479467800227 0.11839510563850754
-0.6165969936289046 0.06861431662629086
-0.6725441341755503 0.11839510563850754
-0.6538950873266683 0.516641417736241
-0.5233517593844952 0.8651069408217577
-0.5233517593844952 0.6659837847728909
-0.542000806233377 0.06861431662629086
-0.6538950873266683 -0.9270014636180426
-0.7471403215710779 -1.2256861976913427
-0.7657893684199598 -0.9767822526302593
-0.8403855558154874 -0.37941278448365917
-0.9149817432110149 0.01883352761407419
-0.9336307900598968 0.06861431662629086
-0.9149817432110149 0.01883352761407419
-0.6911931810244322 0.2677374726751576
-0.18766891610462103 0.5664222067484576
0.520994864152891 0.46686062872402423
1.3415529255036944 0.16817589465072422
2.143461940005616 -0.03094726139814248
2.982669048205301 0.11839510563850754
3.7659290158583407 0.11839510563850754
4.082962812289333 -0.03094726139814248
3.709981875311695 -0.6780975185569592
2.8894238139608914 -1.474590142752426
1.6399376750858046 -2.1217403999112427
-0.03847654131356587 -2.420425133984543
-1.7168907577129364 -2.071959610899026
-2.9290788028902597 -1.6737132988012926
-3.171516411925724 -1.3750285647279927
-2.8917807091924956 -1.325247775715776
-2.6866411938547947 -1.5243709317646426
-2.3882564442726846 -1.5741517207768594
-2.0525736009928104 -1.2754669867035593
-1.5863474297707632 -1.2754669867035593
-1.269313633339771 -1.2256861976913427
-1.1760683990953615 -1.2256861976913427
-1.101472211699834 -1.1261246196669092
-1.0082269774554244 -1.026563041642476
-0.8776836495132512 -0.8274398855936093
-0.7098422278733141 -0.7776590965813925
-0.6165969936289046 -0.8274398855936093
-0.6352460404777865 -0.6780975185569592
-0.728491274722196 -0.7776590965813925
-0.8030874621177235 -0.6780975185569592
-0.8403855558154874 -0.6283167295447426
-0.8030874621177235 -0.3296319954714425
-0.7657893684199598 -0.37941278448365917
-0.7657893684199598 -0.5287551515203092
-0.7844384152688416 -0.5287551515203092
-0.8030874621177235 -0.5287551515203092
-0.8030874621177235 -0.37941278448365917
-0.728491274722196 0.06861431662629086
-0.6538950873266683 0.2677374726751576
-0.5979479467800227 0.5664222067484576
-0.6165969936289046 0.7157645737851076
-0.542000806233377 0.31751826168737424
-0.5047027125356133 -0.6283167295447426
-0.5233517593844952 -1.2754669867035593
-0.4301065251400857 -1.325247775715776
-0.44875557198896754 -0.8274398855936093
-0.46740461883784945 -0.8772206746058259
-0.41145747829120377 -0.7278783075691759
-0.39280843144232186 -0.6283167295447426
-0.39280843144232186 -0.27985120645922584
-0.3368612908956762 -0.1802896284347925
-0.2809141503490305 0.06861431662629086
-0.2436160566512667 -0.5287551515203092
-0.2436160566512667 -0.7776590965813925
-0.2622651035001486 -0.6283167295447426
-0.15037082240685723 -0.47897436250809255
-0.05712558816244777 -0.23007041744700918
-0.0011784476158020825 -0.13050883942257582
-0.09442368186021155 -0.1802896284347925
-0.13172177555797535 0.16817589465072422
-0.18766891610462103 0.7655453627973243
-0.05712558816244777 1.3629148309439243
0.017470599233079812 1.412695619956141
0.0734177397797255 0.6659837847728909
0.18531202087301687 -0.37941278448365917
0.14801392717525308 -1.325247775715776
