-1.101472211699834 -1.026563041642476
-1.0455250711531883 -0.9270014636180426
-0.9709288837576606 -0.8274398855936093
-0.9522798369087787 -0.7776590965813925
-1.0455250711531883 -0.8772206746058259
-1.0082269774554244 -0.9767822526302593
-1.0828231648509519 -0.8772206746058259
-1.0268760243043062 -0.9767822526302593
-0.9895779306065425 -0.7278783075691759
-0.9522798369087787 -0.7776590965813925
-1.0268760243043062 -0.9270014636180426
-1.0268760243043062 -0.9270014636180426
-1.06417411800207 -0.8274398855936093
-0.9895779306065425 -0.6780975185569592
-0.9522798369087787 -0.37941278448365917
-0.896332696362133 -0.3296319954714425
-0.896332696362133 -0.13050883942257582
-0.9336307900598968 -0.23007041744700918
-1.0082269774554244 -0.23007041744700918
-0.9709288837576606 -0.1802896284347925
-0.9522798369087787 -0.08072805041035916
-0.896332696362133 0.16817589465072422
-0.896332696362133 0.31751826168737424
-0.8590346026643693 0.21795668366294088
-0.8217365089666054 -0.37941278448365917
-0.7657893684199598 -0.8274398855936093
-0.8030874621177235 -1.1261246196669092
-0.7844384152688416 -1.325247775715776
-0.8217365089666054 -1.3750285647279927
-0.8403855558154874 -1.5741517207768594
-0.896332696362133 -1.7234940878135094
-0.9149817432110149 -1.8230556658379427
-0.896332696362133 -1.7234940878135094
-0.8590346026643693 -1.7234940878135094
-0.896332696362133 -1.8230556658379427
-1.0082269774554244 -1.8728364548501593
-1.0268760243043062 -1.8230556658379427
-1.0455250711531883 -1.6737132988012926
-1.0268760243043062 -1.6737132988012926
-1.0268760243043062 -1.5243709317646426
-0.9895779306065425 -1.623932509789076
-1.0455250711531883 -1.7234940878135094
-1.101472211699834 -1.474590142752426
-1.0828231648509519 -1.325247775715776
-1.06417411800207 -1.1261246196669092
-1.0455250711531883 -1.0763438306546926
-1.1201212585487157 -0.9767822526302593
-1.2133664927931251 -1.026563041642476
-1.250664586490889 -0.9767822526302593
-1.250664586490889 -0.9767822526302593
-1.269313633339771 -0.7776590965813925
-1.3252607738864166 -0.7776590965813925
-1.3998569612819443 -0.8772206746058259
-1.4558041018285899 -0.9767822526302593
-1.437155054979708 -0.9767822526302593
-1.418506008130826 -0.9270014636180426
-1.3812079144330622 -0.6283167295447426
-1.3812079144330622 -0.6780975185569592
-1.418506008130826 -0.6780975185569592
-1.418506008130826 -0.7278783075691759
-1.437155054979708 -0.5287551515203092
-1.418506008130826 -0.5785359405325259
-1.3812079144330622 -0.27985120645922584
-1.3625588675841804 -0.27985120645922584
-1.3998569612819443 -0.27985120645922584
-1.4931021955263537 -0.37941278448365917
-1.4744531486774717 -0.3296319954714425
-1.4558041018285899 -0.1802896284347925
-1.3998569612819443 -0.3296319954714425
-1.3625588675841804 -0.47897436250809255
-1.3998569612819443 -0.9270014636180426
-1.418506008130826 -1.3750285647279927
-1.3812079144330622 -1.7234940878135094
-1.3625588675841804 -1.7234940878135094
-1.3812079144330622 -1.7234940878135094
-1.4931021955263537 -1.5243709317646426
-1.6422945703174088 -1.0763438306546926
-1.6609436171662908 -0.7776590965813925
-1.5676983829218811 -0.42919357349587584
-1.2879626801886528 -0.13050883942257582
-0.8030874621177235 0.11839510563850754
-0.20631796295350294 0.2677374726751576
0.48369677045512716 0.21795668366294088
1.3415529255036944 0.16817589465072422
2.3486014553433168 0.16817589465072422
3.3183518914851753 0.21795668366294088
3.9524194843471596 0.01883352761407419
4.027015671742687 -0.7278783075691759
3.2997028446362933 -1.8230556658379427
2.0875147994589702 -2.9182330241067094
0.6515381920950643 -3.266698547192226
-0.9709288837576606 -3.167136969167793
-2.500150725365976 -2.968013813118926
-3.2834106930190154 -2.7688906570700595
-3.3953049741123067 -2.9182330241067094
-3.1342183182279606 -2.8684522350944928
-2.9477278497391413 -3.0675753911433596
-2.500150725365976 -2.818671446082276
-2.1831169289349837 -2.420425133984543
-1.9220302730506373 -2.221301977935676
-1.791486945108464 -2.071959610899026
-1.791486945108464 -1.922617243862376
-1.7355398045618182 -1.7234940878135094
-1.6795926640151726 -1.3750285647279927
-1.5676983829218811 -1.026563041642476
-1.5304002892241175 -0.8772206746058259
-1.5676983829218811 -0.8274398855936093
-1.604996476619645 -0.6780975185569592
-1.623645523468527 -0.6283167295447426
-1.623645523468527 -0.47897436250809255
-1.5304002892241175 -0.3296319954714425
-1.5304002892241175 -0.23007041744700918
-1.5490493360729993 -0.08072805041035916
-1.5863474297707632 -0.1802896284347925
-1.5676983829218811 -0.1802896284347925
-1.5863474297707632 -0.23007041744700918
-1.4931021955263537 -0.13050883942257582
-1.3812079144330622 -0.6780975185569592
-1.3812079144330622 -1.1759054086791259
-1.4744531486774717 -1.623932509789076
-1.5117512423752355 -1.6737132988012926
-1.5117512423752355 -1.3750285647279927
-1.4931021955263537 -0.8772206746058259
-1.4744531486774717 -0.7278783075691759
-1.5117512423752355 -0.7278783075691759
-1.5490493360729993 -0.8772206746058259
-1.4931021955263537 -0.8772206746058259
-1.418506008130826 -0.9270014636180426
-1.3998569612819443 -0.9270014636180426
-1.3439098207352984 -1.026563041642476
-1.3252607738864166 -1.1759054086791259
-1.3625588675841804 -1.474590142752426
-1.3066117270375348 -1.3750285647279927
-1.269313633339771 -1.2256861976913427
-1.2320155396420072 -1.0763438306546926
-1.269313633339771 -0.8772206746058259
-1.3066117270375348 -0.9767822526302593
-1.250664586490889 -1.2256861976913427
-1.2320155396420072 -0.9767822526302593
-1.2320155396420072 -0.8274398855936093
-1.2133664927931251 -0.7278783075691759
-1.1760683990953615 -0.6780975185569592
-1.1574193522464795 -0.7278783075691759
-1.1387703053975977 -0.6780975185569592
-1.1387703053975977 -0.6780975185569592
-1.0828231648509519 -0.37941278448365917
-1.0268760243043062 -0.27985120645922584
-0.9522798369087787 -0.42919357349587584
-0.9709288837576606 -0.6283167295447426
-0.9336307900598968 -0.7776590965813925
-0.8776836495132512 -0.7776590965813925
-0.8776836495132512 -0.6283167295447426
-0.8403855558154874 -0.3296319954714425
-0.7844384152688416 -0.08072805041035916
-0.8030874621177235 0.11839510563850754
-0.8030874621177235 0.3672990506995909
-0.7098422278733141 0.3672990506995909
-0.6165969936289046 0.21795668366294088
-0.46740461883784945 0.06861431662629086
-0.4301065251400857 -0.5287551515203092
-0.46740461883784945 -0.8772206746058259
-0.4301065251400857 -0.9767822526302593
-0.44875557198896754 -0.9767822526302593
-0.37415938459344 -0.7776590965813925
-0.2436160566512667 -0.5287551515203092
-0.2995631971979124 -0.42919357349587584
-0.2995631971979124 -0.3296319954714425
-0.3555103377445581 -0.3296319954714425
-0.3368612908956762 -0.3296319954714425
-0.2622651035001486 -0.1802896284347925
-0.15037082240685723 -0.1802896284347925
-0.11307272870909345 -0.27985120645922584
-0.20631796295350294 -0.23007041744700918
-0.2436160566512667 -0.3296319954714425
-0.2436160566512667 -0.27985120645922584
-0.2995631971979124 -0.27985120645922584
-0.2436160566512667 -0.13050883942257582
-0.2436160566512667 -0.23007041744700918
-0.2622651035001486 -0.37941278448365917
-0.3368612908956762 -0.5785359405325259
-0.4301065251400857 -0.6283167295447426
-0.39280843144232186 -0.5287551515203092
-0.44875557198896754 -0.42919357349587584
-0.5233517593844952 -0.5287551515203092
-0.5792988999311408 -0.5287551515203092
-0.6538950873266683 -0.47897436250809255
-0.728491274722196 -0.5287551515203092
-0.8030874621177235 -0.3296319954714425
-0.8776836495132512 -0.03094726139814248
-0.8776836495132512 -0.08072805041035916
-0.9336307900598968 -0.13050883942257582
-0.9709288837576606 -0.1802896284347925
-1.0268760243043062 -0.23007041744700918
-1.0082269774554244 -0.23007041744700918
-0.9522798369087787 -0.27985120645922584
-0.9709288837576606 -0.6780975185569592
-1.0828231648509519 -1.0763438306546926
-1.1201212585487157 -1.4248093537402093
-1.1760683990953615 -1.2754669867035593
-1.1387703053975977 -1.0763438306546926
-1.0455250711531883 -0.6780975185569592
-1.06417411800207 -0.7278783075691759
-1.101472211699834 -0.9270014636180426
-1.1387703053975977 -1.1261246196669092
-1.1574193522464795 -1.1759054086791259
-1.06417411800207 -1.2256861976913427
-1.0828231648509519 -1.026563041642476
-1.06417411800207 -1.026563041642476
-1.0455250711531883 -1.026563041642476
-1.1387703053975977 -1.1759054086791259
-1.0828231648509519 -1.1759054086791259
-1.0455250711531883 -0.9270014636180426
-1.06417411800207 -0.8274398855936093
-1.06417411800207 -0.7776590965813925
-1.1201212585487157 -0.8274398855936093
-1.1201212585487157 -0.9270014636180426
-1.1387703053975977 -0.9270014636180426
-1.0828231648509519 -0.7278783075691759
-1.06417411800207 -0.7278783075691759
-1.0268760243043062 -0.6780975185569592
-1.0455250711531883 -0.8274398855936093
-1.0828231648509519 -0.9270014636180426
-1.0828231648509519 -0.8772206746058259
-1.06417411800207 -0.7776590965813925
-1.06417411800207 -0.5785359405325259
-1.06417411800207 -0.7278783075691759
-1.1387703053975977 -0.7278783075691759
-1.101472211699834 -0.7278783075691759
-1.1760683990953615 -0.8274398855936093
-1.1387703053975977 -0.6780975185569592
-1.1201212585487157 -0.6283167295447426
-1.1201212585487157 -0.5287551515203092
-1.0455250711531883 -0.6283167295447426
-1.0828231648509519 -0.8772206746058259
-1.1201212585487157 -0.8772206746058259
-1.1760683990953615 -0.7278783075691759
-1.0828231648509519 -0.5287551515203092
-1.06417411800207 -0.5287551515203092
-1.0828231648509519 -0.6780975185569592
-1.1201212585487157 -0.6780975185569592
-1.1201212585487157 -0.6283167295447426
-1.1201212585487157 -0.5785359405325259
-1.101472211699834 -0.6283167295447426
-1.0828231648509519 -0.7278783075691759
-1.1387703053975977 -0.8274398855936093
-1.1387703053975977 -0.9767822526302593
-1.101472211699834 -0.9270014636180426
-1.0268760243043062 -0.7776590965813925
-0.9522798369087787 -0.6283167295447426
-0.9336307900598968 -0.7278783075691759
-0.9149817432110149 -0.7776590965813925
-0.896332696362133 -0.7278783075691759
-0.8590346026643693 -0.8274398855936093
-0.8217365089666054 -0.5287551515203092
-0.7844384152688416 -0.3296319954714425
-0.7098422278733141 -0.37941278448365917
-0.728491274722196 -0.27985120645922584
-0.728491274722196 -0.37941278448365917
-0.6911931810244322 -0.37941278448365917
-0.6725441341755503 -0.23007041744700918
-0.6911931810244322 -0.3296319954714425
-0.6911931810244322 -0.42919357349587584
-0.6725441341755503 -0.7278783075691759
-0.7657893684199598 -0.8274398855936093
-0.7657893684199598 -0.8274398855936093
-0.7098422278733141 -0.7776590965813925
-0.7098422278733141 -0.47897436250809255
-0.6352460404777865 -0.37941278448365917
-0.7844384152688416 -0.42919357349587584
-0.7657893684199598 -0.5287551515203092
-0.7657893684199598 -0.47897436250809255
-0.7657893684199598 -0.47897436250809255
-0.728491274722196 -0.8274398855936093
-0.7098422278733141 -1.4248093537402093
-0.8590346026643693 -1.9723980328745927
-0.8403855558154874 -2.1217403999112427
-0.8030874621177235 -2.0221788218868095
-0.7657893684199598 -1.9723980328745927
-0.7471403215710779 -1.922617243862376
-0.7657893684199598 -1.773274876825726
-0.8030874621177235 -1.6737132988012926
-0.8217365089666054 -1.5243709317646426
-0.8403855558154874 -1.2754669867035593
-0.8217365089666054 -1.0763438306546926
-0.8590346026643693 -0.7776590965813925
-0.8776836495132512 -0.8772206746058259
-0.9709288837576606 -0.9767822526302593
-1.0082269774554244 -0.9767822526302593
-1.0828231648509519 -0.9767822526302593
-1.0455250711531883 -0.8274398855936093
-1.0082269774554244 -0.7278783075691759
-0.9522798369087787 -0.8274398855936093
-0.9709288837576606 -0.7278783075691759
-1.0828231648509519 -0.8772206746058259
-1.1201212585487157 -0.9270014636180426
-1.0268760243043062 -0.7776590965813925
-0.9522798369087787 -0.7776590965813925
-0.9709288837576606 -0.7776590965813925
-0.9895779306065425 -0.7278783075691759
-1.0082269774554244 -0.9767822526302593
-1.0268760243043062 -0.9270014636180426
-0.9895779306065425 -0.7776590965813925
-0.9336307900598968 -0.42919357349587584
-0.9336307900598968 -0.47897436250809255
-0.9522798369087787 -0.3296319954714425
-0.9149817432110149 -0.47897436250809255
-0.9149817432110149 -0.42919357349587584
-0.9709288837576606 -0.27985120645922584
-0.9522798369087787 0.01883352761407419
-0.9522798369087787 -0.23007041744700918
-0.9895779306065425 -0.37941278448365917
-1.101472211699834 -0.42919357349587584
-1.1574193522464795 -0.1802896284347925
-0.9522798369087787 0.01883352761407419
-0.6352460404777865 0.2677374726751576
-0.13172177555797535 0.2677374726751576
0.520994864152891 0.16817589465072422
1.2856057849570486 0.31751826168737424
2.292654314796671 0.3672990506995909
3.374299032031821 0.41707983971180757
4.269453280778152 0.2677374726751576
4.772977545697963 -0.3296319954714425
4.455943749266971 -1.325247775715776
3.4115971257295845 -2.4702059229967595
1.9942695652145606 -3.3164793362044427
0.3904515362107177 -3.3164793362044427
-1.1760683990953615 -3.1173561801555763
-2.4069054911215666 -3.017794602131143
-2.83583356864585 -3.1173561801555763
-2.630694053308149 -3.3164793362044427
-2.2204150226327477 -3.0675753911433596
-1.6982417108640544 -2.7688906570700595
-1.3252607738864166 -2.320863555960109
-1.0828231648509519 -1.9723980328745927
-0.9522798369087787 -1.8230556658379427
-0.9149817432110149 -1.623932509789076
-0.9336307900598968 -1.4248093537402093
-0.8590346026643693 -1.0763438306546926
-0.7844384152688416 -0.8772206746058259
-0.7657893684199598 -0.7776590965813925
-0.7471403215710779 -0.7278783075691759
-0.728491274722196 -0.8772206746058259
-0.7471403215710779 -0.6283167295447426
-0.7471403215710779 -0.6283167295447426
-0.7471403215710779 -0.5287551515203092
-0.7098422278733141 -0.5785359405325259
-0.7098422278733141 -0.6283167295447426
-0.7657893684199598 -0.6283167295447426
-0.7657893684199598 -0.7278783075691759
-0.728491274722196 -0.7278783075691759
-0.6725441341755503 -0.37941278448365917
-0.6725441341755503 -0.42919357349587584
-0.6538950873266683 -0.5287551515203092
-0.7098422278733141 -0.6283167295447426
-0.6538950873266683 -0.5785359405325259
-0.5979479467800227 -0.47897436250809255
-0.5792988999311408 -0.3296319954714425
-0.5233517593844952 -0.37941278448365917
-0.5606498530822589 -0.42919357349587584
-0.6165969936289046 -0.5287551515203092
-0.5979479467800227 -0.6283167295447426
-0.5047027125356133 -0.5287551515203092
-0.46740461883784945 -0.37941278448365917
-0.44875557198896754 -0.27985120645922584
-0.46740461883784945 -0.37941278448365917
-0.4301065251400857 -0.42919357349587584
-0.44875557198896754 -0.42919357349587584
-0.37415938459344 -0.42919357349587584
-0.3555103377445581 -0.23007041744700918
-0.31821224404679427 -0.3296319954714425
-0.31821224404679427 -0.3296319954714425
-0.3555103377445581 -0.37941278448365917
-0.37415938459344 -0.37941278448365917
-0.31821224404679427 -0.37941278448365917
-0.2995631971979124 -0.27985120645922584
-0.22496700980238482 -0.37941278448365917
-0.18766891610462103 -0.3296319954714425
-0.15037082240685723 -0.37941278448365917
-0.09442368186021155 -0.23007041744700918
0.017470599233079812 -0.03094726139814248
0.11071583347748928 -0.03094726139814248
0.18531202087301687 0.06861431662629086
0.16666297402413496 0.01883352761407419
0.18531202087301687 0.06861431662629086
0.22261011457078064 0.01883352761407419
0.3158553488151901 0.21795668366294088
0.3718024893618358 0.21795668366294088
0.4463986767573634 0.06861431662629086
0.4277496299084815 -0.08072805041035916
0.5023458173040091 -0.27985120645922584
0.5023458173040091 -0.27985120645922584
0.5582929578506548 0.06861431662629086
0.5769420046995366 0.11839510563850754
0.6142400983973004 0.16817589465072422
0.6142400983973004 0.06861431662629086
0.6328891452461823 0.06861431662629086
0.6515381920950643 -0.08072805041035916
0.6515381920950643 0.11839510563850754
0.6888362857928281 0.21795668366294088
0.7447834263394737 0.31751826168737424
0.6888362857928281 0.06861431662629086
0.6888362857928281 0.11839510563850754
0.6515381920950643 0.21795668366294088
0.6701872389439462 0.3672990506995909
0.7074853326417099 0.5664222067484576
0.7261343794905918 0.516641417736241
0.7074853326417099 0.3672990506995909
0.6328891452461823 0.11839510563850754
0.5769420046995366 0.06861431662629086
0.5582929578506548 0.11839510563850754
0.5582929578506548 0.2677374726751576
0.5769420046995366 0.11839510563850754
0.5023458173040091 -0.1802896284347925
0.3718024893618358 -0.3296319954714425
0.3158553488151901 -0.37941278448365917
0.22261011457078064 -0.13050883942257582
0.20396106772189876 -0.03094726139814248
0.16666297402413496 -0.03094726139814248
0.11071583347748928 -0.23007041744700918
0.017470599233079812 -0.5287551515203092
-0.05712558816244777 -0.6283167295447426
-0.07577463501132967 -0.47897436250809255
-0.09442368186021155 -0.5287551515203092
-0.07577463501132967 -0.5287551515203092
-0.05712558816244777 -0.5785359405325259
-0.11307272870909345 -0.6283167295447426
-0.15037082240685723 -0.5785359405325259
-0.13172177555797535 -0.5287551515203092
-0.13172177555797535 -0.23007041744700918
-0.15037082240685723 -0.3296319954714425
-0.16901986925573914 -0.42919357349587584
-0.2436160566512667 -0.5287551515203092
-0.2995631971979124 -0.5785359405325259
-0.2809141503490305 -0.42919357349587584
-0.2436160566512667 -0.27985120645922584
-0.2809141503490305 -0.42919357349587584
-0.3368612908956762 -0.5287551515203092
-0.3368612908956762 -0.6283167295447426
-0.3368612908956762 -0.5785359405325259
-0.2995631971979124 -0.47897436250809255
-0.2622651035001486 -0.27985120645922584
-0.2622651035001486 -0.37941278448365917
-0.2995631971979124 -0.42919357349587584
-0.31821224404679427 -0.47897436250809255
-0.39280843144232186 -0.47897436250809255
-0.3368612908956762 -0.27985120645922584
-0.2622651035001486 -0.13050883942257582
-0.20631796295350294 -0.08072805041035916
-0.2436160566512667 -0.13050883942257582
-0.2809141503490305 -0.1802896284347925
-0.31821224404679427 -0.03094726139814248
-0.3368612908956762 -0.13050883942257582
-0.2995631971979124 0.11839510563850754
-0.2995631971979124 0.16817589465072422
-0.2995631971979124 0.01883352761407419
-0.3368612908956762 -0.03094726139814248
-0.2622651035001486 -0.37941278448365917
-0.22496700980238482 -0.47897436250809255
-0.2436160566512667 -0.47897436250809255
-0.20631796295350294 -0.42919357349587584
-0.20631796295350294 -0.6283167295447426
-0.2436160566512667 -0.6780975185569592
-0.2995631971979124 -0.7278783075691759
-0.2809141503490305 -0.8274398855936093
-0.2809141503490305 -0.8274398855936093
-0.2622651035001486 -0.7278783075691759
-0.31821224404679427 -0.8274398855936093
-0.3368612908956762 -0.7776590965813925
-0.3555103377445581 -0.7776590965813925
-0.2622651035001486 -0.5785359405325259
-0.20631796295350294 -0.42919357349587584
-0.20631796295350294 -0.42919357349587584
-0.20631796295350294 -0.5785359405325259
-0.20631796295350294 -0.6780975185569592
-0.22496700980238482 -0.5785359405325259
-0.22496700980238482 -0.47897436250809255
-0.18766891610462103 -0.37941278448365917
-0.09442368186021155 -0.3296319954714425
-0.07577463501132967 -0.5287551515203092
-0.07577463501132967 -0.47897436250809255
-0.09442368186021155 -0.47897436250809255
-0.05712558816244777 -0.3296319954714425
0.054768692930843604 -0.1802896284347925
0.054768692930843604 0.06861431662629086
0.054768692930843604 -0.03094726139814248
0.017470599233079812 -0.1802896284347925
-0.0011784476158020825 -0.1802896284347925
0.017470599233079812 0.01883352761407419
0.11071583347748928 0.16817589465072422
0.054768692930843604 0.21795668366294088
0.03611964608196171 0.01883352761407419
0.054768692930843604 -0.03094726139814248
0.03611964608196171 -0.23007041744700918
0.0734177397797255 -0.13050883942257582
0.12936488032637117 -0.23007041744700918
0.14801392717525308 -0.37941278448365917
0.09206678662860739 -0.6780975185569592
0.017470599233079812 -0.7278783075691759
-0.019827494464683976 -0.7278783075691759
0.03611964608196171 -0.6780975185569592
0.09206678662860739 -0.6780975185569592
0.16666297402413496 -0.8274398855936093
0.0734177397797255 -0.9767822526302593
0.054768692930843604 -1.1261246196669092
-0.019827494464683976 -1.1261246196669092
-0.07577463501132967 -1.1261246196669092
-0.03847654131356587 -0.9767822526302593
-0.0011784476158020825 -0.9270014636180426
0.0734177397797255 -0.9270014636180426
0.03611964608196171 -1.026563041642476
0.0734177397797255 -0.9767822526302593
0.11071583347748928 -0.7776590965813925
0.14801392717525308 -0.5287551515203092
0.14801392717525308 -0.42919357349587584
0.0734177397797255 -0.6283167295447426
-0.0011784476158020825 -0.5287551515203092
-0.05712558816244777 -0.42919357349587584
-0.11307272870909345 -0.37941278448365917
-0.15037082240685723 -0.1802896284347925
-0.18766891610462103 -0.1802896284347925
-0.20631796295350294 -0.08072805041035916
-0.2622651035001486 0.01883352761407419
-0.31821224404679427 0.21795668366294088
-0.2622651035001486 0.16817589465072422
-0.2622651035001486 0.06861431662629086
-0.22496700980238482 -0.1802896284347925
-0.22496700980238482 -0.08072805041035916
-0.22496700980238482 -0.08072805041035916
-0.2622651035001486 0.01883352761407419
-0.20631796295350294 0.01883352761407419
-0.16901986925573914 -0.23007041744700918
-0.07577463501132967 -0.6283167295447426
-0.13172177555797535 -0.7278783075691759
-0.18766891610462103 -0.9767822526302593
-0.2809141503490305 -0.9767822526302593
-0.31821224404679427 -0.7776590965813925
-0.2995631971979124 -0.6780975185569592
-0.16901986925573914 -0.5785359405325259
-0.15037082240685723 -0.47897436250809255
-0.2436160566512667 -0.5287551515203092
-0.2995631971979124 -0.6780975185569592
-0.41145747829120377 -0.6283167295447426
-0.41145747829120377 -0.42919357349587584
-0.41145747829120377 -0.27985120645922584
-0.44875557198896754 -0.03094726139814248
-0.41145747829120377 0.16817589465072422
-0.37415938459344 0.41707983971180757
-0.16901986925573914 0.6162029957606743
0.3158553488151901 0.7655453627973243
0.8939758011305289 0.7157645737851076
1.6399376750858046 0.6162029957606743
2.5537409706810177 0.5664222067484576
3.504842359973994 0.6162029957606743
4.3999966087203255 0.41707983971180757
4.978117061035664 0.01883352761407419
4.922169920489018 -0.6780975185569592
4.25080423392927 -1.773274876825726
3.2251066572407656 -2.669329079045626
1.9196733778190331 -2.8684522350944928
0.33450439566407203 -2.5697675010211927
-1.1760683990953615 -2.1217403999112427
-1.977977413597283 -2.0221788218868095
-2.0712226478416924 -2.0221788218868095
-1.9406793198995191 -2.1217403999112427
-1.6982417108640544 -2.1715211889234594
-1.5117512423752355 -1.9723980328745927
-1.1201212585487157 -1.623932509789076
-0.8403855558154874 -1.325247775715776
-0.6165969936289046 -0.9270014636180426
-0.46740461883784945 -0.7776590965813925
-0.4301065251400857 -0.6283167295447426
-0.39280843144232186 -0.5785359405325259
-0.37415938459344 -0.47897436250809255
-0.2622651035001486 -0.5785359405325259
-0.20631796295350294 -0.6283167295447426
-0.18766891610462103 -0.5785359405325259
-0.18766891610462103 -0.6283167295447426
-0.18766891610462103 -0.42919357349587584
-0.15037082240685723 -0.47897436250809255
-0.05712558816244777 -0.5785359405325259
-0.05712558816244777 -0.6780975185569592
-0.13172177555797535 -0.6780975185569592
-0.13172177555797535 -0.8772206746058259
-0.11307272870909345 -0.8274398855936093
-0.07577463501132967 -0.6780975185569592
-0.05712558816244777 -0.5287551515203092
-0.07577463501132967 -0.47897436250809255
-0.07577463501132967 -0.47897436250809255
-0.07577463501132967 -0.47897436250809255
-0.03847654131356587 -0.3296319954714425
0.054768692930843604 -0.3296319954714425
0.11071583347748928 -0.27985120645922584
0.11071583347748928 -0.3296319954714425
0.09206678662860739 -0.3296319954714425
0.0734177397797255 -0.27985120645922584
0.09206678662860739 -0.27985120645922584
0.11071583347748928 -0.1802896284347925
0.09206678662860739 -0.1802896284347925
0.0734177397797255 -0.27985120645922584
0.017470599233079812 -0.42919357349587584
-0.03847654131356587 -0.42919357349587584
0.03611964608196171 -0.23007041744700918
0.0734177397797255 0.01883352761407419
0.16666297402413496 -0.13050883942257582
0.22261011457078064 -0.08072805041035916
0.25990820826854444 -0.27985120645922584
0.25990820826854444 -0.23007041744700918
0.24125916141966255 -0.13050883942257582
0.3158553488151901 0.06861431662629086
0.3718024893618358 0.01883352761407419
0.3904515362107177 -0.23007041744700918
0.3904515362107177 -0.23007041744700918
0.4277496299084815 -0.13050883942257582
0.5396439110017729 -0.03094726139814248
0.6515381920950643 0.11839510563850754
0.6888362857928281 0.11839510563850754
0.7261343794905918 0.16817589465072422
0.6888362857928281 -0.08072805041035916
0.7634324731883556 -0.03094726139814248
0.875326754281647 0.16817589465072422
0.8939758011305289 0.21795668366294088
0.9126248479794108 0.16817589465072422
0.9499229416771745 0.21795668366294088
0.9499229416771745 0.11839510563850754
1.024519129072702 0.21795668366294088
1.1177643633171117 0.3672990506995909
1.1923605507126391 0.3672990506995909
1.229658644410403 0.2677374726751576
1.1923605507126391 0.2677374726751576
1.1923605507126391 0.16817589465072422
1.229658644410403 0.21795668366294088
1.2669567381081668 0.31751826168737424
1.3602019723525762 0.3672990506995909
1.4347981597481039 0.3672990506995909
1.4720962534458677 0.16817589465072422
1.4720962534458677 0.06861431662629086
1.39750006605034 0.06861431662629086
1.3229038786548124 0.21795668366294088
1.3415529255036944 0.41707983971180757
1.3415529255036944 0.3672990506995909
1.3602019723525762 0.2677374726751576
1.2669567381081668 0.06861431662629086
1.2110095975615212 0.01883352761407419
1.1364134101659935 0.01883352761407419
1.1364134101659935 0.16817589465072422
1.1737115038637573 0.16817589465072422
1.0804662696193479 0.16817589465072422
1.0058700822238202 -0.03094726139814248
0.9312738948282927 -0.03094726139814248
0.8193796137350012 0.11839510563850754
0.7447834263394737 0.16817589465072422
0.7074853326417099 0.06861431662629086
0.7447834263394737 0.01883352761407419
0.6515381920950643 -0.03094726139814248
0.5396439110017729 -0.08072805041035916
0.4091005830595996 -0.03094726139814248
0.4091005830595996 0.01883352761407419
0.48369677045512716 0.01883352761407419
0.4277496299084815 -0.1802896284347925
0.3718024893618358 -0.1802896284347925
0.20396106772189876 -0.03094726139814248
0.18531202087301687 0.01883352761407419
0.24125916141966255 0.21795668366294088
0.20396106772189876 0.21795668366294088
0.18531202087301687 0.06861431662629086
0.16666297402413496 0.11839510563850754
0.16666297402413496 0.11839510563850754
0.20396106772189876 0.21795668366294088
0.22261011457078064 0.06861431662629086
0.3158553488151901 -0.23007041744700918
0.3158553488151901 -0.27985120645922584
0.27855725511742635 -0.42919357349587584
0.22261011457078064 -0.47897436250809255
0.20396106772189876 -0.37941278448365917
0.22261011457078064 -0.27985120645922584
0.25990820826854444 -0.23007041744700918
0.27855725511742635 -0.27985120645922584
0.25990820826854444 -0.6780975185569592
0.20396106772189876 -0.5287551515203092
0.22261011457078064 -0.37941278448365917
0.27855725511742635 -0.1802896284347925
0.3158553488151901 -0.1802896284347925
0.22261011457078064 -0.23007041744700918
0.16666297402413496 -0.3296319954714425
0.12936488032637117 -0.23007041744700918
0.20396106772189876 -0.23007041744700918
0.24125916141966255 -0.03094726139814248
0.3718024893618358 -0.08072805041035916
0.3904515362107177 -0.08072805041035916
0.3158553488151901 -0.13050883942257582
0.24125916141966255 -0.1802896284347925
0.22261011457078064 -0.13050883942257582
0.24125916141966255 0.11839510563850754
0.3158553488151901 -0.08072805041035916
0.35315344251295394 -0.08072805041035916
0.24125916141966255 -0.3296319954714425
0.12936488032637117 -0.3296319954714425
0.11071583347748928 -0.23007041744700918
0.16666297402413496 0.06861431662629086
0.18531202087301687 -0.03094726139814248
0.22261011457078064 -0.3296319954714425
0.18531202087301687 -0.37941278448365917
0.16666297402413496 -0.37941278448365917
0.12936488032637117 -0.37941278448365917
0.22261011457078064 -0.23007041744700918
0.22261011457078064 -0.23007041744700918
0.24125916141966255 -0.3296319954714425
0.22261011457078064 -0.42919357349587584
0.2972063019663082 -0.3296319954714425
0.35315344251295394 -0.27985120645922584
0.4091005830595996 -0.08072805041035916
0.3904515362107177 0.01883352761407419
0.4277496299084815 0.06861431662629086
0.4091005830595996 0.01883352761407419
0.4277496299084815 0.01883352761407419
0.3904515362107177 0.06861431662629086
0.48369677045512716 0.16817589465072422
0.4650477236062453 0.11839510563850754
0.3718024893618358 0.01883352761407419
0.3904515362107177 0.11839510563850754
0.3718024893618358 -0.08072805041035916
0.4650477236062453 -0.13050883942257582
0.5023458173040091 -0.3296319954714425
0.6142400983973004 -0.3296319954714425
0.5955910515484185 -0.42919357349587584
0.5023458173040091 -0.5287551515203092
0.4650477236062453 -0.5785359405325259
0.4650477236062453 -0.42919357349587584
0.4277496299084815 -0.37941278448365917
0.3718024893618358 -0.23007041744700918
0.35315344251295394 -0.37941278448365917
0.3904515362107177 -0.47897436250809255
0.3904515362107177 -0.6780975185569592
0.3904515362107177 -0.6283167295447426
0.33450439566407203 -0.7278783075691759
0.3158553488151901 -0.7278783075691759
0.33450439566407203 -0.7776590965813925
0.25990820826854444 -0.5287551515203092
0.18531202087301687 -0.27985120645922584
0.16666297402413496 -0.1802896284347925
0.25990820826854444 -0.23007041744700918
0.33450439566407203 -0.6283167295447426
0.3158553488151901 -1.026563041642476
0.25990820826854444 -1.1759054086791259
0.22261011457078064 -0.9767822526302593
0.25990820826854444 -0.5287551515203092
0.3158553488151901 -0.27985120645922584
0.27855725511742635 -0.23007041744700918
0.18531202087301687 -0.5287551515203092
0.054768692930843604 -0.7278783075691759
-0.019827494464683976 -0.6780975185569592
0.017470599233079812 -0.5287551515203092
0.0734177397797255 -0.27985120645922584
0.0734177397797255 -0.37941278448365917
0.0734177397797255 -0.5287551515203092
0.09206678662860739 -0.6283167295447426
0.054768692930843604 -0.6283167295447426
-0.03847654131356587 -0.5785359405325259
-0.019827494464683976 -0.37941278448365917
0.017470599233079812 -0.27985120645922584
0.0734177397797255 -0.3296319954714425
0.09206678662860739 -0.47897436250809255
0.09206678662860739 -0.37941278448365917
0.11071583347748928 -0.1802896284347925
0.09206678662860739 -0.1802896284347925
0.03611964608196171 -0.13050883942257582
0.0734177397797255 -0.1802896284347925
-0.0011784476158020825 -0.3296319954714425
-0.03847654131356587 -0.42919357349587584
-0.11307272870909345 -0.23007041744700918
-0.15037082240685723 -0.03094726139814248
-0.20631796295350294 0.41707983971180757
-0.2622651035001486 0.41707983971180757
-0.22496700980238482 0.46686062872402423
-0.03847654131356587 0.6659837847728909
0.3718024893618358 0.7655453627973243
0.9312738948282927 0.8651069408217577
1.7145338624813322 0.7157645737851076
2.5723900175298993 0.7655453627973243
3.4302461725784665 0.8651069408217577
4.344049468173679 0.6162029957606743
5.015415154733428 0.46686062872402423
5.201905623222246 0.16817589465072422
4.772977545697963 -0.8274398855936093
3.9710685311960416 -1.623932509789076
2.7775295328676 -2.2710827669478926
1.2483076912592848 -2.1715211889234594
-0.3368612908956762 -1.773274876825726
-1.3439098207352984 -1.474590142752426
-1.623645523468527 -1.4248093537402093
-1.4744531486774717 -1.5741517207768594
-1.3625588675841804 -1.7234940878135094
-1.1574193522464795 -1.7234940878135094
-0.8217365089666054 -1.5243709317646426
-0.4301065251400857 -1.325247775715776
-0.11307272870909345 -1.026563041642476
-0.03847654131356587 -0.8274398855936093
-0.11307272870909345 -0.6780975185569592
-0.15037082240685723 -0.5785359405325259
-0.11307272870909345 -0.37941278448365917
-0.03847654131356587 -0.27985120645922584
0.017470599233079812 -0.27985120645922584
0.017470599233079812 -0.27985120645922584
-0.019827494464683976 -0.42919357349587584
-0.03847654131356587 -0.37941278448365917
-0.019827494464683976 -0.23007041744700918
-0.0011784476158020825 -0.13050883942257582
0.054768692930843604 -0.23007041744700918
0.0734177397797255 -0.37941278448365917
-0.019827494464683976 -0.27985120645922584
-0.0011784476158020825 -0.23007041744700918
0.054768692930843604 -0.13050883942257582
0.14801392717525308 -0.13050883942257582
0.12936488032637117 -0.1802896284347925
0.09206678662860739 -0.27985120645922584
0.0734177397797255 -0.42919357349587584
0.03611964608196171 -0.37941278448365917
0.017470599233079812 -0.13050883942257582
0.11071583347748928 -0.1802896284347925
0.12936488032637117 -0.23007041744700918
0.16666297402413496 -0.23007041744700918
0.09206678662860739 -0.27985120645922584
0.09206678662860739 -0.23007041744700918
0.12936488032637117 -0.03094726139814248
0.16666297402413496 0.01883352761407419
0.27855725511742635 0.01883352761407419
0.3158553488151901 -0.23007041744700918
0.27855725511742635 -0.1802896284347925
0.24125916141966255 -0.37941278448365917
0.25990820826854444 -0.1802896284347925
0.33450439566407203 -0.13050883942257582
0.3904515362107177 -0.13050883942257582
0.3904515362107177 -0.23007041744700918
0.3718024893618358 -0.27985120645922584
0.3718024893618358 -0.47897436250809255
0.4277496299084815 -0.27985120645922584
0.4463986767573634 -0.1802896284347925
0.5023458173040091 0.06861431662629086
0.5023458173040091 0.01883352761407419
0.5955910515484185 0.01883352761407419
0.6328891452461823 0.01883352761407419
0.6701872389439462 0.16817589465072422
0.7261343794905918 0.06861431662629086
0.8193796137350012 0.06861431662629086
0.8380286605838831 0.16817589465072422
0.8193796137350012 0.06861431662629086
0.8566777074327651 0.16817589465072422
0.8939758011305289 0.21795668366294088
0.9872210353749383 0.21795668366294088
1.1177643633171117 0.16817589465072422
1.1550624570148753 -0.08072805041035916
1.1550624570148753 -0.1802896284347925
1.1364134101659935 -0.1802896284347925
1.229658644410403 0.11839510563850754
1.229658644410403 0.16817589465072422
1.2483076912592848 0.21795668366294088
1.3229038786548124 0.11839510563850754
1.2669567381081668 0.06861431662629086
1.3415529255036944 0.06861431662629086
1.378851019201458 0.06861431662629086
1.4347981597481039 0.2677374726751576
1.4720962534458677 0.16817589465072422
1.39750006605034 0.16817589465072422
1.378851019201458 0.01883352761407419
1.3415529255036944 0.06861431662629086
1.3229038786548124 0.16817589465072422
1.3415529255036944 0.3672990506995909
1.4347981597481039 0.31751826168737424
1.39750006605034 0.21795668366294088
1.3229038786548124 0.06861431662629086
1.2669567381081668 0.11839510563850754
1.1923605507126391 0.16817589465072422
1.1923605507126391 0.3672990506995909
1.1550624570148753 0.31751826168737424
1.043168175921584 0.31751826168737424
0.9872210353749383 0.16817589465072422
0.8939758011305289 0.01883352761407419
0.8566777074327651 0.16817589465072422
0.8566777074327651 0.11839510563850754
0.8193796137350012 0.11839510563850754
0.7447834263394737 0.01883352761407419
0.6142400983973004 -0.13050883942257582
0.5396439110017729 -0.23007041744700918
0.520994864152891 0.01883352761407419
0.5582929578506548 0.01883352761407419
0.5769420046995366 0.01883352761407419
0.5582929578506548 -0.08072805041035916
0.4277496299084815 -0.1802896284347925
0.35315344251295394 -0.13050883942257582
0.33450439566407203 -0.08072805041035916
0.33450439566407203 0.11839510563850754
0.33450439566407203 0.01883352761407419
0.33450439566407203 -0.08072805041035916
0.24125916141966255 -0.23007041744700918
0.27855725511742635 -0.23007041744700918
0.25990820826854444 -0.1802896284347925
0.25990820826854444 0.01883352761407419
0.24125916141966255 -0.13050883942257582
0.22261011457078064 -0.13050883942257582
0.12936488032637117 -0.27985120645922584
0.09206678662860739 -0.23007041744700918
0.12936488032637117 -0.13050883942257582
0.22261011457078064 0.01883352761407419
0.20396106772189876 -0.03094726139814248
0.18531202087301687 -0.08072805041035916
0.11071583347748928 -0.27985120645922584
0.0734177397797255 -0.27985120645922584
0.12936488032637117 -0.08072805041035916
0.20396106772189876 -0.03094726139814248
0.24125916141966255 -0.03094726139814248
0.25990820826854444 -0.03094726139814248
0.22261011457078064 -0.23007041744700918
0.16666297402413496 -0.27985120645922584
0.20396106772189876 -0.08072805041035916
0.25990820826854444 -0.13050883942257582
0.2972063019663082 -0.08072805041035916
0.22261011457078064 -0.13050883942257582
0.12936488032637117 -0.23007041744700918
0.14801392717525308 -0.13050883942257582
0.12936488032637117 0.16817589465072422
0.18531202087301687 0.3672990506995909
0.20396106772189876 0.516641417736241
0.24125916141966255 0.31751826168737424
0.27855725511742635 -0.03094726139814248
0.20396106772189876 -0.23007041744700918
0.25990820826854444 -0.42919357349587584
0.2972063019663082 -0.37941278448365917
0.3904515362107177 -0.37941278448365917
0.35315344251295394 -0.1802896284347925
0.2972063019663082 -0.42919357349587584
0.25990820826854444 -0.37941278448365917
0.24125916141966255 -0.37941278448365917
0.27855725511742635 -0.27985120645922584
0.33450439566407203 -0.23007041744700918
0.3158553488151901 -0.37941278448365917
0.2972063019663082 -0.47897436250809255
0.27855725511742635 -0.5785359405325259
0.24125916141966255 -0.42919357349587584
0.3158553488151901 -0.27985120645922584
0.33450439566407203 -0.23007041744700918
0.35315344251295394 -0.3296319954714425
0.4277496299084815 -0.27985120645922584
0.4091005830595996 -0.27985120645922584
0.4091005830595996 -0.1802896284347925
0.4650477236062453 -0.03094726139814248
0.5023458173040091 0.01883352761407419
0.48369677045512716 0.06861431662629086
0.4277496299084815 0.06861431662629086
0.3718024893618358 0.06861431662629086
0.4277496299084815 0.16817589465072422
0.5396439110017729 0.3672990506995909
0.5955910515484185 0.31751826168737424
0.5396439110017729 0.06861431662629086
0.4091005830595996 -0.08072805041035916
0.3904515362107177 -0.42919357349587584
0.3904515362107177 -0.37941278448365917
0.4091005830595996 -0.1802896284347925
0.4463986767573634 -0.13050883942257582
0.4650477236062453 -0.1802896284347925
0.4091005830595996 -0.42919357349587584
0.35315344251295394 -0.42919357349587584
0.33450439566407203 -0.42919357349587584
0.4277496299084815 -0.47897436250809255
0.4277496299084815 -0.42919357349587584
0.3158553488151901 -0.47897436250809255
0.24125916141966255 -0.6780975185569592
0.18531202087301687 -0.7278783075691759
0.18531202087301687 -0.6283167295447426
0.18531202087301687 -0.3296319954714425
0.20396106772189876 -0.27985120645922584
0.24125916141966255 -0.1802896284347925
0.27855725511742635 -0.37941278448365917
0.25990820826854444 -0.27985120645922584
0.25990820826854444 -0.27985120645922584
0.27855725511742635 -0.1802896284347925
0.25990820826854444 -0.13050883942257582
0.22261011457078064 -0.27985120645922584
0.14801392717525308 -0.37941278448365917
0.0734177397797255 -0.13050883942257582
0.03611964608196171 -0.03094726139814248
0.0734177397797255 -0.23007041744700918
0.14801392717525308 -0.23007041744700918
0.054768692930843604 -0.37941278448365917
0.03611964608196171 -0.47897436250809255
-0.019827494464683976 -0.6780975185569592
0.03611964608196171 -0.37941278448365917
0.09206678662860739 -0.27985120645922584
0.16666297402413496 -0.1802896284347925
0.11071583347748928 -0.37941278448365917
0.017470599233079812 -0.3296319954714425
0.03611964608196171 -0.42919357349587584
0.054768692930843604 -0.3296319954714425
0.11071583347748928 -0.1802896284347925
0.14801392717525308 -0.03094726139814248
0.11071583347748928 -0.1802896284347925
0.0734177397797255 -0.3296319954714425
0.054768692930843604 -0.37941278448365917
0.0734177397797255 -0.23007041744700918
0.11071583347748928 -0.1802896284347925
0.12936488032637117 -0.08072805041035916
0.09206678662860739 -0.08072805041035916
-0.0011784476158020825 0.06861431662629086
-0.07577463501132967 0.01883352761407419
-0.16901986925573914 0.41707983971180757
-0.13172177555797535 0.8651069408217577
-0.0011784476158020825 1.0144493078584076
0.20396106772189876 1.2135724639072742
0.5023458173040091 1.114010885882841
1.0058700822238202 1.1637916748950576
1.733182909330214 1.2135724639072742
2.665635251774309 1.1637916748950576
3.709981875311695 1.3131340419317077
4.698381358302435 1.2135724639072742
5.295150857466656 0.46686062872402423
5.220554670071128 -0.23007041744700918
4.586487077209144 -1.325247775715776
3.355649985182939 -2.071959610899026
1.8450771904235055 -2.3706443449723262
0.09206678662860739 -2.221301977935676
-1.3625588675841804 -2.1715211889234594
-1.959328366748401 -2.1715211889234594
-1.8101359919573459 -1.9723980328745927
-1.3998569612819443 -1.8230556658379427
-0.9895779306065425 -1.623932509789076
-0.6725441341755503 -1.3750285647279927
-0.39280843144232186 -1.3750285647279927
-0.2809141503490305 -1.1261246196669092
-0.20631796295350294 -0.8274398855936093
-0.07577463501132967 -0.47897436250809255
0.017470599233079812 -0.37941278448365917
0.0734177397797255 -0.13050883942257582
-0.03847654131356587 -0.23007041744700918
-0.03847654131356587 -0.08072805041035916
-0.05712558816244777 0.01883352761407419
0.054768692930843604 0.01883352761407419
0.11071583347748928 0.01883352761407419
0.11071583347748928 -0.08072805041035916
0.09206678662860739 -0.08072805041035916
0.017470599233079812 -0.23007041744700918
0.054768692930843604 -0.03094726139814248
0.09206678662860739 0.01883352761407419
0.14801392717525308 0.11839510563850754
0.16666297402413496 -0.03094726139814248
0.09206678662860739 -0.03094726139814248
0.054768692930843604 -0.13050883942257582
0.03611964608196171 0.01883352761407419
0.0734177397797255 0.01883352761407419
0.14801392717525308 0.06861431662629086
0.16666297402413496 0.01883352761407419
0.09206678662860739 -0.13050883942257582
0.0734177397797255 -0.13050883942257582
0.12936488032637117 0.06861431662629086
0.14801392717525308 0.11839510563850754
0.24125916141966255 0.21795668366294088
0.2972063019663082 0.21795668366294088
0.25990820826854444 0.01883352761407419
0.20396106772189876 0.01883352761407419
0.18531202087301687 0.16817589465072422
0.27855725511742635 0.16817589465072422
0.2972063019663082 0.21795668366294088
0.2972063019663082 0.06861431662629086
0.27855725511742635 0.11839510563850754
0.3158553488151901 0.11839510563850754
0.35315344251295394 0.11839510563850754
0.3718024893618358 0.16817589465072422
0.4463986767573634 0.2677374726751576
0.4463986767573634 0.11839510563850754
0.4091005830595996 0.06861431662629086
0.5769420046995366 0.06861431662629086
0.6888362857928281 0.3672990506995909
0.7820815200372375 0.3672990506995909
0.8566777074327651 0.5664222067484576
0.9126248479794108 0.46686062872402423
0.9499229416771745 0.3672990506995909
0.9872210353749383 0.516641417736241
1.0804662696193479 0.516641417736241
1.1177643633171117 0.6659837847728909
1.1364134101659935 0.7157645737851076
1.0991153164682297 0.6659837847728909
1.1364134101659935 0.46686062872402423
1.1550624570148753 0.5664222067484576
1.229658644410403 0.5664222067484576
1.2856057849570486 0.7655453627973243
1.3229038786548124 0.6659837847728909
1.3229038786548124 0.6659837847728909
1.3042548318059306 0.516641417736241
1.3042548318059306 0.5664222067484576
1.2483076912592848 0.6659837847728909
1.3415529255036944 0.6659837847728909
1.378851019201458 0.7655453627973243
1.3602019723525762 0.6162029957606743
1.3229038786548124 0.46686062872402423
1.2669567381081668 0.41707983971180757
1.2110095975615212 0.6162029957606743
1.2669567381081668 0.6162029957606743
1.2856057849570486 0.516641417736241
1.2110095975615212 0.5664222067484576
1.1923605507126391 0.3672990506995909
1.0804662696193479 0.516641417736241
1.024519129072702 0.6162029957606743
0.9872210353749383 0.6659837847728909
0.8939758011305289 0.6659837847728909
0.9126248479794108 0.516641417736241
0.7820815200372375 0.41707983971180757
0.7447834263394737 0.2677374726751576
0.6701872389439462 0.2677374726751576
0.6328891452461823 0.31751826168737424
0.5955910515484185 0.21795668366294088
0.520994864152891 0.2677374726751576
0.4091005830595996 0.11839510563850754
0.3904515362107177 0.16817589465072422
0.4650477236062453 0.31751826168737424
0.4277496299084815 0.3672990506995909
0.48369677045512716 0.3672990506995909
0.3904515362107177 0.2677374726751576
0.2972063019663082 0.21795668366294088
0.24125916141966255 0.16817589465072422
0.25990820826854444 0.06861431662629086
0.27855725511742635 0.31751826168737424
0.25990820826854444 0.2677374726751576
0.18531202087301687 0.3672990506995909
0.18531202087301687 0.31751826168737424
0.18531202087301687 0.21795668366294088
0.16666297402413496 0.21795668366294088
0.22261011457078064 0.2677374726751576
0.25990820826854444 0.41707983971180757
0.27855725511742635 0.21795668366294088
0.20396106772189876 0.16817589465072422
0.16666297402413496 0.11839510563850754
0.20396106772189876 0.11839510563850754
0.24125916141966255 0.21795668366294088
0.20396106772189876 0.2677374726751576
0.22261011457078064 0.16817589465072422
0.20396106772189876 0.06861431662629086
0.16666297402413496 0.01883352761407419
0.18531202087301687 0.11839510563850754
0.22261011457078064 0.31751826168737424
0.25990820826854444 0.3672990506995909
0.24125916141966255 0.2677374726751576
0.20396106772189876 0.11839510563850754
0.16666297402413496 0.06861431662629086
0.24125916141966255 0.16817589465072422
0.24125916141966255 0.2677374726751576
0.3158553488151901 0.2677374726751576
0.25990820826854444 0.16817589465072422
0.22261011457078064 0.11839510563850754
0.16666297402413496 0.06861431662629086
0.20396106772189876 0.06861431662629086
0.27855725511742635 0.16817589465072422
0.25990820826854444 0.21795668366294088
0.22261011457078064 0.3672990506995909
0.22261011457078064 0.31751826168737424
0.20396106772189876 0.16817589465072422
0.20396106772189876 0.41707983971180757
0.22261011457078064 0.516641417736241
0.27855725511742635 0.5664222067484576
0.24125916141966255 0.46686062872402423
0.12936488032637117 0.2677374726751576
0.12936488032637117 0.16817589465072422
0.20396106772189876 0.3672990506995909
0.27855725511742635 0.3672990506995909
0.3158553488151901 0.21795668366294088
0.27855725511742635 0.16817589465072422
0.24125916141966255 0.01883352761407419
0.24125916141966255 0.06861431662629086
0.3904515362107177 0.21795668366294088
0.48369677045512716 0.46686062872402423
0.5769420046995366 0.46686062872402423
0.4463986767573634 0.41707983971180757
0.4091005830595996 0.31751826168737424
0.3718024893618358 0.3672990506995909
0.4463986767573634 0.3672990506995909
0.5582929578506548 0.5664222067484576
0.5769420046995366 0.21795668366294088
0.5955910515484185 0.2677374726751576
0.520994864152891 0.06861431662629086
0.3904515362107177 -0.03094726139814248
0.4091005830595996 -0.03094726139814248
0.4463986767573634 0.11839510563850754
0.4650477236062453 -0.08072805041035916
0.4091005830595996 -0.03094726139814248
0.4277496299084815 -0.08072805041035916
0.4091005830595996 -0.1802896284347925
0.33450439566407203 -0.27985120645922584
0.3718024893618358 -0.13050883942257582
0.2972063019663082 -0.1802896284347925
0.22261011457078064 -0.23007041744700918
0.22261011457078064 -0.1802896284347925
0.25990820826854444 -0.3296319954714425
0.24125916141966255 -0.37941278448365917
0.18531202087301687 -0.27985120645922584
0.22261011457078064 -0.08072805041035916
0.20396106772189876 -0.13050883942257582
0.22261011457078064 -0.27985120645922584
0.20396106772189876 -0.23007041744700918
0.24125916141966255 0.11839510563850754
0.2972063019663082 0.31751826168737424
0.24125916141966255 0.3672990506995909
0.16666297402413496 0.16817589465072422
0.0734177397797255 0.16817589465072422
0.017470599233079812 0.16817589465072422
-0.09442368186021155 0.21795668366294088
-0.05712558816244777 0.11839510563850754
-0.019827494464683976 -0.03094726139814248
-0.0011784476158020825 -0.03094726139814248
-0.019827494464683976 -0.13050883942257582
-0.03847654131356587 -0.08072805041035916
-0.03847654131356587 0.06861431662629086
-0.019827494464683976 0.21795668366294088
0.03611964608196171 0.06861431662629086
-0.019827494464683976 0.11839510563850754
-0.05712558816244777 -0.08072805041035916
-0.13172177555797535 -0.13050883942257582
-0.07577463501132967 0.11839510563850754
-0.07577463501132967 0.06861431662629086
-0.11307272870909345 0.06861431662629086
-0.11307272870909345 -0.03094726139814248
-0.09442368186021155 -0.08072805041035916
-0.09442368186021155 -0.03094726139814248
-0.07577463501132967 0.06861431662629086
-0.11307272870909345 0.16817589465072422
-0.15037082240685723 0.3672990506995909
-0.2436160566512667 0.516641417736241
-0.2622651035001486 0.6659837847728909
-0.18766891610462103 1.0144493078584076
0.03611964608196171 1.263353252919491
0.4091005830595996 1.4624764089683577
0.9499229416771745 1.412695619956141
1.5653414876902771 1.263353252919491
2.4045485958899624 1.114010885882841
3.374299032031821 1.1637916748950576
4.3999966087203255 1.263353252919491
5.145958482675601 1.0144493078584076
5.42569418540883 0.31751826168737424
4.8662227799423725 -0.8274398855936093
3.691332828462813 -1.9723980328745927
2.143461940005616 -2.4702059229967595
0.4463986767573634 -2.420425133984543
-1.0455250711531883 -2.221301977935676
-1.9966264604461648 -2.221301977935676
-2.015275507295047 -2.2710827669478926
-1.6795926640151726 -2.3706443449723262
-1.3625588675841804 -2.320863555960109
-0.9895779306065425 -2.0221788218868095
-0.6538950873266683 -1.5741517207768594
-0.37415938459344 -1.325247775715776
-0.22496700980238482 -1.1261246196669092
-0.20631796295350294 -1.026563041642476
-0.15037082240685723 -0.8274398855936093
-0.11307272870909345 -0.42919357349587584
-0.09442368186021155 -0.1802896284347925
-0.07577463501132967 0.11839510563850754
-0.05712558816244777 -0.03094726139814248
-0.11307272870909345 -0.13050883942257582
-0.11307272870909345 -0.08072805041035916
-0.09442368186021155 0.01883352761407419
-0.07577463501132967 0.11839510563850754
-0.03847654131356587 0.16817589465072422
-0.03847654131356587 0.01883352761407419
-0.03847654131356587 -0.08072805041035916
-0.15037082240685723 0.01883352761407419
-0.15037082240685723 0.01883352761407419
-0.05712558816244777 0.21795668366294088
0.017470599233079812 0.2677374726751576
0.09206678662860739 0.06861431662629086
0.03611964608196171 -0.08072805041035916
-0.03847654131356587 -0.03094726139814248
0.017470599233079812 0.01883352761407419
-0.0011784476158020825 0.21795668366294088
0.03611964608196171 0.11839510563850754
0.0734177397797255 -0.03094726139814248
0.017470599233079812 0.06861431662629086
-0.0011784476158020825 0.11839510563850754
-0.0011784476158020825 0.11839510563850754
0.054768692930843604 0.31751826168737424
0.11071583347748928 0.21795668366294088
0.09206678662860739 0.16817589465072422
0.09206678662860739 0.01883352761407419
0.09206678662860739 -0.03094726139814248
0.22261011457078064 0.06861431662629086
0.27855725511742635 0.31751826168737424
0.35315344251295394 0.3672990506995909
0.33450439566407203 0.21795668366294088
0.3158553488151901 0.01883352761407419
0.3158553488151901 -0.03094726139814248
0.3718024893618358 0.06861431662629086
0.48369677045512716 0.2677374726751576
0.5582929578506548 0.31751826168737424
0.5582929578506548 0.2677374726751576
0.5955910515484185 0.21795668366294088
0.5769420046995366 0.11839510563850754
0.6142400983973004 0.2677374726751576
0.6515381920950643 0.41707983971180757
0.7074853326417099 0.46686062872402423
0.7634324731883556 0.41707983971180757
0.8007305668861194 0.3672990506995909
0.8193796137350012 0.31751826168737424
0.8939758011305289 0.516641417736241
0.8939758011305289 0.516641417736241
0.9872210353749383 0.516641417736241
0.9872210353749383 0.516641417736241
1.0058700822238202 0.516641417736241
1.043168175921584 0.516641417736241
1.043168175921584 0.5664222067484576
1.0804662696193479 0.7655453627973243
1.1923605507126391 0.6659837847728909
1.2110095975615212 0.516641417736241
1.229658644410403 0.46686062872402423
1.1737115038637573 0.46686062872402423
1.1737115038637573 0.41707983971180757
1.229658644410403 0.6162029957606743
1.2856057849570486 0.5664222067484576
1.3042548318059306 0.516641417736241
1.2110095975615212 0.3672990506995909
1.1364134101659935 0.3672990506995909
1.1737115038637573 0.41707983971180757
1.2110095975615212 0.46686062872402423
1.1923605507126391 0.516641417736241
1.1737115038637573 0.3672990506995909
1.1177643633171117 0.31751826168737424
1.043168175921584 0.31751826168737424
0.9872210353749383 0.31751826168737424
0.8939758011305289 0.41707983971180757
0.8566777074327651 0.41707983971180757
0.8939758011305289 0.3672990506995909
0.7261343794905918 0.31751826168737424
0.6515381920950643 0.16817589465072422
0.5769420046995366 0.16817589465072422
0.5582929578506548 0.3672990506995909
0.5582929578506548 0.21795668366294088
0.4650477236062453 0.2677374726751576
0.3718024893618358 0.06861431662629086
0.22261011457078064 0.11839510563850754
0.22261011457078064 0.21795668366294088
0.27855725511742635 0.2677374726751576
0.24125916141966255 0.06861431662629086
0.22261011457078064 -0.03094726139814248
0.18531202087301687 -0.13050883942257582
0.16666297402413496 -0.08072805041035916
0.18531202087301687 -0.08072805041035916
0.16666297402413496 0.01883352761407419
0.12936488032637117 0.06861431662629086
0.12936488032637117 -0.08072805041035916
0.0734177397797255 -0.03094726139814248
0.09206678662860739 -0.23007041744700918
0.09206678662860739 -0.08072805041035916
0.16666297402413496 -0.13050883942257582
0.24125916141966255 0.01883352761407419
0.20396106772189876 -0.03094726139814248
0.12936488032637117 -0.13050883942257582
0.11071583347748928 -0.27985120645922584
0.11071583347748928 -0.13050883942257582
0.11071583347748928 -0.08072805041035916
0.12936488032637117 -0.13050883942257582
0.11071583347748928 -0.1802896284347925
0.0734177397797255 -0.23007041744700918
0.054768692930843604 -0.42919357349587584
0.0734177397797255 -0.27985120645922584
0.14801392717525308 -0.08072805041035916
0.16666297402413496 -0.13050883942257582
0.09206678662860739 -0.3296319954714425
0.054768692930843604 -0.37941278448365917
0.0734177397797255 -0.3296319954714425
0.09206678662860739 -0.3296319954714425
0.14801392717525308 -0.13050883942257582
0.20396106772189876 -0.13050883942257582
0.18531202087301687 -0.23007041744700918
0.09206678662860739 -0.3296319954714425
0.03611964608196171 -0.3296319954714425
0.054768692930843604 -0.13050883942257582
0.11071583347748928 -0.13050883942257582
0.16666297402413496 0.06861431662629086
0.11071583347748928 -0.13050883942257582
0.11071583347748928 -0.27985120645922584
0.0734177397797255 -0.3296319954714425
0.11071583347748928 -0.23007041744700918
0.18531202087301687 -0.08072805041035916
0.25990820826854444 -0.08072805041035916
0.14801392717525308 -0.1802896284347925
0.11071583347748928 -0.23007041744700918
0.0734177397797255 -0.23007041744700918
0.09206678662860739 -0.13050883942257582
0.11071583347748928 -0.1802896284347925
0.22261011457078064 -0.08072805041035916
0.22261011457078064 -0.1802896284347925
0.27855725511742635 -0.3296319954714425
0.20396106772189876 -0.37941278448365917
0.25990820826854444 -0.23007041744700918
0.4091005830595996 -0.13050883942257582
0.48369677045512716 -0.03094726139814248
0.4463986767573634 0.01883352761407419
0.3718024893618358 -0.03094726139814248
0.3158553488151901 0.01883352761407419
0.3718024893618358 0.01883352761407419
0.4463986767573634 0.2677374726751576
0.5396439110017729 0.21795668366294088
0.48369677045512716 0.06861431662629086
0.3904515362107177 -0.03094726139814248
0.4091005830595996 -0.27985120645922584
0.3718024893618358 -0.27985120645922584
0.3718024893618358 -0.37941278448365917
0.4091005830595996 -0.37941278448365917
0.35315344251295394 -0.5287551515203092
0.25990820826854444 -0.7776590965813925
0.24125916141966255 -0.7278783075691759
0.20396106772189876 -0.5785359405325259
0.25990820826854444 -0.47897436250809255
0.27855725511742635 -0.5785359405325259
0.24125916141966255 -0.7776590965813925
0.16666297402413496 -0.9270014636180426
0.20396106772189876 -0.9767822526302593
0.16666297402413496 -0.9270014636180426
0.20396106772189876 -0.9767822526302593
0.24125916141966255 -0.9270014636180426
0.18531202087301687 -0.8772206746058259
0.16666297402413496 -0.9767822526302593
0.14801392717525308 -0.8772206746058259
0.16666297402413496 -0.6780975185569592
0.20396106772189876 -0.5287551515203092
0.18531202087301687 -0.42919357349587584
0.09206678662860739 -0.5287551515203092
0.017470599233079812 -0.6283167295447426
0.017470599233079812 -0.6283167295447426
-0.05712558816244777 -0.5287551515203092
-0.07577463501132967 -0.42919357349587584
-0.05712558816244777 -0.42919357349587584
-0.09442368186021155 -0.42919357349587584
-0.13172177555797535 -0.6283167295447426
-0.18766891610462103 -0.6780975185569592
-0.16901986925573914 -0.47897436250809255
-0.13172177555797535 -0.42919357349587584
-0.15037082240685723 -0.42919357349587584
-0.11307272870909345 -0.5287551515203092
-0.09442368186021155 -0.5785359405325259
-0.13172177555797535 -0.6283167295447426
-0.20631796295350294 -0.5287551515203092
-0.15037082240685723 -0.3296319954714425
-0.11307272870909345 -0.3296319954714425
-0.13172177555797535 -0.3296319954714425
-0.16901986925573914 -0.42919357349587584
-0.20631796295350294 -0.47897436250809255
-0.15037082240685723 -0.5287551515203092
-0.13172177555797535 -0.47897436250809255
-0.11307272870909345 -0.37941278448365917
-0.15037082240685723 -0.37941278448365917
-0.2995631971979124 -0.1802896284347925
-0.3555103377445581 0.06861431662629086
-0.31821224404679427 0.41707983971180757
-0.15037082240685723 0.7655453627973243
0.22261011457078064 0.8153261518095409
0.7261343794905918 0.5664222067484576
1.3415529255036944 0.41707983971180757
2.143461940005616 0.41707983971180757
3.1318614229963564 0.5664222067484576
4.15755899968486 0.46686062872402423
4.903520873640137 0.01883352761407419
4.996766107884546 -0.8274398855936093
4.269453280778152 -2.1715211889234594
3.0199671419030647 -3.0675753911433596
1.4534472065969857 -3.3662601252166597
-0.2809141503490305 -3.1173561801555763
-1.6982417108640544 -2.9182330241067094
-2.2577131163305113 -2.7688906570700595
-2.0898716946905744 -2.8684522350944928
-1.6795926640151726 -2.7688906570700595
-1.269313633339771 -2.6195482900334093
-0.8776836495132512 -2.221301977935676
-0.542000806233377 -1.922617243862376
-0.44875557198896754 -1.5741517207768594
-0.39280843144232186 -1.5243709317646426
-0.37415938459344 -1.1759054086791259
-0.3368612908956762 -1.026563041642476
-0.3368612908956762 -0.7278783075691759
-0.3368612908956762 -0.6283167295447426
-0.2995631971979124 -0.6283167295447426
-0.2809141503490305 -0.6283167295447426
-0.3368612908956762 -0.6780975185569592
-0.2809141503490305 -0.5785359405325259
-0.22496700980238482 -0.42919357349587584
-0.16901986925573914 -0.42919357349587584
-0.15037082240685723 -0.47897436250809255
-0.13172177555797535 -0.7278783075691759
-0.13172177555797535 -0.6780975185569592
-0.09442368186021155 -0.6283167295447426
-0.07577463501132967 -0.5287551515203092
-0.03847654131356587 -0.47897436250809255
-0.11307272870909345 -0.5785359405325259
-0.15037082240685723 -0.6780975185569592
-0.18766891610462103 -0.6283167295447426
-0.13172177555797535 -0.5785359405325259
-0.05712558816244777 -0.42919357349587584
-0.0011784476158020825 -0.42919357349587584
-0.03847654131356587 -0.3296319954714425
-0.019827494464683976 -0.6283167295447426
-0.019827494464683976 -0.6283167295447426
-0.0011784476158020825 -0.5287551515203092
0.017470599233079812 -0.3296319954714425
0.0734177397797255 -0.37941278448365917
0.09206678662860739 -0.42919357349587584
0.0734177397797255 -0.6780975185569592
0.0734177397797255 -0.6780975185569592
0.09206678662860739 -0.47897436250809255
0.14801392717525308 -0.37941278448365917
0.20396106772189876 -0.27985120645922584
0.24125916141966255 -0.3296319954714425
0.16666297402413496 -0.42919357349587584
0.16666297402413496 -0.47897436250809255
0.20396106772189876 -0.47897436250809255
0.35315344251295394 -0.1802896284347925
0.4277496299084815 0.01883352761407419
0.4463986767573634 0.01883352761407419
0.5023458173040091 -0.13050883942257582
0.520994864152891 -0.3296319954714425
0.5769420046995366 -0.47897436250809255
0.7074853326417099 -0.6283167295447426
0.8193796137350012 -0.6283167295447426
0.8939758011305289 -0.5785359405325259
0.875326754281647 -0.7776590965813925
0.875326754281647 -0.8274398855936093
0.8566777074327651 -0.5785359405325259
0.9499229416771745 -0.37941278448365917
1.0058700822238202 -0.3296319954714425
0.9872210353749383 -0.3296319954714425
0.9499229416771745 -0.42919357349587584
1.0058700822238202 -0.42919357349587584
1.024519129072702 -0.37941278448365917
1.043168175921584 -0.27985120645922584
1.0804662696193479 -0.23007041744700918
1.1364134101659935 -0.37941278448365917
1.0991153164682297 -0.27985120645922584
1.0804662696193479 -0.37941278448365917
1.024519129072702 -0.1802896284347925
1.1177643633171117 -0.1802896284347925
1.1177643633171117 -0.13050883942257582
1.043168175921584 -0.23007041744700918
0.9872210353749383 -0.42919357349587584
0.9312738948282927 -0.3296319954714425
0.8939758011305289 -0.37941278448365917
0.8939758011305289 -0.27985120645922584
0.8939758011305289 -0.23007041744700918
0.8939758011305289 -0.3296319954714425
0.8193796137350012 -0.42919357349587584
0.7820815200372375 -0.47897436250809255
0.7074853326417099 -0.42919357349587584
0.7447834263394737 -0.37941278448365917
0.6888362857928281 -0.3296319954714425
0.6328891452461823 -0.3296319954714425
0.5396439110017729 -0.5287551515203092
0.4091005830595996 -0.6283167295447426
0.35315344251295394 -0.42919357349587584
0.33450439566407203 -0.42919357349587584
0.33450439566407203 -0.3296319954714425
0.27855725511742635 -0.47897436250809255
0.18531202087301687 -0.5785359405325259
0.09206678662860739 -0.7776590965813925
0.11071583347748928 -0.5785359405325259
0.11071583347748928 -0.5287551515203092
0.09206678662860739 -0.5287551515203092
0.017470599233079812 -0.6283167295447426
-0.0011784476158020825 -0.7278783075691759
0.03611964608196171 -0.8274398855936093
0.03611964608196171 -0.9767822526302593
0.054768692930843604 -0.7776590965813925
0.03611964608196171 -0.7776590965813925
-0.019827494464683976 -0.7278783075691759
-0.03847654131356587 -0.8772206746058259
-0.0011784476158020825 -0.9767822526302593
-0.0011784476158020825 -0.8274398855936093
-0.03847654131356587 -0.7776590965813925
0.03611964608196171 -0.7278783075691759
-0.0011784476158020825 -0.7278783075691759
-0.019827494464683976 -0.8274398855936093
-0.019827494464683976 -0.6780975185569592
-0.07577463501132967 -0.6283167295447426
-0.0011784476158020825 -0.5785359405325259
0.017470599233079812 -0.5785359405325259
0.017470599233079812 -0.5287551515203092
-0.03847654131356587 -0.7278783075691759
-0.09442368186021155 -0.8274398855936093
-0.11307272870909345 -0.7776590965813925
-0.09442368186021155 -0.6283167295447426
-0.03847654131356587 -0.6283167295447426
-0.019827494464683976 -0.7776590965813925
-0.07577463501132967 -0.8274398855936093
-0.09442368186021155 -0.9270014636180426
-0.019827494464683976 -0.6780975185569592
0.09206678662860739 -0.5287551515203092
0.09206678662860739 -0.42919357349587584
0.03611964608196171 -0.5785359405325259
-0.03847654131356587 -0.6780975185569592
-0.03847654131356587 -0.7278783075691759
-0.07577463501132967 -0.6780975185569592
0.03611964608196171 -0.6283167295447426
0.09206678662860739 -0.47897436250809255
0.09206678662860739 -0.5785359405325259
0.017470599233079812 -0.7776590965813925
-0.019827494464683976 -0.8274398855936093
-0.0011784476158020825 -0.7776590965813925
0.0734177397797255 -0.6283167295447426
0.12936488032637117 -0.5785359405325259
0.11071583347748928 -0.8274398855936093
0.03611964608196171 -0.9270014636180426
-0.0011784476158020825 -0.9270014636180426
0.054768692930843604 -0.9270014636180426
0.11071583347748928 -0.7776590965813925
0.14801392717525308 -0.6780975185569592
0.14801392717525308 -0.8772206746058259
0.16666297402413496 -0.9270014636180426
0.16666297402413496 -0.8274398855936093
0.14801392717525308 -0.5287551515203092
0.25990820826854444 -0.42919357349587584
0.33450439566407203 -0.42919357349587584
0.3158553488151901 -0.47897436250809255
0.24125916141966255 -0.5785359405325259
0.22261011457078064 -0.6780975185569592
0.22261011457078064 -0.6283167295447426
0.24125916141966255 -0.6283167295447426
0.3158553488151901 -0.7776590965813925
0.22261011457078064 -1.026563041642476
0.09206678662860739 -1.0763438306546926
0.03611964608196171 -0.9767822526302593
0.0734177397797255 -0.8274398855936093
0.16666297402413496 -0.6283167295447426
0.18531202087301687 -0.7278783075691759
0.18531202087301687 -1.1261246196669092
0.11071583347748928 -1.474590142752426
0.054768692930843604 -1.5243709317646426
-0.0011784476158020825 -1.5741517207768594
0.12936488032637117 -1.3750285647279927
0.24125916141966255 -1.5243709317646426
0.25990820826854444 -1.7234940878135094
0.20396106772189876 -1.7234940878135094
0.16666297402413496 -1.623932509789076
0.14801392717525308 -1.3750285647279927
0.16666297402413496 -1.1759054086791259
0.14801392717525308 -1.0763438306546926
0.0734177397797255 -0.9767822526302593
-0.0011784476158020825 -0.9767822526302593
-0.07577463501132967 -1.0763438306546926
-0.15037082240685723 -1.1759054086791259
-0.16901986925573914 -0.9270014636180426
-0.20631796295350294 -0.9270014636180426
-0.20631796295350294 -0.9270014636180426
-0.2622651035001486 -0.8772206746058259
-0.2622651035001486 -0.9767822526302593
-0.2622651035001486 -0.9270014636180426
-0.2436160566512667 -0.7278783075691759
-0.20631796295350294 -0.8772206746058259
-0.18766891610462103 -0.8274398855936093
-0.2622651035001486 -0.9270014636180426
-0.2995631971979124 -0.9270014636180426
-0.2436160566512667 -0.9270014636180426
-0.20631796295350294 -0.8772206746058259
-0.16901986925573914 -0.8772206746058259
-0.16901986925573914 -0.9767822526302593
-0.20631796295350294 -1.1261246196669092
-0.15037082240685723 -1.026563041642476
-0.15037082240685723 -0.8772206746058259
-0.13172177555797535 -0.7278783075691759
-0.18766891610462103 -0.7278783075691759
-0.18766891610462103 -0.8274398855936093
-0.3555103377445581 -0.9767822526302593
-0.44875557198896754 -0.9767822526302593
-0.5047027125356133 -0.5287551515203092
-0.44875557198896754 -0.1802896284347925
-0.2436160566512667 0.01883352761407419
0.03611964608196171 0.06861431662629086
0.48369677045512716 0.11839510563850754
1.1177643633171117 -0.13050883942257582
2.0315676589123246 -0.1802896284347925
3.0572652356008287 -0.08072805041035916
4.138909952835979 -0.1802896284347925
4.810275639395726 -0.42919357349587584
4.9408189673379 -1.1261246196669092
4.455943749266971 -2.0221788218868095
3.46754426627623 -2.669329079045626
2.1994090805522615 -2.8684522350944928
0.5769420046995366 -2.7688906570700595
-1.0268760243043062 -2.519986712008976
-1.9966264604461648 -2.221301977935676
-2.0898716946905744 -2.221301977935676
-1.8474340856551097 -2.320863555960109
-1.5490493360729993 -2.221301977935676
-1.250664586490889 -2.1217403999112427
-0.9336307900598968 -2.0221788218868095
-0.6911931810244322 -1.922617243862376
-0.5047027125356133 -1.8230556658379427
-0.44875557198896754 -1.623932509789076
-0.37415938459344 -1.4248093537402093
-0.2809141503490305 -1.0763438306546926
-0.2436160566512667 -0.8772206746058259
-0.2622651035001486 -1.0763438306546926
-0.2622651035001486 -1.0763438306546926
-0.22496700980238482 -1.1759054086791259
-0.13172177555797535 -1.1261246196669092
-0.07577463501132967 -1.026563041642476
-0.07577463501132967 -1.026563041642476
-0.11307272870909345 -1.0763438306546926
-0.13172177555797535 -1.1759054086791259
-0.20631796295350294 -0.9270014636180426
-0.13172177555797535 -1.026563041642476
-0.05712558816244777 -1.026563041642476
-0.019827494464683976 -1.0763438306546926
-0.07577463501132967 -1.1759054086791259
-0.09442368186021155 -1.1261246196669092
-0.09442368186021155 -1.0763438306546926
-0.07577463501132967 -0.8772206746058259
-0.019827494464683976 -0.7278783075691759
-0.019827494464683976 -0.5785359405325259
0.03611964608196171 -0.47897436250809255
-0.0011784476158020825 -0.42919357349587584
-0.019827494464683976 -0.27985120645922584
0.017470599233079812 -0.23007041744700918
0.054768692930843604 -0.5287551515203092
0.12936488032637117 -0.8772206746058259
0.18531202087301687 -1.2754669867035593
0.25990820826854444 -1.5741517207768594
0.27855725511742635 -1.5741517207768594
0.24125916141966255 -1.4248093537402093
0.22261011457078064 -1.4248093537402093
0.2972063019663082 -1.5243709317646426
0.3718024893618358 -1.474590142752426
0.35315344251295394 -1.474590142752426
0.3904515362107177 -1.3750285647279927
0.48369677045512716 -1.2754669867035593
0.5955910515484185 -1.026563041642476
0.6142400983973004 -1.0763438306546926
0.5582929578506548 -1.1261246196669092
0.5582929578506548 -1.1759054086791259
0.6701872389439462 -1.0763438306546926
0.8566777074327651 -0.6780975185569592
0.9685719885260564 -0.6283167295447426
1.043168175921584 -0.6780975185569592
0.9872210353749383 -0.9270014636180426
0.9499229416771745 -0.8772206746058259
0.9685719885260564 -0.7278783075691759
1.0804662696193479 -0.5785359405325259
1.1550624570148753 -0.5785359405325259
1.1923605507126391 -0.6283167295447426
1.1177643633171117 -0.7278783075691759
1.0618172227704659 -0.6283167295447426
1.1177643633171117 -0.5785359405325259
1.1177643633171117 -0.47897436250809255
1.1364134101659935 -0.37941278448365917
1.0991153164682297 -0.6283167295447426
1.0804662696193479 -0.7278783075691759
1.1737115038637573 -0.7776590965813925
1.2110095975615212 -0.6780975185569592
1.1364134101659935 -0.42919357349587584
1.1737115038637573 -0.37941278448365917
1.1177643633171117 -0.5287551515203092
1.0058700822238202 -0.5287551515203092
0.8939758011305289 -0.42919357349587584
0.8007305668861194 -0.3296319954714425
0.8380286605838831 -0.23007041744700918
0.8939758011305289 -0.42919357349587584
0.875326754281647 -0.5287551515203092
0.7261343794905918 -0.7278783075691759
0.6515381920950643 -0.8772206746058259
0.520994864152891 -0.8274398855936093
0.4463986767573634 -0.7776590965813925
0.3718024893618358 -0.8772206746058259
0.24125916141966255 -0.9270014636180426
0.14801392717525308 -1.0763438306546926
0.18531202087301687 -0.9270014636180426
0.18531202087301687 -0.8274398855936093
0.27855725511742635 -0.6780975185569592
0.25990820826854444 -0.6283167295447426
0.25990820826854444 -0.7776590965813925
0.18531202087301687 -0.9270014636180426
0.14801392717525308 -1.0763438306546926
0.12936488032637117 -0.9767822526302593
0.14801392717525308 -0.8772206746058259
0.0734177397797255 -0.7278783075691759
0.09206678662860739 -0.8274398855936093
-0.0011784476158020825 -0.7776590965813925
-0.0011784476158020825 -0.7278783075691759
-0.019827494464683976 -0.6780975185569592
-0.019827494464683976 -0.47897436250809255
-0.05712558816244777 -0.27985120645922584
-0.09442368186021155 0.01883352761407419
-0.11307272870909345 0.01883352761407419
-0.07577463501132967 -0.1802896284347925
0.017470599233079812 -0.47897436250809255
0.054768692930843604 -0.6283167295447426
0.0734177397797255 -1.026563041642476
0.03611964608196171 -1.1261246196669092
-0.05712558816244777 -1.2754669867035593
-0.019827494464683976 -1.2256861976913427
-0.0011784476158020825 -1.1759054086791259
0.03611964608196171 -1.1759054086791259
-0.0011784476158020825 -1.325247775715776
-0.019827494464683976 -1.3750285647279927
0.054768692930843604 -1.325247775715776
-0.0011784476158020825 -1.325247775715776
-0.0011784476158020825 -1.2754669867035593
-0.019827494464683976 -1.2256861976913427
0.017470599233079812 -1.026563041642476
0.017470599233079812 -1.0763438306546926
-0.0011784476158020825 -1.2256861976913427
0.017470599233079812 -1.1759054086791259
-0.05712558816244777 -1.1261246196669092
-0.019827494464683976 -0.9270014636180426
-0.03847654131356587 -0.8772206746058259
-0.03847654131356587 -0.8274398855936093
-0.07577463501132967 -0.6780975185569592
-0.09442368186021155 -0.5287551515203092
-0.09442368186021155 -0.27985120645922584
-0.0011784476158020825 -0.08072805041035916
0.0734177397797255 -0.27985120645922584
0.09206678662860739 -0.6780975185569592
0.054768692930843604 -1.0763438306546926
0.09206678662860739 -1.474590142752426
0.14801392717525308 -1.474590142752426
0.12936488032637117 -1.325247775715776
0.20396106772189876 -1.2754669867035593
0.22261011457078064 -1.1759054086791259
0.20396106772189876 -1.2754669867035593
0.18531202087301687 -1.2754669867035593
0.16666297402413496 -1.026563041642476
0.24125916141966255 -0.8274398855936093
0.3158553488151901 -0.8772206746058259
0.35315344251295394 -0.9270014636180426
0.3718024893618358 -0.9270014636180426
0.3158553488151901 -0.8274398855936093
0.27855725511742635 -0.7776590965813925
0.2972063019663082 -0.5287551515203092
0.3718024893618358 -0.5785359405325259
0.3718024893618358 -0.6780975185569592
0.3904515362107177 -0.7278783075691759
0.35315344251295394 -0.8274398855936093
0.3718024893618358 -0.7278783075691759
0.3904515362107177 -0.8772206746058259
0.35315344251295394 -0.9270014636180426
0.3718024893618358 -1.0763438306546926
0.27855725511742635 -1.1759054086791259
0.27855725511742635 -1.1261246196669092
0.25990820826854444 -0.9767822526302593
0.27855725511742635 -0.9270014636180426
0.27855725511742635 -1.0763438306546926
0.25990820826854444 -1.1759054086791259
0.24125916141966255 -1.2754669867035593
0.14801392717525308 -1.4248093537402093
0.09206678662860739 -1.3750285647279927
0.12936488032637117 -1.2256861976913427
0.14801392717525308 -1.2754669867035593
0.24125916141966255 -1.325247775715776
0.18531202087301687 -1.3750285647279927
0.20396106772189876 -1.3750285647279927
0.22261011457078064 -1.0763438306546926
0.27855725511742635 -1.026563041642476
0.27855725511742635 -0.7776590965813925
0.2972063019663082 -0.8274398855936093
0.18531202087301687 -0.8772206746058259
0.03611964608196171 -0.8772206746058259
-0.07577463501132967 -0.8274398855936093
-0.09442368186021155 -0.7776590965813925
-0.05712558816244777 -0.7776590965813925
-0.07577463501132967 -0.9767822526302593
-0.05712558816244777 -1.026563041642476
-0.09442368186021155 -1.1261246196669092
-0.07577463501132967 -1.1261246196669092
-0.07577463501132967 -1.026563041642476
-0.03847654131356587 -0.9270014636180426
0.054768692930843604 -0.9270014636180426
0.03611964608196171 -1.026563041642476
0.017470599233079812 -0.8772206746058259
-0.019827494464683976 -0.9270014636180426
-0.07577463501132967 -0.8274398855936093
-0.05712558816244777 -0.9270014636180426
-0.09442368186021155 -0.9270014636180426
-0.09442368186021155 -1.0763438306546926
-0.15037082240685723 -1.1261246196669092
-0.11307272870909345 -1.0763438306546926
-0.11307272870909345 -0.7776590965813925
-0.07577463501132967 -0.8772206746058259
-0.07577463501132967 -1.026563041642476
-0.11307272870909345 -0.9767822526302593
-0.20631796295350294 -0.9270014636180426
-0.3555103377445581 -0.6780975185569592
-0.2995631971979124 -0.1802896284347925
-0.18766891610462103 0.06861431662629086
-0.0011784476158020825 -0.03094726139814248
0.20396106772189876 0.06861431662629086
0.5955910515484185 -0.03094726139814248
1.2669567381081668 0.01883352761407419
2.143461940005616 0.21795668366294088
3.150510469845238 0.31751826168737424
4.101611859138215 0.21795668366294088
4.8289246862446085 -0.23007041744700918
5.03406420158231 -0.7776590965813925
4.698381358302435 -1.474590142752426
3.915121390649396 -2.2710827669478926
2.8148276265653642 -2.6195482900334093
1.39750006605034 -2.7688906570700595
-0.2436160566512667 -2.6195482900334093
-1.4558041018285899 -2.4702059229967595
-1.9406793198995191 -2.1715211889234594
-1.8101359919573459 -2.071959610899026
-1.5490493360729993 -2.1715211889234594
-1.3625588675841804 -2.320863555960109
-1.1201212585487157 -2.320863555960109
-0.8217365089666054 -2.420425133984543
-0.5606498530822589 -2.1217403999112427
-0.39280843144232186 -1.6737132988012926
-0.2995631971979124 -1.5741517207768594
-0.2809141503490305 -1.4248093537402093
-0.2995631971979124 -1.1759054086791259
-0.2995631971979124 -1.2754669867035593
-0.22496700980238482 -1.0763438306546926
-0.16901986925573914 -0.9270014636180426
-0.16901986925573914 -0.9767822526302593
-0.18766891610462103 -0.9270014636180426
-0.18766891610462103 -0.9767822526302593
-0.22496700980238482 -0.9767822526302593
-0.2436160566512667 -0.9767822526302593
-0.20631796295350294 -0.8274398855936093
-0.18766891610462103 -0.8772206746058259
-0.18766891610462103 -0.8772206746058259
-0.20631796295350294 -1.0763438306546926
-0.16901986925573914 -1.1759054086791259
-0.20631796295350294 -1.1261246196669092
-0.11307272870909345 -1.0763438306546926
-0.07577463501132967 -1.1261246196669092
-0.05712558816244777 -1.1261246196669092
-0.09442368186021155 -1.1759054086791259
-0.11307272870909345 -1.1759054086791259
-0.09442368186021155 -1.0763438306546926
-0.09442368186021155 -0.9767822526302593
-0.03847654131356587 -0.8772206746058259
-0.0011784476158020825 -1.026563041642476
0.054768692930843604 -1.026563041642476
0.03611964608196171 -1.1261246196669092
0.054768692930843604 -1.026563041642476
0.03611964608196171 -0.9270014636180426
0.09206678662860739 -0.9270014636180426
0.054768692930843604 -0.9767822526302593
0.09206678662860739 -1.026563041642476
0.09206678662860739 -1.0763438306546926
0.054768692930843604 -0.9767822526302593
0.14801392717525308 -0.8274398855936093
0.22261011457078064 -0.7776590965813925
0.27855725511742635 -0.9270014636180426
0.27855725511742635 -0.9767822526302593
0.25990820826854444 -0.9767822526302593
0.3158553488151901 -0.8772206746058259
0.35315344251295394 -0.8274398855936093
0.4463986767573634 -0.7776590965813925
0.5023458173040091 -0.8772206746058259
0.5582929578506548 -0.9767822526302593
0.5023458173040091 -1.0763438306546926
0.5023458173040091 -1.026563041642476
0.6142400983973004 -0.8274398855936093
0.6888362857928281 -0.9270014636180426
0.7447834263394737 -0.9767822526302593
0.7074853326417099 -0.9270014636180426
0.7261343794905918 -0.9767822526302593
0.8007305668861194 -0.8772206746058259
0.875326754281647 -0.7776590965813925
0.9126248479794108 -0.6780975185569592
0.9126248479794108 -0.8274398855936093
0.9872210353749383 -0.9767822526302593
0.9312738948282927 -1.026563041642476
0.9872210353749383 -0.9270014636180426
1.043168175921584 -0.6283167295447426
1.1364134101659935 -0.5785359405325259
1.1364134101659935 -0.6283167295447426
1.0804662696193479 -0.8772206746058259
1.0618172227704659 -0.7776590965813925
1.1177643633171117 -0.7278783075691759
1.1550624570148753 -0.5785359405325259
1.1737115038637573 -0.6283167295447426
1.1550624570148753 -0.6780975185569592
1.1177643633171117 -0.8274398855936093
1.0991153164682297 -0.9767822526302593
1.043168175921584 -0.8772206746058259
1.1550624570148753 -0.8274398855936093
1.1550624570148753 -0.7776590965813925
1.0991153164682297 -0.9270014636180426
0.9685719885260564 -1.026563041642476
0.8566777074327651 -1.0763438306546926
0.8566777074327651 -1.026563041642476
0.8939758011305289 -0.9270014636180426
0.875326754281647 -0.8274398855936093
0.7820815200372375 -0.8772206746058259
0.7074853326417099 -1.026563041642476
0.5769420046995366 -0.9767822526302593
0.5023458173040091 -0.9767822526302593
0.4650477236062453 -0.8772206746058259
0.48369677045512716 -0.7776590965813925
0.4277496299084815 -0.9270014636180426
0.35315344251295394 -1.0763438306546926
0.27855725511742635 -1.0763438306546926
0.27855725511742635 -0.9270014636180426
0.25990820826854444 -0.7776590965813925
0.24125916141966255 -0.7278783075691759
0.18531202087301687 -0.8772206746058259
0.14801392717525308 -0.8772206746058259
0.03611964608196171 -0.9270014636180426
0.017470599233079812 -0.9767822526302593
0.0734177397797255 -0.8772206746058259
0.09206678662860739 -0.8772206746058259
0.017470599233079812 -0.8772206746058259
-0.03847654131356587 -1.0763438306546926
-0.05712558816244777 -1.1759054086791259
-0.13172177555797535 -0.9270014636180426
-0.03847654131356587 -0.7278783075691759
0.017470599233079812 -0.9270014636180426
-0.0011784476158020825 -0.8772206746058259
-0.05712558816244777 -1.026563041642476
-0.11307272870909345 -1.026563041642476
-0.05712558816244777 -0.8772206746058259
-0.03847654131356587 -0.6780975185569592
-0.0011784476158020825 -0.7278783075691759
0.054768692930843604 -0.8772206746058259
0.017470599233079812 -1.1261246196669092
-0.019827494464683976 -1.026563041642476
-0.019827494464683976 -0.9270014636180426
0.017470599233079812 -0.8274398855936093
0.054768692930843604 -0.8274398855936093
0.03611964608196171 -1.026563041642476
-0.03847654131356587 -1.0763438306546926
-0.019827494464683976 -1.2256861976913427
-0.019827494464683976 -1.1261246196669092
0.0734177397797255 -0.9767822526302593
0.11071583347748928 -0.9270014636180426
0.09206678662860739 -0.8772206746058259
0.017470599233079812 -0.9767822526302593
-0.0011784476158020825 -1.1261246196669092
-0.0011784476158020825 -1.1261246196669092
0.0734177397797255 -1.0763438306546926
0.14801392717525308 -0.9767822526302593
0.12936488032637117 -1.1261246196669092
0.054768692930843604 -1.2256861976913427
0.03611964608196171 -1.325247775715776
0.017470599233079812 -1.1759054086791259
-0.0011784476158020825 -1.026563041642476
0.054768692930843604 -1.0763438306546926
0.054768692930843604 -1.0763438306546926
0.03611964608196171 -1.1759054086791259
-0.0011784476158020825 -1.1759054086791259
-0.03847654131356587 -1.0763438306546926
0.017470599233079812 -1.026563041642476
0.054768692930843604 -0.9270014636180426
0.054768692930843604 -1.0763438306546926
0.017470599233079812 -1.1759054086791259
-0.019827494464683976 -0.9767822526302593
0.0734177397797255 -0.7776590965813925
0.14801392717525308 -0.8772206746058259
0.24125916141966255 -0.7776590965813925
0.18531202087301687 -0.8772206746058259
0.16666297402413496 -0.8274398855936093
0.14801392717525308 -1.026563041642476
0.14801392717525308 -1.0763438306546926
0.22261011457078064 -0.8772206746058259
0.3158553488151901 -0.8274398855936093
0.3718024893618358 -0.7776590965813925
0.35315344251295394 -0.8772206746058259
0.24125916141966255 -1.026563041642476
0.22261011457078064 -0.9270014636180426
0.2972063019663082 -0.6780975185569592
0.3904515362107177 -0.5785359405325259
0.4091005830595996 -0.7776590965813925
0.3904515362107177 -0.8772206746058259
0.2972063019663082 -1.1261246196669092
0.3158553488151901 -1.1759054086791259
0.33450439566407203 -1.0763438306546926
0.33450439566407203 -1.0763438306546926
0.27855725511742635 -1.1261246196669092
0.24125916141966255 -1.0763438306546926
0.20396106772189876 -0.9767822526302593
0.22261011457078064 -0.9767822526302593
0.27855725511742635 -0.9767822526302593
0.3158553488151901 -1.1759054086791259
0.22261011457078064 -1.2754669867035593
0.09206678662860739 -1.623932509789076
0.054768692930843604 -1.5741517207768594
0.0734177397797255 -1.623932509789076
0.09206678662860739 -1.6737132988012926
0.20396106772189876 -1.7234940878135094
0.18531202087301687 -1.8230556658379427
0.20396106772189876 -2.0221788218868095
0.14801392717525308 -1.8728364548501593
0.0734177397797255 -1.8230556658379427
0.20396106772189876 -1.5741517207768594
0.24125916141966255 -1.474590142752426
0.18531202087301687 -1.325247775715776
0.09206678662860739 -1.3750285647279927
0.054768692930843604 -1.1759054086791259
0.03611964608196171 -0.9767822526302593
0.03611964608196171 -0.9270014636180426
-0.0011784476158020825 -1.0763438306546926
-0.019827494464683976 -1.2256861976913427
-0.09442368186021155 -1.2754669867035593
-0.13172177555797535 -1.4248093537402093
-0.2436160566512667 -1.4248093537402093
-0.15037082240685723 -1.2754669867035593
-0.03847654131356587 -1.2256861976913427
-0.0011784476158020825 -1.1261246196669092
-0.019827494464683976 -1.2256861976913427
-0.07577463501132967 -1.2256861976913427
-0.16901986925573914 -1.1261246196669092
-0.09442368186021155 -1.1261246196669092
-0.07577463501132967 -1.026563041642476
-0.11307272870909345 -0.9270014636180426
-0.16901986925573914 -0.9270014636180426
-0.18766891610462103 -0.9270014636180426
-0.13172177555797535 -0.9767822526302593
-0.05712558816244777 -1.026563041642476
-0.13172177555797535 -1.1261246196669092
-0.11307272870909345 -1.026563041642476
-0.07577463501132967 -1.026563041642476
-0.05712558816244777 -0.8772206746058259
-0.03847654131356587 -0.6283167295447426
-0.019827494464683976 -0.5785359405325259
-0.07577463501132967 -0.7278783075691759
-0.18766891610462103 -0.7278783075691759
-0.2436160566512667 -0.5287551515203092
-0.31821224404679427 -0.13050883942257582
-0.16901986925573914 0.21795668366294088
0.0734177397797255 0.46686062872402423
0.4650477236062453 0.46686062872402423
0.9685719885260564 0.11839510563850754
1.6212886282369228 -0.23007041744700918
2.460495736436608 -0.5287551515203092
3.374299032031821 -0.5287551515203092
4.194857093382624 -0.3296319954714425
4.9408189673379 -0.37941278448365917
5.276501810617774 -0.7278783075691759
5.052713248431191 -1.3750285647279927
4.306751374475915 -2.3706443449723262
3.0945633292985923 -3.2169177581800095
1.7145338624813322 -3.465821703241093
0.0734177397797255 -3.4160409142288763
-1.418506008130826 -3.3662601252166597
-2.164467882086102 -3.465821703241093
-2.108520741539456 -3.3662601252166597
-1.7541888514107002 -3.2169177581800095
-1.3625588675841804 -3.017794602131143
-0.9709288837576606 -2.9182330241067094
-0.6538950873266683 -2.7688906570700595
-0.46740461883784945 -2.6195482900334093
-0.37415938459344 -2.3706443449723262
-0.3368612908956762 -1.9723980328745927
-0.22496700980238482 -1.6737132988012926
-0.16901986925573914 -1.3750285647279927
-0.15037082240685723 -1.1261246196669092
-0.18766891610462103 -1.0763438306546926
-0.20631796295350294 -1.0763438306546926
-0.15037082240685723 -1.026563041642476
-0.15037082240685723 -0.7278783075691759
-0.07577463501132967 -0.6283167295447426
-0.09442368186021155 -0.5785359405325259
-0.11307272870909345 -0.8274398855936093
-0.16901986925573914 -0.8772206746058259
-0.18766891610462103 -0.9270014636180426
-0.13172177555797535 -0.9270014636180426
-0.05712558816244777 -0.8274398855936093
-0.09442368186021155 -0.8772206746058259
-0.09442368186021155 -0.9270014636180426
-0.18766891610462103 -0.9270014636180426
-0.16901986925573914 -0.5785359405325259
-0.05712558816244777 -0.6283167295447426
0.054768692930843604 -0.7776590965813925
0.03611964608196171 -1.026563041642476
-0.019827494464683976 -1.1261246196669092
-0.019827494464683976 -0.9767822526302593
-0.03847654131356587 -0.7776590965813925
0.0734177397797255 -0.7278783075691759
0.12936488032637117 -0.7278783075691759
0.11071583347748928 -0.9270014636180426
0.03611964608196171 -0.9767822526302593
0.03611964608196171 -0.7776590965813925
0.0734177397797255 -0.5287551515203092
0.11071583347748928 -0.37941278448365917
0.16666297402413496 -0.23007041744700918
0.24125916141966255 -0.47897436250809255
0.25990820826854444 -0.7776590965813925
0.24125916141966255 -1.1261246196669092
0.2972063019663082 -1.0763438306546926
0.33450439566407203 -0.9767822526302593
0.3718024893618358 -0.8772206746058259
0.4277496299084815 -0.9270014636180426
0.4091005830595996 -0.9767822526302593
0.3904515362107177 -0.9767822526302593
0.4277496299084815 -0.6780975185569592
0.5396439110017729 -0.42919357349587584
0.5955910515484185 -0.37941278448365917
0.6701872389439462 -0.5785359405325259
0.6328891452461823 -0.7278783075691759
0.6515381920950643 -0.8772206746058259
0.6515381920950643 -0.6283167295447426
0.7634324731883556 -0.6283167295447426
0.8193796137350012 -0.5785359405325259
0.9126248479794108 -0.47897436250809255
0.875326754281647 -0.5785359405325259
0.9126248479794108 -0.6283167295447426
0.9685719885260564 -0.3296319954714425
1.043168175921584 -0.27985120645922584
1.0618172227704659 -0.1802896284347925
1.0618172227704659 -0.23007041744700918
1.0618172227704659 -0.23007041744700918
1.0804662696193479 -0.3296319954714425
1.1550624570148753 -0.27985120645922584
1.1923605507126391 -0.1802896284347925
1.2856057849570486 -0.08072805041035916
1.229658644410403 -0.27985120645922584
1.2110095975615212 -0.27985120645922584
1.2110095975615212 -0.3296319954714425
1.1550624570148753 -0.1802896284347925
1.2669567381081668 -0.13050883942257582
1.3415529255036944 0.01883352761407419
1.3042548318059306 -0.1802896284347925
1.2483076912592848 -0.27985120645922584
1.1737115038637573 -0.42919357349587584
1.1923605507126391 -0.27985120645922584
1.1923605507126391 -0.23007041744700918
1.1737115038637573 -0.23007041744700918
1.1177643633171117 -0.08072805041035916
0.9872210353749383 -0.13050883942257582
0.9685719885260564 -0.1802896284347925
0.9872210353749383 -0.23007041744700918
1.0058700822238202 -0.1802896284347925
1.0058700822238202 -0.27985120645922584
0.9312738948282927 -0.37941278448365917
0.8193796137350012 -0.5287551515203092
0.7820815200372375 -0.6780975185569592
0.7261343794905918 -0.5287551515203092
0.6701872389439462 -0.6283167295447426
0.7261343794905918 -0.5287551515203092
0.5955910515484185 -0.5785359405325259
0.5396439110017729 -0.7776590965813925
0.4463986767573634 -0.8274398855936093
0.3904515362107177 -0.7278783075691759
0.3904515362107177 -0.5785359405325259
0.4277496299084815 -0.5287551515203092
0.3718024893618358 -0.7776590965813925
0.25990820826854444 -0.7278783075691759
0.24125916141966255 -0.8274398855936093
0.24125916141966255 -0.7278783075691759
0.3158553488151901 -0.7278783075691759
0.33450439566407203 -0.5785359405325259
0.33450439566407203 -0.8274398855936093
0.24125916141966255 -0.7776590965813925
0.20396106772189876 -0.8772206746058259
0.22261011457078064 -0.7776590965813925
0.25990820826854444 -0.6780975185569592
0.27855725511742635 -0.6283167295447426
0.27855725511742635 -0.5287551515203092
0.24125916141966255 -0.6283167295447426
0.24125916141966255 -0.7776590965813925
0.20396106772189876 -0.6283167295447426
0.22261011457078064 -0.5287551515203092
0.25990820826854444 -0.5785359405325259
0.2972063019663082 -0.6780975185569592
0.25990820826854444 -0.8274398855936093
0.24125916141966255 -0.7278783075691759
0.20396106772189876 -0.5287551515203092
0.24125916141966255 -0.37941278448365917
0.25990820826854444 -0.3296319954714425
0.27855725511742635 -0.37941278448365917
0.22261011457078064 -0.37941278448365917
0.14801392717525308 -0.27985120645922584
0.11071583347748928 0.01883352761407419
0.11071583347748928 0.16817589465072422
0.20396106772189876 0.16817589465072422
0.24125916141966255 -0.1802896284347925
0.22261011457078064 -0.7278783075691759
0.20396106772189876 -1.2754669867035593
0.27855725511742635 -1.474590142752426
0.24125916141966255 -1.4248093537402093
0.3158553488151901 -1.325247775715776
0.2972063019663082 -1.2754669867035593
0.27855725511742635 -1.3750285647279927
0.24125916141966255 -1.2256861976913427
0.18531202087301687 -1.0763438306546926
0.18531202087301687 -0.8772206746058259
0.24125916141966255 -0.8274398855936093
0.2972063019663082 -0.8772206746058259
0.18531202087301687 -1.026563041642476
0.20396106772189876 -1.1261246196669092
0.22261011457078064 -1.1261246196669092
0.22261011457078064 -0.9767822526302593
0.24125916141966255 -0.8772206746058259
0.25990820826854444 -0.8772206746058259
0.22261011457078064 -0.9767822526302593
0.20396106772189876 -0.9270014636180426
0.18531202087301687 -0.9270014636180426
0.25990820826854444 -0.8274398855936093
0.3158553488151901 -0.8274398855936093
0.2972063019663082 -0.8772206746058259
0.27855725511742635 -0.9270014636180426
0.35315344251295394 -1.026563041642476
0.3718024893618358 -0.8274398855936093
0.3718024893618358 -0.6283167295447426
0.4463986767573634 -0.6780975185569592
0.4277496299084815 -0.5785359405325259
0.3718024893618358 -0.6283167295447426
0.3718024893618358 -0.6780975185569592
0.3904515362107177 -0.47897436250809255
0.4650477236062453 -0.23007041744700918
0.5582929578506548 -0.3296319954714425
0.5582929578506548 -0.5785359405325259
0.48369677045512716 -0.9270014636180426
0.4463986767573634 -1.1261246196669092
0.35315344251295394 -1.026563041642476
0.4091005830595996 -0.9270014636180426
0.4277496299084815 -0.9270014636180426
0.4091005830595996 -1.026563041642476
0.33450439566407203 -1.026563041642476
0.3158553488151901 -1.0763438306546926
0.3904515362107177 -1.026563041642476
0.4277496299084815 -1.0763438306546926
0.4277496299084815 -1.1261246196669092
0.3718024893618358 -1.1759054086791259
0.24125916141966255 -1.2256861976913427
0.24125916141966255 -1.0763438306546926
0.27855725511742635 -0.7278783075691759
0.27855725511742635 -0.5287551515203092
0.3158553488151901 -0.5287551515203092
0.27855725511742635 -0.6780975185569592
0.27855725511742635 -0.9270014636180426
0.35315344251295394 -1.1759054086791259
0.4277496299084815 -1.2754669867035593
0.4463986767573634 -1.3750285647279927
0.4091005830595996 -1.3750285647279927
0.3718024893618358 -1.2256861976913427
0.27855725511742635 -1.4248093537402093
0.16666297402413496 -1.3750285647279927
0.0734177397797255 -1.2256861976913427
0.09206678662860739 -1.1759054086791259
0.12936488032637117 -1.0763438306546926
0.09206678662860739 -0.9767822526302593
-0.0011784476158020825 -1.1759054086791259
-0.03847654131356587 -1.026563041642476
0.017470599233079812 -0.8772206746058259
0.0734177397797255 -0.9767822526302593
0.11071583347748928 -0.8274398855936093
0.03611964608196171 -0.8772206746058259
-0.03847654131356587 -1.026563041642476
-0.019827494464683976 -1.0763438306546926
0.03611964608196171 -1.0763438306546926
0.03611964608196171 -0.8274398855936093
0.09206678662860739 -0.7776590965813925
0.054768692930843604 -0.8772206746058259
0.054768692930843604 -0.9270014636180426
0.017470599233079812 -0.9767822526302593
-0.019827494464683976 -0.9270014636180426
0.017470599233079812 -0.7278783075691759
0.03611964608196171 -0.5785359405325259
-0.019827494464683976 -0.5785359405325259
-0.13172177555797535 -0.47897436250809255
-0.20631796295350294 -0.5287551515203092
-0.31821224404679427 0.01883352761407419
-0.2995631971979124 0.41707983971180757
-0.22496700980238482 0.8153261518095409
0.09206678662860739 1.0642300968706242
0.5023458173040091 1.1637916748950576
1.0058700822238202 1.0642300968706242
1.6585867219346866 0.964668518846191
2.5164428769832536 0.8153261518095409
3.46754426627623 0.8153261518095409
4.325400421324797 0.5664222067484576
5.090011342128955 0.11839510563850754
5.3324489511644195 -1.026563041642476
4.8289246862446085 -2.1217403999112427
3.709981875311695 -3.1173561801555763
2.3299524084944347 -3.7147256483021764
0.7261343794905918 -3.913848804351043
-0.9336307900598968 -3.7147256483021764
-2.033924554143929 -3.565383281265526
-2.2763621631793933 -3.4160409142288763
-1.9406793198995191 -3.5156024922533096
-1.5117512423752355 -3.3662601252166597
-1.1387703053975977 -3.3164793362044427
-0.8403855558154874 -3.1173561801555763
-0.5979479467800227 -2.719109868057843
-0.41145747829120377 -2.2710827669478926
-0.2622651035001486 -1.8728364548501593
-0.13172177555797535 -1.6737132988012926
-0.07577463501132967 -1.4248093537402093
-0.11307272870909345 -1.4248093537402093
-0.11307272870909345 -1.2256861976913427
-0.16901986925573914 -0.9767822526302593
-0.03847654131356587 -0.9270014636180426
-0.03847654131356587 -0.7776590965813925
-0.09442368186021155 -0.7278783075691759
-0.09442368186021155 -0.8274398855936093
-0.09442368186021155 -0.8772206746058259
-0.09442368186021155 -0.9767822526302593
-0.07577463501132967 -0.7776590965813925
-0.05712558816244777 -0.5785359405325259
-0.03847654131356587 -0.7776590965813925
-0.05712558816244777 -0.7278783075691759
-0.13172177555797535 -0.7776590965813925
-0.11307272870909345 -0.8274398855936093
-0.019827494464683976 -0.6283167295447426
0.054768692930843604 -0.6283167295447426
0.03611964608196171 -0.8274398855936093
0.017470599233079812 -0.9270014636180426
-0.03847654131356587 -0.9270014636180426
-0.019827494464683976 -0.7776590965813925
0.017470599233079812 -0.7278783075691759
0.03611964608196171 -0.5785359405325259
0.03611964608196171 -0.6283167295447426
-0.0011784476158020825 -0.7278783075691759
-0.0011784476158020825 -0.8274398855936093
0.017470599233079812 -0.7278783075691759
0.054768692930843604 -0.5785359405325259
0.12936488032637117 -0.6283167295447426
0.18531202087301687 -0.5287551515203092
0.11071583347748928 -0.7278783075691759
0.14801392717525308 -0.7776590965813925
0.14801392717525308 -0.6780975185569592
0.24125916141966255 -0.6780975185569592
0.25990820826854444 -0.47897436250809255
0.3158553488151901 -0.42919357349587584
0.33450439566407203 -0.42919357349587584
0.33450439566407203 -0.5287551515203092
0.35315344251295394 -0.47897436250809255
0.3904515362107177 -0.47897436250809255
0.5023458173040091 -0.47897436250809255
0.5396439110017729 -0.42919357349587584
0.520994864152891 -0.6283167295447426
0.5582929578506548 -0.5785359405325259
0.5582929578506548 -0.5785359405325259
0.6515381920950643 -0.37941278448365917
0.7261343794905918 -0.5287551515203092
0.7634324731883556 -0.42919357349587584
0.7820815200372375 -0.47897436250809255
0.8007305668861194 -0.5287551515203092
0.8380286605838831 -0.37941278448365917
0.8566777074327651 -0.27985120645922584
0.9685719885260564 -0.1802896284347925
0.9312738948282927 -0.27985120645922584
0.9312738948282927 -0.23007041744700918
0.8939758011305289 -0.08072805041035916
0.8939758011305289 -0.08072805041035916
1.0058700822238202 0.06861431662629086
1.1177643633171117 0.21795668366294088
1.1737115038637573 0.06861431662629086
1.1364134101659935 -0.08072805041035916
1.1177643633171117 -0.13050883942257582
1.1550624570148753 -0.08072805041035916
1.2110095975615212 0.06861431662629086
1.2483076912592848 -0.08072805041035916
1.1737115038637573 -0.1802896284347925
1.2110095975615212 -0.23007041744700918
1.1550624570148753 -0.1802896284347925
1.1923605507126391 -0.13050883942257582
1.229658644410403 -0.13050883942257582
1.2856057849570486 -0.08072805041035916
1.2669567381081668 -0.13050883942257582
1.2669567381081668 -0.23007041744700918
1.1923605507126391 -0.3296319954714425
1.1550624570148753 -0.27985120645922584
1.1923605507126391 -0.23007041744700918
1.1550624570148753 -0.23007041744700918
1.0991153164682297 -0.27985120645922584
1.0618172227704659 -0.3296319954714425
0.9312738948282927 -0.37941278448365917
0.8380286605838831 -0.37941278448365917
0.8193796137350012 -0.27985120645922584
0.8007305668861194 -0.27985120645922584
0.7261343794905918 -0.3296319954714425
0.6701872389439462 -0.6283167295447426
0.5955910515484185 -0.5785359405325259
0.48369677045512716 -0.42919357349587584
0.5023458173040091 -0.47897436250809255
0.5023458173040091 -0.3296319954714425
0.4091005830595996 -0.47897436250809255
0.3718024893618358 -0.5785359405325259
0.22261011457078064 -0.6283167295447426
0.18531202087301687 -0.6780975185569592
0.18531202087301687 -0.5287551515203092
0.14801392717525308 -0.42919357349587584
0.0734177397797255 -0.6283167295447426
0.054768692930843604 -0.5287551515203092
0.017470599233079812 -0.42919357349587584
-0.019827494464683976 -0.3296319954714425
0.017470599233079812 0.01883352761407419
0.11071583347748928 0.01883352761407419
0.09206678662860739 -0.13050883942257582
0.14801392717525308 -0.5785359405325259
0.14801392717525308 -0.5785359405325259
0.12936488032637117 -0.3296319954714425
0.14801392717525308 -0.23007041744700918
0.11071583347748928 -0.47897436250809255
0.054768692930843604 -0.7776590965813925
0.054768692930843604 -1.2256861976913427
0.09206678662860739 -1.3750285647279927
0.09206678662860739 -1.2754669867035593
0.054768692930843604 -1.1759054086791259
0.11071583347748928 -1.0763438306546926
0.11071583347748928 -1.026563041642476
0.0734177397797255 -1.0763438306546926
0.16666297402413496 -1.1759054086791259
0.12936488032637117 -1.1759054086791259
0.14801392717525308 -0.9767822526302593
0.16666297402413496 -0.9767822526302593
0.16666297402413496 -1.0763438306546926
0.09206678662860739 -1.0763438306546926
0.09206678662860739 -1.0763438306546926
0.11071583347748928 -0.9767822526302593
0.12936488032637117 -0.8772206746058259
0.14801392717525308 -0.7776590965813925
0.0734177397797255 -0.8772206746058259
0.017470599233079812 -0.9767822526302593
-0.05712558816244777 -0.8772206746058259
-0.03847654131356587 -0.9270014636180426
0.017470599233079812 -0.6780975185569592
0.03611964608196171 -0.7776590965813925
-0.019827494464683976 -0.8274398855936093
-0.0011784476158020825 -0.8274398855936093
-0.019827494464683976 -0.7278783075691759
-0.03847654131356587 -0.7278783075691759
-0.019827494464683976 -0.6283167295447426
0.03611964608196171 -0.5785359405325259
0.03611964608196171 -0.6283167295447426
-0.019827494464683976 -0.7776590965813925
-0.03847654131356587 -0.7776590965813925
-0.09442368186021155 -0.7278783075691759
-0.05712558816244777 -0.6283167295447426
-0.019827494464683976 -0.6780975185569592
-0.03847654131356587 -0.6283167295447426
-0.0011784476158020825 -0.6780975185569592
-0.019827494464683976 -0.7278783075691759
-0.0011784476158020825 -0.5785359405325259
0.11071583347748928 -0.47897436250809255
0.22261011457078064 -0.47897436250809255
0.24125916141966255 -0.47897436250809255
0.20396106772189876 -0.6283167295447426
0.24125916141966255 -0.6780975185569592
0.16666297402413496 -0.5287551515203092
0.25990820826854444 -0.27985120645922584
0.33450439566407203 -0.23007041744700918
0.33450439566407203 -0.1802896284347925
0.2972063019663082 -0.37941278448365917
0.25990820826854444 -0.42919357349587584
0.25990820826854444 -0.3296319954714425
0.35315344251295394 -0.1802896284347925
0.3718024893618358 -0.13050883942257582
0.33450439566407203 -0.3296319954714425
0.25990820826854444 -0.5785359405325259
0.25990820826854444 -0.7776590965813925
0.27855725511742635 -0.8772206746058259
0.3904515362107177 -0.9270014636180426
0.4091005830595996 -1.026563041642476
0.4091005830595996 -0.9270014636180426
0.3718024893618358 -1.2256861976913427
0.35315344251295394 -1.1759054086791259
0.2972063019663082 -1.1261246196669092
0.3158553488151901 -1.026563041642476
0.2972063019663082 -1.0763438306546926
0.24125916141966255 -1.0763438306546926
0.12936488032637117 -1.2754669867035593
0.054768692930843604 -1.474590142752426
0.054768692930843604 -1.3750285647279927
0.14801392717525308 -1.1261246196669092
0.16666297402413496 -1.0763438306546926
0.12936488032637117 -1.1261246196669092
0.11071583347748928 -1.1261246196669092
0.09206678662860739 -1.1261246196669092
0.054768692930843604 -0.8772206746058259
0.054768692930843604 -0.47897436250809255
0.054768692930843604 -0.23007041744700918
0.11071583347748928 -0.3296319954714425
0.03611964608196171 -0.6283167295447426
-0.0011784476158020825 -0.7776590965813925
-0.09442368186021155 -0.8772206746058259
-0.13172177555797535 -0.8772206746058259
-0.019827494464683976 -0.7776590965813925
-0.019827494464683976 -0.9270014636180426
-0.05712558816244777 -0.9270014636180426
-0.11307272870909345 -0.9767822526302593
-0.13172177555797535 -0.8772206746058259
-0.13172177555797535 -0.6780975185569592
-0.07577463501132967 -0.6283167295447426
-0.09442368186021155 -0.6283167295447426
-0.15037082240685723 -0.8274398855936093
-0.11307272870909345 -0.8772206746058259
-0.11307272870909345 -0.9270014636180426
-0.05712558816244777 -0.7776590965813925
-0.03847654131356587 -0.6780975185569592
-0.05712558816244777 -0.7776590965813925
-0.11307272870909345 -0.8274398855936093
-0.11307272870909345 -0.8274398855936093
-0.18766891610462103 -0.7278783075691759
-0.13172177555797535 -0.6283167295447426
-0.13172177555797535 -0.6283167295447426
-0.20631796295350294 -0.6283167295447426
-0.31821224404679427 -0.5785359405325259
-0.39280843144232186 -0.47897436250809255
-0.39280843144232186 -0.13050883942257582
-0.2995631971979124 0.21795668366294088
-0.18766891610462103 0.46686062872402423
0.11071583347748928 0.516641417736241
0.520994864152891 0.31751826168737424
1.0991153164682297 0.06861431662629086
1.8450771904235055 0.06861431662629086
2.796178579716482 0.21795668366294088
3.8405252032538684 0.2677374726751576
4.567838030360262 -0.08072805041035916
4.735679452000199 -0.6780975185569592
4.269453280778152 -1.5243709317646426
3.4115971257295845 -2.5697675010211927
2.255356221098907 -3.0675753911433596
0.7820815200372375 -3.017794602131143
-0.8403855558154874 -3.0675753911433596
-2.015275507295047 -2.818671446082276
-2.2763621631793933 -2.669329079045626
-2.033924554143929 -2.6195482900334093
-1.772837898259582 -2.6195482900334093
-1.4931021955263537 -2.6195482900334093
-1.1760683990953615 -2.4702059229967595
-0.8403855558154874 -2.420425133984543
-0.5792988999311408 -2.1715211889234594
-0.37415938459344 -1.8728364548501593
-0.2995631971979124 -1.623932509789076
-0.2809141503490305 -1.325247775715776
-0.2436160566512667 -1.026563041642476
-0.2436160566512667 -1.026563041642476
-0.22496700980238482 -1.026563041642476
-0.20631796295350294 -1.026563041642476
-0.22496700980238482 -0.9767822526302593
-0.20631796295350294 -0.8772206746058259
-0.2622651035001486 -1.0763438306546926
-0.2436160566512667 -1.0763438306546926
-0.2809141503490305 -1.0763438306546926
-0.20631796295350294 -1.0763438306546926
-0.18766891610462103 -0.8274398855936093
-0.15037082240685723 -0.7776590965813925
-0.16901986925573914 -0.8274398855936093
-0.18766891610462103 -0.8772206746058259
-0.22496700980238482 -0.9270014636180426
-0.22496700980238482 -0.6780975185569592
-0.18766891610462103 -0.7278783075691759
-0.07577463501132967 -0.6283167295447426
-0.03847654131356587 -0.6780975185569592
-0.09442368186021155 -0.9767822526302593
-0.11307272870909345 -1.026563041642476
-0.09442368186021155 -0.8772206746058259
-0.0011784476158020825 -0.7278783075691759
0.0734177397797255 -0.5785359405325259
0.017470599233079812 -0.47897436250809255
0.0734177397797255 -0.47897436250809255
0.054768692930843604 -0.5287551515203092
0.017470599233079812 -0.6283167295447426
0.054768692930843604 -0.5287551515203092
0.09206678662860739 -0.42919357349587584
0.12936488032637117 -0.42919357349587584
0.12936488032637117 -0.5785359405325259
0.16666297402413496 -0.7776590965813925
0.18531202087301687 -0.8772206746058259
0.27855725511742635 -0.9767822526302593
0.33450439566407203 -1.1759054086791259
0.3718024893618358 -1.3750285647279927
0.3158553488151901 -1.4248093537402093
0.3904515362107177 -1.325247775715776
0.4091005830595996 -1.0763438306546926
0.520994864152891 -0.9270014636180426
0.5955910515484185 -0.8274398855936093
0.6328891452461823 -1.026563041642476
0.6515381920950643 -1.2754669867035593
0.7447834263394737 -1.325247775715776
0.7820815200372375 -1.2754669867035593
0.875326754281647 -1.1261246196669092
0.9312738948282927 -0.9767822526302593
0.9499229416771745 -0.9767822526302593
0.9499229416771745 -0.8274398855936093
0.9499229416771745 -0.6780975185569592
0.9685719885260564 -0.6780975185569592
0.9872210353749383 -0.6283167295447426
0.9685719885260564 -0.47897436250809255
1.024519129072702 -0.42919357349587584
1.0618172227704659 -0.5287551515203092
1.0804662696193479 -0.6283167295447426
1.1550624570148753 -0.5287551515203092
1.1364134101659935 -0.5287551515203092
1.2110095975615212 -0.3296319954714425
1.2669567381081668 -0.47897436250809255
1.2669567381081668 -0.5287551515203092
1.229658644410403 -0.6780975185569592
1.229658644410403 -0.7278783075691759
1.3042548318059306 -0.5287551515203092
1.2669567381081668 -0.42919357349587584
1.3229038786548124 -0.47897436250809255
1.2856057849570486 -0.47897436250809255
1.3042548318059306 -0.5785359405325259
1.3042548318059306 -0.42919357349587584
1.3602019723525762 -0.37941278448365917
1.2856057849570486 -0.37941278448365917
1.1550624570148753 -0.3296319954714425
1.0804662696193479 -0.47897436250809255
0.9872210353749383 -0.42919357349587584
0.9685719885260564 -0.23007041744700918
0.9685719885260564 -0.27985120645922584
1.0058700822238202 -0.27985120645922584
0.9312738948282927 -0.42919357349587584
0.8939758011305289 -0.8274398855936093
0.8007305668861194 -1.1759054086791259
0.7074853326417099 -1.325247775715776
0.7261343794905918 -1.1759054086791259
0.7447834263394737 -1.026563041642476
0.6701872389439462 -0.9767822526302593
0.5023458173040091 -0.9767822526302593
0.35315344251295394 -1.0763438306546926
0.2972063019663082 -1.026563041642476
0.27855725511742635 -0.7776590965813925
0.35315344251295394 -0.6283167295447426
0.3158553488151901 -0.5785359405325259
0.25990820826854444 -0.7776590965813925
0.24125916141966255 -0.8274398855936093
0.16666297402413496 -0.7776590965813925
0.16666297402413496 -0.7278783075691759
0.0734177397797255 -0.7278783075691759
0.03611964608196171 -0.9767822526302593
-0.03847654131356587 -0.9767822526302593
-0.05712558816244777 -0.9767822526302593
-0.07577463501132967 -0.8772206746058259
-0.09442368186021155 -0.6283167295447426
-0.05712558816244777 -0.5287551515203092
-0.11307272870909345 -0.5287551515203092
-0.20631796295350294 -0.5785359405325259
-0.16901986925573914 -0.6283167295447426
-0.13172177555797535 -0.5287551515203092
-0.09442368186021155 -0.5785359405325259
-0.05712558816244777 -0.7776590965813925
-0.09442368186021155 -0.7776590965813925
-0.15037082240685723 -0.8772206746058259
-0.20631796295350294 -0.8772206746058259
-0.20631796295350294 -0.8274398855936093
-0.11307272870909345 -0.8274398855936093
-0.019827494464683976 -0.7278783075691759
-0.019827494464683976 -0.7278783075691759
-0.05712558816244777 -0.5785359405325259
-0.09442368186021155 -0.42919357349587584
-0.16901986925573914 -0.1802896284347925
-0.16901986925573914 -0.13050883942257582
-0.11307272870909345 -0.13050883942257582
-0.15037082240685723 -0.13050883942257582
-0.13172177555797535 -0.03094726139814248
-0.20631796295350294 0.21795668366294088
-0.22496700980238482 0.46686062872402423
-0.18766891610462103 0.3672990506995909
-0.11307272870909345 0.16817589465072422
-0.11307272870909345 -0.1802896284347925
-0.11307272870909345 -0.8274398855936093
-0.09442368186021155 -1.1759054086791259
-0.11307272870909345 -1.2256861976913427
-0.15037082240685723 -1.0763438306546926
-0.18766891610462103 -0.7278783075691759
-0.18766891610462103 -0.5287551515203092
-0.16901986925573914 -0.5287551515203092
-0.18766891610462103 -0.8274398855936093
-0.15037082240685723 -1.0763438306546926
-0.05712558816244777 -1.325247775715776
-0.0011784476158020825 -1.474590142752426
-0.019827494464683976 -1.3750285647279927
-0.05712558816244777 -1.2256861976913427
-0.09442368186021155 -1.026563041642476
-0.13172177555797535 -1.026563041642476
-0.05712558816244777 -0.9270014636180426
-0.07577463501132967 -0.7278783075691759
-0.11307272870909345 -0.8274398855936093
-0.22496700980238482 -0.8772206746058259
-0.3555103377445581 -0.6780975185569592
-0.46740461883784945 -0.6780975185569592
-0.44875557198896754 -0.23007041744700918
-0.39280843144232186 0.01883352761407419
-0.18766891610462103 0.06861431662629086
0.16666297402413496 -0.08072805041035916
0.7447834263394737 -0.13050883942257582
1.5093943471436313 -0.08072805041035916
2.47914478328549 0.01883352761407419
3.504842359973994 0.2677374726751576
4.3999966087203255 0.11839510563850754
4.810275639395726 -0.3296319954714425
4.530539936662499 -0.9767822526302593
3.5980875942184034 -1.8230556658379427
2.3858995490410804 -2.320863555960109
0.9499229416771745 -2.320863555960109
-0.5979479467800227 -1.8230556658379427
-1.7355398045618182 -1.474590142752426
-2.0898716946905744 -1.2256861976913427
-1.8287850388062277 -1.4248093537402093
-1.5304002892241175 -1.474590142752426
-1.2320155396420072 -1.474590142752426
-0.8590346026643693 -1.5243709317646426
-0.542000806233377 -1.7234940878135094
-0.37415938459344 -1.623932509789076
-0.41145747829120377 -1.623932509789076
-0.3368612908956762 -1.325247775715776
-0.31821224404679427 -0.8772206746058259
-0.2436160566512667 -0.5287551515203092
-0.22496700980238482 -0.27985120645922584
-0.20631796295350294 -0.37941278448365917
-0.20631796295350294 -0.6283167295447426
-0.13172177555797535 -1.026563041642476
-0.18766891610462103 -1.3750285647279927
-0.11307272870909345 -1.5741517207768594
-0.11307272870909345 -1.5243709317646426
-0.13172177555797535 -1.5243709317646426
-0.20631796295350294 -1.5741517207768594
-0.18766891610462103 -1.325247775715776
-0.11307272870909345 -1.3750285647279927
-0.09442368186021155 -1.325247775715776
-0.09442368186021155 -1.325247775715776
-0.13172177555797535 -1.325247775715776
-0.13172177555797535 -1.325247775715776
-0.07577463501132967 -1.026563041642476
-0.0011784476158020825 -0.9270014636180426
0.017470599233079812 -0.9270014636180426
-0.019827494464683976 -1.026563041642476
-0.03847654131356587 -0.9270014636180426
-0.0011784476158020825 -0.9270014636180426
0.0734177397797255 -0.7776590965813925
0.09206678662860739 -0.6283167295447426
-0.019827494464683976 -0.6780975185569592
-0.11307272870909345 -0.7776590965813925
-0.05712558816244777 -0.7278783075691759
-0.0011784476158020825 -0.42919357349587584
0.11071583347748928 -0.42919357349587584
0.11071583347748928 -0.27985120645922584
0.09206678662860739 -0.27985120645922584
0.11071583347748928 -0.27985120645922584
0.0734177397797255 -0.37941278448365917
0.11071583347748928 -0.37941278448365917
0.27855725511742635 -0.42919357349587584
0.3904515362107177 -0.37941278448365917
0.4277496299084815 -0.5287551515203092
0.4277496299084815 -0.7776590965813925
0.3904515362107177 -0.9270014636180426
0.3718024893618358 -1.026563041642476
0.4650477236062453 -1.1261246196669092
0.5769420046995366 -0.9767822526302593
0.6142400983973004 -1.2256861976913427
0.6888362857928281 -1.2754669867035593
0.6328891452461823 -1.0763438306546926
0.5769420046995366 -0.8274398855936093
0.5582929578506548 -0.6780975185569592
0.6328891452461823 -0.6780975185569592
0.6328891452461823 -0.47897436250809255
0.7261343794905918 -0.5287551515203092
0.8007305668861194 -0.5785359405325259
0.8380286605838831 -0.5287551515203092
0.8939758011305289 -0.42919357349587584
0.9872210353749383 -0.27985120645922584
1.0058700822238202 -0.42919357349587584
0.9685719885260564 -0.47897436250809255
0.9499229416771745 -0.5287551515203092
0.9872210353749383 -0.42919357349587584
1.0804662696193479 -0.27985120645922584
1.1364134101659935 -0.37941278448365917
1.0991153164682297 -0.42919357349587584
1.0618172227704659 -0.47897436250809255
1.043168175921584 -0.6283167295447426
1.0058700822238202 -0.47897436250809255
0.9872210353749383 -0.5287551515203092
0.9312738948282927 -0.47897436250809255
0.9499229416771745 -0.5785359405325259
0.8939758011305289 -0.6283167295447426
0.8566777074327651 -0.5785359405325259
0.8193796137350012 -0.5287551515203092
0.7820815200372375 -0.37941278448365917
0.8007305668861194 -0.37941278448365917
0.7074853326417099 -0.42919357349587584
0.6328891452461823 -0.5287551515203092
0.48369677045512716 -0.47897436250809255
0.3904515362107177 -0.5785359405325259
0.2972063019663082 -0.42919357349587584
0.2972063019663082 -0.42919357349587584
0.16666297402413496 -0.42919357349587584
0.18531202087301687 -0.6780975185569592
0.11071583347748928 -0.7776590965813925
0.054768692930843604 -0.7278783075691759
0.11071583347748928 -0.6283167295447426
0.09206678662860739 -0.47897436250809255
-0.0011784476158020825 -0.47897436250809255
-0.16901986925573914 -0.6283167295447426
-0.20631796295350294 -0.6780975185569592
-0.18766891610462103 -0.7278783075691759
-0.16901986925573914 -0.5287551515203092
-0.13172177555797535 -0.6780975185569592
-0.07577463501132967 -0.6780975185569592
-0.11307272870909345 -0.7776590965813925
-0.15037082240685723 -0.6780975185569592
-0.13172177555797535 -0.6780975185569592
-0.07577463501132967 -0.6780975185569592
-0.09442368186021155 -0.5287551515203092
-0.15037082240685723 -0.5785359405325259
-0.05712558816244777 -0.7278783075691759
-0.05712558816244777 -0.6780975185569592
-0.09442368186021155 -0.6283167295447426
-0.09442368186021155 -0.47897436250809255
-0.07577463501132967 -0.37941278448365917
-0.09442368186021155 -0.37941278448365917
-0.13172177555797535 -0.5785359405325259
-0.11307272870909345 -0.6283167295447426
-0.18766891610462103 -0.6283167295447426
-0.15037082240685723 -0.5287551515203092
-0.11307272870909345 -0.5287551515203092
-0.11307272870909345 -0.42919357349587584
-0.15037082240685723 -0.5785359405325259
-0.09442368186021155 -0.6283167295447426
-0.11307272870909345 -0.6283167295447426
-0.11307272870909345 -0.47897436250809255
-0.09442368186021155 -0.42919357349587584
-0.13172177555797535 -0.47897436250809255
-0.05712558816244777 -0.7278783075691759
-0.05712558816244777 -0.7278783075691759
-0.13172177555797535 -0.7278783075691759
-0.09442368186021155 -0.8274398855936093
-0.0011784476158020825 -0.6780975185569592
-0.03847654131356587 -0.7776590965813925
-0.07577463501132967 -0.9767822526302593
-0.15037082240685723 -0.9270014636180426
-0.22496700980238482 -0.8274398855936093
-0.11307272870909345 -0.8274398855936093
-0.05712558816244777 -0.7278783075691759
-0.07577463501132967 -0.9767822526302593
-0.03847654131356587 -1.1261246196669092
-0.07577463501132967 -1.1261246196669092
-0.09442368186021155 -0.9767822526302593
-0.11307272870909345 -0.8274398855936093
-0.019827494464683976 -0.8274398855936093
0.0734177397797255 -0.7776590965813925
-0.0011784476158020825 -0.8772206746058259
-0.019827494464683976 -0.8274398855936093
-0.11307272870909345 -0.8772206746058259
-0.09442368186021155 -0.6780975185569592
-0.07577463501132967 -0.7278783075691759
-0.13172177555797535 -0.7278783075691759
-0.15037082240685723 -0.9270014636180426
-0.2436160566512667 -0.9767822526302593
-0.20631796295350294 -0.9270014636180426
-0.16901986925573914 -0.8274398855936093
-0.13172177555797535 -0.7278783075691759
-0.09442368186021155 -0.6780975185569592
-0.09442368186021155 -0.8772206746058259
-0.11307272870909345 -0.9767822526302593
-0.16901986925573914 -0.8772206746058259
-0.22496700980238482 -0.7278783075691759
-0.2995631971979124 -0.6283167295447426
-0.3555103377445581 -0.6780975185569592
-0.2809141503490305 -0.8274398855936093
-0.2995631971979124 -0.8772206746058259
-0.2436160566512667 -0.8772206746058259
-0.22496700980238482 -0.6283167295447426
-0.16901986925573914 -0.6283167295447426
-0.09442368186021155 -0.7278783075691759
-0.11307272870909345 -0.7776590965813925
-0.05712558816244777 -0.8772206746058259
-0.11307272870909345 -0.9270014636180426
-0.07577463501132967 -0.7776590965813925
-0.09442368186021155 -0.8274398855936093
-0.05712558816244777 -0.7278783075691759
-0.0011784476158020825 -0.9767822526302593
-0.03847654131356587 -1.0763438306546926
-0.05712558816244777 -0.9270014636180426
0.054768692930843604 -0.5785359405325259
0.11071583347748928 -0.5287551515203092
0.0734177397797255 -0.42919357349587584
0.03611964608196171 -0.5785359405325259
0.054768692930843604 -0.5785359405325259
0.09206678662860739 -0.47897436250809255
0.14801392717525308 -0.5287551515203092
0.27855725511742635 -0.5785359405325259
0.22261011457078064 -0.7776590965813925
0.14801392717525308 -0.9767822526302593
0.12936488032637117 -1.1261246196669092
0.12936488032637117 -1.1261246196669092
0.11071583347748928 -0.9767822526302593
0.11071583347748928 -1.026563041642476
0.017470599233079812 -1.0763438306546926
-0.0011784476158020825 -0.9767822526302593
0.017470599233079812 -1.026563041642476
0.017470599233079812 -1.026563041642476
0.017470599233079812 -0.9767822526302593
0.017470599233079812 -0.9270014636180426
-0.019827494464683976 -0.8772206746058259
-0.05712558816244777 -0.9767822526302593
-0.09442368186021155 -1.1759054086791259
-0.09442368186021155 -1.4248093537402093
-0.0011784476158020825 -1.474590142752426
0.0734177397797255 -1.474590142752426
-0.019827494464683976 -1.5243709317646426
-0.05712558816244777 -1.474590142752426
-0.11307272870909345 -1.474590142752426
-0.0011784476158020825 -1.3750285647279927
0.017470599233079812 -1.2256861976913427
0.054768692930843604 -1.1261246196669092
-0.03847654131356587 -1.0763438306546926
-0.15037082240685723 -1.1261246196669092
-0.2436160566512667 -1.2754669867035593
-0.3555103377445581 -1.2754669867035593
-0.2622651035001486 -1.1759054086791259
