0.2551538134302924 1.12977634771677
0.3471199627462356 1.0762135068167338
0.3747098075410185 1.0226506659166978
0.42069288219899015 0.9583752568366547
0.4666759568569617 0.8940998477566116
0.475872571788556 0.8405370068565755
0.5310522613781219 0.808399302316554
0.5678387211044992 0.7441238932365107
0.623018410694065 0.701273620516482
0.678198100283631 0.647710779616446
0.7241811749416026 0.6155730750764244
0.7793608645311685 0.5620102341763884
0.8253439391891401 0.5191599614563597
0.852933783983923 0.4548845523763165
0.8713270138471116 0.3906091432962733
0.8805236287787059 0.3477588705762445
0.8805236287787059 0.3370463023962373
0.8713270138471116 0.2941960296762085
0.8897202437103002 0.2834834614962013
0.8989168586418946 0.2834834614962013
0.9357033183682718 0.2513457569561797
0.9632931631630548 0.2406331887761725
0.9908830079578378 0.2299206205961653
0.9816863930262434 0.21920805241615812
0.9816863930262434 0.2084954842361509
0.9816863930262434 0.18707034787613652
0.9816863930262434 0.16564521151612213
0.9540965482314605 0.13350750697610056
0.9540965482314605 0.13350750697610056
0.9540965482314605 0.14422007515610774
0.9357033183682718 0.16564521151612213
0.9540965482314605 0.19778291605614373
0.9448999332998662 0.21920805241615812
0.9448999332998662 0.19778291605614373
0.9724897780946491 0.15493264333611495
0.9816863930262434 0.14422007515610774
0.9816863930262434 0.14422007515610774
0.9816863930262434 0.11208237061608615
0.9540965482314605 0.13350750697610056
0.9540965482314605 0.14422007515610774
0.9448999332998662 0.15493264333611495
0.9448999332998662 0.11208237061608615
0.9632931631630548 0.11208237061608615
0.9908830079578378 0.10136980243607896
1.000079622889432 0.12279493879609335
1.027669467684215 0.13350750697610056
1.0460626975474037 0.14422007515610774
1.0644559274105923 0.14422007515610774
1.0920457722053751 0.15493264333611495
1.1196356170001582 0.15493264333611495
1.1288322319317525 0.14422007515610774
1.1288322319317525 0.15493264333611495
1.1288322319317525 0.13350750697610056
1.1656186916581297 0.15493264333611495
1.1932085364529128 0.16564521151612213
1.2207983812476957 0.17635777969612934
1.2759780708372617 0.2513457569561797
1.3219611454952331 0.31562116603622287
1.4231239097427706 0.43345941601630206
1.5058934441271195 0.540585097816374
1.5978595934430626 0.647710779616446
1.7082189726221944 0.7119861886964892
1.836971581664515 0.7119861886964892
1.984117420570024 0.7119861886964892
2.1404598744071275 0.6798484841564676
2.296802328244231 0.6584233477964532
2.453144782081334 0.6048605068964172
2.6094872359184373 0.5512976659963812
2.7566330748239465 0.47630968873633084
2.9313687585242385 0.4013217114762805
3.087711212361342 0.2406331887761725
3.2532502811300397 0.09065723425607176
3.3544130453775773 -0.048606152084021796
3.4279859648303317 -0.19858210660412254
3.4923622693514917 -0.3592706293042305
3.5383453440094637 -0.55209685654436
3.5383453440094637 -0.6913602428844536
3.473969039488303 -0.8627613337645688
3.38200289017236 -1.0663001291847054
3.1336942870193134 -1.2484137882448278
2.7934195345503237 -1.473377720024979
2.278409098381042 -1.644778810905094
1.607056208374657 -1.7733296290651805
0.8345405541207344 -1.8804553108652524
0.043631670003623134 -1.9447307199452957
-0.6461144498659506 -2.0304312653853533
-1.2438944204195812 -2.04114383356536
-1.6117590176833538 -2.073281538105382
-1.8048879312468344 -2.0947066744653964
-1.8140845461784287 -2.1696946517254467
-1.676135322204514 -2.2339700608054898
-1.4738097937094392 -2.341095742605562
-1.271484265214364 -2.3625208789655763
-1.0783553516508835 -2.341095742605562
-0.8944230530189972 -2.1696946517254467
-0.7380805991818938 -1.9768684244853172
-0.5909347602763847 -1.6662039472651085
-0.3978058467129041 -1.3448269018648926
-0.1954803182178291 -1.0663001291847054
0.043631670003623134 -0.8199110610445399
0.2551538134302924 -0.6377974019844176
0.4666759568569617 -0.45568374292429525
0.6138217957624708 -0.3378454929442161
0.7149845600100082 -0.18786953842411536
0.7517710197363855 -0.09145642480405058
0.7149845600100082 0.004956688816014186
0.7517710197363855 0.047806961536042976
0.7241811749416026 0.047806961536042976
0.7333777898731969 0.06923209789605736
0.7517710197363855 0.037094393356035774
0.7701642495995742 0.015669256996021383
0.7701642495995742 0.015669256996021383
0.7701642495995742 -0.027181015724007405
0.7885574794627628 -0.00575587936399301
0.7885574794627628 0.037094393356035774
0.8161473242575458 0.05851952971605017
0.8069507093259515 0.09065723425607176
0.8345405541207344 0.05851952971605017
0.8253439391891401 0.047806961536042976
0.8253439391891401 0.047806961536042976
0.8437371690523287 0.037094393356035774
0.852933783983923 0.05851952971605017
0.8437371690523287 0.10136980243607896
0.8345405541207344 0.11208237061608615
0.8161473242575458 0.10136980243607896
0.8069507093259515 0.16564521151612213
0.8069507093259515 0.19778291605614373
0.8161473242575458 0.2084954842361509
0.8161473242575458 0.2299206205961653
0.8161473242575458 0.26205832513618693
0.7977540943943571 0.2299206205961653
0.7885574794627628 0.17635777969612934
0.7885574794627628 0.15493264333611495
0.8161473242575458 0.12279493879609335
0.7977540943943571 0.11208237061608615
0.8161473242575458 0.11208237061608615
0.8253439391891401 0.14422007515610774
0.8253439391891401 0.17635777969612934
0.8345405541207344 0.2084954842361509
0.8713270138471116 0.2084954842361509
0.8621303989155173 0.2513457569561797
0.8621303989155173 0.2834834614962013
0.8897202437103002 0.31562116603622287
0.8805236287787059 0.3584714387562517
0.9173100885050832 0.4013217114762805
0.9448999332998662 0.41203427965628764
0.9632931631630548 0.42274684783629485
0.9448999332998662 0.44417198419630927
0.9632931631630548 0.44417198419630927
0.9908830079578378 0.48702225691633805
1.0368660826158094 0.5084473932763525
1.0644559274105923 0.5727228023563956
1.1196356170001582 0.6155730750764244
1.1288322319317525 0.6584233477964532
1.1380288468633468 0.6691359159764604
1.1840119215213185 0.701273620516482
1.1932085364529128 0.7226987568764963
1.2391916111108843 0.7119861886964892
1.2391916111108843 0.7119861886964892
1.2667814559056672 0.6905610523364748
1.2667814559056672 0.701273620516482
1.2759780708372617 0.7119861886964892
1.2943713007004503 0.7334113250565035
1.3127645305636388 0.754836461416518
1.3311577604268274 0.808399302316554
1.349550990290016 0.8405370068565755
1.3127645305636388 0.8619621432165899
1.3403543753584217 0.8405370068565755
1.3311577604268274 0.8298244386765683
1.3311577604268274 0.8191118704965611
1.3403543753584217 0.808399302316554
1.3403543753584217 0.7762615977765324
1.3127645305636388 0.7762615977765324
1.2667814559056672 0.7762615977765324
1.2391916111108843 0.7334113250565035
1.2116017663161014 0.701273620516482
1.2116017663161014 0.647710779616446
1.174815306589724 0.6048605068964172
1.1656186916581297 0.5727228023563956
1.1288322319317525 0.49773482509634526
1.0736525423421865 0.47630968873633084
1.0644559274105923 0.43345941601630206
1.027669467684215 0.3584714387562517
1.0092762378210265 0.3049085978562157
1.000079622889432 0.2727708933161941
0.9816863930262434 0.2513457569561797
0.9724897780946491 0.2299206205961653
0.9632931631630548 0.2406331887761725
0.9448999332998662 0.2406331887761725
0.9632931631630548 0.26205832513618693
0.9540965482314605 0.26205832513618693
0.9816863930262434 0.2299206205961653
0.9540965482314605 0.2299206205961653
0.9540965482314605 0.19778291605614373
0.9265067034366775 0.17635777969612934
0.9081134735734889 0.14422007515610774
0.8897202437103002 0.14422007515610774
0.8621303989155173 0.14422007515610774
0.8897202437103002 0.14422007515610774
0.8897202437103002 0.16564521151612213
0.8805236287787059 0.17635777969612934
0.8897202437103002 0.18707034787613652
0.9081134735734889 0.18707034787613652
0.9540965482314605 0.15493264333611495
0.9540965482314605 0.14422007515610774
0.9632931631630548 0.12279493879609335
0.9540965482314605 0.12279493879609335
0.9448999332998662 0.10136980243607896
0.9265067034366775 0.07994466607606457
0.9081134735734889 0.13350750697610056
0.9173100885050832 0.14422007515610774
0.9357033183682718 0.13350750697610056
0.9540965482314605 0.15493264333611495
0.9724897780946491 0.13350750697610056
1.0092762378210265 0.16564521151612213
1.0092762378210265 0.14422007515610774
1.027669467684215 0.14422007515610774
1.000079622889432 0.15493264333611495
0.9908830079578378 0.16564521151612213
0.9724897780946491 0.15493264333611495
0.9540965482314605 0.14422007515610774
0.9448999332998662 0.15493264333611495
0.9448999332998662 0.16564521151612213
0.9448999332998662 0.16564521151612213
0.9448999332998662 0.14422007515610774
0.9724897780946491 0.14422007515610774
1.000079622889432 0.12279493879609335
0.9632931631630548 0.11208237061608615
0.9816863930262434 0.12279493879609335
0.9632931631630548 0.14422007515610774
0.9632931631630548 0.09065723425607176
0.9540965482314605 0.11208237061608615
0.9632931631630548 0.11208237061608615
0.9724897780946491 0.13350750697610056
0.9724897780946491 0.13350750697610056
0.9908830079578378 0.12279493879609335
0.9908830079578378 0.12279493879609335
0.9816863930262434 0.13350750697610056
0.9908830079578378 0.14422007515610774
0.9816863930262434 0.13350750697610056
1.000079622889432 0.13350750697610056
0.9908830079578378 0.10136980243607896
0.9816863930262434 0.07994466607606457
0.9816863930262434 0.047806961536042976
0.9632931631630548 0.015669256996021383
0.9540965482314605 0.047806961536042976
0.9357033183682718 0.037094393356035774
0.9357033183682718 0.07994466607606457
0.9632931631630548 0.07994466607606457
0.9724897780946491 0.09065723425607176
0.9816863930262434 0.14422007515610774
0.9908830079578378 0.13350750697610056
0.9816863930262434 0.13350750697610056
1.000079622889432 0.12279493879609335
1.000079622889432 0.06923209789605736
1.000079622889432 0.06923209789605736
0.9816863930262434 0.026381825176028578
1.000079622889432 0.05851952971605017
1.0184728527526208 0.10136980243607896
1.0460626975474037 0.16564521151612213
1.110439002068564 0.19778291605614373
1.1656186916581297 0.2727708933161941
1.2207983812476957 0.3477588705762445
1.2391916111108843 0.37989657511626607
1.2391916111108843 0.42274684783629485
1.22999499617929 0.43345941601630206
1.22999499617929 0.41203427965628764
1.2391916111108843 0.37989657511626607
1.2483882260424786 0.36918400693625886
1.2759780708372617 0.37989657511626607
1.3127645305636388 0.3370463023962373
1.3679442201532048 0.36918400693625886
1.4415171396059592 0.3263337342162301
1.4875002142639309 0.3049085978562157
1.5150900590587137 0.21920805241615812
1.524286673990308 0.13350750697610056
1.4783035993323366 0.05851952971605017
1.4507137545375537 0.004956688816014186
1.404730679879582 0.004956688816014186
1.4139272948111763 -0.016468447544000207
1.4139272948111763 -0.016468447544000207
1.4231239097427706 -0.016468447544000207
1.4323205246743649 -0.0378935839040146
1.4231239097427706 -0.05931872026402899
1.3955340649479877 -0.08074385662404339
1.3403543753584217 -0.09145642480405058
1.3035679156320445 -0.0700312884440362
1.2575848409740729 -0.09145642480405058
1.1932085364529128 -0.05931872026402899
1.1564220767265354 -0.027181015724007405
1.0736525423421865 0.004956688816014186
1.0736525423421865 -0.00575587936399301
1.027669467684215 -0.0378935839040146
0.9908830079578378 -0.0378935839040146
0.9540965482314605 -0.00575587936399301
0.9448999332998662 0.004956688816014186
0.9173100885050832 -0.00575587936399301
0.8989168586418946 -0.00575587936399301
0.9081134735734889 -0.016468447544000207
0.9173100885050832 -0.027181015724007405
0.8805236287787059 -0.08074385662404339
0.8989168586418946 -0.11288156116406498
0.8713270138471116 -0.08074385662404339
0.8897202437103002 -0.08074385662404339
0.8897202437103002 -0.0700312884440362
0.8989168586418946 -0.05931872026402899
0.8989168586418946 -0.0700312884440362
0.8989168586418946 -0.048606152084021796
0.8989168586418946 -0.00575587936399301
0.8621303989155173 0.015669256996021383
0.8713270138471116 0.10136980243607896
0.9081134735734889 0.18707034787613652
1.027669467684215 0.2941960296762085
1.202405151384507 0.36918400693625886
1.4323205246743649 0.3477588705762445
1.7450054323485718 0.2406331887761725
2.0668869549543727 0.015669256996021383
2.425554937286551 -0.3271329247642089
2.7566330748239465 -0.766348220144504
3.0417281377033705 -1.2805514927848494
3.326823200582794 -1.9447307199452957
3.5659351888042465 -2.6838979243657923
3.7682607172993214 -3.433777696966296
3.869423481546859 -4.087244355946735
3.8602268666152644 -4.537172219507037
3.7406708725045386 -4.6657230376671235
3.519952114146275 -4.612160196767087
3.225660436335257 -4.344345992266907
2.8118127644135127 -3.958693537786649
2.3427854029022024 -3.4766279696863247
1.8645614264592978 -2.9302869925059576
1.524286673990308 -2.351808310785569
1.2759780708372617 -1.8376050381452236
1.1472254617949411 -1.3876771745849215
1.1012423871369696 -1.0877252655447198
1.0736525423421865 -0.873473901944576
1.0368660826158094 -0.7449230837844896
0.9908830079578378 -0.6163722656244032
0.9173100885050832 -0.5199591520043384
0.8069507093259515 -0.3914083338442521
0.6873947152152253 -0.2628575156841657
0.6046251808308765 -0.10216899298405778
0.5770353360360935 -0.0378935839040146
0.5678387211044992 0.026381825176028578
0.5954285658992822 0.09065723425607176
0.6138217957624708 0.14422007515610774
0.6414116405572537 0.14422007515610774
0.6414116405572537 0.12279493879609335
0.623018410694065 0.10136980243607896
0.623018410694065 0.10136980243607896
0.6046251808308765 0.15493264333611495
0.5770353360360935 0.18707034787613652
0.5678387211044992 0.2084954842361509
0.5862319509676879 0.2513457569561797
0.5862319509676879 0.2834834614962013
0.5586421061729049 0.3263337342162301
0.5586421061729049 0.3263337342162301
0.5586421061729049 0.3584714387562517
0.5770353360360935 0.37989657511626607
0.5678387211044992 0.36918400693625886
0.5770353360360935 0.37989657511626607
0.5862319509676879 0.37989657511626607
0.5678387211044992 0.3906091432962733
0.5678387211044992 0.36918400693625886
0.5678387211044992 0.3906091432962733
0.5310522613781219 0.37989657511626607
0.5310522613781219 0.43345941601630206
0.5126590315149333 0.44417198419630927
0.49426580165174466 0.46559712055632363
0.49426580165174466 0.42274684783629485
0.5126590315149333 0.44417198419630927
0.5218556464465276 0.43345941601630206
0.5218556464465276 0.4548845523763165
0.5402488763097162 0.4548845523763165
0.5310522613781219 0.46559712055632363
0.5126590315149333 0.47630968873633084
0.4850691867201503 0.49773482509634526
0.4482827269937731 0.5298725296363668
0.43908611206217874 0.5191599614563597
0.39310303740420716 0.5512976659963812
0.4022996523358015 0.59414793871641
0.3563165776778299 0.6155730750764244
0.3747098075410185 0.6691359159764604
0.3747098075410185 0.6798484841564676
0.3563165776778299 0.6691359159764604
0.3471199627462356 0.6691359159764604
0.301136888088264 0.6584233477964532
0.2643504283618867 0.7119861886964892
0.20917073877232084 0.701273620516482
0.17238427904594356 0.7119861886964892
0.15399104918275494 0.7334113250565035
0.12640120438797198 0.7334113250565035
0.11720458945637767 0.754836461416518
0.08961474466159472 0.7869741659565396
0.06202489986681177 0.7869741659565396
0.03443505507202882 0.7869741659565396
0.016041825208840184 0.7869741659565396
-0.011548019585942766 0.808399302316554
-0.0299412494491314 0.8405370068565755
-0.039137864380725716 0.8512495750365827
-0.06672770917550866 0.8512495750365827
-0.0851209390386973 0.8512495750365827
-0.05753109424391435 0.8619621432165899
-0.05753109424391435 0.8726747113965971
-0.011548019585942766 0.9048124159366188
-0.011548019585942766 0.9155249841166259
0.03443505507202882 0.9155249841166259
0.09881135959318904 0.8726747113965971
0.1355978193195663 0.8191118704965611
0.19997412384072652 0.7762615977765324
0.20917073877232084 0.701273620516482
0.19997412384072652 0.6584233477964532
0.2459571984986981 0.6691359159764604
0.2643504283618867 0.647710779616446
0.3471199627462356 0.647710779616446
0.42069288219899015 0.6262856432564315
0.475872571788556 0.59414793871641
0.5126590315149333 0.540585097816374
0.5494454912413106 0.5191599614563597
0.5770353360360935 0.5084473932763525
0.6046251808308765 0.44417198419630927
0.6414116405572537 0.3906091432962733
0.678198100283631 0.3370463023962373
0.7149845600100082 0.2727708933161941
0.7241811749416026 0.21920805241615812
0.7333777898731969 0.15493264333611495
0.7609676346679798 0.15493264333611495
0.8069507093259515 0.18707034787613652
0.8069507093259515 0.15493264333611495
0.8437371690523287 0.19778291605614373
0.8713270138471116 0.16564521151612213
0.8897202437103002 0.15493264333611495
0.8897202437103002 0.13350750697610056
0.9081134735734889 0.10136980243607896
0.8805236287787059 0.05851952971605017
0.8805236287787059 0.026381825176028578
0.8621303989155173 0.026381825176028578
0.852933783983923 0.047806961536042976
0.8345405541207344 0.047806961536042976
0.8345405541207344 0.07994466607606457
0.8437371690523287 0.10136980243607896
0.8713270138471116 0.11208237061608615
0.8713270138471116 0.12279493879609335
0.9081134735734889 0.11208237061608615
0.9173100885050832 0.10136980243607896
0.9265067034366775 0.07994466607606457
0.9081134735734889 0.037094393356035774
0.8897202437103002 0.037094393356035774
0.8713270138471116 0.047806961536042976
0.8989168586418946 0.004956688816014186
0.8989168586418946 -0.00575587936399301
0.9081134735734889 -0.00575587936399301
0.9357033183682718 0.015669256996021383
0.9265067034366775 0.026381825176028578
0.9265067034366775 0.05851952971605017
0.9081134735734889 0.06923209789605736
0.8989168586418946 0.047806961536042976
0.8897202437103002 0.06923209789605736
0.8713270138471116 0.07994466607606457
0.8713270138471116 0.05851952971605017
0.8713270138471116 0.037094393356035774
0.8713270138471116 0.026381825176028578
0.8713270138471116 0.026381825176028578
0.8897202437103002 0.06923209789605736
0.9173100885050832 0.07994466607606457
0.9265067034366775 0.12279493879609335
0.9632931631630548 0.13350750697610056
0.9816863930262434 0.17635777969612934
1.0184728527526208 0.18707034787613652
1.027669467684215 0.21920805241615812
1.027669467684215 0.26205832513618693
1.0644559274105923 0.2834834614962013
1.0736525423421865 0.31562116603622287
1.0920457722053751 0.3370463023962373
1.1196356170001582 0.3584714387562517
1.1288322319317525 0.41203427965628764
1.1840119215213185 0.46559712055632363
1.2207983812476957 0.4548845523763165
1.2759780708372617 0.4548845523763165
1.349550990290016 0.4013217114762805
1.3863374500163934 0.3263337342162301
1.4139272948111763 0.2406331887761725
1.4139272948111763 0.16564521151612213
1.404730679879582 0.05851952971605017
1.3679442201532048 0.004956688816014186
1.3127645305636388 -0.00575587936399301
1.2943713007004503 -0.0378935839040146
1.3035679156320445 -0.05931872026402899
1.3219611454952331 -0.0378935839040146
1.3403543753584217 -0.0378935839040146
1.349550990290016 -0.048606152084021796
1.3403543753584217 -0.05931872026402899
1.3035679156320445 -0.09145642480405058
1.2575848409740729 -0.14501926570408658
1.1840119215213185 -0.15573183388409376
1.1288322319317525 -0.15573183388409376
1.0736525423421865 -0.14501926570408658
1.027669467684215 -0.0700312884440362
0.9724897780946491 -0.027181015724007405
0.9448999332998662 0.004956688816014186
0.9173100885050832 0.026381825176028578
0.8989168586418946 0.026381825176028578
0.8989168586418946 0.026381825176028578
0.8989168586418946 -0.016468447544000207
0.852933783983923 -0.048606152084021796
0.8437371690523287 -0.10216899298405778
0.8437371690523287 -0.10216899298405778
0.8161473242575458 -0.11288156116406498
0.8069507093259515 -0.12359412934407217
0.8069507093259515 -0.12359412934407217
0.8345405541207344 -0.08074385662404339
0.8345405541207344 -0.11288156116406498
0.852933783983923 -0.10216899298405778
0.8437371690523287 -0.05931872026402899
0.852933783983923 -0.016468447544000207
0.852933783983923 0.004956688816014186
0.8345405541207344 0.004956688816014186
0.852933783983923 0.026381825176028578
0.8621303989155173 0.015669256996021383
0.8345405541207344 0.047806961536042976
0.852933783983923 0.06923209789605736
0.9265067034366775 0.15493264333611495
1.0644559274105923 0.2299206205961653
1.2943713007004503 0.26205832513618693
1.5978595934430626 0.2406331887761725
1.9657241907068352 0.07994466607606457
2.324392173039014 -0.16644440206410097
2.6646669255080035 -0.55209685654436
2.9681552182506157 -1.0341624246446839
3.2440536661984454 -1.591215970005058
3.4463791946935203 -2.2982454698855332
3.639508108257001 -3.058837810666044
3.7406708725045386 -3.755154742366512
3.7682607172993214 -4.280070583186864
3.7130810277097557 -4.558597355867052
3.5567385738726522 -4.547884787687044
3.326823200582794 -4.365771128626922
2.995745063045399 -4.044394083226706
2.5910940060552488 -3.690879333286469
2.122066644543939 -3.2516640379061736
1.6622358979642229 -2.791023606165864
1.3219611454952331 -2.351808310785569
1.1196356170001582 -1.8911678790452597
1.0092762378210265 -1.5269405609250148
0.9448999332998662 -1.259126356424835
0.9081134735734889 -1.0555875610046983
0.8897202437103002 -0.9163241746646047
0.8621303989155173 -0.7449230837844896
0.8161473242575458 -0.5949471292643889
0.7333777898731969 -0.4235460383842737
0.678198100283631 -0.3057077884041945
0.6322150256256595 -0.15573183388409376
0.6138217957624708 -0.0700312884440362
0.623018410694065 -0.00575587936399301
0.6046251808308765 -0.00575587936399301
0.6046251808308765 0.015669256996021383
0.5770353360360935 0.037094393356035774
0.5770353360360935 0.10136980243607896
0.5862319509676879 0.14422007515610774
0.5862319509676879 0.17635777969612934
0.5954285658992822 0.19778291605614373
0.6046251808308765 0.17635777969612934
0.6138217957624708 0.13350750697610056
0.5954285658992822 0.07994466607606457
0.5862319509676879 0.11208237061608615
0.5402488763097162 0.09065723425607176
0.5310522613781219 0.12279493879609335
0.503462416583339 0.13350750697610056
0.503462416583339 0.15493264333611495
0.49426580165174466 0.16564521151612213
0.5126590315149333 0.19778291605614373
0.503462416583339 0.2084954842361509
0.5126590315149333 0.2513457569561797
0.5218556464465276 0.2406331887761725
0.5586421061729049 0.3049085978562157
0.5494454912413106 0.3049085978562157
0.5402488763097162 0.3370463023962373
0.5310522613781219 0.31562116603622287
0.5126590315149333 0.31562116603622287
0.4850691867201503 0.3049085978562157
0.4666759568569617 0.31562116603622287
0.4666759568569617 0.3370463023962373
0.475872571788556 0.36918400693625886
0.475872571788556 0.46559712055632363
0.4850691867201503 0.48702225691633805
0.475872571788556 0.49773482509634526
0.49426580165174466 0.49773482509634526
0.475872571788556 0.47630968873633084
0.4482827269937731 0.46559712055632363
0.42069288219899015 0.4548845523763165
0.39310303740420716 0.48702225691633805
0.3563165776778299 0.5084473932763525
0.32872673288304693 0.49773482509634526
0.3471199627462356 0.5191599614563597
0.3379233478146413 0.5727228023563956
0.31033350301985835 0.5727228023563956
0.31033350301985835 0.6048605068964172
0.31953011795145264 0.6262856432564315
0.301136888088264 0.6798484841564676
0.301136888088264 0.6798484841564676
0.301136888088264 0.7226987568764963
0.27354704329348106 0.754836461416518
0.23676058356710378 0.7762615977765324
0.20917073877232084 0.7976867341365468
0.16318766411434926 0.7869741659565396
0.10800797452478335 0.7762615977765324
0.0804181297300004 0.7762615977765324
0.07122151479840609 0.7869741659565396
0.08961474466159472 0.8191118704965611
0.09881135959318904 0.8405370068565755
0.12640120438797198 0.8619621432165899
0.12640120438797198 0.8619621432165899
0.12640120438797198 0.8619621432165899
0.1355978193195663 0.8405370068565755
0.14479443425116062 0.7976867341365468
0.16318766411434926 0.808399302316554
0.15399104918275494 0.8191118704965611
0.1907775089091322 0.7762615977765324
0.22756396863550946 0.754836461416518
0.2919402731566697 0.7441238932365107
0.3563165776778299 0.7441238932365107
0.4114962672673958 0.7334113250565035
0.475872571788556 0.7226987568764963
0.4850691867201503 0.647710779616446
0.5310522613781219 0.6262856432564315
0.5586421061729049 0.5191599614563597
0.5954285658992822 0.42274684783629485
0.623018410694065 0.3370463023962373
0.6414116405572537 0.2834834614962013
0.6598048704204423 0.2834834614962013
0.678198100283631 0.2727708933161941
0.7241811749416026 0.2727708933161941
0.7701642495995742 0.2513457569561797
0.7885574794627628 0.2406331887761725
0.852933783983923 0.19778291605614373
0.8621303989155173 0.16564521151612213
0.8437371690523287 0.12279493879609335
0.8621303989155173 0.07994466607606457
0.852933783983923 0.07994466607606457
0.8345405541207344 0.037094393356035774
0.8253439391891401 0.047806961536042976
0.8069507093259515 0.037094393356035774
0.7977540943943571 0.037094393356035774
0.8069507093259515 0.047806961536042976
0.8437371690523287 0.037094393356035774
0.8805236287787059 0.047806961536042976
0.9265067034366775 0.047806961536042976
0.9724897780946491 0.037094393356035774
0.9816863930262434 -0.016468447544000207
1.0092762378210265 0.015669256996021383
1.055259312478998 -0.027181015724007405
1.0644559274105923 -0.016468447544000207
1.0920457722053751 -0.048606152084021796
1.1564220767265354 -0.048606152084021796
1.2207983812476957 -0.0378935839040146
1.3311577604268274 -0.016468447544000207
1.4415171396059592 -0.00575587936399301
1.5702697486482797 -0.00575587936399301
1.6898257427590058 -0.016468447544000207
1.8001851219381377 0.015669256996021383
1.9197411160488638 -0.027181015724007405
2.0852801848175613 -0.0378935839040146
2.2048361789282875 -0.08074385662404339
2.2692124834494476 -0.18786953842411536
2.223229408791476 -0.25214494750415856
2.0944767997491556 -0.34855806112422333
1.8001851219381377 -0.4342586065642809
1.3035679156320445 -0.5199591520043384
0.6322150256256595 -0.5949471292643889
-0.13110401369666888 -0.6270848338044104
-0.8944230530189972 -0.6270848338044104
-1.5657759430253824 -0.6485099701644248
-2.117572838921041 -0.6806476747044464
-2.513027280979597 -0.7342105156044824
-2.834908803585398 -0.8199110610445399
-3.064824176875256 -0.8520487655845616
-3.2303632456439537 -0.7984859246845256
-3.3591158546862743 -0.6485099701644248
-3.3959023144126514 -0.3806957656642449
-3.3683124696178686 -0.0378935839040146
-3.276346320301925 0.3263337342162301
-3.156790326191199 0.6905610523364748
-2.982054642490907 0.9905129613766763
-2.7889257289274263 1.2261894613368347
-2.568206970569163 1.3868779840369425
-2.301505137552928 1.5261413703770361
-2.016410074673504 1.6011293476370865
-1.7497082416572687 1.6654047567171297
-1.501399638504222 1.6761173248971368
-1.32666395480393 1.6868298930771441
-1.1887147308300152 1.74039273397718
-1.0783553516508835 1.7618178703371945
-0.9312095127453744 1.783243006697209
-0.7656704439766767 1.7618178703371945
-0.5817381453447904 1.6761173248971368
-0.37941261684971544 1.4618659612969929
-0.22307016301261204 1.1190637795367626
-0.0851209390386973 0.7119861886964892
0.016041825208840184 0.21920805241615812
0.08961474466159472 -0.2628575156841657
0.18158089397753788 -0.6485099701644248
0.2459571984986981 -0.9056116064845975
0.3379233478146413 -0.9698870155646407
0.43908611206217874 -0.9377493110246191
0.5678387211044992 -0.8091984928645327
0.7057879450784139 -0.6806476747044464
0.8897202437103002 -0.55209685654436
1.0828491572737808 -0.4878214474643169
1.2667814559056672 -0.3699831974842377
1.3955340649479877 -0.3592706293042305
1.4966968291955252 -0.3057077884041945
1.5702697486482797 -0.3057077884041945
1.5702697486482797 -0.28428265204418013
1.5426799038534968 -0.2735700838641729
1.5334832889219026 -0.2628575156841657
1.5334832889219026 -0.28428265204418013
1.5426799038534968 -0.2735700838641729
1.5886629785114683 -0.3057077884041945
1.6438426681010343 -0.2735700838641729
1.6806291278274115 -0.3057077884041945
1.6990223576906 -0.3057077884041945
1.754202047280166 -0.28428265204418013
1.754202047280166 -0.3057077884041945
1.781791892074949 -0.3057077884041945
1.7909885070065432 -0.3057077884041945
1.809381736869732 -0.3271329247642089
1.8461681965961092 -0.29499522022418734
1.873758041390892 -0.2735700838641729
1.9013478861856752 -0.3164203565842017
1.928937730980458 -0.2735700838641729
1.984117420570024 -0.2735700838641729
2.0025106504332126 -0.28428265204418013
2.011707265364807 -0.3057077884041945
2.048493725091184 -0.3271329247642089
2.0576903400227784 -0.3699831974842377
2.0301004952279955 -0.4128334702042665
2.048493725091184 -0.4235460383842737
2.0944767997491556 -0.4342586065642809
2.122066644543939 -0.4449711747442881
2.158853104270316 -0.3914083338442521
2.2324260237230704 -0.3806957656642449
2.278409098381042 -0.3699831974842377
2.305998943175825 -0.34855806112422333
2.333588787970608 -0.3592706293042305
2.3703752476969853 -0.3592706293042305
2.4071617074233624 -0.4128334702042665
2.4347515522181453 -0.45568374292429525
2.4439481671497396 -0.46639631110430246
2.4347515522181453 -0.4878214474643169
2.4439481671497396 -0.4878214474643169
2.471538011944523 -0.46639631110430246
2.5083244716709 -0.45568374292429525
2.5267177015340887 -0.4128334702042665
2.57270077619206 -0.40212090202425926
2.600290620986843 -0.40212090202425926
2.6370770807132207 -0.4449711747442881
2.6370770807132207 -0.4878214474643169
2.6370770807132207 -0.49853401564432404
2.6370770807132207 -0.49853401564432404
2.627880465781626 -0.4878214474643169
2.600290620986843 -0.49853401564432404
2.563504161260466 -0.5199591520043384
2.535914316465683 -0.5628094247243672
2.5083244716709 -0.5949471292643889
2.471538011944523 -0.5949471292643889
2.4623413970129286 -0.55209685654436
2.4071617074233624 -0.5628094247243672
2.3795718626285796 -0.5735219929043744
2.324392173039014 -0.5842345610843817
2.2692124834494476 -0.5628094247243672
2.186442949065099 -0.5949471292643889
2.1128700296123446 -0.5735219929043744
2.0209038802964012 -0.5735219929043744
1.9749208056384298 -0.55209685654436
1.9197411160488638 -0.5092465838243313
1.8645614264592978 -0.49853401564432404
1.8277749667329206 -0.4235460383842737
1.781791892074949 -0.3914083338442521
1.7266122024853832 -0.3699831974842377
1.6806291278274115 -0.3806957656642449
1.6162528233062512 -0.3592706293042305
1.5518765187850911 -0.3914083338442521
1.4966968291955252 -0.3806957656642449
1.4139272948111763 -0.3592706293042305
1.3587476052216105 -0.34855806112422333
1.3035679156320445 -0.3164203565842017
1.2575848409740729 -0.24143237932415135
1.2207983812476957 -0.18786953842411536
1.1932085364529128 -0.15573183388409376
1.174815306589724 -0.09145642480405058
1.1472254617949411 -0.0378935839040146
1.1288322319317525 -0.027181015724007405
1.0920457722053751 0.015669256996021383
1.0460626975474037 0.047806961536042976
1.0368660826158094 0.015669256996021383
1.0368660826158094 0.015669256996021383
1.027669467684215 0.026381825176028578
1.000079622889432 -0.00575587936399301
0.9816863930262434 -0.016468447544000207
0.9724897780946491 0.037094393356035774
0.9632931631630548 0.037094393356035774
0.9448999332998662 0.07994466607606457
0.9540965482314605 0.09065723425607176
0.9632931631630548 0.09065723425607176
0.9265067034366775 0.07994466607606457
0.9265067034366775 0.06923209789605736
0.9357033183682718 0.026381825176028578
0.9265067034366775 0.015669256996021383
0.8989168586418946 -0.016468447544000207
0.8989168586418946 0.004956688816014186
0.9081134735734889 -0.00575587936399301
0.9081134735734889 -0.00575587936399301
0.9265067034366775 0.026381825176028578
0.9173100885050832 0.026381825176028578
0.9357033183682718 0.037094393356035774
0.9081134735734889 0.015669256996021383
0.9265067034366775 0.037094393356035774
0.9081134735734889 0.015669256996021383
0.8897202437103002 0.026381825176028578
0.8897202437103002 0.004956688816014186
0.8897202437103002 0.037094393356035774
0.8989168586418946 0.026381825176028578
0.8805236287787059 0.047806961536042976
0.8989168586418946 0.026381825176028578
0.9081134735734889 0.037094393356035774
0.9081134735734889 0.026381825176028578
0.9081134735734889 0.015669256996021383
0.9081134735734889 -0.027181015724007405
0.8989168586418946 -0.016468447544000207
0.8713270138471116 -0.0378935839040146
0.8621303989155173 -0.0700312884440362
0.8253439391891401 -0.05931872026402899
0.8069507093259515 -0.0378935839040146
0.8069507093259515 -0.027181015724007405
0.8069507093259515 -0.027181015724007405
0.8161473242575458 -0.00575587936399301
0.8069507093259515 -0.00575587936399301
0.7977540943943571 0.004956688816014186
0.7977540943943571 0.026381825176028578
0.7977540943943571 0.004956688816014186
0.8161473242575458 -0.00575587936399301
0.7977540943943571 0.026381825176028578
0.7885574794627628 -0.00575587936399301
0.7793608645311685 -0.016468447544000207
0.7701642495995742 -0.016468447544000207
0.7701642495995742 -0.048606152084021796
0.7793608645311685 -0.08074385662404339
0.7885574794627628 -0.0700312884440362
0.7793608645311685 -0.08074385662404339
0.7885574794627628 -0.0378935839040146
0.7793608645311685 -0.016468447544000207
0.7793608645311685 -0.027181015724007405
0.7793608645311685 -0.00575587936399301
0.7517710197363855 0.004956688816014186
0.7425744048047912 -0.0378935839040146
0.7425744048047912 -0.08074385662404339
0.7517710197363855 -0.05931872026402899
0.7333777898731969 -0.0700312884440362
0.7517710197363855 -0.048606152084021796
0.7517710197363855 -0.0378935839040146
0.7333777898731969 -0.027181015724007405
0.7425744048047912 -0.027181015724007405
0.7333777898731969 -0.016468447544000207
0.7425744048047912 -0.048606152084021796
0.7241811749416026 -0.048606152084021796
0.7517710197363855 -0.0378935839040146
0.7333777898731969 -0.0700312884440362
0.7149845600100082 -0.0700312884440362
0.7057879450784139 -0.09145642480405058
0.6873947152152253 -0.08074385662404339
0.6690014853520366 -0.08074385662404339
0.678198100283631 -0.05931872026402899
0.6965913301468196 -0.0700312884440362
0.7241811749416026 -0.05931872026402899
0.7425744048047912 -0.0378935839040146
0.7517710197363855 -0.05931872026402899
0.7517710197363855 -0.027181015724007405
0.7609676346679798 -0.0700312884440362
0.7149845600100082 -0.0700312884440362
0.7057879450784139 -0.08074385662404339
0.678198100283631 -0.10216899298405778
0.678198100283631 -0.10216899298405778
0.6965913301468196 -0.05931872026402899
0.6965913301468196 -0.0378935839040146
0.7425744048047912 0.015669256996021383
0.7701642495995742 0.05851952971605017
0.8161473242575458 0.10136980243607896
0.852933783983923 0.11208237061608615
0.8989168586418946 0.14422007515610774
0.9173100885050832 0.2084954842361509
0.9357033183682718 0.18707034787613652
0.9265067034366775 0.2084954842361509
0.9173100885050832 0.19778291605614373
0.9173100885050832 0.19778291605614373
0.9173100885050832 0.2084954842361509
0.9724897780946491 0.21920805241615812
1.027669467684215 0.19778291605614373
1.0920457722053751 0.19778291605614373
1.174815306589724 0.15493264333611495
1.22999499617929 0.10136980243607896
1.22999499617929 0.05851952971605017
1.2391916111108843 -0.027181015724007405
1.1932085364529128 -0.05931872026402899
1.1380288468633468 -0.10216899298405778
1.110439002068564 -0.09145642480405058
1.0828491572737808 -0.0700312884440362
1.0736525423421865 -0.0378935839040146
1.0920457722053751 -0.05931872026402899
1.110439002068564 -0.10216899298405778
1.1380288468633468 -0.12359412934407217
1.1380288468633468 -0.14501926570408658
1.1012423871369696 -0.22000724296413696
1.0644559274105923 -0.24143237932415135
0.9908830079578378 -0.28428265204418013
0.9357033183682718 -0.28428265204418013
0.8989168586418946 -0.24143237932415135
0.8345405541207344 -0.23071981114414414
0.8069507093259515 -0.16644440206410097
0.7517710197363855 -0.17715697024410815
0.7333777898731969 -0.14501926570408658
0.6965913301468196 -0.14501926570408658
0.6690014853520366 -0.13430669752407937
0.6414116405572537 -0.10216899298405778
0.623018410694065 -0.11288156116406498
0.6138217957624708 -0.12359412934407217
0.6138217957624708 -0.11288156116406498
0.623018410694065 -0.14501926570408658
0.6046251808308765 -0.15573183388409376
0.5862319509676879 -0.13430669752407937
0.5862319509676879 -0.15573183388409376
0.5954285658992822 -0.17715697024410815
0.5954285658992822 -0.22000724296413696
0.5954285658992822 -0.19858210660412254
0.623018410694065 -0.15573183388409376
0.623018410694065 -0.10216899298405778
0.6138217957624708 -0.048606152084021796
0.623018410694065 0.06923209789605736
0.6873947152152253 0.13350750697610056
0.8069507093259515 0.2084954842361509
0.9908830079578378 0.2406331887761725
1.2483882260424786 0.15493264333611495
1.5610731337166854 -0.027181015724007405
1.9013478861856752 -0.3271329247642089
2.2324260237230704 -0.7020728110644608
2.563504161260466 -1.1198629700847416
2.8394026092082956 -1.644778810905094
3.087711212361342 -2.287532901705526
3.345216430445983 -3.005274969766008
3.501558884283086 -3.7444421741865046
3.6027216485306237 -4.301495719546879
3.6027216485306237 -4.6657230376671235
3.473969039488303 -4.7299984467471665
3.2808401259248225 -4.558597355867052
2.9681552182506157 -4.280070583186864
2.563504161260466 -3.872992992346591
2.0944767997491556 -3.4016399924262744
1.6622358979642229 -2.898149287965936
1.3127645305636388 -2.4267962880456193
1.0828491572737808 -1.96615585630531
0.9357033183682718 -1.591215970005058
0.8437371690523287 -1.3019766291448638
0.7977540943943571 -1.0877252655447198
0.7425744048047912 -0.9270367428446119
0.678198100283631 -0.8306236292245471
0.5586421061729049 -0.659222538344432
0.4482827269937731 -0.5092465838243313
0.38390642247261286 -0.3592706293042305
0.31953011795145264 -0.20929467478412975
0.2919402731566697 -0.13430669752407937
0.28274365822507536 -0.08074385662404339
0.2643504283618867 -0.027181015724007405
0.27354704329348106 -0.027181015724007405
0.27354704329348106 -0.016468447544000207
0.27354704329348106 0.004956688816014186
0.2643504283618867 -0.00575587936399301
0.2459571984986981 -0.016468447544000207
0.23676058356710378 0.015669256996021383
0.19997412384072652 0.037094393356035774
0.19997412384072652 0.06923209789605736
0.16318766411434926 0.12279493879609335
0.1907775089091322 0.15493264333611495
0.20917073877232084 0.18707034787613652
0.20917073877232084 0.2299206205961653
0.21836735370391516 0.21920805241615812
0.20917073877232084 0.2299206205961653
0.21836735370391516 0.18707034787613652
0.18158089397753788 0.16564521151612213
0.20917073877232084 0.16564521151612213
0.20917073877232084 0.16564521151612213
0.17238427904594356 0.19778291605614373
0.15399104918275494 0.2299206205961653
0.14479443425116062 0.2834834614962013
0.1355978193195663 0.2941960296762085
0.1355978193195663 0.3263337342162301
0.14479443425116062 0.36918400693625886
0.1355978193195663 0.3584714387562517
0.11720458945637767 0.3584714387562517
0.12640120438797198 0.3906091432962733
0.10800797452478335 0.36918400693625886
0.0804181297300004 0.3477588705762445
0.0804181297300004 0.36918400693625886
0.043631670003623134 0.3906091432962733
0.043631670003623134 0.41203427965628764
0.0252384401404345 0.4548845523763165
0.03443505507202882 0.48702225691633805
0.05282828493521745 0.540585097816374
0.0252384401404345 0.5512976659963812
0.0252384401404345 0.5191599614563597
-0.039137864380725716 0.49773482509634526
-0.05753109424391435 0.5084473932763525
-0.06672770917550866 0.49773482509634526
-0.09431755397029161 0.5191599614563597
-0.12190739876507457 0.5512976659963812
-0.14949724355985752 0.5620102341763884
-0.18628370328623478 0.6048605068964172
-0.23226677794420636 0.6262856432564315
-0.27824985260217794 0.6905610523364748
-0.2966430824653666 0.701273620516482
-0.2966430824653666 0.7226987568764963
-0.3058396973969609 0.754836461416518
-0.34262615712333816 0.754836461416518
-0.3610193869865268 0.7441238932365107
-0.38860923178130974 0.754836461416518
-0.425395691507687 0.7334113250565035
-0.44378892137087567 0.7334113250565035
-0.48977199602884725 0.7762615977765324
-0.5081652258920358 0.808399302316554
-0.5265584557552245 0.8298244386765683
-0.5357550706868188 0.8833872795766043
-0.5265584557552245 0.8726747113965971
-0.5357550706868188 0.8512495750365827
-0.5541483005500074 0.8405370068565755
-0.5633449154816018 0.808399302316554
-0.5541483005500074 0.7869741659565396
-0.5633449154816018 0.754836461416518
-0.5541483005500074 0.7762615977765324
-0.5541483005500074 0.7762615977765324
-0.5541483005500074 0.7762615977765324
-0.5357550706868188 0.7762615977765324
-0.45298553630246996 0.7762615977765324
-0.4070024616444984 0.7441238932365107
-0.3242329272601495 0.7119861886964892
-0.250660007807395 0.6798484841564676
-0.18628370328623478 0.6048605068964172
-0.15869385849145184 0.6155730750764244
-0.09431755397029161 0.540585097816374
-0.07592432410710298 0.47630968873633084
-0.04833447931232003 0.3906091432962733
-0.020744634517537084 0.37989657511626607
0.016041825208840184 0.3477588705762445
0.06202489986681177 0.3477588705762445
0.14479443425116062 0.31562116603622287
0.23676058356710378 0.2941960296762085
0.28274365822507536 0.2299206205961653
0.2919402731566697 0.19778291605614373
0.3471199627462356 0.14422007515610774
0.3563165776778299 0.09065723425607176
0.4114962672673958 0.06923209789605736
0.4114962672673958 0.037094393356035774
0.43908611206217874 0.004956688816014186
0.4666759568569617 0.004956688816014186
0.4850691867201503 -0.016468447544000207
0.49426580165174466 -0.0378935839040146
0.4850691867201503 -0.05931872026402899
0.503462416583339 -0.08074385662404339
0.5310522613781219 -0.0700312884440362
0.5310522613781219 -0.05931872026402899
0.5494454912413106 -0.027181015724007405
0.5494454912413106 -0.016468447544000207
0.5678387211044992 -0.048606152084021796
0.5310522613781219 -0.05931872026402899
0.503462416583339 -0.08074385662404339
0.503462416583339 -0.048606152084021796
0.4850691867201503 -0.048606152084021796
0.5126590315149333 -0.08074385662404339
0.5218556464465276 -0.0700312884440362
0.5310522613781219 -0.0700312884440362
0.5494454912413106 -0.0700312884440362
0.5402488763097162 -0.05931872026402899
0.5494454912413106 -0.08074385662404339
0.5586421061729049 -0.10216899298405778
0.5678387211044992 -0.08074385662404339
0.5402488763097162 -0.0378935839040146
0.5310522613781219 -0.05931872026402899
0.5310522613781219 -0.0378935839040146
0.5402488763097162 -0.05931872026402899
0.5494454912413106 -0.08074385662404339
0.5586421061729049 -0.08074385662404339
0.5402488763097162 -0.08074385662404339
0.5402488763097162 -0.0700312884440362
0.5402488763097162 -0.048606152084021796
0.5310522613781219 -0.027181015724007405
0.5586421061729049 -0.027181015724007405
0.5678387211044992 -0.0378935839040146
0.5862319509676879 -0.0378935839040146
0.6138217957624708 -0.00575587936399301
0.623018410694065 0.047806961536042976
0.6690014853520366 0.09065723425607176
0.6965913301468196 0.16564521151612213
0.7241811749416026 0.2299206205961653
0.7609676346679798 0.2834834614962013
0.7609676346679798 0.3049085978562157
0.8069507093259515 0.2941960296762085
0.8253439391891401 0.2727708933161941
0.8253439391891401 0.2513457569561797
0.8621303989155173 0.21920805241615812
0.8897202437103002 0.21920805241615812
0.9357033183682718 0.2084954842361509
0.9908830079578378 0.17635777969612934
1.027669467684215 0.10136980243607896
1.0736525423421865 0.06923209789605736
1.0644559274105923 0.026381825176028578
1.0460626975474037 -0.0378935839040146
1.027669467684215 -0.05931872026402899
1.000079622889432 -0.05931872026402899
0.9816863930262434 -0.08074385662404339
1.000079622889432 -0.09145642480405058
1.0092762378210265 -0.09145642480405058
1.027669467684215 -0.13430669752407937
1.0644559274105923 -0.19858210660412254
1.0368660826158094 -0.18786953842411536
0.9816863930262434 -0.25214494750415856
0.9265067034366775 -0.28428265204418013
0.8345405541207344 -0.28428265204418013
0.7977540943943571 -0.2628575156841657
0.7701642495995742 -0.20929467478412975
0.7425744048047912 -0.16644440206410097
0.7333777898731969 -0.12359412934407217
0.7057879450784139 -0.11288156116406498
0.678198100283631 -0.15573183388409376
0.6138217957624708 -0.23071981114414414
0.5402488763097162 -0.2628575156841657
0.49426580165174466 -0.2628575156841657
0.4574793419253674 -0.2628575156841657
0.43908611206217874 -0.24143237932415135
0.42988949713058444 -0.22000724296413696
0.4574793419253674 -0.19858210660412254
0.475872571788556 -0.17715697024410815
0.49426580165174466 -0.13430669752407937
0.4850691867201503 -0.15573183388409376
0.4850691867201503 -0.14501926570408658
0.4574793419253674 -0.16644440206410097
0.475872571788556 -0.19858210660412254
0.4666759568569617 -0.24143237932415135
0.4666759568569617 -0.2735700838641729
0.4850691867201503 -0.2735700838641729
0.49426580165174466 -0.29499522022418734
0.475872571788556 -0.18786953842411536
0.49426580165174466 -0.09145642480405058
0.5126590315149333 0.05851952971605017
0.6322150256256595 0.19778291605614373
0.8069507093259515 0.26205832513618693
1.0828491572737808 0.2406331887761725
1.3771408350847991 0.07994466607606457
1.7358088174169775 -0.25214494750415856
2.0852801848175613 -0.6270848338044104
2.388768477560174 -1.1198629700847416
2.673863540439598 -1.6983416518051302
2.922172143592644 -2.4589339925856413
3.170480746745691 -3.262376606086181
3.326823200582794 -4.055106651406714
3.3636096603091716 -4.644297901307109
3.3360198155143883 -4.94424981034731
3.2440536661984454 -4.9871000830673395
3.0141382929085876 -4.826411560367232
2.6922567703027864 -4.45147167406698
2.2692124834494476 -4.055106651406714
1.8001851219381377 -3.594466219666404
1.3679442201532048 -3.1124006515660803
1.055259312478998 -2.555347106205706
0.8253439391891401 -2.04114383356536
0.7057879450784139 -1.6233536745450796
0.6414116405572537 -1.2805514927848494
0.6046251808308765 -1.0877252655447198
0.6046251808308765 -0.9056116064845975
0.5770353360360935 -0.8091984928645327
0.4850691867201503 -0.659222538344432
0.43908611206217874 -0.5306717201843456
0.3747098075410185 -0.40212090202425926
0.301136888088264 -0.28428265204418013
0.2643504283618867 -0.18786953842411536
0.19997412384072652 -0.13430669752407937
0.1907775089091322 -0.11288156116406498
0.18158089397753788 -0.0700312884440362
0.20917073877232084 -0.08074385662404339
0.22756396863550946 -0.048606152084021796
0.22756396863550946 -0.00575587936399301
0.22756396863550946 0.004956688816014186
0.21836735370391516 0.004956688816014186
0.2459571984986981 0.037094393356035774
0.22756396863550946 0.037094393356035774
0.21836735370391516 0.047806961536042976
0.19997412384072652 0.037094393356035774
0.18158089397753788 0.09065723425607176
0.15399104918275494 0.10136980243607896
0.1907775089091322 0.13350750697610056
0.17238427904594356 0.18707034787613652
0.19997412384072652 0.2299206205961653
0.20917073877232084 0.18707034787613652
0.23676058356710378 0.18707034787613652
0.22756396863550946 0.16564521151612213
0.22756396863550946 0.16564521151612213
0.1907775089091322 0.15493264333611495
0.16318766411434926 0.19778291605614373
0.16318766411434926 0.2406331887761725
0.15399104918275494 0.2727708933161941
0.14479443425116062 0.31562116603622287
0.14479443425116062 0.3263337342162301
0.14479443425116062 0.3049085978562157
0.14479443425116062 0.3049085978562157
0.16318766411434926 0.3370463023962373
0.17238427904594356 0.3584714387562517
0.15399104918275494 0.4013217114762805
0.15399104918275494 0.46559712055632363
0.11720458945637767 0.47630968873633084
0.09881135959318904 0.49773482509634526
0.07122151479840609 0.47630968873633084
0.043631670003623134 0.48702225691633805
0.0252384401404345 0.47630968873633084
-0.0023514046543484488 0.5191599614563597
-0.011548019585942766 0.5727228023563956
-0.011548019585942766 0.6262856432564315
-0.011548019585942766 0.6798484841564676
-0.039137864380725716 0.7119861886964892
-0.05753109424391435 0.7334113250565035
-0.0851209390386973 0.754836461416518
-0.12190739876507457 0.7762615977765324
-0.16789047342304614 0.7762615977765324
-0.16789047342304614 0.7762615977765324
-0.17708708835464046 0.7976867341365468
-0.1954803182178291 0.8405370068565755
-0.20467693314942342 0.8405370068565755
-0.22307016301261204 0.9155249841166259
-0.20467693314942342 0.9262375522966331
-0.20467693314942342 0.9476626886566475
-0.1954803182178291 0.9369501204766403
-0.18628370328623478 0.9155249841166259
-0.17708708835464046 0.9369501204766403
-0.18628370328623478 0.9155249841166259
-0.18628370328623478 0.8940998477566116
-0.17708708835464046 0.8512495750365827
-0.14949724355985752 0.7869741659565396
-0.10351416890188593 0.7226987568764963
-0.039137864380725716 0.647710779616446
0.006845210277245868 0.6048605068964172
0.06202489986681177 0.5512976659963812
0.1355978193195663 0.5834353705364028
0.18158089397753788 0.5620102341763884
0.21836735370391516 0.48702225691633805
0.27354704329348106 0.4548845523763165
0.2919402731566697 0.4013217114762805
0.2919402731566697 0.3477588705762445
0.31953011795145264 0.2834834614962013
0.32872673288304693 0.19778291605614373
0.3655131926094242 0.15493264333611495
0.3747098075410185 0.12279493879609335
0.4114962672673958 0.047806961536042976
0.43908611206217874 0.015669256996021383
0.4666759568569617 -0.027181015724007405
0.4574793419253674 -0.0378935839040146
0.43908611206217874 -0.0700312884440362
0.4482827269937731 -0.0700312884440362
0.43908611206217874 -0.09145642480405058
0.4482827269937731 -0.09145642480405058
0.42988949713058444 -0.13430669752407937
0.43908611206217874 -0.15573183388409376
0.4482827269937731 -0.18786953842411536
0.4482827269937731 -0.18786953842411536
0.49426580165174466 -0.18786953842411536
0.503462416583339 -0.15573183388409376
0.49426580165174466 -0.14501926570408658
0.5126590315149333 -0.13430669752407937
0.49426580165174466 -0.12359412934407217
0.4850691867201503 -0.13430669752407937
0.4666759568569617 -0.16644440206410097
0.4850691867201503 -0.18786953842411536
0.4482827269937731 -0.18786953842411536
0.4666759568569617 -0.17715697024410815
0.4574793419253674 -0.15573183388409376
0.475872571788556 -0.14501926570408658
0.49426580165174466 -0.13430669752407937
0.503462416583339 -0.14501926570408658
0.503462416583339 -0.14501926570408658
0.5126590315149333 -0.14501926570408658
0.5126590315149333 -0.16644440206410097
0.5126590315149333 -0.15573183388409376
0.503462416583339 -0.15573183388409376
0.4850691867201503 -0.16644440206410097
0.4666759568569617 -0.17715697024410815
0.4574793419253674 -0.17715697024410815
0.4666759568569617 -0.15573183388409376
0.4482827269937731 -0.17715697024410815
0.475872571788556 -0.17715697024410815
0.4850691867201503 -0.17715697024410815
0.5126590315149333 -0.16644440206410097
0.5310522613781219 -0.13430669752407937
0.5218556464465276 -0.13430669752407937
0.5310522613781219 -0.09145642480405058
0.5586421061729049 -0.08074385662404339
0.5770353360360935 -0.027181015724007405
0.5954285658992822 -0.016468447544000207
0.6046251808308765 0.015669256996021383
0.6322150256256595 0.09065723425607176
0.650608255488848 0.10136980243607896
0.678198100283631 0.13350750697610056
0.6873947152152253 0.14422007515610774
0.7241811749416026 0.18707034787613652
0.7609676346679798 0.2084954842361509
0.8253439391891401 0.19778291605614373
0.9173100885050832 0.15493264333611495
0.9632931631630548 0.07994466607606457
1.000079622889432 -0.016468447544000207
1.0184728527526208 -0.12359412934407217
1.0184728527526208 -0.15573183388409376
1.000079622889432 -0.20929467478412975
0.9908830079578378 -0.22000724296413696
0.9448999332998662 -0.19858210660412254
0.9448999332998662 -0.20929467478412975
0.9265067034366775 -0.16644440206410097
0.9357033183682718 -0.19858210660412254
0.9081134735734889 -0.22000724296413696
0.9173100885050832 -0.29499522022418734
0.8989168586418946 -0.3699831974842377
0.8713270138471116 -0.4128334702042665
0.8161473242575458 -0.4342586065642809
0.7701642495995742 -0.40212090202425926
0.7241811749416026 -0.40212090202425926
0.6598048704204423 -0.34855806112422333
0.6138217957624708 -0.3271329247642089
0.5770353360360935 -0.2628575156841657
0.5586421061729049 -0.25214494750415856
0.5402488763097162 -0.28428265204418013
0.5310522613781219 -0.3057077884041945
0.475872571788556 -0.3057077884041945
0.4574793419253674 -0.3378454929442161
0.42988949713058444 -0.3164203565842017
0.4114962672673958 -0.28428265204418013
0.4022996523358015 -0.3057077884041945
0.38390642247261286 -0.28428265204418013
0.39310303740420716 -0.2628575156841657
0.39310303740420716 -0.28428265204418013
0.4022996523358015 -0.29499522022418734
0.42988949713058444 -0.24143237932415135
0.43908611206217874 -0.25214494750415856
0.43908611206217874 -0.23071981114414414
0.43908611206217874 -0.24143237932415135
0.4482827269937731 -0.24143237932415135
0.43908611206217874 -0.3057077884041945
0.42069288219899015 -0.28428265204418013
0.42988949713058444 -0.29499522022418734
0.42988949713058444 -0.25214494750415856
0.475872571788556 -0.14501926570408658
0.5586421061729049 0.015669256996021383
0.6873947152152253 0.10136980243607896
0.8897202437103002 0.18707034787613652
1.1656186916581297 0.06923209789605736
1.4783035993323366 -0.14501926570408658
1.8185783518013263 -0.49853401564432404
2.158853104270316 -0.9163241746646047
2.4163583223549567 -1.4412400154849574
2.6646669255080035 -2.062568969925375
2.922172143592644 -2.780311037985857
3.152087516882502 -3.5194782424063535
3.3176265856511997 -4.226507742286828
3.3911995051039545 -4.740711014927174
3.3544130453775773 -4.976387514887333
3.2440536661984454 -4.997812651247346
3.0509247526349648 -4.815698992187224
2.7658296897555408 -4.537172219507037
2.4439481671497396 -4.1836574695668
2.011707265364807 -3.7658673105465192
1.607056208374657 -3.3159394469862167
1.2483882260424786 -2.8552990152459072
1.0184728527526208 -2.341095742605562
0.8345405541207344 -1.9447307199452957
0.7057879450784139 -1.580503401825051
0.6138217957624708 -1.3341143336848853
0.5862319509676879 -1.1412881064447558
0.5586421061729049 -0.9913121519246552
0.5218556464465276 -0.8520487655845616
0.4574793419253674 -0.7449230837844896
0.3655131926094242 -0.5949471292643889
0.27354704329348106 -0.4449711747442881
0.19997412384072652 -0.3271329247642089
0.1355978193195663 -0.23071981114414414
0.12640120438797198 -0.17715697024410815
0.1355978193195663 -0.15573183388409376
0.1355978193195663 -0.14501926570408658
0.1355978193195663 -0.14501926570408658
0.14479443425116062 -0.10216899298405778
0.14479443425116062 -0.0700312884440362
0.12640120438797198 -0.027181015724007405
0.10800797452478335 -0.016468447544000207
0.10800797452478335 -0.00575587936399301
0.10800797452478335 0.015669256996021383
0.09881135959318904 -0.00575587936399301
0.0804181297300004 -0.027181015724007405
0.0804181297300004 -0.0378935839040146
0.07122151479840609 -0.00575587936399301
0.08961474466159472 -0.027181015724007405
0.08961474466159472 0.047806961536042976
0.09881135959318904 0.05851952971605017
0.10800797452478335 0.10136980243607896
0.1355978193195663 0.12279493879609335
0.10800797452478335 0.12279493879609335
0.08961474466159472 0.14422007515610774
0.07122151479840609 0.16564521151612213
0.043631670003623134 0.16564521151612213
0.043631670003623134 0.17635777969612934
0.016041825208840184 0.19778291605614373
0.016041825208840184 0.17635777969612934
0.0252384401404345 0.17635777969612934
0.0252384401404345 0.2084954842361509
0.043631670003623134 0.2084954842361509
0.03443505507202882 0.26205832513618693
0.03443505507202882 0.2834834614962013
0.006845210277245868 0.3049085978562157
0.006845210277245868 0.31562116603622287
-0.020744634517537084 0.3263337342162301
-0.05753109424391435 0.3263337342162301
-0.05753109424391435 0.36918400693625886
-0.06672770917550866 0.37989657511626607
-0.04833447931232003 0.4013217114762805
-0.06672770917550866 0.46559712055632363
-0.09431755397029161 0.47630968873633084
-0.0851209390386973 0.5084473932763525
-0.09431755397029161 0.5298725296363668
-0.12190739876507457 0.5191599614563597
-0.16789047342304614 0.5298725296363668
-0.1954803182178291 0.5512976659963812
-0.21387354808101774 0.5727228023563956
-0.250660007807395 0.59414793871641
-0.2874464675337723 0.6369982114364388
-0.3242329272601495 0.6691359159764604
-0.34262615712333816 0.701273620516482
-0.33342954219174387 0.7441238932365107
-0.33342954219174387 0.7762615977765324
-0.3610193869865268 0.808399302316554
-0.4070024616444984 0.808399302316554
-0.4161990765760927 0.7976867341365468
-0.44378892137087567 0.7762615977765324
-0.44378892137087567 0.7869741659565396
-0.44378892137087567 0.7655490295965252
-0.4345923064392813 0.7441238932365107
-0.4161990765760927 0.7441238932365107
-0.38860923178130974 0.7441238932365107
-0.3518227720549325 0.7655490295965252
-0.2874464675337723 0.7655490295965252
-0.250660007807395 0.7441238932365107
-0.20467693314942342 0.7334113250565035
-0.17708708835464046 0.6905610523364748
-0.13110401369666888 0.6369982114364388
-0.10351416890188593 0.5727228023563956
-0.04833447931232003 0.49773482509634526
-0.0023514046543484488 0.4548845523763165
0.0252384401404345 0.37989657511626607
0.07122151479840609 0.3263337342162301
0.08961474466159472 0.2834834614962013
0.1355978193195663 0.2406331887761725
0.16318766411434926 0.2299206205961653
0.21836735370391516 0.17635777969612934
0.2551538134302924 0.14422007515610774
0.301136888088264 0.10136980243607896
0.3471199627462356 0.037094393356035774
0.38390642247261286 0.004956688816014186
0.3655131926094242 -0.016468447544000207
0.38390642247261286 -0.05931872026402899
0.39310303740420716 -0.08074385662404339
0.3747098075410185 -0.12359412934407217
0.38390642247261286 -0.11288156116406498
0.39310303740420716 -0.11288156116406498
0.3655131926094242 -0.14501926570408658
0.38390642247261286 -0.12359412934407217
0.39310303740420716 -0.13430669752407937
0.4022996523358015 -0.12359412934407217
0.4114962672673958 -0.15573183388409376
0.39310303740420716 -0.17715697024410815
0.42069288219899015 -0.16644440206410097
0.42069288219899015 -0.23071981114414414
0.42069288219899015 -0.22000724296413696
0.4114962672673958 -0.18786953842411536
0.42069288219899015 -0.18786953842411536
0.42988949713058444 -0.18786953842411536
0.43908611206217874 -0.15573183388409376
0.43908611206217874 -0.17715697024410815
0.43908611206217874 -0.17715697024410815
0.4574793419253674 -0.18786953842411536
0.4666759568569617 -0.15573183388409376
0.43908611206217874 -0.18786953842411536
0.4482827269937731 -0.15573183388409376
0.43908611206217874 -0.14501926570408658
0.4114962672673958 -0.14501926570408658
0.42069288219899015 -0.16644440206410097
0.4022996523358015 -0.18786953842411536
0.4114962672673958 -0.22000724296413696
0.42069288219899015 -0.23071981114414414
0.4022996523358015 -0.20929467478412975
0.4022996523358015 -0.16644440206410097
0.4114962672673958 -0.14501926570408658
0.4114962672673958 -0.14501926570408658
0.42069288219899015 -0.14501926570408658
0.42069288219899015 -0.14501926570408658
0.42069288219899015 -0.14501926570408658
0.43908611206217874 -0.16644440206410097
0.4666759568569617 -0.16644440206410097
0.4666759568569617 -0.10216899298405778
0.5126590315149333 -0.0378935839040146
0.5586421061729049 0.037094393356035774
0.5954285658992822 0.10136980243607896
0.6322150256256595 0.19778291605614373
0.6598048704204423 0.2513457569561797
0.6873947152152253 0.2406331887761725
0.678198100283631 0.18707034787613652
0.6965913301468196 0.14422007515610774
0.7057879450784139 0.09065723425607176
0.7333777898731969 0.06923209789605736
0.7885574794627628 0.047806961536042976
0.8437371690523287 0.026381825176028578
0.8805236287787059 -0.016468447544000207
0.9357033183682718 -0.0700312884440362
0.9448999332998662 -0.11288156116406498
0.9357033183682718 -0.14501926570408658
0.8989168586418946 -0.19858210660412254
0.8713270138471116 -0.19858210660412254
0.8437371690523287 -0.17715697024410815
0.852933783983923 -0.15573183388409376
0.8621303989155173 -0.15573183388409376
0.8897202437103002 -0.20929467478412975
0.8897202437103002 -0.29499522022418734
0.8621303989155173 -0.34855806112422333
0.8161473242575458 -0.4342586065642809
0.7517710197363855 -0.4449711747442881
0.7057879450784139 -0.4449711747442881
0.6690014853520366 -0.3806957656642449
0.6138217957624708 -0.3164203565842017
0.5862319509676879 -0.2735700838641729
0.5310522613781219 -0.24143237932415135
0.503462416583339 -0.24143237932415135
0.4666759568569617 -0.24143237932415135
0.42069288219899015 -0.2628575156841657
0.38390642247261286 -0.28428265204418013
0.3471199627462356 -0.3164203565842017
0.32872673288304693 -0.3164203565842017
0.32872673288304693 -0.3057077884041945
0.3379233478146413 -0.28428265204418013
0.3379233478146413 -0.20929467478412975
0.3563165776778299 -0.18786953842411536
0.4022996523358015 -0.20929467478412975
0.42988949713058444 -0.23071981114414414
0.42988949713058444 -0.2628575156841657
0.4022996523358015 -0.3378454929442161
0.38390642247261286 -0.3699831974842377
0.3655131926094242 -0.3699831974842377
0.3471199627462356 -0.3806957656642449
0.3563165776778299 -0.3378454929442161
0.3655131926094242 -0.2628575156841657
0.4022996523358015 -0.15573183388409376
0.42988949713058444 -0.05931872026402899
0.5310522613781219 0.047806961536042976
0.7241811749416026 0.06923209789605736
0.9632931631630548 0.05851952971605017
1.2943713007004503 -0.11288156116406498
1.63464605316944 -0.34855806112422333
1.9749208056384298 -0.6806476747044464
2.2600158685178533 -1.1412881064447558
2.5451109313972773 -1.7090542199851373
2.802616149481918 -2.3732334471455836
3.0509247526349648 -3.123113219746087
3.225660436335257 -3.8515678559865765
3.3084299707196054 -4.4086214013469505
3.326823200582794 -4.697860742207145
3.234857051266851 -4.740711014927174
3.0417281377033705 -4.633585333127102
2.7290432300291636 -4.344345992266907
2.324392173039014 -3.9694061059666557
1.8461681965961092 -3.5623285151263824
1.3587476052216105 -3.1124006515660803
0.9724897780946491 -2.608909947105742
0.6965913301468196 -2.1161318108254106
0.5310522613781219 -1.7197667881651444
0.4850691867201503 -1.3983897427649286
0.475872571788556 -1.1627132428047702
0.49426580165174466 -0.9698870155646407
0.4666759568569617 -0.873473901944576
0.43908611206217874 -0.6806476747044464
0.31953011795145264 -0.55209685654436
0.23676058356710378 -0.4342586065642809
0.16318766411434926 -0.3699831974842377
0.10800797452478335 -0.3271329247642089
0.0804181297300004 -0.2735700838641729
0.11720458945637767 -0.24143237932415135
0.11720458945637767 -0.19858210660412254
0.11720458945637767 -0.16644440206410097
0.10800797452478335 -0.14501926570408658
0.11720458945637767 -0.08074385662404339
0.12640120438797198 -0.08074385662404339
0.1355978193195663 -0.0700312884440362
0.12640120438797198 -0.05931872026402899
0.11720458945637767 -0.08074385662404339
0.11720458945637767 -0.048606152084021796
0.05282828493521745 -0.027181015724007405
0.043631670003623134 -0.00575587936399301
0.0252384401404345 0.004956688816014186
0.006845210277245868 0.05851952971605017
0.0252384401404345 0.037094393356035774
0.043631670003623134 0.06923209789605736
0.05282828493521745 0.06923209789605736
0.06202489986681177 0.07994466607606457
0.06202489986681177 0.07994466607606457
0.05282828493521745 0.10136980243607896
0.05282828493521745 0.12279493879609335
0.05282828493521745 0.13350750697610056
0.0252384401404345 0.15493264333611495
0.016041825208840184 0.15493264333611495
0.016041825208840184 0.18707034787613652
-0.011548019585942766 0.19778291605614373
0.016041825208840184 0.2299206205961653
0.016041825208840184 0.2084954842361509
0.006845210277245868 0.2513457569561797
0.006845210277245868 0.2513457569561797
0.006845210277245868 0.26205832513618693
-0.011548019585942766 0.26205832513618693
-0.039137864380725716 0.2727708933161941
-0.04833447931232003 0.26205832513618693
-0.06672770917550866 0.2727708933161941
-0.07592432410710298 0.2834834614962013
-0.10351416890188593 0.3263337342162301
-0.10351416890188593 0.3370463023962373
-0.13110401369666888 0.42274684783629485
-0.16789047342304614 0.43345941601630206
-0.1954803182178291 0.49773482509634526
-0.1954803182178291 0.5191599614563597
-0.23226677794420636 0.5620102341763884
-0.2598566227389893 0.5298725296363668
-0.27824985260217794 0.5298725296363668
-0.26905323767058364 0.5298725296363668
-0.2874464675337723 0.540585097816374
-0.3150363123285552 0.5834353705364028
-0.34262615712333816 0.5834353705364028
-0.3610193869865268 0.6262856432564315
-0.37941261684971544 0.6584233477964532
-0.4070024616444984 0.6798484841564676
-0.425395691507687 0.701273620516482
-0.4161990765760927 0.6691359159764604
-0.45298553630246996 0.6798484841564676
-0.4345923064392813 0.6584233477964532
-0.425395691507687 0.647710779616446
-0.4345923064392813 0.6584233477964532
-0.425395691507687 0.6905610523364748
-0.4161990765760927 0.701273620516482
-0.38860923178130974 0.754836461416518
-0.3610193869865268 0.7655490295965252
-0.2966430824653666 0.7441238932365107
-0.2598566227389893 0.6691359159764604
-0.20467693314942342 0.6155730750764244
-0.17708708835464046 0.540585097816374
-0.1403006286282632 0.48702225691633805
-0.0851209390386973 0.46559712055632363
-0.04833447931232003 0.4548845523763165
-0.0023514046543484488 0.41203427965628764
0.043631670003623134 0.36918400693625886
0.0804181297300004 0.3263337342162301
0.10800797452478335 0.2727708933161941
0.10800797452478335 0.2084954842361509
0.16318766411434926 0.16564521151612213
0.1907775089091322 0.15493264333611495
0.21836735370391516 0.16564521151612213
0.2459571984986981 0.12279493879609335
0.2643504283618867 0.06923209789605736
0.301136888088264 0.015669256996021383
0.3471199627462356 -0.016468447544000207
0.32872673288304693 -0.0700312884440362
0.3379233478146413 -0.0700312884440362
0.31033350301985835 -0.09145642480405058
0.3379233478146413 -0.11288156116406498
0.32872673288304693 -0.13430669752407937
0.3379233478146413 -0.16644440206410097
0.3471199627462356 -0.16644440206410097
0.3747098075410185 -0.14501926570408658
0.38390642247261286 -0.10216899298405778
0.39310303740420716 -0.10216899298405778
0.38390642247261286 -0.11288156116406498
0.3563165776778299 -0.14501926570408658
0.3379233478146413 -0.17715697024410815
0.31953011795145264 -0.19858210660412254
0.301136888088264 -0.19858210660412254
0.301136888088264 -0.17715697024410815
0.32872673288304693 -0.14501926570408658
0.31953011795145264 -0.14501926570408658
0.3471199627462356 -0.12359412934407217
0.38390642247261286 -0.14501926570408658
0.38390642247261286 -0.16644440206410097
0.3747098075410185 -0.16644440206410097
0.3747098075410185 -0.18786953842411536
0.3471199627462356 -0.20929467478412975
0.3379233478146413 -0.20929467478412975
0.2919402731566697 -0.20929467478412975
0.301136888088264 -0.22000724296413696
0.2919402731566697 -0.22000724296413696
0.31033350301985835 -0.22000724296413696
0.3379233478146413 -0.20929467478412975
0.3655131926094242 -0.18786953842411536
0.4022996523358015 -0.12359412934407217
0.4022996523358015 -0.10216899298405778
0.4022996523358015 -0.05931872026402899
0.3563165776778299 -0.09145642480405058
0.31953011795145264 -0.08074385662404339
0.28274365822507536 -0.12359412934407217
0.27354704329348106 -0.14501926570408658
0.27354704329348106 -0.14501926570408658
0.2919402731566697 -0.13430669752407937
0.31953011795145264 -0.13430669752407937
0.38390642247261286 -0.08074385662404339
0.43908611206217874 -0.048606152084021796
0.4666759568569617 0.026381825176028578
0.5310522613781219 0.11208237061608615
0.5310522613781219 0.15493264333611495
0.5770353360360935 0.13350750697610056
0.5862319509676879 0.12279493879609335
0.5954285658992822 0.09065723425607176
0.6046251808308765 0.09065723425607176
0.623018410694065 0.09065723425607176
0.6873947152152253 0.10136980243607896
0.7425744048047912 0.07994466607606457
0.8069507093259515 0.05851952971605017
0.852933783983923 -0.00575587936399301
0.8805236287787059 -0.09145642480405058
0.8897202437103002 -0.14501926570408658
0.8621303989155173 -0.19858210660412254
0.8161473242575458 -0.20929467478412975
0.7609676346679798 -0.24143237932415135
0.7517710197363855 -0.23071981114414414
0.7517710197363855 -0.19858210660412254
0.7517710197363855 -0.22000724296413696
0.7701642495995742 -0.22000724296413696
0.7793608645311685 -0.24143237932415135
0.7609676346679798 -0.2628575156841657
0.7425744048047912 -0.29499522022418734
0.6965913301468196 -0.3378454929442161
0.6322150256256595 -0.3164203565842017
0.5770353360360935 -0.28428265204418013
0.5218556464465276 -0.24143237932415135
0.4666759568569617 -0.2628575156841657
0.43908611206217874 -0.25214494750415856
0.39310303740420716 -0.29499522022418734
0.3471199627462356 -0.2735700838641729
0.31953011795145264 -0.2628575156841657
0.2919402731566697 -0.25214494750415856
0.27354704329348106 -0.25214494750415856
0.27354704329348106 -0.19858210660412254
0.2643504283618867 -0.18786953842411536
0.27354704329348106 -0.19858210660412254
0.2551538134302924 -0.22000724296413696
0.2459571984986981 -0.22000724296413696
0.2643504283618867 -0.2628575156841657
0.2643504283618867 -0.29499522022418734
0.28274365822507536 -0.3057077884041945
0.31033350301985835 -0.3164203565842017
0.31953011795145264 -0.34855806112422333
0.301136888088264 -0.3164203565842017
0.301136888088264 -0.29499522022418734
0.301136888088264 -0.25214494750415856
0.32872673288304693 -0.16644440206410097
0.38390642247261286 -0.05931872026402899
0.475872571788556 0.037094393356035774
0.6414116405572537 0.12279493879609335
0.8989168586418946 0.06923209789605736
1.2483882260424786 -0.0700312884440362
1.6162528233062512 -0.3592706293042305
1.9749208056384298 -0.7984859246845256
2.296802328244231 -1.3019766291448638
2.5818973911236545 -1.912593015405274
2.857795839071484 -2.608909947105742
3.060121367566559 -3.2945143106262025
3.2164638214036625 -3.926555833246627
3.262446896061634 -4.355058560446915
3.170480746745691 -4.52645965132703
2.995745063045399 -4.45147167406698
2.6922567703027864 -4.226507742286828
2.278409098381042 -3.862280424166584
1.7725952771433546 -3.444490265146303
1.2575848409740729 -2.9731372652259864
0.8253439391891401 -2.4589339925856413
0.5586421061729049 -1.96615585630531
0.38390642247261286 -1.5697908336450437
0.31953011795145264 -1.2805514927848494
0.3379233478146413 -1.0555875610046983
0.32872673288304693 -0.9163241746646047
0.28274365822507536 -0.7877733565045184
0.23676058356710378 -0.6806476747044464
0.16318766411434926 -0.5842345610843817
0.07122151479840609 -0.4449711747442881
0.006845210277245868 -0.3271329247642089
-0.011548019585942766 -0.24143237932415135
-0.039137864380725716 -0.20929467478412975
-0.011548019585942766 -0.15573183388409376
0.0252384401404345 -0.13430669752407937
0.0252384401404345 -0.09145642480405058
0.0252384401404345 -0.0700312884440362
-0.0023514046543484488 -0.05931872026402899
-0.0023514046543484488 -0.016468447544000207
-0.0299412494491314 -0.027181015724007405
-0.04833447931232003 -0.016468447544000207
-0.06672770917550866 0.004956688816014186
-0.09431755397029161 0.05851952971605017
-0.07592432410710298 0.07994466607606457
-0.04833447931232003 0.13350750697610056
-0.020744634517537084 0.14422007515610774
-0.0023514046543484488 0.11208237061608615
-0.0023514046543484488 0.09065723425607176
-0.011548019585942766 0.06923209789605736
-0.020744634517537084 -0.016468447544000207
-0.04833447931232003 -0.027181015724007405
-0.07592432410710298 -0.027181015724007405
-0.10351416890188593 0.015669256996021383
-0.11271078383348025 0.047806961536042976
-0.12190739876507457 0.11208237061608615
-0.12190739876507457 0.14422007515610774
-0.12190739876507457 0.13350750697610056
-0.12190739876507457 0.13350750697610056
-0.12190739876507457 0.15493264333611495
-0.12190739876507457 0.15493264333611495
-0.12190739876507457 0.21920805241615812
-0.12190739876507457 0.2299206205961653
-0.15869385849145184 0.2513457569561797
-0.16789047342304614 0.2834834614962013
-0.18628370328623478 0.2834834614962013
-0.20467693314942342 0.2834834614962013
-0.21387354808101774 0.3049085978562157
-0.22307016301261204 0.26205832513618693
-0.250660007807395 0.31562116603622287
-0.2874464675337723 0.31562116603622287
-0.3058396973969609 0.3370463023962373
-0.3242329272601495 0.3477588705762445
-0.3518227720549325 0.3584714387562517
-0.34262615712333816 0.4013217114762805
-0.3610193869865268 0.46559712055632363
-0.3610193869865268 0.49773482509634526
-0.37941261684971544 0.5084473932763525
-0.44378892137087567 0.5620102341763884
-0.4805753810972529 0.5727228023563956
-0.5081652258920358 0.5620102341763884
-0.5449516856184131 0.5834353705364028
-0.5173618408236302 0.6584233477964532
-0.5081652258920358 0.6798484841564676
-0.5173618408236302 0.701273620516482
-0.49896861096044154 0.6905610523364748
-0.48977199602884725 0.647710779616446
-0.5449516856184131 0.6048605068964172
-0.5725415304131961 0.5512976659963812
-0.5817381453447904 0.540585097816374
-0.6185246050711677 0.5620102341763884
-0.627721220002762 0.5512976659963812
-0.6369178349343563 0.5834353705364028
-0.6185246050711677 0.5834353705364028
-0.5817381453447904 0.59414793871641
-0.5449516856184131 0.6262856432564315
-0.48977199602884725 0.6155730750764244
-0.44378892137087567 0.6584233477964532
-0.38860923178130974 0.6584233477964532
-0.38860923178130974 0.6691359159764604
-0.3518227720549325 0.6155730750764244
-0.3058396973969609 0.5298725296363668
-0.2598566227389893 0.42274684783629485
-0.21387354808101774 0.3370463023962373
-0.15869385849145184 0.2299206205961653
-0.09431755397029161 0.2084954842361509
-0.07592432410710298 0.14422007515610774
-0.0299412494491314 0.14422007515610774
0.03443505507202882 0.13350750697610056
0.08961474466159472 0.13350750697610056
0.12640120438797198 0.06923209789605736
0.14479443425116062 0.015669256996021383
0.16318766411434926 0.004956688816014186
0.15399104918275494 -0.048606152084021796
0.14479443425116062 -0.09145642480405058
0.14479443425116062 -0.11288156116406498
0.12640120438797198 -0.11288156116406498
0.1355978193195663 -0.0700312884440362
0.15399104918275494 -0.08074385662404339
0.1907775089091322 -0.08074385662404339
0.21836735370391516 -0.09145642480405058
0.2459571984986981 -0.09145642480405058
0.2643504283618867 -0.11288156116406498
0.28274365822507536 -0.13430669752407937
0.31953011795145264 -0.14501926570408658
0.3379233478146413 -0.16644440206410097
0.3747098075410185 -0.15573183388409376
0.4114962672673958 -0.19858210660412254
0.4850691867201503 -0.22000724296413696
0.5586421061729049 -0.19858210660412254
0.6138217957624708 -0.18786953842411536
0.7057879450784139 -0.17715697024410815
0.8069507093259515 -0.16644440206410097
0.8897202437103002 -0.16644440206410097
0.9908830079578378 -0.20929467478412975
1.1196356170001582 -0.2628575156841657
1.202405151384507 -0.2735700838641729
1.2943713007004503 -0.29499522022418734
1.3587476052216105 -0.3378454929442161
1.3219611454952331 -0.3806957656642449
1.1840119215213185 -0.4449711747442881
0.9724897780946491 -0.4771088792843097
0.678198100283631 -0.5306717201843456
0.31953011795145264 -0.5949471292643889
-0.12190739876507457 -0.7020728110644608
-0.5633449154816018 -0.7877733565045184
-1.032372276992912 -0.8520487655845616
-1.5197928683674107 -0.8841864701245832
-2.0072134597419096 -0.9484618792046263
-2.430257746595248 -1.0341624246446839
-2.8441054185169925 -1.1091504019047342
-3.1383970963280103 -1.259126356424835
-3.386705699481057 -1.3555394700448997
-3.6258176877025092 -1.4091023109449359
-3.8373398311291784 -1.366252038224907
-3.9476992103083104 -1.194850947344792
-3.993682284966282 -0.9270367428446119
-3.966092440171499 -0.6270848338044104
-3.8649296759239613 -0.34855806112422333
-3.726980451950047 -0.11288156116406498
-3.616621072770915 0.09065723425607176
-3.506261693591783 0.31562116603622287
-3.3683124696178686 0.46559712055632363
-3.211970015780765 0.647710779616446
-3.0188411022172845 0.808399302316554
-2.7889257289274263 0.9798003931966691
-2.5314205108427856 1.12977634771677
-2.2371288330317673 1.3118900067768922
-1.9520337701523436 1.408303120396957
-1.6853319371361084 1.408303120396957
-1.446219948914656 1.3118900067768922
-1.2530910353511755 1.0976386431767482
-1.0875519665824778 0.7441238932365107
-0.949602742608563 0.2727708933161941
-0.830046748497837 -0.17715697024410815
-0.7104907543871108 -0.6056596974443961
-0.5633449154816018 -0.8627613337645688
-0.44378892137087567 -1.0020247201046624
-0.3150363123285552 -1.0234498564646768
-0.18628370328623478 -0.9698870155646407
0.016041825208840184 -0.8627613337645688
0.23676058356710378 -0.7234979474244752
0.4666759568569617 -0.6056596974443961
0.6598048704204423 -0.5306717201843456
0.8069507093259515 -0.45568374292429525
0.8989168586418946 -0.4342586065642809
0.9448999332998662 -0.4128334702042665
0.9173100885050832 -0.4128334702042665
0.852933783983923 -0.4128334702042665
0.8069507093259515 -0.40212090202425926
0.7793608645311685 -0.3699831974842377
0.7885574794627628 -0.3271329247642089
0.7885574794627628 -0.3057077884041945
0.8253439391891401 -0.2735700838641729
0.8805236287787059 -0.23071981114414414
0.8989168586418946 -0.2628575156841657
0.9357033183682718 -0.23071981114414414
0.9540965482314605 -0.20929467478412975
0.9724897780946491 -0.20929467478412975
0.9724897780946491 -0.19858210660412254
0.9632931631630548 -0.20929467478412975
0.9816863930262434 -0.24143237932415135
1.027669467684215 -0.25214494750415856
1.0736525423421865 -0.2628575156841657
1.110439002068564 -0.23071981114414414
1.1472254617949411 -0.17715697024410815
1.1840119215213185 -0.18786953842411536
1.174815306589724 -0.22000724296413696
1.174815306589724 -0.2735700838641729
1.1656186916581297 -0.3057077884041945
1.1840119215213185 -0.3271329247642089
1.174815306589724 -0.3164203565842017
1.1840119215213185 -0.29499522022418734
1.2207983812476957 -0.28428265204418013
1.2391916111108843 -0.25214494750415856
1.2759780708372617 -0.29499522022418734
1.3219611454952331 -0.3164203565842017
1.349550990290016 -0.3271329247642089
1.3771408350847991 -0.34855806112422333
1.3771408350847991 -0.3271329247642089
1.404730679879582 -0.3378454929442161
1.4139272948111763 -0.3057077884041945
1.4415171396059592 -0.29499522022418734
1.4323205246743649 -0.29499522022418734
1.4691069844007423 -0.3164203565842017
1.4691069844007423 -0.3057077884041945
1.4966968291955252 -0.29499522022418734
1.5426799038534968 -0.2735700838641729
1.5886629785114683 -0.2735700838641729
1.6254494382378457 -0.22000724296413696
1.6438426681010343 -0.22000724296413696
1.6806291278274115 -0.24143237932415135
1.6714325128958172 -0.24143237932415135
1.6806291278274115 -0.2735700838641729
1.6438426681010343 -0.29499522022418734
1.6438426681010343 -0.3057077884041945
1.5978595934430626 -0.28428265204418013
1.5978595934430626 -0.24143237932415135
1.5978595934430626 -0.24143237932415135
1.6254494382378457 -0.2628575156841657
1.607056208374657 -0.2735700838641729
1.607056208374657 -0.3057077884041945
1.5426799038534968 -0.3164203565842017
1.524286673990308 -0.3271329247642089
1.4691069844007423 -0.29499522022418734
1.4323205246743649 -0.29499522022418734
1.3863374500163934 -0.3057077884041945
1.3035679156320445 -0.3271329247642089
1.2116017663161014 -0.3592706293042305
1.1288322319317525 -0.3699831974842377
1.0644559274105923 -0.3699831974842377
1.0184728527526208 -0.3806957656642449
0.9724897780946491 -0.3592706293042305
0.9357033183682718 -0.3271329247642089
0.8989168586418946 -0.2628575156841657
0.8621303989155173 -0.2735700838641729
0.8069507093259515 -0.25214494750415856
0.7241811749416026 -0.24143237932415135
0.6598048704204423 -0.24143237932415135
0.5862319509676879 -0.24143237932415135
0.49426580165174466 -0.24143237932415135
0.4574793419253674 -0.20929467478412975
0.42069288219899015 -0.16644440206410097
0.38390642247261286 -0.14501926570408658
0.3655131926094242 -0.09145642480405058
0.32872673288304693 -0.0378935839040146
0.31953011795145264 -0.0378935839040146
0.2643504283618867 -0.00575587936399301
0.2551538134302924 -0.016468447544000207
0.22756396863550946 -0.048606152084021796
0.17238427904594356 -0.0700312884440362
0.15399104918275494 -0.08074385662404339
0.11720458945637767 -0.0700312884440362
0.11720458945637767 -0.05931872026402899
0.12640120438797198 -0.016468447544000207
0.16318766411434926 0.004956688816014186
0.14479443425116062 -0.00575587936399301
0.17238427904594356 -0.00575587936399301
0.16318766411434926 -0.0378935839040146
0.16318766411434926 -0.05931872026402899
0.14479443425116062 -0.08074385662404339
0.14479443425116062 -0.0700312884440362
0.1355978193195663 -0.09145642480405058
0.09881135959318904 -0.0700312884440362
0.11720458945637767 -0.09145642480405058
0.12640120438797198 -0.10216899298405778
0.11720458945637767 -0.09145642480405058
0.10800797452478335 -0.11288156116406498
0.0804181297300004 -0.09145642480405058
0.09881135959318904 -0.12359412934407217
0.11720458945637767 -0.11288156116406498
0.1355978193195663 -0.11288156116406498
0.15399104918275494 -0.08074385662404339
0.15399104918275494 -0.0700312884440362
0.15399104918275494 -0.048606152084021796
0.1355978193195663 -0.05931872026402899
0.11720458945637767 -0.05931872026402899
0.11720458945637767 -0.05931872026402899
0.12640120438797198 -0.08074385662404339
0.14479443425116062 -0.11288156116406498
0.10800797452478335 -0.11288156116406498
0.10800797452478335 -0.09145642480405058
0.12640120438797198 -0.05931872026402899
0.10800797452478335 -0.0700312884440362
0.10800797452478335 -0.0700312884440362
0.0804181297300004 -0.12359412934407217
0.07122151479840609 -0.15573183388409376
0.07122151479840609 -0.15573183388409376
0.03443505507202882 -0.15573183388409376
0.03443505507202882 -0.11288156116406498
0.06202489986681177 -0.0700312884440362
0.06202489986681177 -0.048606152084021796
0.05282828493521745 -0.048606152084021796
0.07122151479840609 -0.027181015724007405
0.06202489986681177 -0.0700312884440362
0.06202489986681177 -0.08074385662404339
0.06202489986681177 -0.10216899298405778
0.05282828493521745 -0.14501926570408658
0.0252384401404345 -0.16644440206410097
0.006845210277245868 -0.19858210660412254
-0.0023514046543484488 -0.18786953842411536
0.006845210277245868 -0.17715697024410815
0.016041825208840184 -0.15573183388409376
0.05282828493521745 -0.13430669752407937
0.043631670003623134 -0.13430669752407937
0.006845210277245868 -0.11288156116406498
0.03443505507202882 -0.10216899298405778
0.03443505507202882 -0.11288156116406498
0.0252384401404345 -0.11288156116406498
0.03443505507202882 -0.12359412934407217
0.006845210277245868 -0.13430669752407937
0.016041825208840184 -0.12359412934407217
-0.011548019585942766 -0.12359412934407217
-0.0299412494491314 -0.11288156116406498
-0.039137864380725716 -0.14501926570408658
-0.04833447931232003 -0.11288156116406498
-0.011548019585942766 -0.13430669752407937
-0.0023514046543484488 -0.11288156116406498
0.0252384401404345 -0.10216899298405778
0.03443505507202882 -0.10216899298405778
0.016041825208840184 -0.09145642480405058
-0.0023514046543484488 -0.10216899298405778
-0.020744634517537084 -0.09145642480405058
-0.039137864380725716 -0.12359412934407217
-0.0299412494491314 -0.13430669752407937
-0.011548019585942766 -0.14501926570408658
-0.011548019585942766 -0.15573183388409376
-0.011548019585942766 -0.14501926570408658
-0.011548019585942766 -0.11288156116406498
-0.011548019585942766 -0.09145642480405058
-0.0023514046543484488 -0.08074385662404339
0.016041825208840184 -0.09145642480405058
0.016041825208840184 -0.12359412934407217
-0.0023514046543484488 -0.15573183388409376
-0.020744634517537084 -0.16644440206410097
-0.039137864380725716 -0.14501926570408658
-0.05753109424391435 -0.11288156116406498
-0.04833447931232003 -0.09145642480405058
-0.039137864380725716 -0.15573183388409376
-0.04833447931232003 -0.20929467478412975
-0.05753109424391435 -0.23071981114414414
-0.0299412494491314 -0.24143237932415135
0.006845210277245868 -0.25214494750415856
-0.011548019585942766 -0.2628575156841657
-0.011548019585942766 -0.18786953842411536
0.016041825208840184 -0.16644440206410097
0.043631670003623134 -0.13430669752407937
0.05282828493521745 -0.09145642480405058
0.09881135959318904 -0.0378935839040146
0.11720458945637767 0.05851952971605017
0.17238427904594356 0.12279493879609335
0.18158089397753788 0.15493264333611495
0.18158089397753788 0.17635777969612934
0.20917073877232084 0.17635777969612934
0.20917073877232084 0.16564521151612213
0.23676058356710378 0.14422007515610774
0.27354704329348106 0.12279493879609335
0.3379233478146413 0.05851952971605017
0.39310303740420716 -0.00575587936399301
0.4114962672673958 -0.0378935839040146
0.43908611206217874 -0.09145642480405058
0.43908611206217874 -0.11288156116406498
0.42069288219899015 -0.14501926570408658
0.4114962672673958 -0.16644440206410097
0.39310303740420716 -0.15573183388409376
0.3563165776778299 -0.15573183388409376
0.3747098075410185 -0.13430669752407937
0.4022996523358015 -0.14501926570408658
0.42069288219899015 -0.14501926570408658
0.42988949713058444 -0.18786953842411536
0.39310303740420716 -0.2628575156841657
0.3471199627462356 -0.3164203565842017
0.2919402731566697 -0.3592706293042305
0.20917073877232084 -0.40212090202425926
0.15399104918275494 -0.3699831974842377
0.10800797452478335 -0.3271329247642089
0.07122151479840609 -0.23071981114414414
0.0804181297300004 -0.18786953842411536
0.0804181297300004 -0.17715697024410815
0.043631670003623134 -0.16644440206410097
0.0252384401404345 -0.20929467478412975
-0.0299412494491314 -0.2628575156841657
-0.0851209390386973 -0.24143237932415135
-0.13110401369666888 -0.2628575156841657
-0.15869385849145184 -0.24143237932415135
-0.16789047342304614 -0.25214494750415856
-0.16789047342304614 -0.22000724296413696
-0.14949724355985752 -0.17715697024410815
-0.1403006286282632 -0.13430669752407937
-0.13110401369666888 -0.10216899298405778
-0.10351416890188593 -0.10216899298405778
-0.09431755397029161 -0.14501926570408658
-0.09431755397029161 -0.19858210660412254
-0.09431755397029161 -0.25214494750415856
-0.12190739876507457 -0.3164203565842017
-0.12190739876507457 -0.3271329247642089
-0.1403006286282632 -0.3164203565842017
-0.15869385849145184 -0.22000724296413696
-0.12190739876507457 -0.13430669752407937
-0.020744634517537084 -0.00575587936399301
0.12640120438797198 0.10136980243607896
0.32872673288304693 0.13350750697610056
0.6322150256256595 0.12279493879609335
0.9540965482314605 -0.027181015724007405
1.3035679156320445 -0.25214494750415856
1.6438426681010343 -0.5842345610843817
1.9013478861856752 -0.9913121519246552
2.1772463341335047 -1.5162279927450077
2.425554937286551 -2.0947066744653964
2.646273695644815 -2.737460765265828
2.8302059942767013 -3.3373645833462313
2.940565373455833 -3.7980050150865408
2.9313687585242385 -4.055106651406714
2.8394026092082956 -4.130094628666764
2.6554703105764093 -4.033681515046699
2.3703752476969853 -3.862280424166584
1.956527575775241 -3.551615946946375
1.4415171396059592 -3.1981011970061375
0.9265067034366775 -2.8124487425258784
0.475872571788556 -2.4160837198656124
0.1355978193195663 -2.0090061290253387
-0.0299412494491314 -1.6554913790851014
-0.12190739876507457 -1.3769646064049141
-0.15869385849145184 -1.1734258109847775
-0.12190739876507457 -1.0234498564646768
-0.12190739876507457 -0.8948990383045904
-0.13110401369666888 -0.7770607883245112
-0.20467693314942342 -0.6270848338044104
-0.2966430824653666 -0.4878214474643169
-0.3702160019181211 -0.40212090202425926
-0.4713787661656586 -0.28428265204418013
-0.4713787661656586 -0.25214494750415856
-0.5081652258920358 -0.20929467478412975
-0.5081652258920358 -0.19858210660412254
-0.5081652258920358 -0.16644440206410097
-0.48977199602884725 -0.13430669752407937
-0.4805753810972529 -0.10216899298405778
-0.4713787661656586 -0.0700312884440362
-0.4713787661656586 -0.027181015724007405
-0.5081652258920358 -0.016468447544000207
-0.5357550706868188 -0.0378935839040146
-0.5541483005500074 -0.027181015724007405
-0.5817381453447904 -0.016468447544000207
-0.5817381453447904 0.015669256996021383
-0.5817381453447904 0.037094393356035774
-0.5817381453447904 0.12279493879609335
-0.5633449154816018 0.13350750697610056
-0.5633449154816018 0.14422007515610774
-0.5633449154816018 0.12279493879609335
-0.5449516856184131 0.09065723425607176
-0.5081652258920358 0.07994466607606457
-0.5357550706868188 0.06923209789605736
-0.5541483005500074 0.05851952971605017
-0.5817381453447904 0.07994466607606457
-0.6093279901395734 0.05851952971605017
-0.6093279901395734 0.07994466607606457
-0.6369178349343563 0.05851952971605017
-0.655311064797545 0.11208237061608615
-0.6645076797291393 0.14422007515610774
-0.6645076797291393 0.12279493879609335
-0.655311064797545 0.14422007515610774
-0.6461144498659506 0.17635777969612934
-0.6185246050711677 0.16564521151612213
-0.627721220002762 0.2084954842361509
-0.6461144498659506 0.2727708933161941
-0.6737042946607336 0.2834834614962013
-0.6920975245239223 0.2834834614962013
-0.7380805991818938 0.26205832513618693
-0.774867058908271 0.2299206205961653
-0.8116535186346483 0.21920805241615812
-0.8576365932926199 0.2406331887761725
-0.8852264380874029 0.2513457569561797
-0.9036196679505915 0.2834834614962013
-0.8668332082242142 0.31562116603622287
-0.8576365932926199 0.3477588705762445
-0.8668332082242142 0.31562116603622287
-0.8760298231558086 0.3370463023962373
-0.9220128978137802 0.31562116603622287
-0.949602742608563 0.3370463023962373
-0.9863892023349403 0.37989657511626607
-1.0231756620613177 0.43345941601630206
-1.0599621217876949 0.49773482509634526
-1.0875519665824778 0.5727228023563956
-1.1243384263088552 0.5727228023563956
-1.1611248860352323 0.5834353705364028
-1.179518115898421 0.49773482509634526
-1.2163045756247983 0.46559712055632363
-1.2438944204195812 0.42274684783629485
-1.2438944204195812 0.4548845523763165
-1.271484265214364 0.44417198419630927
-1.2806808801459584 0.4548845523763165
-1.3174673398723358 0.4548845523763165
-1.354253799598713 0.42274684783629485
-1.3634504145303072 0.44417198419630927
-1.381843644393496 0.43345941601630206
-1.381843644393496 0.48702225691633805
-1.4002368742566846 0.540585097816374
-1.409433489188279 0.5620102341763884
-1.4002368742566846 0.59414793871641
-1.3726470294619015 0.5834353705364028
-1.3450571846671187 0.5727228023563956
-1.3174673398723358 0.540585097816374
-1.2806808801459584 0.47630968873633084
-1.2438944204195812 0.4548845523763165
-1.2255011905563926 0.41203427965628764
-1.207107960693204 0.4013217114762805
-1.1979113457616095 0.37989657511626607
-1.1611248860352323 0.36918400693625886
-1.1243384263088552 0.3906091432962733
-1.0415688919245063 0.4013217114762805
-0.9679959724717517 0.36918400693625886
-0.9128162828821859 0.3370463023962373
-0.8576365932926199 0.31562116603622287
-0.802456903703054 0.2727708933161941
-0.774867058908271 0.2084954842361509
-0.7288839842502994 0.16564521151612213
-0.6829009095923279 0.14422007515610774
-0.6461144498659506 0.10136980243607896
-0.5725415304131961 0.05851952971605017
-0.5265584557552245 0.06923209789605736
-0.5081652258920358 0.06923209789605736
-0.4621821512340643 0.10136980243607896
-0.4161990765760927 0.09065723425607176
-0.4070024616444984 0.047806961536042976
-0.4070024616444984 0.004956688816014186
-0.37941261684971544 -0.05931872026402899
-0.3702160019181211 -0.14501926570408658
-0.34262615712333816 -0.19858210660412254
-0.3242329272601495 -0.18786953842411536
-0.3242329272601495 -0.18786953842411536
-0.3058396973969609 -0.15573183388409376
-0.26905323767058364 -0.12359412934407217
-0.24146339287580068 -0.09145642480405058
-0.24146339287580068 -0.10216899298405778
-0.21387354808101774 -0.09145642480405058
-0.250660007807395 -0.11288156116406498
-0.2598566227389893 -0.10216899298405778
-0.2874464675337723 -0.14501926570408658
-0.2874464675337723 -0.14501926570408658
-0.33342954219174387 -0.16644440206410097
-0.3242329272601495 -0.18786953842411536
-0.2966430824653666 -0.19858210660412254
-0.27824985260217794 -0.17715697024410815
-0.24146339287580068 -0.16644440206410097
-0.22307016301261204 -0.16644440206410097
-0.21387354808101774 -0.15573183388409376
-0.18628370328623478 -0.13430669752407937
-0.17708708835464046 -0.11288156116406498
-0.16789047342304614 -0.13430669752407937
-0.14949724355985752 -0.14501926570408658
-0.14949724355985752 -0.15573183388409376
-0.14949724355985752 -0.17715697024410815
-0.1403006286282632 -0.19858210660412254
-0.12190739876507457 -0.16644440206410097
-0.0851209390386973 -0.11288156116406498
-0.0851209390386973 -0.08074385662404339
-0.0299412494491314 -0.048606152084021796
-0.0023514046543484488 0.004956688816014186
0.07122151479840609 0.037094393356035774
0.12640120438797198 0.11208237061608615
0.16318766411434926 0.12279493879609335
0.2643504283618867 0.17635777969612934
0.38390642247261286 0.19778291605614373
0.5218556464465276 0.2299206205961653
0.6965913301468196 0.2406331887761725
0.8989168586418946 0.2727708933161941
1.1196356170001582 0.2727708933161941
1.3219611454952331 0.2513457569561797
1.5058934441271195 0.19778291605614373
1.6898257427590058 0.12279493879609335
1.8461681965961092 0.037094393356035774
2.0301004952279955 -0.0378935839040146
2.1956395639966932 -0.10216899298405778
2.3703752476969853 -0.19858210660412254
2.5175210866024944 -0.3164203565842017
2.683060155371192 -0.4771088792843097
2.7934195345503237 -0.7342105156044824
2.857795839071484 -0.9698870155646407
2.8394026092082956 -1.1841383791647846
2.6922567703027864 -1.4091023109449359
2.4071617074233624 -1.5162279927450077
1.9657241907068352 -1.580503401825051
1.3403543753584217 -1.6126411063650725
0.5586421061729049 -1.7197667881651444
-0.3058396973969609 -1.8376050381452236
-1.1059451964456664 -1.96615585630531
-1.7772980864520516 -2.0947066744653964
-2.191145758373796 -2.2661077653455117
-2.4118645167320594 -2.4160837198656124
-2.393471286868871 -2.5017842653056697
-2.292308522621333 -2.5232094016656843
-2.117572838921041 -2.4589339925856413
-1.9152473104259664 -2.287532901705526
-1.7772980864520516 -2.0518564017453675
-1.6301522475465424 -1.7519044927051661
-1.5105962534358164 -1.473377720024979
-1.3634504145303072 -1.2162760837048063
-1.207107960693204 -1.0020247201046624
-1.0139790471297232 -0.8306236292245471
-0.8484399783610256 -0.6913602428844536
-0.6920975245239223 -0.5842345610843817
-0.6093279901395734 -0.4878214474643169
-0.5357550706868188 -0.3806957656642449
-0.5081652258920358 -0.3592706293042305
-0.5173618408236302 -0.28428265204418013
-0.49896861096044154 -0.24143237932415135
-0.49896861096044154 -0.19858210660412254
-0.5081652258920358 -0.17715697024410815
-0.48977199602884725 -0.14501926570408658
-0.49896861096044154 -0.15573183388409376
-0.49896861096044154 -0.15573183388409376
-0.49896861096044154 -0.17715697024410815
-0.5081652258920358 -0.16644440206410097
-0.5357550706868188 -0.12359412934407217
-0.5541483005500074 -0.11288156116406498
-0.5541483005500074 -0.048606152084021796
-0.5449516856184131 -0.00575587936399301
-0.5357550706868188 0.004956688816014186
-0.49896861096044154 0.015669256996021383
-0.48977199602884725 -0.0378935839040146
-0.4621821512340643 -0.0700312884440362
-0.4621821512340643 -0.0700312884440362
-0.4713787661656586 -0.13430669752407937
-0.48977199602884725 -0.12359412934407217
-0.5265584557552245 -0.13430669752407937
-0.5265584557552245 -0.09145642480405058
-0.5357550706868188 -0.08074385662404339
-0.5173618408236302 -0.0378935839040146
-0.5081652258920358 -0.00575587936399301
-0.49896861096044154 0.004956688816014186
-0.5081652258920358 0.026381825176028578
-0.49896861096044154 0.015669256996021383
-0.5081652258920358 0.037094393356035774
-0.5081652258920358 0.026381825176028578
-0.5173618408236302 0.026381825176028578
-0.5173618408236302 -0.00575587936399301
-0.5449516856184131 0.026381825176028578
-0.5081652258920358 0.026381825176028578
-0.5173618408236302 0.07994466607606457
-0.5081652258920358 0.15493264333611495
-0.4805753810972529 0.18707034787613652
-0.45298553630246996 0.2084954842361509
-0.425395691507687 0.2084954842361509
-0.4345923064392813 0.17635777969612934
-0.44378892137087567 0.17635777969612934
-0.44378892137087567 0.14422007515610774
-0.4805753810972529 0.12279493879609335
-0.48977199602884725 0.14422007515610774
-0.4621821512340643 0.19778291605614373
-0.4070024616444984 0.21920805241615812
-0.3702160019181211 0.2941960296762085
-0.3518227720549325 0.3370463023962373
-0.33342954219174387 0.3370463023962373
-0.3058396973969609 0.3584714387562517
-0.250660007807395 0.3584714387562517
-0.21387354808101774 0.3477588705762445
-0.1954803182178291 0.37989657511626607
-0.17708708835464046 0.36918400693625886
-0.15869385849145184 0.3584714387562517
-0.1403006286282632 0.3263337342162301
-0.14949724355985752 0.3477588705762445
-0.15869385849145184 0.3584714387562517
-0.1403006286282632 0.37989657511626607
-0.12190739876507457 0.3906091432962733
-0.10351416890188593 0.4013217114762805
-0.04833447931232003 0.43345941601630206
-0.0299412494491314 0.41203427965628764
-0.04833447931232003 0.42274684783629485
-0.039137864380725716 0.4013217114762805
-0.04833447931232003 0.4013217114762805
-0.05753109424391435 0.4013217114762805
-0.07592432410710298 0.41203427965628764
-0.13110401369666888 0.36918400693625886
-0.12190739876507457 0.3263337342162301
-0.14949724355985752 0.2834834614962013
-0.18628370328623478 0.2406331887761725
-0.18628370328623478 0.19778291605614373
-0.22307016301261204 0.21920805241615812
-0.23226677794420636 0.2084954842361509
-0.2598566227389893 0.16564521151612213
-0.250660007807395 0.15493264333611495
-0.27824985260217794 0.14422007515610774
-0.26905323767058364 0.09065723425607176
-0.3150363123285552 0.05851952971605017
-0.3242329272601495 0.037094393356035774
-0.3242329272601495 -0.00575587936399301
-0.33342954219174387 -0.027181015724007405
-0.3150363123285552 -0.016468447544000207
-0.3150363123285552 -0.0378935839040146
-0.3150363123285552 -0.016468447544000207
-0.3058396973969609 0.026381825176028578
-0.3150363123285552 0.037094393356035774
-0.34262615712333816 0.004956688816014186
-0.3610193869865268 -0.027181015724007405
-0.3702160019181211 -0.048606152084021796
-0.3702160019181211 -0.048606152084021796
-0.3978058467129041 -0.0378935839040146
-0.3978058467129041 -0.016468447544000207
-0.37941261684971544 -0.00575587936399301
-0.37941261684971544 0.026381825176028578
-0.3702160019181211 -0.016468447544000207
-0.3518227720549325 -0.05931872026402899
-0.3610193869865268 -0.05931872026402899
-0.3518227720549325 -0.12359412934407217
-0.3610193869865268 -0.13430669752407937
-0.34262615712333816 -0.14501926570408658
-0.3610193869865268 -0.11288156116406498
-0.3610193869865268 -0.11288156116406498
-0.3610193869865268 -0.11288156116406498
-0.34262615712333816 -0.10216899298405778
-0.34262615712333816 -0.0700312884440362
-0.34262615712333816 -0.048606152084021796
-0.3242329272601495 -0.0378935839040146
-0.3242329272601495 -0.0378935839040146
-0.2966430824653666 -0.0700312884440362
-0.3058396973969609 -0.09145642480405058
-0.3150363123285552 -0.12359412934407217
-0.3242329272601495 -0.11288156116406498
-0.34262615712333816 -0.10216899298405778
-0.3518227720549325 -0.12359412934407217
-0.37941261684971544 -0.10216899298405778
-0.3610193869865268 -0.08074385662404339
-0.3610193869865268 -0.09145642480405058
-0.34262615712333816 -0.09145642480405058
-0.3242329272601495 -0.10216899298405778
-0.2966430824653666 -0.09145642480405058
-0.3058396973969609 -0.09145642480405058
-0.34262615712333816 -0.08074385662404339
-0.33342954219174387 -0.08074385662404339
-0.34262615712333816 -0.09145642480405058
-0.33342954219174387 -0.13430669752407937
-0.3610193869865268 -0.13430669752407937
-0.37941261684971544 -0.15573183388409376
-0.3610193869865268 -0.14501926570408658
-0.3610193869865268 -0.16644440206410097
-0.34262615712333816 -0.12359412934407217
-0.3610193869865268 -0.08074385662404339
-0.33342954219174387 -0.0378935839040146
-0.34262615712333816 -0.027181015724007405
-0.34262615712333816 -0.027181015724007405
-0.33342954219174387 -0.08074385662404339
-0.33342954219174387 -0.14501926570408658
-0.34262615712333816 -0.16644440206410097
-0.3610193869865268 -0.17715697024410815
-0.3702160019181211 -0.19858210660412254
-0.3702160019181211 -0.18786953842411536
-0.37941261684971544 -0.14501926570408658
-0.3610193869865268 -0.12359412934407217
-0.3702160019181211 -0.09145642480405058
-0.3518227720549325 -0.09145642480405058
-0.34262615712333816 -0.08074385662404339
-0.33342954219174387 -0.0700312884440362
-0.34262615712333816 -0.11288156116406498
-0.34262615712333816 -0.12359412934407217
-0.3242329272601495 -0.13430669752407937
-0.34262615712333816 -0.18786953842411536
-0.3518227720549325 -0.19858210660412254
-0.3518227720549325 -0.15573183388409376
-0.33342954219174387 -0.17715697024410815
-0.3242329272601495 -0.17715697024410815
-0.2874464675337723 -0.15573183388409376
-0.24146339287580068 -0.09145642480405058
-0.21387354808101774 -0.048606152084021796
-0.17708708835464046 0.026381825176028578
-0.16789047342304614 0.09065723425607176
-0.13110401369666888 0.15493264333611495
-0.09431755397029161 0.16564521151612213
-0.09431755397029161 0.19778291605614373
-0.09431755397029161 0.21920805241615812
-0.11271078383348025 0.21920805241615812
-0.06672770917550866 0.2084954842361509
-0.039137864380725716 0.15493264333611495
0.0252384401404345 0.11208237061608615
0.07122151479840609 0.047806961536042976
0.1355978193195663 0.015669256996021383
0.15399104918275494 0.004956688816014186
0.18158089397753788 -0.0378935839040146
0.18158089397753788 -0.0378935839040146
0.16318766411434926 -0.09145642480405058
0.12640120438797198 -0.13430669752407937
0.0804181297300004 -0.17715697024410815
0.06202489986681177 -0.17715697024410815
0.043631670003623134 -0.15573183388409376
0.07122151479840609 -0.15573183388409376
0.09881135959318904 -0.17715697024410815
0.11720458945637767 -0.20929467478412975
0.15399104918275494 -0.24143237932415135
0.1355978193195663 -0.29499522022418734
0.11720458945637767 -0.3057077884041945
0.06202489986681177 -0.3271329247642089
0.006845210277245868 -0.3378454929442161
-0.06672770917550866 -0.3271329247642089
-0.13110401369666888 -0.3057077884041945
-0.16789047342304614 -0.28428265204418013
-0.21387354808101774 -0.24143237932415135
-0.23226677794420636 -0.20929467478412975
-0.23226677794420636 -0.17715697024410815
-0.3150363123285552 -0.18786953842411536
-0.34262615712333816 -0.18786953842411536
-0.3518227720549325 -0.18786953842411536
-0.3610193869865268 -0.19858210660412254
-0.3518227720549325 -0.17715697024410815
-0.38860923178130974 -0.20929467478412975
-0.4070024616444984 -0.2628575156841657
-0.3978058467129041 -0.29499522022418734
-0.3978058467129041 -0.28428265204418013
-0.38860923178130974 -0.25214494750415856
-0.3702160019181211 -0.24143237932415135
-0.37941261684971544 -0.19858210660412254
-0.38860923178130974 -0.17715697024410815
-0.4070024616444984 -0.18786953842411536
-0.3610193869865268 -0.20929467478412975
-0.3610193869865268 -0.20929467478412975
-0.4070024616444984 -0.18786953842411536
-0.38860923178130974 -0.14501926570408658
-0.37941261684971544 -0.05931872026402899
-0.3518227720549325 0.05851952971605017
-0.24146339287580068 0.12279493879609335
-0.011548019585942766 0.15493264333611495
0.301136888088264 0.06923209789605736
0.6690014853520366 -0.12359412934407217
1.055259312478998 -0.4235460383842737
1.4691069844007423 -0.8091984928645327
1.809381736869732 -1.2912640609648567
2.1404598744071275 -1.9018804472252668
2.453144782081334 -2.608909947105742
2.6646669255080035 -3.369502287886253
2.8302059942767013 -4.0122563786866845
2.8669924540030784 -4.430046537706965
2.7934195345503237 -4.590735060407074
2.6186838508500316 -4.494321946787008
2.305998943175825 -4.237220310466836
1.9013478861856752 -3.8408552878065696
1.4231239097427706 -3.369502287886253
0.9265067034366775 -2.898149287965936
0.503462416583339 -2.405371151685605
0.1907775089091322 -1.9233055835852813
-0.039137864380725716 -1.5483656972850293
-0.16789047342304614 -1.2698389246048423
-0.22307016301261204 -1.0663001291847054
-0.26905323767058364 -0.873473901944576
-0.3242329272601495 -0.7449230837844896
-0.3978058467129041 -0.6163722656244032
-0.4805753810972529 -0.4771088792843097
-0.5909347602763847 -0.3592706293042305
-0.627721220002762 -0.24143237932415135
-0.6645076797291393 -0.17715697024410815
-0.6920975245239223 -0.12359412934407217
-0.6829009095923279 -0.08074385662404339
-0.6920975245239223 -0.08074385662404339
-0.6829009095923279 -0.09145642480405058
-0.7288839842502994 -0.0700312884440362
-0.7472772141134881 -0.027181015724007405
-0.7564738290450824 0.015669256996021383
-0.7564738290450824 0.06923209789605736
-0.7564738290450824 0.06923209789605736
-0.7472772141134881 0.12279493879609335
-0.7288839842502994 0.14422007515610774
-0.7288839842502994 0.11208237061608615
-0.7288839842502994 0.11208237061608615
-0.7564738290450824 0.09065723425607176
-0.7932602887714597 0.05851952971605017
-0.7840636738398654 0.047806961536042976
-0.7840636738398654 0.047806961536042976
-0.7840636738398654 0.09065723425607176
-0.7840636738398654 0.12279493879609335
-0.7932602887714597 0.16564521151612213
-0.7840636738398654 0.2406331887761725
-0.7932602887714597 0.2727708933161941
-0.8116535186346483 0.31562116603622287
-0.8116535186346483 0.2834834614962013
-0.7932602887714597 0.2727708933161941
-0.802456903703054 0.26205832513618693
-0.802456903703054 0.2513457569561797
-0.8208501335662426 0.26205832513618693
-0.8392433634294313 0.26205832513618693
-0.8576365932926199 0.26205832513618693
-0.8576365932926199 0.31562116603622287
-0.8944230530189972 0.36918400693625886
-0.8760298231558086 0.4013217114762805
-0.9036196679505915 0.42274684783629485
-0.9128162828821859 0.47630968873633084
-0.9128162828821859 0.49773482509634526
-0.9587993575401574 0.48702225691633805
-0.9587993575401574 0.48702225691633805
-0.9955858172665346 0.49773482509634526
-1.032372276992912 0.5084473932763525
-1.0415688919245063 0.5191599614563597
-1.0599621217876949 0.540585097816374
-1.096748581514072 0.5620102341763884
-1.151928271103638 0.5727228023563956
-1.1703215009668266 0.5834353705364028
-1.179518115898421 0.59414793871641
-1.1979113457616095 0.6262856432564315
-1.2163045756247983 0.6262856432564315
-1.2530910353511755 0.6691359159764604
-1.2806808801459584 0.701273620516482
-1.289877495077553 0.7226987568764963
-1.3634504145303072 0.7441238932365107
-1.381843644393496 0.7334113250565035
-1.3910402593250903 0.7226987568764963
-1.4278267190514675 0.701273620516482
-1.4186301041198732 0.701273620516482
-1.4554165638462504 0.7119861886964892
-1.4554165638462504 0.754836461416518
-1.4278267190514675 0.7976867341365468
-1.4002368742566846 0.8191118704965611
-1.3726470294619015 0.8405370068565755
-1.32666395480393 0.8298244386765683
-1.32666395480393 0.808399302316554
-1.3358605697355244 0.7226987568764963
-1.3082707249407415 0.6905610523364748
-1.2622876502827698 0.6584233477964532
-1.2163045756247983 0.6369982114364388
-1.1611248860352323 0.6048605068964172
-1.096748581514072 0.6048605068964172
-1.0415688919245063 0.5620102341763884
-0.9587993575401574 0.540585097816374
-0.9128162828821859 0.5191599614563597
-0.8484399783610256 0.44417198419630927
-0.802456903703054 0.3477588705762445
-0.7380805991818938 0.2727708933161941
-0.7012941394555166 0.2513457569561797
-0.6645076797291393 0.18707034787613652
-0.627721220002762 0.14422007515610774
-0.6369178349343563 0.13350750697610056
-0.5817381453447904 0.11208237061608615
-0.5449516856184131 0.07994466607606457
-0.49896861096044154 0.015669256996021383
-0.4713787661656586 -0.00575587936399301
-0.4345923064392813 -0.0378935839040146
-0.4161990765760927 -0.05931872026402899
-0.3978058467129041 -0.05931872026402899
-0.3978058467129041 -0.048606152084021796
-0.425395691507687 -0.05931872026402899
-0.425395691507687 -0.048606152084021796
-0.425395691507687 -0.0378935839040146
-0.4070024616444984 -0.00575587936399301
-0.4161990765760927 -0.027181015724007405
-0.3978058467129041 -0.048606152084021796
-0.3978058467129041 -0.05931872026402899
-0.3702160019181211 -0.0700312884440362
-0.3518227720549325 -0.10216899298405778
-0.33342954219174387 -0.11288156116406498
-0.3242329272601495 -0.11288156116406498
-0.33342954219174387 -0.09145642480405058
-0.3518227720549325 -0.10216899298405778
-0.3518227720549325 -0.0700312884440362
-0.37941261684971544 -0.08074385662404339
-0.3610193869865268 -0.10216899298405778
-0.3518227720549325 -0.11288156116406498
-0.33342954219174387 -0.10216899298405778
-0.3242329272601495 -0.10216899298405778
-0.2966430824653666 -0.0700312884440362
-0.3058396973969609 -0.048606152084021796
-0.3058396973969609 -0.0700312884440362
-0.3058396973969609 -0.0378935839040146
-0.33342954219174387 -0.09145642480405058
-0.34262615712333816 -0.10216899298405778
-0.3610193869865268 -0.13430669752407937
-0.3702160019181211 -0.13430669752407937
-0.3702160019181211 -0.10216899298405778
-0.3518227720549325 -0.0700312884440362
-0.33342954219174387 -0.027181015724007405
-0.3242329272601495 0.015669256996021383
-0.2966430824653666 0.05851952971605017
-0.23226677794420636 0.10136980243607896
-0.20467693314942342 0.15493264333611495
-0.15869385849145184 0.15493264333611495
-0.12190739876507457 0.2084954842361509
-0.10351416890188593 0.21920805241615812
-0.07592432410710298 0.2406331887761725
-0.09431755397029161 0.2513457569561797
-0.10351416890188593 0.26205832513618693
-0.0851209390386973 0.2834834614962013
-0.04833447931232003 0.2727708933161941
0.0252384401404345 0.2406331887761725
0.05282828493521745 0.16564521151612213
0.16318766411434926 0.11208237061608615
0.20917073877232084 0.037094393356035774
0.2459571984986981 -0.00575587936399301
0.20917073877232084 -0.048606152084021796
0.15399104918275494 -0.0700312884440362
0.11720458945637767 -0.0700312884440362
0.0804181297300004 -0.0378935839040146
0.043631670003623134 -0.027181015724007405
0.06202489986681177 -0.0700312884440362
0.07122151479840609 -0.09145642480405058
0.07122151479840609 -0.13430669752407937
0.10800797452478335 -0.19858210660412254
0.09881135959318904 -0.23071981114414414
0.0804181297300004 -0.2735700838641729
0.016041825208840184 -0.2735700838641729
-0.039137864380725716 -0.2735700838641729
-0.0851209390386973 -0.24143237932415135
-0.16789047342304614 -0.20929467478412975
-0.21387354808101774 -0.20929467478412975
-0.250660007807395 -0.16644440206410097
-0.27824985260217794 -0.16644440206410097
-0.2966430824653666 -0.15573183388409376
-0.3058396973969609 -0.14501926570408658
-0.33342954219174387 -0.12359412934407217
-0.34262615712333816 -0.09145642480405058
-0.3702160019181211 -0.11288156116406498
-0.3610193869865268 -0.10216899298405778
-0.37941261684971544 -0.12359412934407217
-0.37941261684971544 -0.15573183388409376
-0.37941261684971544 -0.16644440206410097
-0.37941261684971544 -0.16644440206410097
-0.38860923178130974 -0.13430669752407937
-0.37941261684971544 -0.13430669752407937
-0.3702160019181211 -0.12359412934407217
-0.3610193869865268 -0.14501926570408658
-0.33342954219174387 -0.15573183388409376
-0.33342954219174387 -0.14501926570408658
-0.33342954219174387 -0.11288156116406498
-0.34262615712333816 -0.0378935839040146
-0.3242329272601495 0.05851952971605017
-0.24146339287580068 0.14422007515610774
-0.11271078383348025 0.19778291605614373
0.08961474466159472 0.16564521151612213
0.4022996523358015 0.05851952971605017
0.7609676346679798 -0.17715697024410815
1.110439002068564 -0.46639631110430246
1.4507137545375537 -0.8520487655845616
1.781791892074949 -1.3341143336848853
2.0852801848175613 -1.9554432881253028
2.3795718626285796 -2.716035628905814
2.6370770807132207 -3.4980531060463393
2.8118127644135127 -4.140807196846771
2.885385683866267 -4.590735060407074
2.84859922413989 -4.7299984467471665
2.7014533852343807 -4.644297901307109
2.4623413970129286 -4.387196264986937
2.122066644543939 -4.001543810506678
1.6622358979642229 -3.5730410833063897
1.174815306589724 -3.101688083386073
0.7241811749416026 -2.608909947105742
0.3747098075410185 -2.1054192426454037
0.11720458945637767 -1.6983416518051302
-0.039137864380725716 -1.3983897427649286
-0.12190739876507457 -1.194850947344792
-0.18628370328623478 -1.0127372882846695
-0.21387354808101774 -0.8520487655845616
-0.2598566227389893 -0.7342105156044824
-0.34262615712333816 -0.5628094247243672
-0.44378892137087567 -0.3592706293042305
-0.5449516856184131 -0.18786953842411536
-0.6093279901395734 -0.05931872026402899
-0.627721220002762 0.026381825176028578
-0.6185246050711677 0.047806961536042976
-0.600131375207979 0.004956688816014186
-0.5725415304131961 -0.048606152084021796
-0.5633449154816018 -0.09145642480405058
-0.600131375207979 -0.12359412934407217
-0.6185246050711677 -0.09145642480405058
-0.627721220002762 -0.05931872026402899
-0.655311064797545 -0.00575587936399301
-0.6369178349343563 0.037094393356035774
-0.6461144498659506 0.09065723425607176
-0.655311064797545 0.13350750697610056
-0.6461144498659506 0.14422007515610774
-0.6185246050711677 0.17635777969612934
-0.627721220002762 0.19778291605614373
-0.6461144498659506 0.19778291605614373
-0.6369178349343563 0.2299206205961653
-0.6645076797291393 0.26205832513618693
-0.6829009095923279 0.2299206205961653
-0.6829009095923279 0.19778291605614373
-0.6645076797291393 0.21920805241615812
-0.6737042946607336 0.17635777969612934
-0.6737042946607336 0.2299206205961653
-0.6645076797291393 0.26205832513618693
-0.6737042946607336 0.2941960296762085
-0.655311064797545 0.37989657511626607
-0.655311064797545 0.37989657511626607
-0.6645076797291393 0.43345941601630206
-0.6645076797291393 0.46559712055632363
-0.6920975245239223 0.47630968873633084
-0.6920975245239223 0.47630968873633084
-0.7104907543871108 0.4548845523763165
-0.7196873693187051 0.37989657511626607
-0.7472772141134881 0.36918400693625886
-0.7380805991818938 0.3906091432962733
-0.7380805991818938 0.41203427965628764
-0.7656704439766767 0.46559712055632363
-0.7380805991818938 0.5191599614563597
-0.7656704439766767 0.5620102341763884
-0.7932602887714597 0.6155730750764244
-0.8208501335662426 0.6584233477964532
-0.8668332082242142 0.647710779616446
-0.8760298231558086 0.6691359159764604
-0.9128162828821859 0.6798484841564676
-0.9220128978137802 0.7226987568764963
-0.9220128978137802 0.7334113250565035
-0.9312095127453744 0.7762615977765324
-0.9220128978137802 0.808399302316554
-0.9404061276769687 0.8512495750365827
-0.9679959724717517 0.8940998477566116
-0.9863892023349403 0.8619621432165899
-1.0415688919245063 0.8940998477566116
-1.0507655068561006 0.8940998477566116
-1.096748581514072 0.9262375522966331
-1.1059451964456664 0.9369501204766403
-1.1059451964456664 0.9476626886566475
-1.0875519665824778 0.9798003931966691
-1.0875519665824778 1.0012255295566834
-1.0415688919245063 1.0012255295566834
-1.004782432198129 1.0012255295566834
-0.9587993575401574 0.9798003931966691
-0.9220128978137802 0.9048124159366188
-0.9128162828821859 0.8405370068565755
-0.8576365932926199 0.808399302316554
-0.8392433634294313 0.7334113250565035
-0.8208501335662426 0.7226987568764963
-0.7840636738398654 0.6905610523364748
-0.7472772141134881 0.6262856432564315
-0.7012941394555166 0.5512976659963812
-0.6737042946607336 0.49773482509634526
-0.6185246050711677 0.4548845523763165
-0.5633449154816018 0.4013217114762805
-0.49896861096044154 0.37989657511626607
-0.44378892137087567 0.3584714387562517
-0.4161990765760927 0.3370463023962373
-0.3702160019181211 0.3049085978562157
-0.3518227720549325 0.2406331887761725
-0.3150363123285552 0.17635777969612934
-0.3150363123285552 0.13350750697610056
-0.3058396973969609 0.10136980243607896
-0.2874464675337723 0.06923209789605736
-0.3058396973969609 0.037094393356035774
-0.2966430824653666 0.047806961536042976
-0.250660007807395 0.06923209789605736
-0.23226677794420636 0.047806961536042976
-0.17708708835464046 0.05851952971605017
-0.17708708835464046 0.06923209789605736
-0.1954803182178291 0.047806961536042976
-0.21387354808101774 0.015669256996021383
-0.21387354808101774 -0.0378935839040146
-0.23226677794420636 -0.0700312884440362
-0.24146339287580068 -0.05931872026402899
-0.21387354808101774 -0.048606152084021796
-0.16789047342304614 -0.0378935839040146
-0.11271078383348025 -0.00575587936399301
-0.05753109424391435 -0.048606152084021796
0.006845210277245868 -0.05931872026402899
0.0804181297300004 -0.05931872026402899
0.15399104918275494 -0.10216899298405778
0.2643504283618867 -0.11288156116406498
0.3471199627462356 -0.14501926570408658
0.39310303740420716 -0.12359412934407217
0.503462416583339 -0.14501926570408658
0.5954285658992822 -0.14501926570408658
0.6965913301468196 -0.14501926570408658
0.8437371690523287 -0.12359412934407217
1.0184728527526208 -0.12359412934407217
1.174815306589724 -0.17715697024410815
1.2943713007004503 -0.22000724296413696
1.3127645305636388 -0.29499522022418734
1.1472254617949411 -0.3914083338442521
0.8253439391891401 -0.46639631110430246
0.20917073877232084 -0.5842345610843817
-0.5633449154816018 -0.6485099701644248
-1.4278267190514675 -0.6806476747044464
-2.255522062894956 -0.7234979474244752
-2.9360715678329354 -0.7127853792444679
-3.3959023144126514 -0.7449230837844896
-3.7177838370184526 -0.7770607883245112
-3.929305980445122 -0.8413361974045543
-4.039665359624253 -0.8306236292245471
-4.131631508940196 -0.7127853792444679
-4.22359765825614 -0.49853401564432404
-4.269580732914111 -0.20929467478412975
-4.269580732914111 0.10136980243607896
-4.269580732914111 0.3906091432962733
-4.186811198529763 0.647710779616446
-4.067255204419037 0.8940998477566116
-3.901716135650339 1.12977634771677
-3.6718007623604807 1.3226025749568995
-3.41429554427584 1.5047162340170217
-3.092414021670039 1.633267052177108
-2.752139269201049 1.6975424612571512
-2.4486509764584365 1.783243006697209
-2.2647186778265502 1.847518415777252
-2.1451626837158244 1.8582309839572593
-2.053196534399881 1.9010812566772881
-1.9704270000155322 1.9010812566772881
-1.8140845461784287 1.847518415777252
-1.6301522475465424 1.6975424612571512
-1.4370233339830618 1.4297282567569713
-1.271484265214364 0.9905129613766763
-1.1151418113772609 0.46559712055632363
-1.004782432198129 -0.0700312884440362
-0.9128162828821859 -0.5306717201843456
-0.8208501335662426 -0.8627613337645688
-0.7380805991818938 -0.9591744473846335
-0.6185246050711677 -0.9484618792046263
-0.49896861096044154 -0.8413361974045543
-0.3702160019181211 -0.6806476747044464
-0.17708708835464046 -0.5949471292643889
0.0252384401404345 -0.5092465838243313
0.23676058356710378 -0.45568374292429525
0.39310303740420716 -0.4235460383842737
0.5310522613781219 -0.4128334702042665
0.6414116405572537 -0.34855806112422333
0.6873947152152253 -0.34855806112422333
0.6965913301468196 -0.34855806112422333
0.678198100283631 -0.3699831974842377
0.678198100283631 -0.3914083338442521
0.678198100283631 -0.4449711747442881
0.7149845600100082 -0.4235460383842737
0.7149845600100082 -0.40212090202425926
0.7885574794627628 -0.3806957656642449
0.8161473242575458 -0.3806957656642449
0.852933783983923 -0.3914083338442521
0.8805236287787059 -0.4235460383842737
0.9265067034366775 -0.45568374292429525
0.9357033183682718 -0.46639631110430246
0.9724897780946491 -0.5199591520043384
0.9908830079578378 -0.5306717201843456
1.0184728527526208 -0.55209685654436
1.0736525423421865 -0.5949471292643889
1.0736525423421865 -0.5949471292643889
1.0920457722053751 -0.5949471292643889
1.1196356170001582 -0.5949471292643889
1.110439002068564 -0.5735219929043744
1.1656186916581297 -0.55209685654436
1.1840119215213185 -0.5413842883643528
1.22999499617929 -0.49853401564432404
1.2943713007004503 -0.4878214474643169
1.3587476052216105 -0.46639631110430246
1.4323205246743649 -0.49853401564432404
1.4507137545375537 -0.5413842883643528
1.4875002142639309 -0.6163722656244032
1.4875002142639309 -0.6377974019844176
1.524286673990308 -0.6270848338044104
1.5334832889219026 -0.6163722656244032
1.5426799038534968 -0.5949471292643889
1.5978595934430626 -0.5842345610843817
1.63464605316944 -0.5735219929043744
1.6898257427590058 -0.5842345610843817
1.754202047280166 -0.5628094247243672
1.8001851219381377 -0.5628094247243672
1.8001851219381377 -0.5628094247243672
1.7909885070065432 -0.5949471292643889
1.781791892074949 -0.6377974019844176
