-0.020744634517537084 0.15493264333611495
-0.020744634517537084 0.17635777969612934
0.006845210277245868 0.17635777969612934
0.0252384401404345 0.19778291605614373
0.006845210277245868 0.17635777969612934
-0.0023514046543484488 0.18707034787613652
0.006845210277245868 0.16564521151612213
-0.011548019585942766 0.15493264333611495
0.016041825208840184 0.17635777969612934
-0.0023514046543484488 0.14422007515610774
-0.020744634517537084 0.16564521151612213
-0.0299412494491314 0.15493264333611495
-0.0299412494491314 0.14422007515610774
0.016041825208840184 0.16564521151612213
0.016041825208840184 0.17635777969612934
0.016041825208840184 0.14422007515610774
0.006845210277245868 0.16564521151612213
0.03443505507202882 0.14422007515610774
0.043631670003623134 0.13350750697610056
0.03443505507202882 0.09065723425607176
0.006845210277245868 0.11208237061608615
0.006845210277245868 0.13350750697610056
0.006845210277245868 0.15493264333611495
0.016041825208840184 0.15493264333611495
0.03443505507202882 0.17635777969612934
0.06202489986681177 0.15493264333611495
0.06202489986681177 0.17635777969612934
0.05282828493521745 0.18707034787613652
0.043631670003623134 0.16564521151612213
0.016041825208840184 0.17635777969612934
0.016041825208840184 0.16564521151612213
0.006845210277245868 0.15493264333611495
0.016041825208840184 0.14422007515610774
0.03443505507202882 0.11208237061608615
0.0804181297300004 0.12279493879609335
0.08961474466159472 0.16564521151612213
0.11720458945637767 0.21920805241615812
0.14479443425116062 0.2834834614962013
0.18158089397753788 0.3584714387562517
0.21836735370391516 0.41203427965628764
0.2459571984986981 0.4548845523763165
0.27354704329348106 0.5191599614563597
0.28274365822507536 0.49773482509634526
0.27354704329348106 0.5191599614563597
0.27354704329348106 0.48702225691633805
0.27354704329348106 0.4548845523763165
0.3471199627462356 0.4548845523763165
0.42069288219899015 0.42274684783629485
0.503462416583339 0.3906091432962733
0.5678387211044992 0.3584714387562517
0.6046251808308765 0.31562116603622287
0.6138217957624708 0.26205832513618693
0.5862319509676879 0.21920805241615812
0.5678387211044992 0.18707034787613652
0.5310522613781219 0.15493264333611495
0.5218556464465276 0.13350750697610056
0.49426580165174466 0.09065723425607176
0.5126590315149333 0.05851952971605017
0.5126590315149333 0.09065723425607176
0.5310522613781219 0.06923209789605736
0.5310522613781219 0.047806961536042976
0.5402488763097162 0.004956688816014186
0.5126590315149333 -0.027181015724007405
0.4574793419253674 -0.05931872026402899
0.3563165776778299 -0.09145642480405058
0.28274365822507536 -0.09145642480405058
0.21836735370391516 -0.0700312884440362
0.17238427904594356 -0.027181015724007405
0.14479443425116062 0.004956688816014186
0.09881135959318904 0.047806961536042976
0.07122151479840609 0.05851952971605017
0.05282828493521745 0.047806961536042976
0.043631670003623134 0.09065723425607176
0.03443505507202882 0.09065723425607176
0.006845210277245868 0.09065723425607176
-0.0023514046543484488 0.09065723425607176
-0.020744634517537084 0.06923209789605736
-0.020744634517537084 0.07994466607606457
-0.020744634517537084 0.06923209789605736
-0.0299412494491314 0.05851952971605017
-0.039137864380725716 0.026381825176028578
-0.039137864380725716 0.026381825176028578
-0.0299412494491314 0.004956688816014186
-0.0299412494491314 0.004956688816014186
-0.020744634517537084 0.047806961536042976
-0.011548019585942766 0.11208237061608615
0.006845210277245868 0.15493264333611495
0.016041825208840184 0.2084954842361509
0.0252384401404345 0.26205832513618693
0.06202489986681177 0.3370463023962373
0.14479443425116062 0.43345941601630206
0.301136888088264 0.48702225691633805
0.5586421061729049 0.47630968873633084
0.8713270138471116 0.36918400693625886
1.285174685768856 0.11208237061608615
1.6990223576906 -0.28428265204418013
2.0668869549543727 -0.7556356519644968
2.397965092491768 -1.3341143336848853
2.7198466150975693 -2.0518564017453675
2.995745063045399 -2.8874367197859288
3.170480746745691 -3.7230170378264904
3.262446896061634 -4.45147167406698
3.2808401259248225 -4.912112105807289
3.170480746745691 -5.072800628507397
2.949761988387427 -4.954962378527318
2.600290620986843 -4.67643560584713
2.1404598744071275 -4.290783151366871
1.6254494382378457 -3.8837055605265984
1.1380288468633468 -3.369502287886253
0.7241811749416026 -2.8231613107058857
0.4666759568569617 -2.2982454698855332
0.31953011795145264 -1.848317606325231
0.2459571984986981 -1.4948028563849933
0.21836735370391516 -1.2162760837048063
0.14479443425116062 -0.980599583744648
0.0804181297300004 -0.8520487655845616
-0.0023514046543484488 -0.6806476747044464
-0.10351416890188593 -0.5092465838243313
-0.1954803182178291 -0.3271329247642089
-0.27824985260217794 -0.19858210660412254
-0.3242329272601495 -0.027181015724007405
-0.3058396973969609 0.09065723425607176
-0.2874464675337723 0.17635777969612934
-0.2966430824653666 0.21920805241615812
-0.2966430824653666 0.21920805241615812
-0.3150363123285552 0.2299206205961653
-0.34262615712333816 0.2513457569561797
-0.3610193869865268 0.2513457569561797
-0.37941261684971544 0.2406331887761725
-0.38860923178130974 0.21920805241615812
-0.425395691507687 0.2834834614962013
-0.4070024616444984 0.3370463023962373
-0.425395691507687 0.36918400693625886
-0.4161990765760927 0.43345941601630206
-0.3978058467129041 0.4548845523763165
-0.37941261684971544 0.46559712055632363
-0.3610193869865268 0.44417198419630927
-0.3518227720549325 0.4548845523763165
-0.3610193869865268 0.44417198419630927
-0.37941261684971544 0.4548845523763165
-0.3702160019181211 0.44417198419630927
-0.4070024616444984 0.46559712055632363
-0.4161990765760927 0.48702225691633805
-0.44378892137087567 0.5084473932763525
-0.45298553630246996 0.540585097816374
-0.45298553630246996 0.5512976659963812
-0.4345923064392813 0.5834353705364028
-0.4161990765760927 0.6155730750764244
-0.4070024616444984 0.6155730750764244
-0.38860923178130974 0.6048605068964172
-0.37941261684971544 0.59414793871641
-0.3702160019181211 0.6048605068964172
-0.4161990765760927 0.6262856432564315
-0.44378892137087567 0.647710779616446
-0.49896861096044154 0.6691359159764604
-0.5265584557552245 0.6905610523364748
-0.5173618408236302 0.7119861886964892
-0.5173618408236302 0.7334113250565035
-0.5173618408236302 0.754836461416518
-0.49896861096044154 0.7869741659565396
-0.5265584557552245 0.7976867341365468
-0.5541483005500074 0.808399302316554
-0.600131375207979 0.7976867341365468
-0.655311064797545 0.808399302316554
-0.6920975245239223 0.8191118704965611
-0.774867058908271 0.8191118704965611
-0.7656704439766767 0.8512495750365827
-0.774867058908271 0.8619621432165899
-0.7656704439766767 0.9262375522966331
-0.774867058908271 0.9476626886566475
-0.7840636738398654 0.9905129613766763
-0.774867058908271 0.9798003931966691
-0.830046748497837 0.9905129613766763
-0.8484399783610256 0.9905129613766763
-0.8852264380874029 0.9905129613766763
-0.9312095127453744 1.0119380977366907
-0.9587993575401574 1.0226506659166978
-0.9955858172665346 1.0333632340967052
-1.0139790471297232 1.0440758022767123
-1.0139790471297232 1.0762135068167338
-1.0231756620613177 1.0976386431767482
-1.0139790471297232 1.12977634771677
-1.0139790471297232 1.140488915896777
-1.0139790471297232 1.140488915896777
-1.032372276992912 1.12977634771677
-1.032372276992912 1.140488915896777
-1.032372276992912 1.086926074996741
-1.0139790471297232 1.0976386431767482
-0.9679959724717517 1.0655009386367267
-0.9587993575401574 1.0655009386367267
-0.9404061276769687 1.0440758022767123
-0.9128162828821859 1.0547883704567194
-0.8668332082242142 1.0333632340967052
-0.830046748497837 1.0226506659166978
-0.7472772141134881 0.9905129613766763
-0.6737042946607336 0.9583752568366547
-0.6093279901395734 0.9048124159366188
-0.5725415304131961 0.8940998477566116
-0.5173618408236302 0.808399302316554
-0.48977199602884725 0.7441238932365107
-0.4805753810972529 0.6691359159764604
-0.44378892137087567 0.6048605068964172
-0.3978058467129041 0.540585097816374
-0.3518227720549325 0.49773482509634526
-0.2966430824653666 0.48702225691633805
-0.23226677794420636 0.46559712055632363
-0.16789047342304614 0.42274684783629485
-0.11271078383348025 0.3906091432962733
-0.0851209390386973 0.36918400693625886
-0.04833447931232003 0.3263337342162301
-0.039137864380725716 0.2941960296762085
-0.039137864380725716 0.2513457569561797
-0.039137864380725716 0.18707034787613652
-0.05753109424391435 0.16564521151612213
-0.04833447931232003 0.13350750697610056
-0.05753109424391435 0.13350750697610056
-0.04833447931232003 0.12279493879609335
0.006845210277245868 0.16564521151612213
0.016041825208840184 0.13350750697610056
0.06202489986681177 0.15493264333611495
0.07122151479840609 0.17635777969612934
0.07122151479840609 0.2084954842361509
0.043631670003623134 0.17635777969612934
0.016041825208840184 0.15493264333611495
0.006845210277245868 0.13350750697610056
-0.020744634517537084 0.12279493879609335
-0.0299412494491314 0.12279493879609335
-0.039137864380725716 0.12279493879609335
-0.011548019585942766 0.14422007515610774
-0.0023514046543484488 0.17635777969612934
0.0252384401404345 0.18707034787613652
0.05282828493521745 0.19778291605614373
0.07122151479840609 0.19778291605614373
0.05282828493521745 0.19778291605614373
0.043631670003623134 0.15493264333611495
0.043631670003623134 0.13350750697610056
0.0252384401404345 0.11208237061608615
-0.011548019585942766 0.12279493879609335
-0.0299412494491314 0.16564521151612213
-0.039137864380725716 0.19778291605614373
-0.0299412494491314 0.21920805241615812
-0.039137864380725716 0.2299206205961653
-0.011548019585942766 0.21920805241615812
-0.0023514046543484488 0.21920805241615812
0.043631670003623134 0.2084954842361509
0.043631670003623134 0.19778291605614373
0.05282828493521745 0.21920805241615812
0.05282828493521745 0.2299206205961653
0.05282828493521745 0.2084954842361509
0.043631670003623134 0.19778291605614373
0.05282828493521745 0.21920805241615812
0.03443505507202882 0.2406331887761725
0.09881135959318904 0.2834834614962013
0.15399104918275494 0.3263337342162301
0.18158089397753788 0.36918400693625886
0.22756396863550946 0.4548845523763165
0.22756396863550946 0.47630968873633084
0.23676058356710378 0.5298725296363668
0.2551538134302924 0.540585097816374
0.23676058356710378 0.5298725296363668
0.2459571984986981 0.48702225691633805
0.27354704329348106 0.46559712055632363
0.31033350301985835 0.4548845523763165
0.3655131926094242 0.46559712055632363
0.4114962672673958 0.46559712055632363
0.5126590315149333 0.41203427965628764
0.5678387211044992 0.36918400693625886
0.5954285658992822 0.2513457569561797
0.5862319509676879 0.16564521151612213
0.5862319509676879 0.07994466607606457
0.5678387211044992 0.047806961536042976
0.5586421061729049 0.047806961536042976
0.5402488763097162 0.037094393356035774
0.5494454912413106 0.06923209789605736
0.5586421061729049 0.06923209789605736
0.5586421061729049 0.047806961536042976
0.5126590315149333 -0.027181015724007405
0.43908611206217874 -0.0378935839040146
0.38390642247261286 -0.05931872026402899
0.31953011795145264 -0.048606152084021796
0.2551538134302924 -0.048606152084021796
0.18158089397753788 -0.00575587936399301
0.16318766411434926 0.047806961536042976
0.15399104918275494 0.05851952971605017
0.14479443425116062 0.05851952971605017
0.12640120438797198 0.05851952971605017
0.08961474466159472 0.037094393356035774
0.0252384401404345 0.047806961536042976
0.006845210277245868 0.06923209789605736
-0.0299412494491314 0.06923209789605736
-0.05753109424391435 0.07994466607606457
-0.05753109424391435 0.05851952971605017
-0.0299412494491314 0.047806961536042976
-0.020744634517537084 0.05851952971605017
-0.0023514046543484488 0.047806961536042976
0.016041825208840184 0.026381825176028578
0.016041825208840184 -0.027181015724007405
0.016041825208840184 -0.048606152084021796
0.006845210277245868 -0.048606152084021796
0.006845210277245868 -0.016468447544000207
-0.011548019585942766 0.004956688816014186
-0.0023514046543484488 0.07994466607606457
0.0252384401404345 0.16564521151612213
0.0804181297300004 0.2834834614962013
0.19997412384072652 0.41203427965628764
0.39310303740420716 0.5084473932763525
0.650608255488848 0.47630968873633084
0.9908830079578378 0.3477588705762445
1.3955340649479877 0.09065723425607176
1.781791892074949 -0.22000724296413696
2.122066644543939 -0.7234979474244752
2.453144782081334 -1.2912640609648567
2.747436459892352 -1.9982935608453316
3.023334907840182 -2.8231613107058857
3.234857051266851 -3.6694541969264542
3.3176265856511997 -4.3336334240869006
3.2808401259248225 -4.762136151287188
3.124497672087719 -4.879974401267267
2.8394026092082956 -4.71928587856716
2.425554937286551 -4.376483696806929
1.9197411160488638 -3.958693537786649
1.3311577604268274 -3.444490265146303
0.8253439391891401 -2.876724151605922
0.4482827269937731 -2.3625208789655763
0.2459571984986981 -1.8697427426852453
0.16318766411434926 -1.4840902882049862
0.1355978193195663 -1.205563515524799
0.15399104918275494 -0.9913121519246552
0.12640120438797198 -0.8091984928645327
0.0804181297300004 -0.659222538344432
0.006845210277245868 -0.4878214474643169
-0.10351416890188593 -0.3271329247642089
-0.18628370328623478 -0.16644440206410097
-0.250660007807395 -0.0700312884440362
-0.27824985260217794 0.037094393356035774
-0.2874464675337723 0.10136980243607896
-0.26905323767058364 0.13350750697610056
-0.2598566227389893 0.18707034787613652
-0.2598566227389893 0.18707034787613652
-0.250660007807395 0.21920805241615812
-0.23226677794420636 0.21920805241615812
-0.2598566227389893 0.2513457569561797
-0.250660007807395 0.2299206205961653
-0.26905323767058364 0.2406331887761725
-0.2598566227389893 0.2406331887761725
-0.250660007807395 0.2406331887761725
-0.250660007807395 0.2834834614962013
-0.26905323767058364 0.31562116603622287
-0.2966430824653666 0.3584714387562517
-0.2966430824653666 0.36918400693625886
-0.2966430824653666 0.4013217114762805
-0.2874464675337723 0.41203427965628764
-0.27824985260217794 0.41203427965628764
-0.2966430824653666 0.41203427965628764
-0.2966430824653666 0.42274684783629485
-0.3150363123285552 0.41203427965628764
-0.2966430824653666 0.4013217114762805
-0.27824985260217794 0.41203427965628764
-0.2966430824653666 0.43345941601630206
-0.2874464675337723 0.4548845523763165
-0.3058396973969609 0.48702225691633805
-0.2966430824653666 0.48702225691633805
-0.3150363123285552 0.5298725296363668
-0.34262615712333816 0.5512976659963812
-0.3242329272601495 0.5620102341763884
-0.3150363123285552 0.6048605068964172
-0.3242329272601495 0.6155730750764244
-0.34262615712333816 0.6048605068964172
-0.3518227720549325 0.6155730750764244
-0.3702160019181211 0.6262856432564315
-0.37941261684971544 0.6262856432564315
-0.4161990765760927 0.647710779616446
-0.45298553630246996 0.701273620516482
-0.4713787661656586 0.7334113250565035
-0.44378892137087567 0.7869741659565396
-0.45298553630246996 0.808399302316554
-0.48977199602884725 0.8512495750365827
-0.5357550706868188 0.8833872795766043
-0.5357550706868188 0.9048124159366188
-0.5541483005500074 0.9155249841166259
-0.5725415304131961 0.9048124159366188
-0.5817381453447904 0.8726747113965971
-0.6185246050711677 0.8833872795766043
-0.6461144498659506 0.9262375522966331
-0.6461144498659506 0.9690878250166619
-0.6461144498659506 1.0226506659166978
-0.6645076797291393 1.0655009386367267
-0.6645076797291393 1.0547883704567194
-0.6645076797291393 1.086926074996741
-0.6829009095923279 1.086926074996741
-0.6920975245239223 1.0547883704567194
-0.7104907543871108 1.0547883704567194
-0.7012941394555166 1.0333632340967052
-0.6920975245239223 1.0655009386367267
-0.6737042946607336 1.0762135068167338
-0.6461144498659506 1.086926074996741
-0.627721220002762 1.086926074996741
-0.5909347602763847 1.0976386431767482
-0.5449516856184131 1.0762135068167338
-0.5173618408236302 1.0655009386367267
-0.4713787661656586 0.9905129613766763
-0.45298553630246996 0.9369501204766403
-0.4070024616444984 0.8833872795766043
-0.37941261684971544 0.8298244386765683
-0.3610193869865268 0.7976867341365468
-0.33342954219174387 0.7441238932365107
-0.2966430824653666 0.6691359159764604
-0.22307016301261204 0.6262856432564315
-0.17708708835464046 0.6048605068964172
-0.11271078383348025 0.5620102341763884
-0.06672770917550866 0.5298725296363668
-0.0299412494491314 0.48702225691633805
-0.011548019585942766 0.42274684783629485
-0.011548019585942766 0.37989657511626607
-0.0023514046543484488 0.3263337342162301
-0.020744634517537084 0.3049085978562157
-0.0299412494491314 0.26205832513618693
-0.0299412494491314 0.21920805241615812
-0.0299412494491314 0.21920805241615812
-0.0023514046543484488 0.17635777969612934
0.043631670003623134 0.18707034787613652
0.05282828493521745 0.16564521151612213
0.06202489986681177 0.18707034787613652
0.08961474466159472 0.18707034787613652
0.0804181297300004 0.19778291605614373
0.07122151479840609 0.16564521151612213
0.07122151479840609 0.14422007515610774
0.05282828493521745 0.13350750697610056
0.043631670003623134 0.12279493879609335
0.0252384401404345 0.12279493879609335
0.006845210277245868 0.11208237061608615
-0.0023514046543484488 0.09065723425607176
0.006845210277245868 0.11208237061608615
-0.0023514046543484488 0.14422007515610774
0.03443505507202882 0.15493264333611495
0.06202489986681177 0.15493264333611495
0.07122151479840609 0.15493264333611495
0.07122151479840609 0.16564521151612213
0.043631670003623134 0.09065723425607176
0.016041825208840184 0.09065723425607176
0.0252384401404345 0.09065723425607176
0.006845210277245868 0.07994466607606457
0.006845210277245868 0.12279493879609335
-0.0023514046543484488 0.12279493879609335
0.016041825208840184 0.16564521151612213
0.05282828493521745 0.18707034787613652
0.05282828493521745 0.18707034787613652
0.0804181297300004 0.16564521151612213
0.0804181297300004 0.14422007515610774
0.06202489986681177 0.11208237061608615
0.05282828493521745 0.09065723425607176
0.03443505507202882 0.11208237061608615
0.043631670003623134 0.10136980243607896
0.006845210277245868 0.12279493879609335
-0.0023514046543484488 0.12279493879609335
0.03443505507202882 0.15493264333611495
0.03443505507202882 0.17635777969612934
0.06202489986681177 0.16564521151612213
0.09881135959318904 0.19778291605614373
0.10800797452478335 0.17635777969612934
0.12640120438797198 0.21920805241615812
0.16318766411434926 0.2513457569561797
0.1907775089091322 0.2727708933161941
0.19997412384072652 0.3049085978562157
0.21836735370391516 0.3584714387562517
0.2459571984986981 0.4013217114762805
0.2643504283618867 0.41203427965628764
0.27354704329348106 0.47630968873633084
0.28274365822507536 0.5084473932763525
0.301136888088264 0.5084473932763525
0.3379233478146413 0.5084473932763525
0.42069288219899015 0.47630968873633084
0.49426580165174466 0.43345941601630206
0.5586421061729049 0.3906091432962733
0.623018410694065 0.31562116603622287
0.6414116405572537 0.2299206205961653
0.6046251808308765 0.14422007515610774
0.5586421061729049 0.07994466607606457
0.5126590315149333 0.047806961536042976
0.4850691867201503 0.015669256996021383
0.49426580165174466 0.07994466607606457
0.49426580165174466 0.06923209789605736
0.5310522613781219 0.09065723425607176
0.5586421061729049 0.047806961536042976
0.5494454912413106 0.026381825176028578
0.5218556464465276 0.004956688816014186
0.475872571788556 -0.0700312884440362
0.4114962672673958 -0.08074385662404339
0.3655131926094242 -0.12359412934407217
0.28274365822507536 -0.11288156116406498
0.2459571984986981 -0.0700312884440362
0.1907775089091322 -0.00575587936399301
0.1907775089091322 0.026381825176028578
0.18158089397753788 0.09065723425607176
0.18158089397753788 0.06923209789605736
0.15399104918275494 0.09065723425607176
0.11720458945637767 0.05851952971605017
0.0804181297300004 0.06923209789605736
0.006845210277245868 0.05851952971605017
-0.0299412494491314 0.037094393356035774
-0.06672770917550866 -0.016468447544000207
-0.039137864380725716 0.004956688816014186
-0.039137864380725716 -0.00575587936399301
-0.011548019585942766 -0.027181015724007405
0.016041825208840184 0.004956688816014186
0.03443505507202882 0.004956688816014186
0.043631670003623134 0.047806961536042976
0.05282828493521745 0.026381825176028578
0.043631670003623134 0.037094393356035774
0.043631670003623134 0.037094393356035774
0.043631670003623134 0.047806961536042976
0.0252384401404345 0.047806961536042976
0.006845210277245868 0.07994466607606457
0.006845210277245868 0.12279493879609335
0.06202489986681177 0.2084954842361509
0.17238427904594356 0.2834834614962013
0.3379233478146413 0.42274684783629485
0.6138217957624708 0.46559712055632363
0.9724897780946491 0.37989657511626607
1.3587476052216105 0.15493264333611495
1.7266122024853832 -0.15573183388409376
2.048493725091184 -0.6056596974443961
2.3519820178337967 -1.1734258109847775
2.6094872359184373 -1.848317606325231
2.8669924540030784 -2.619622515285749
3.087711212361342 -3.4230651287862885
3.262446896061634 -4.140807196846771
3.3084299707196054 -4.644297901307109
3.2716435109932283 -4.879974401267267
3.152087516882502 -4.8585492649072535
2.940565373455833 -4.6657230376671235
2.6186838508500316 -4.344345992266907
2.214032793859882 -4.001543810506678
1.6990223576906 -3.615891356026418
1.1840119215213185 -3.1981011970061375
0.7609676346679798 -2.7695984698058496
0.4482827269937731 -2.30895803806554
0.28274365822507536 -1.8911678790452597
0.20917073877232084 -1.5483656972850293
0.17238427904594356 -1.2912640609648567
0.1907775089091322 -1.0663001291847054
0.1907775089091322 -0.9056116064845975
0.14479443425116062 -0.7127853792444679
0.05282828493521745 -0.5413842883643528
-0.05753109424391435 -0.3914083338442521
-0.16789047342304614 -0.20929467478412975
-0.250660007807395 -0.08074385662404339
-0.2966430824653666 -0.00575587936399301
-0.2874464675337723 0.05851952971605017
-0.2874464675337723 0.11208237061608615
-0.3058396973969609 0.15493264333611495
-0.3058396973969609 0.15493264333611495
-0.3150363123285552 0.2084954842361509
-0.3058396973969609 0.2299206205961653
-0.2966430824653666 0.26205832513618693
-0.2874464675337723 0.2941960296762085
-0.2874464675337723 0.3049085978562157
-0.27824985260217794 0.3263337342162301
-0.2874464675337723 0.3370463023962373
-0.3242329272601495 0.3263337342162301
-0.34262615712333816 0.31562116603622287
-0.3518227720549325 0.3263337342162301
-0.3610193869865268 0.3263337342162301
-0.3518227720549325 0.36918400693625886
-0.34262615712333816 0.42274684783629485
-0.3518227720549325 0.42274684783629485
-0.3610193869865268 0.47630968873633084
-0.34262615712333816 0.47630968873633084
-0.34262615712333816 0.47630968873633084
-0.3150363123285552 0.46559712055632363
-0.33342954219174387 0.46559712055632363
-0.3242329272601495 0.4548845523763165
-0.3610193869865268 0.5084473932763525
-0.34262615712333816 0.540585097816374
-0.34262615712333816 0.540585097816374
-0.3610193869865268 0.5512976659963812
-0.3610193869865268 0.59414793871641
-0.3702160019181211 0.59414793871641
-0.3702160019181211 0.6155730750764244
-0.37941261684971544 0.6584233477964532
-0.4070024616444984 0.6798484841564676
-0.4070024616444984 0.7119861886964892
-0.4345923064392813 0.7226987568764963
-0.4345923064392813 0.7119861886964892
-0.4345923064392813 0.7334113250565035
-0.4621821512340643 0.7441238932365107
-0.5173618408236302 0.7655490295965252
-0.5173618408236302 0.8405370068565755
-0.5541483005500074 0.9048124159366188
-0.5449516856184131 0.9262375522966331
-0.5173618408236302 0.9476626886566475
-0.5357550706868188 1.0012255295566834
-0.5449516856184131 1.0012255295566834
-0.5541483005500074 0.9905129613766763
-0.5909347602763847 1.0012255295566834
-0.6093279901395734 1.0333632340967052
-0.6461144498659506 1.0226506659166978
-0.6461144498659506 1.0762135068167338
-0.6829009095923279 1.0976386431767482
-0.7104907543871108 1.12977634771677
-0.7104907543871108 1.1619140522567915
-0.7472772141134881 1.1833391886168059
-0.7380805991818938 1.194051756796813
-0.7472772141134881 1.2261894613368347
-0.7564738290450824 1.2369020295168418
-0.7564738290450824 1.2583271658768562
-0.774867058908271 1.247614597696849
-0.7840636738398654 1.2369020295168418
-0.774867058908271 1.2261894613368347
-0.802456903703054 1.2261894613368347
-0.7840636738398654 1.2261894613368347
-0.7380805991818938 1.247614597696849
-0.7288839842502994 1.2369020295168418
-0.6829009095923279 1.2583271658768562
-0.655311064797545 1.2261894613368347
-0.6185246050711677 1.2261894613368347
-0.5909347602763847 1.1726266204367986
-0.5449516856184131 1.140488915896777
-0.5173618408236302 1.0762135068167338
-0.4805753810972529 1.0226506659166978
-0.44378892137087567 0.9690878250166619
-0.4161990765760927 0.9262375522966331
-0.4070024616444984 0.8405370068565755
-0.3978058467129041 0.7762615977765324
-0.3610193869865268 0.754836461416518
-0.2874464675337723 0.701273620516482
-0.24146339287580068 0.6798484841564676
-0.1954803182178291 0.6369982114364388
-0.15869385849145184 0.5727228023563956
-0.11271078383348025 0.5298725296363668
-0.07592432410710298 0.47630968873633084
-0.07592432410710298 0.4013217114762805
-0.05753109424391435 0.3477588705762445
-0.05753109424391435 0.31562116603622287
-0.04833447931232003 0.2727708933161941
-0.04833447931232003 0.2727708933161941
-0.0299412494491314 0.2406331887761725
-0.0023514046543484488 0.2406331887761725
0.016041825208840184 0.2513457569561797
0.043631670003623134 0.26205832513618693
0.03443505507202882 0.2727708933161941
0.03443505507202882 0.2299206205961653
0.0252384401404345 0.19778291605614373
0.016041825208840184 0.18707034787613652
0.006845210277245868 0.15493264333611495
-0.0023514046543484488 0.14422007515610774
0.016041825208840184 0.15493264333611495
0.05282828493521745 0.16564521151612213
0.07122151479840609 0.19778291605614373
0.08961474466159472 0.19778291605614373
0.1355978193195663 0.18707034787613652
0.19997412384072652 0.19778291605614373
0.2459571984986981 0.19778291605614373
0.32872673288304693 0.18707034787613652
0.4114962672673958 0.17635777969612934
0.49426580165174466 0.17635777969612934
0.5310522613781219 0.15493264333611495
0.623018410694065 0.13350750697610056
0.7149845600100082 0.12279493879609335
0.8253439391891401 0.10136980243607896
0.9357033183682718 0.12279493879609335
1.0920457722053751 0.07994466607606457
1.2391916111108843 0.11208237061608615
1.4323205246743649 0.05851952971605017
1.5426799038534968 0.026381825176028578
1.5518765187850911 -0.0378935839040146
1.4139272948111763 -0.14501926570408658
1.0644559274105923 -0.22000724296413696
0.49426580165174466 -0.3164203565842017
-0.22307016301261204 -0.34855806112422333
-0.977192587403346 -0.3592706293042305
-1.6669387072729198 -0.2628575156841657
-2.20034237330539 -0.19858210660412254
-2.5957968153639457 -0.11288156116406498
-2.8716952633117754 -0.08074385662404339
-3.101610636601633 -0.08074385662404339
-3.267149705370331 -0.10216899298405778
-3.4234921592074343 -0.08074385662404339
-3.5338515383865663 -0.00575587936399301
-3.6350143026341035 0.15493264333611495
-3.6901939922236693 0.3906091432962733
-3.6901939922236693 0.6798484841564676
-3.6258176877025092 1.0012255295566834
-3.5246549234549716 1.365452847676928
-3.41429554427584 1.6868298930771441
-3.267149705370331 1.9653566657573311
-3.0832174067384446 2.2331708702575113
-2.890088493174964 2.4367096656776477
-2.6969595796114834 2.5224102111177054
-2.5314205108427856 2.6295358929177772
-2.365881442074088 2.6938113019978207
-2.2187356031685788 2.8009369837978926
-2.089982994126258 2.8437872565179214
-1.9980168448103153 2.875924961057943
-1.8692642357679947 2.8652123928779356
-1.676135322204514 2.7902244156178853
-1.4922030235726278 2.6188233247377704
-1.2806808801459584 2.3081588475175616
-1.0875519665824778 1.8796561203172737
-0.8760298231558086 1.2904648704168777
-0.7380805991818938 0.6369982114364388
-0.6645076797291393 0.047806961536042976
-0.5909347602763847 -0.4128334702042665
-0.5541483005500074 -0.7127853792444679
-0.4621821512340643 -0.7984859246845256
-0.2966430824653666 -0.7877733565045184
-0.0851209390386973 -0.7020728110644608
0.16318766411434926 -0.6056596974443961
0.42988949713058444 -0.4878214474643169
0.623018410694065 -0.4128334702042665
0.7701642495995742 -0.3057077884041945
0.852933783983923 -0.29499522022418734
0.8345405541207344 -0.2628575156841657
0.8345405541207344 -0.2628575156841657
0.852933783983923 -0.24143237932415135
0.8069507093259515 -0.2735700838641729
0.7793608645311685 -0.2735700838641729
0.7885574794627628 -0.28428265204418013
0.7977540943943571 -0.2628575156841657
0.8345405541207344 -0.2735700838641729
0.8437371690523287 -0.29499522022418734
0.8713270138471116 -0.2735700838641729
0.8897202437103002 -0.28428265204418013
0.9448999332998662 -0.3057077884041945
0.9540965482314605 -0.3057077884041945
0.9724897780946491 -0.3271329247642089
0.9908830079578378 -0.3378454929442161
1.000079622889432 -0.3271329247642089
0.9908830079578378 -0.34855806112422333
1.0184728527526208 -0.34855806112422333
1.0368660826158094 -0.34855806112422333
1.0736525423421865 -0.3271329247642089
1.0920457722053751 -0.3057077884041945
1.0920457722053751 -0.3378454929442161
1.1288322319317525 -0.34855806112422333
1.1656186916581297 -0.34855806112422333
1.1932085364529128 -0.3699831974842377
1.22999499617929 -0.3699831974842377
1.2575848409740729 -0.4128334702042665
1.2575848409740729 -0.3914083338442521
1.2943713007004503 -0.4128334702042665
1.3035679156320445 -0.4449711747442881
1.285174685768856 -0.4235460383842737
1.3219611454952331 -0.4449711747442881
1.3771408350847991 -0.4235460383842737
1.4323205246743649 -0.4342586065642809
1.4691069844007423 -0.4449711747442881
1.5150900590587137 -0.4342586065642809
1.5426799038534968 -0.45568374292429525
1.5702697486482797 -0.4771088792843097
1.5978595934430626 -0.49853401564432404
1.6162528233062512 -0.5306717201843456
1.63464605316944 -0.5735219929043744
1.6530392830326286 -0.5735219929043744
1.6622358979642229 -0.5949471292643889
1.6806291278274115 -0.5842345610843817
1.6806291278274115 -0.5842345610843817
1.6806291278274115 -0.5735219929043744
1.7450054323485718 -0.6163722656244032
1.7909885070065432 -0.5842345610843817
1.836971581664515 -0.6056596974443961
1.8277749667329206 -0.6056596974443961
1.8277749667329206 -0.6270848338044104
1.781791892074949 -0.6163722656244032
1.7358088174169775 -0.6806476747044464
1.6898257427590058 -0.7020728110644608
1.63464605316944 -0.7127853792444679
1.6162528233062512 -0.7020728110644608
1.607056208374657 -0.6806476747044464
1.5518765187850911 -0.6485099701644248
1.5334832889219026 -0.6377974019844176
1.4966968291955252 -0.6377974019844176
1.4415171396059592 -0.659222538344432
1.3863374500163934 -0.6377974019844176
1.3311577604268274 -0.6377974019844176
1.2667814559056672 -0.6163722656244032
1.1932085364529128 -0.5842345610843817
1.1196356170001582 -0.5735219929043744
1.055259312478998 -0.5306717201843456
1.0092762378210265 -0.5199591520043384
0.9265067034366775 -0.46639631110430246
0.8897202437103002 -0.40212090202425926
0.852933783983923 -0.3592706293042305
0.8253439391891401 -0.3164203565842017
0.7885574794627628 -0.2735700838641729
0.7517710197363855 -0.2628575156841657
0.6873947152152253 -0.20929467478412975
0.623018410694065 -0.19858210660412254
0.5586421061729049 -0.15573183388409376
0.503462416583339 -0.11288156116406498
0.43908611206217874 -0.10216899298405778
0.4114962672673958 -0.027181015724007405
0.38390642247261286 0.037094393356035774
0.3655131926094242 0.10136980243607896
0.3655131926094242 0.15493264333611495
0.3747098075410185 0.18707034787613652
0.32872673288304693 0.19778291605614373
0.301136888088264 0.2299206205961653
0.27354704329348106 0.21920805241615812
0.23676058356710378 0.21920805241615812
0.17238427904594356 0.2406331887761725
0.1355978193195663 0.2084954842361509
0.10800797452478335 0.2084954842361509
0.10800797452478335 0.2406331887761725
0.10800797452478335 0.2834834614962013
0.14479443425116062 0.2727708933161941
0.14479443425116062 0.2834834614962013
0.15399104918275494 0.2941960296762085
0.16318766411434926 0.2727708933161941
0.16318766411434926 0.2834834614962013
0.12640120438797198 0.26205832513618693
0.10800797452478335 0.26205832513618693
0.10800797452478335 0.2299206205961653
0.10800797452478335 0.2299206205961653
0.08961474466159472 0.2513457569561797
0.12640120438797198 0.21920805241615812
0.10800797452478335 0.2406331887761725
0.12640120438797198 0.2299206205961653
0.12640120438797198 0.26205832513618693
0.11720458945637767 0.2727708933161941
0.09881135959318904 0.26205832513618693
0.10800797452478335 0.2513457569561797
0.11720458945637767 0.2513457569561797
0.08961474466159472 0.2084954842361509
0.0804181297300004 0.18707034787613652
0.07122151479840609 0.17635777969612934
0.07122151479840609 0.18707034787613652
0.07122151479840609 0.19778291605614373
0.07122151479840609 0.2299206205961653
0.08961474466159472 0.2406331887761725
0.08961474466159472 0.26205832513618693
0.11720458945637767 0.26205832513618693
0.11720458945637767 0.2513457569561797
0.12640120438797198 0.2406331887761725
0.08961474466159472 0.19778291605614373
0.05282828493521745 0.18707034787613652
0.016041825208840184 0.16564521151612213
-0.039137864380725716 0.15493264333611495
-0.04833447931232003 0.15493264333611495
-0.039137864380725716 0.18707034787613652
0.0252384401404345 0.19778291605614373
0.0252384401404345 0.21920805241615812
0.07122151479840609 0.2299206205961653
0.07122151479840609 0.2513457569561797
0.07122151479840609 0.2299206205961653
0.07122151479840609 0.18707034787613652
0.043631670003623134 0.17635777969612934
0.043631670003623134 0.17635777969612934
0.016041825208840184 0.15493264333611495
0.006845210277245868 0.14422007515610774
-0.0023514046543484488 0.17635777969612934
-0.020744634517537084 0.15493264333611495
-0.020744634517537084 0.18707034787613652
-0.0023514046543484488 0.18707034787613652
0.016041825208840184 0.19778291605614373
0.0252384401404345 0.18707034787613652
0.0252384401404345 0.19778291605614373
0.0252384401404345 0.19778291605614373
0.016041825208840184 0.19778291605614373
-0.0023514046543484488 0.18707034787613652
-0.0299412494491314 0.16564521151612213
-0.039137864380725716 0.16564521151612213
-0.06672770917550866 0.13350750697610056
-0.04833447931232003 0.12279493879609335
-0.0299412494491314 0.13350750697610056
-0.0299412494491314 0.14422007515610774
-0.039137864380725716 0.16564521151612213
0.016041825208840184 0.16564521151612213
0.0252384401404345 0.16564521151612213
0.043631670003623134 0.17635777969612934
0.043631670003623134 0.15493264333611495
0.03443505507202882 0.16564521151612213
0.016041825208840184 0.11208237061608615
-0.0023514046543484488 0.09065723425607176
-0.011548019585942766 0.11208237061608615
-0.039137864380725716 0.12279493879609335
-0.039137864380725716 0.15493264333611495
-0.0023514046543484488 0.17635777969612934
-0.0023514046543484488 0.17635777969612934
0.006845210277245868 0.17635777969612934
0.006845210277245868 0.15493264333611495
-0.011548019585942766 0.15493264333611495
-0.0023514046543484488 0.11208237061608615
0.006845210277245868 0.10136980243607896
-0.011548019585942766 0.09065723425607176
-0.0299412494491314 0.10136980243607896
-0.0299412494491314 0.14422007515610774
-0.04833447931232003 0.16564521151612213
-0.04833447931232003 0.17635777969612934
-0.0299412494491314 0.18707034787613652
-0.011548019585942766 0.2084954842361509
0.043631670003623134 0.19778291605614373
0.07122151479840609 0.21920805241615812
0.08961474466159472 0.2084954842361509
0.12640120438797198 0.2084954842361509
0.15399104918275494 0.2513457569561797
0.17238427904594356 0.2834834614962013
0.18158089397753788 0.36918400693625886
0.20917073877232084 0.4548845523763165
0.22756396863550946 0.5084473932763525
0.22756396863550946 0.5512976659963812
0.2643504283618867 0.540585097816374
0.27354704329348106 0.5191599614563597
0.28274365822507536 0.49773482509634526
0.3379233478146413 0.47630968873633084
0.39310303740420716 0.42274684783629485
0.475872571788556 0.3477588705762445
0.5218556464465276 0.2727708933161941
0.5678387211044992 0.19778291605614373
0.5770353360360935 0.13350750697610056
0.5402488763097162 0.11208237061608615
0.5218556464465276 0.10136980243607896
0.4574793419253674 0.10136980243607896
0.4482827269937731 0.10136980243607896
0.4482827269937731 0.12279493879609335
0.4666759568569617 0.13350750697610056
0.4850691867201503 0.07994466607606457
0.49426580165174466 0.06923209789605736
0.503462416583339 0.026381825176028578
0.4482827269937731 -0.027181015724007405
0.38390642247261286 -0.0700312884440362
0.31033350301985835 -0.10216899298405778
0.2643504283618867 -0.08074385662404339
0.20917073877232084 -0.048606152084021796
0.18158089397753788 0.004956688816014186
0.16318766411434926 0.06923209789605736
0.15399104918275494 0.10136980243607896
0.12640120438797198 0.11208237061608615
0.10800797452478335 0.11208237061608615
0.07122151479840609 0.11208237061608615
-0.020744634517537084 0.12279493879609335
-0.039137864380725716 0.12279493879609335
-0.07592432410710298 0.10136980243607896
-0.0851209390386973 0.09065723425607176
-0.11271078383348025 0.10136980243607896
-0.07592432410710298 0.07994466607606457
-0.05753109424391435 0.07994466607606457
-0.04833447931232003 0.09065723425607176
-0.011548019585942766 0.09065723425607176
-0.020744634517537084 0.11208237061608615
-0.0023514046543484488 0.10136980243607896
-0.0299412494491314 0.09065723425607176
-0.011548019585942766 0.11208237061608615
-0.04833447931232003 0.10136980243607896
-0.05753109424391435 0.12279493879609335
-0.05753109424391435 0.15493264333611495
-0.039137864380725716 0.26205832513618693
0.0252384401404345 0.3906091432962733
0.16318766411434926 0.5191599614563597
0.39310303740420716 0.5620102341763884
0.6965913301468196 0.5084473932763525
1.055259312478998 0.31562116603622287
1.4323205246743649 -0.027181015724007405
1.809381736869732 -0.5092465838243313
2.1496564893387218 -1.0984378337247271
2.471538011944523 -1.8804553108652524
2.775026304687135 -2.780311037985857
3.0141382929085876 -3.7230170378264904
3.152087516882502 -4.494321946787008
3.1888739766088796 -4.9871000830673395
3.115301057156125 -5.158501173947455
2.8945822987978613 -4.9871000830673395
2.6094872359184373 -4.655010469487117
2.158853104270316 -4.237220310466836
1.6530392830326286 -3.7444421741865046
1.1196356170001582 -3.2516640379061736
0.7149845600100082 -2.737460765265828
0.43908611206217874 -2.2553951971655044
0.27354704329348106 -1.8268924699652165
0.16318766411434926 -1.473377720024979
0.10800797452478335 -1.1841383791647846
0.06202489986681177 -0.9484618792046263
0.0252384401404345 -0.7234979474244752
-0.05753109424391435 -0.5199591520043384
-0.14949724355985752 -0.34855806112422333
-0.23226677794420636 -0.17715697024410815
-0.3058396973969609 -0.048606152084021796
-0.3518227720549325 0.06923209789605736
-0.3610193869865268 0.14422007515610774
-0.37941261684971544 0.19778291605614373
-0.34262615712333816 0.21920805241615812
-0.34262615712333816 0.2299206205961653
-0.37941261684971544 0.2513457569561797
-0.3978058467129041 0.26205832513618693
-0.4070024616444984 0.2834834614962013
-0.425395691507687 0.3049085978562157
-0.4161990765760927 0.3584714387562517
-0.3978058467129041 0.37989657511626607
-0.3610193869865268 0.36918400693625886
-0.3978058467129041 0.3906091432962733
-0.3978058467129041 0.4013217114762805
-0.4070024616444984 0.41203427965628764
-0.425395691507687 0.3906091432962733
-0.425395691507687 0.3906091432962733
-0.45298553630246996 0.42274684783629485
-0.4713787661656586 0.4548845523763165
-0.4805753810972529 0.49773482509634526
-0.45298553630246996 0.49773482509634526
-0.425395691507687 0.540585097816374
-0.4161990765760927 0.5620102341763884
-0.4070024616444984 0.540585097816374
-0.425395691507687 0.5298725296363668
-0.4345923064392813 0.5727228023563956
-0.4621821512340643 0.5512976659963812
-0.45298553630246996 0.5727228023563956
-0.4805753810972529 0.59414793871641
-0.4713787661656586 0.6262856432564315
-0.4805753810972529 0.6798484841564676
-0.4805753810972529 0.6691359159764604
-0.48977199602884725 0.7226987568764963
-0.5265584557552245 0.7441238932365107
-0.5357550706868188 0.7762615977765324
-0.5633449154816018 0.754836461416518
-0.5633449154816018 0.7869741659565396
-0.5817381453447904 0.7976867341365468
-0.6093279901395734 0.808399302316554
-0.6093279901395734 0.7869741659565396
-0.600131375207979 0.7869741659565396
-0.6461144498659506 0.8298244386765683
-0.6737042946607336 0.8726747113965971
-0.7104907543871108 0.9155249841166259
-0.7104907543871108 0.9476626886566475
-0.7472772141134881 1.0012255295566834
-0.7472772141134881 1.0333632340967052
-0.774867058908271 1.0119380977366907
-0.7932602887714597 1.0655009386367267
-0.7932602887714597 1.0226506659166978
-0.8392433634294313 1.0547883704567194
-0.8576365932926199 1.0547883704567194
-0.8852264380874029 1.0762135068167338
-0.9312095127453744 1.1083512113567555
-0.9679959724717517 1.140488915896777
-0.9863892023349403 1.140488915896777
-1.032372276992912 1.1833391886168059
-1.032372276992912 1.2047643249768203
-1.0139790471297232 1.2154768931568274
-1.0139790471297232 1.2154768931568274
-1.032372276992912 1.2261894613368347
-1.0415688919245063 1.2047643249768203
-1.0691587367192892 1.194051756796813
-1.0691587367192892 1.2261894613368347
-1.0875519665824778 1.194051756796813
-1.0783553516508835 1.2047643249768203
-1.0599621217876949 1.2047643249768203
-1.0599621217876949 1.2047643249768203
-1.0231756620613177 1.247614597696849
-0.9863892023349403 1.2369020295168418
-0.949602742608563 1.2154768931568274
-0.9312095127453744 1.1726266204367986
-0.8944230530189972 1.12977634771677
-0.8484399783610256 1.0333632340967052
-0.802456903703054 1.0333632340967052
-0.7656704439766767 0.9476626886566475
-0.7288839842502994 0.8940998477566116
-0.6737042946607336 0.8619621432165899
-0.627721220002762 0.8298244386765683
-0.5725415304131961 0.7976867341365468
-0.5173618408236302 0.754836461416518
-0.44378892137087567 0.7119861886964892
-0.4070024616444984 0.6584233477964532
-0.3610193869865268 0.6048605068964172
-0.2966430824653666 0.5620102341763884
-0.250660007807395 0.47630968873633084
-0.22307016301261204 0.43345941601630206
-0.1954803182178291 0.37989657511626607
-0.16789047342304614 0.3263337342162301
-0.14949724355985752 0.2834834614962013
-0.15869385849145184 0.2727708933161941
-0.14949724355985752 0.2513457569561797
-0.14949724355985752 0.2513457569561797
-0.1403006286282632 0.2834834614962013
-0.0851209390386973 0.2299206205961653
-0.06672770917550866 0.2299206205961653
-0.039137864380725716 0.2084954842361509
-0.06672770917550866 0.19778291605614373
-0.0299412494491314 0.14422007515610774
-0.05753109424391435 0.13350750697610056
-0.07592432410710298 0.14422007515610774
-0.0851209390386973 0.11208237061608615
-0.09431755397029161 0.16564521151612213
-0.10351416890188593 0.13350750697610056
-0.06672770917550866 0.14422007515610774
-0.07592432410710298 0.15493264333611495
-0.0299412494491314 0.15493264333611495
-0.0299412494491314 0.12279493879609335
-0.04833447931232003 0.12279493879609335
-0.05753109424391435 0.11208237061608615
-0.05753109424391435 0.10136980243607896
-0.0851209390386973 0.13350750697610056
-0.07592432410710298 0.10136980243607896
-0.0851209390386973 0.12279493879609335
-0.07592432410710298 0.13350750697610056
-0.07592432410710298 0.13350750697610056
-0.07592432410710298 0.18707034787613652
-0.039137864380725716 0.19778291605614373
-0.04833447931232003 0.19778291605614373
-0.05753109424391435 0.21920805241615812
-0.05753109424391435 0.21920805241615812
-0.06672770917550866 0.2406331887761725
-0.039137864380725716 0.19778291605614373
-0.06672770917550866 0.16564521151612213
-0.06672770917550866 0.14422007515610774
-0.04833447931232003 0.15493264333611495
-0.05753109424391435 0.18707034787613652
-0.06672770917550866 0.21920805241615812
-0.039137864380725716 0.2299206205961653
-0.039137864380725716 0.2834834614962013
-0.020744634517537084 0.2727708933161941
-0.011548019585942766 0.2727708933161941
-0.0299412494491314 0.31562116603622287
0.043631670003623134 0.3370463023962373
0.043631670003623134 0.36918400693625886
0.06202489986681177 0.4013217114762805
0.08961474466159472 0.4548845523763165
0.10800797452478335 0.5298725296363668
0.14479443425116062 0.5512976659963812
0.1355978193195663 0.5727228023563956
0.18158089397753788 0.5727228023563956
0.19997412384072652 0.6048605068964172
0.27354704329348106 0.6048605068964172
0.32872673288304693 0.5620102341763884
0.4022996523358015 0.48702225691633805
0.475872571788556 0.41203427965628764
0.503462416583339 0.3263337342162301
0.5126590315149333 0.2084954842361509
0.475872571788556 0.15493264333611495
0.42069288219899015 0.09065723425607176
0.3655131926094242 0.11208237061608615
0.31953011795145264 0.09065723425607176
0.32872673288304693 0.10136980243607896
0.3563165776778299 0.14422007515610774
0.4114962672673958 0.15493264333611495
0.4482827269937731 0.10136980243607896
0.4482827269937731 0.07994466607606457
0.42069288219899015 0.004956688816014186
0.3563165776778299 -0.048606152084021796
0.2919402731566697 -0.08074385662404339
0.1907775089091322 -0.10216899298405778
0.1355978193195663 -0.0700312884440362
0.09881135959318904 -0.027181015724007405
0.05282828493521745 0.05851952971605017
0.0252384401404345 0.09065723425607176
-0.0023514046543484488 0.11208237061608615
-0.020744634517537084 0.13350750697610056
-0.04833447931232003 0.11208237061608615
-0.05753109424391435 0.10136980243607896
-0.0851209390386973 0.07994466607606457
-0.12190739876507457 0.05851952971605017
-0.11271078383348025 0.047806961536042976
-0.1403006286282632 -0.00575587936399301
-0.1403006286282632 0.015669256996021383
-0.13110401369666888 0.015669256996021383
-0.11271078383348025 0.047806961536042976
-0.10351416890188593 0.07994466607606457
-0.11271078383348025 0.09065723425607176
-0.10351416890188593 0.10136980243607896
-0.0851209390386973 0.09065723425607176
-0.07592432410710298 0.06923209789605736
-0.07592432410710298 0.09065723425607176
-0.06672770917550866 0.09065723425607176
-0.06672770917550866 0.14422007515610774
-0.039137864380725716 0.2406331887761725
0.03443505507202882 0.37989657511626607
0.20917073877232084 0.49773482509634526
0.43908611206217874 0.5620102341763884
0.7793608645311685 0.47630968873633084
1.1656186916581297 0.2299206205961653
1.5610731337166854 -0.14501926570408658
1.892151271254081 -0.6485099701644248
2.2416226386546647 -1.2698389246048423
2.5451109313972773 -2.0304312653853533
2.8118127644135127 -2.898149287965936
3.0141382929085876 -3.7980050150865408
3.1336942870193134 -4.569309924047059
3.115301057156125 -5.029950355787368
3.0417281377033705 -5.158501173947455
2.8302059942767013 -5.040662923967376
2.4807346268761172 -4.708573310387153
2.0852801848175613 -4.280070583186864
1.5610731337166854 -3.776579878726526
1.0644559274105923 -3.273089174266188
0.650608255488848 -2.737460765265828
0.3747098075410185 -2.2125449244454756
0.1907775089091322 -1.7519044927051661
0.11720458945637767 -1.3876771745849215
0.07122151479840609 -1.1198629700847416
0.0252384401404345 -0.873473901944576
-0.0299412494491314 -0.6806476747044464
-0.10351416890188593 -0.4878214474643169
-0.21387354808101774 -0.3164203565842017
-0.3150363123285552 -0.15573183388409376
-0.37941261684971544 0.026381825176028578
-0.3978058467129041 0.12279493879609335
-0.4070024616444984 0.17635777969612934
-0.38860923178130974 0.18707034787613652
-0.38860923178130974 0.2084954842361509
-0.38860923178130974 0.2084954842361509
-0.38860923178130974 0.2406331887761725
-0.4161990765760927 0.2513457569561797
-0.4161990765760927 0.26205832513618693
-0.425395691507687 0.3049085978562157
-0.4070024616444984 0.3370463023962373
-0.37941261684971544 0.36918400693625886
-0.3610193869865268 0.4013217114762805
-0.4070024616444984 0.36918400693625886
-0.37941261684971544 0.3906091432962733
-0.4161990765760927 0.41203427965628764
-0.425395691507687 0.36918400693625886
-0.4345923064392813 0.41203427965628764
-0.44378892137087567 0.43345941601630206
-0.4161990765760927 0.47630968873633084
-0.4161990765760927 0.49773482509634526
-0.4345923064392813 0.5298725296363668
-0.4161990765760927 0.5298725296363668
-0.425395691507687 0.5620102341763884
-0.4070024616444984 0.5727228023563956
-0.425395691507687 0.6048605068964172
-0.4345923064392813 0.6262856432564315
-0.425395691507687 0.6262856432564315
-0.45298553630246996 0.6584233477964532
-0.4621821512340643 0.6584233477964532
-0.4805753810972529 0.6584233477964532
-0.5173618408236302 0.6584233477964532
-0.5357550706868188 0.6905610523364748
-0.5633449154816018 0.7119861886964892
-0.5449516856184131 0.7441238932365107
-0.5357550706868188 0.7976867341365468
-0.5449516856184131 0.8726747113965971
-0.5449516856184131 0.8512495750365827
-0.5817381453447904 0.8833872795766043
-0.6093279901395734 0.8940998477566116
-0.6369178349343563 0.8940998477566116
-0.6737042946607336 0.8833872795766043
-0.7012941394555166 0.9262375522966331
-0.7380805991818938 0.9583752568366547
-0.7564738290450824 1.0119380977366907
-0.7288839842502994 1.0440758022767123
-0.7012941394555166 1.1083512113567555
-0.7104907543871108 1.1619140522567915
-0.7288839842502994 1.2047643249768203
-0.7380805991818938 1.2154768931568274
-0.7840636738398654 1.2154768931568274
-0.830046748497837 1.2261894613368347
-0.8484399783610256 1.2369020295168418
-0.8852264380874029 1.2047643249768203
-0.8852264380874029 1.2261894613368347
-0.8852264380874029 1.2261894613368347
-0.8392433634294313 1.247614597696849
-0.830046748497837 1.2583271658768562
-0.802456903703054 1.301177438596885
-0.7840636738398654 1.3118900067768922
-0.774867058908271 1.301177438596885
-0.7564738290450824 1.2797523022368706
-0.7472772141134881 1.2369020295168418
-0.7196873693187051 1.194051756796813
-0.7012941394555166 1.1190637795367626
-0.6645076797291393 1.0547883704567194
-0.627721220002762 1.0119380977366907
-0.5909347602763847 1.0012255295566834
-0.5541483005500074 0.9369501204766403
-0.49896861096044154 0.8833872795766043
-0.45298553630246996 0.8405370068565755
-0.4161990765760927 0.7869741659565396
-0.3610193869865268 0.7226987568764963
-0.2966430824653666 0.6691359159764604
-0.27824985260217794 0.59414793871641
-0.250660007807395 0.5620102341763884
-0.2598566227389893 0.5084473932763525
-0.2598566227389893 0.48702225691633805
-0.24146339287580068 0.42274684783629485
-0.23226677794420636 0.3906091432962733
-0.18628370328623478 0.3370463023962373
-0.17708708835464046 0.3263337342162301
-0.13110401369666888 0.31562116603622287
-0.11271078383348025 0.2834834614962013
-0.10351416890188593 0.3049085978562157
-0.11271078383348025 0.26205832513618693
-0.1403006286282632 0.2513457569561797
-0.1403006286282632 0.26205832513618693
-0.16789047342304614 0.2299206205961653
-0.16789047342304614 0.19778291605614373
-0.15869385849145184 0.17635777969612934
-0.14949724355985752 0.16564521151612213
-0.13110401369666888 0.16564521151612213
-0.14949724355985752 0.19778291605614373
-0.12190739876507457 0.19778291605614373
-0.1403006286282632 0.21920805241615812
-0.11271078383348025 0.2084954842361509
-0.09431755397029161 0.18707034787613652
-0.10351416890188593 0.15493264333611495
-0.10351416890188593 0.16564521151612213
-0.12190739876507457 0.13350750697610056
-0.14949724355985752 0.14422007515610774
-0.14949724355985752 0.13350750697610056
-0.17708708835464046 0.15493264333611495
-0.14949724355985752 0.17635777969612934
-0.15869385849145184 0.18707034787613652
-0.12190739876507457 0.2299206205961653
-0.10351416890188593 0.2299206205961653
-0.07592432410710298 0.2084954842361509
-0.05753109424391435 0.17635777969612934
-0.07592432410710298 0.16564521151612213
-0.13110401369666888 0.16564521151612213
-0.14949724355985752 0.16564521151612213
-0.14949724355985752 0.15493264333611495
-0.15869385849145184 0.16564521151612213
-0.16789047342304614 0.15493264333611495
-0.16789047342304614 0.16564521151612213
-0.14949724355985752 0.16564521151612213
-0.1403006286282632 0.17635777969612934
-0.12190739876507457 0.17635777969612934
-0.09431755397029161 0.18707034787613652
-0.0851209390386973 0.19778291605614373
-0.09431755397029161 0.2084954842361509
-0.05753109424391435 0.2299206205961653
-0.05753109424391435 0.19778291605614373
-0.039137864380725716 0.19778291605614373
-0.0299412494491314 0.21920805241615812
-0.020744634517537084 0.2513457569561797
-0.011548019585942766 0.2941960296762085
0.006845210277245868 0.36918400693625886
0.06202489986681177 0.43345941601630206
0.0804181297300004 0.5191599614563597
0.11720458945637767 0.5620102341763884
0.14479443425116062 0.540585097816374
0.14479443425116062 0.540585097816374
0.16318766411434926 0.540585097816374
0.19997412384072652 0.5191599614563597
0.23676058356710378 0.49773482509634526
0.2919402731566697 0.44417198419630927
0.3563165776778299 0.3906091432962733
0.39310303740420716 0.31562116603622287
0.39310303740420716 0.26205832513618693
0.42069288219899015 0.21920805241615812
0.42069288219899015 0.15493264333611495
0.4114962672673958 0.14422007515610774
0.39310303740420716 0.13350750697610056
0.38390642247261286 0.13350750697610056
0.38390642247261286 0.13350750697610056
0.3655131926094242 0.11208237061608615
0.3655131926094242 0.10136980243607896
0.3655131926094242 0.026381825176028578
0.32872673288304693 0.004956688816014186
0.2643504283618867 -0.0378935839040146
0.20917073877232084 -0.048606152084021796
0.16318766411434926 -0.0378935839040146
0.11720458945637767 -0.00575587936399301
0.09881135959318904 0.037094393356035774
0.08961474466159472 0.05851952971605017
0.03443505507202882 0.13350750697610056
0.03443505507202882 0.12279493879609335
-0.020744634517537084 0.09065723425607176
-0.07592432410710298 0.07994466607606457
-0.14949724355985752 0.037094393356035774
-0.1954803182178291 0.07994466607606457
-0.20467693314942342 0.06923209789605736
-0.1954803182178291 0.07994466607606457
-0.20467693314942342 0.09065723425607176
-0.17708708835464046 0.06923209789605736
-0.15869385849145184 0.07994466607606457
-0.14949724355985752 0.07994466607606457
-0.16789047342304614 0.11208237061608615
-0.1403006286282632 0.09065723425607176
-0.15869385849145184 0.09065723425607176
-0.1403006286282632 0.09065723425607176
-0.1403006286282632 0.07994466607606457
-0.1403006286282632 0.05851952971605017
-0.12190739876507457 0.05851952971605017
-0.13110401369666888 0.06923209789605736
-0.12190739876507457 0.11208237061608615
-0.11271078383348025 0.16564521151612213
-0.10351416890188593 0.26205832513618693
-0.04833447931232003 0.36918400693625886
0.06202489986681177 0.48702225691633805
0.2459571984986981 0.5834353705364028
0.5310522613781219 0.5512976659963812
0.8805236287787059 0.36918400693625886
1.2667814559056672 0.09065723425607176
1.6530392830326286 -0.3271329247642089
2.011707265364807 -0.8199110610445399
2.3427854029022024 -1.4519525836649645
2.6554703105764093 -2.2339700608054898
2.91297552866105 -3.0802629470260583
3.060121367566559 -3.8837055605265984
3.152087516882502 -4.52645965132703
3.087711212361342 -4.879974401267267
2.922172143592644 -4.9228246739872965
2.6370770807132207 -4.7299984467471665
2.2416226386546647 -4.387196264986937
1.754202047280166 -3.958693537786649
1.2207983812476957 -3.4123525606062817
0.7425744048047912 -2.8874367197859288
0.4022996523358015 -2.341095742605562
0.19997412384072652 -1.8376050381452236
0.12640120438797198 -1.4412400154849574
0.06202489986681177 -1.1412881064447558
0.043631670003623134 -0.9163241746646047
0.006845210277245868 -0.7342105156044824
-0.05753109424391435 -0.6056596974443961
-0.1403006286282632 -0.46639631110430246
-0.2598566227389893 -0.29499522022418734
-0.3610193869865268 -0.14501926570408658
-0.425395691507687 -0.00575587936399301
-0.4713787661656586 0.07994466607606457
-0.49896861096044154 0.18707034787613652
-0.49896861096044154 0.2299206205961653
-0.48977199602884725 0.2727708933161941
-0.4805753810972529 0.2727708933161941
-0.45298553630246996 0.3049085978562157
-0.45298553630246996 0.3049085978562157
-0.4345923064392813 0.3370463023962373
-0.44378892137087567 0.3049085978562157
-0.4805753810972529 0.3049085978562157
-0.49896861096044154 0.2941960296762085
-0.5081652258920358 0.3370463023962373
-0.5081652258920358 0.36918400693625886
-0.5081652258920358 0.44417198419630927
-0.5173618408236302 0.43345941601630206
-0.5265584557552245 0.46559712055632363
-0.5173618408236302 0.48702225691633805
-0.49896861096044154 0.49773482509634526
-0.49896861096044154 0.48702225691633805
-0.5173618408236302 0.5084473932763525
-0.5081652258920358 0.5084473932763525
-0.5265584557552245 0.49773482509634526
-0.5633449154816018 0.5084473932763525
-0.5909347602763847 0.5191599614563597
-0.600131375207979 0.5620102341763884
-0.5817381453447904 0.59414793871641
-0.5817381453447904 0.6262856432564315
-0.5541483005500074 0.6584233477964532
-0.5173618408236302 0.701273620516482
-0.5173618408236302 0.7119861886964892
-0.5449516856184131 0.7226987568764963
-0.5909347602763847 0.7334113250565035
-0.627721220002762 0.701273620516482
-0.6461144498659506 0.701273620516482
-0.6829009095923279 0.7441238932365107
-0.6737042946607336 0.7762615977765324
-0.6737042946607336 0.8191118704965611
-0.6920975245239223 0.8298244386765683
-0.6737042946607336 0.8726747113965971
-0.6920975245239223 0.9048124159366188
-0.7104907543871108 0.9155249841166259
-0.7012941394555166 0.8940998477566116
-0.7380805991818938 0.9476626886566475
-0.7656704439766767 0.9690878250166619
-0.8208501335662426 1.0333632340967052
-0.830046748497837 1.0655009386367267
-0.8944230530189972 1.0655009386367267
-0.9036196679505915 1.1083512113567555
-0.9036196679505915 1.0762135068167338
-0.9312095127453744 1.0762135068167338
-0.9404061276769687 1.1083512113567555
-0.9587993575401574 1.1512014840767841
-0.977192587403346 1.1833391886168059
-0.977192587403346 1.2154768931568274
-1.004782432198129 1.2154768931568274
-1.0139790471297232 1.2047643249768203
-0.9955858172665346 1.1833391886168059
-0.9955858172665346 1.2047643249768203
-0.9587993575401574 1.194051756796813
-0.977192587403346 1.1726266204367986
-0.949602742608563 1.1833391886168059
-0.9404061276769687 1.194051756796813
-0.8760298231558086 1.1833391886168059
-0.8484399783610256 1.1833391886168059
-0.8208501335662426 1.1619140522567915
-0.7932602887714597 1.12977634771677
-0.7288839842502994 1.1083512113567555
-0.7104907543871108 1.0333632340967052
-0.6737042946607336 0.9798003931966691
-0.6461144498659506 0.8940998477566116
-0.600131375207979 0.8405370068565755
-0.5633449154816018 0.808399302316554
-0.48977199602884725 0.754836461416518
-0.4621821512340643 0.7119861886964892
-0.4070024616444984 0.6798484841564676
-0.3978058467129041 0.647710779616446
-0.3610193869865268 0.5834353705364028
-0.3242329272601495 0.5298725296363668
-0.2874464675337723 0.47630968873633084
-0.250660007807395 0.43345941601630206
-0.23226677794420636 0.37989657511626607
-0.22307016301261204 0.3263337342162301
-0.20467693314942342 0.2941960296762085
-0.20467693314942342 0.2834834614962013
-0.18628370328623478 0.2727708933161941
-0.16789047342304614 0.2727708933161941
-0.15869385849145184 0.2727708933161941
-0.15869385849145184 0.3049085978562157
-0.14949724355985752 0.2727708933161941
-0.13110401369666888 0.2513457569561797
-0.11271078383348025 0.2406331887761725
-0.11271078383348025 0.19778291605614373
-0.07592432410710298 0.18707034787613652
-0.05753109424391435 0.14422007515610774
-0.05753109424391435 0.19778291605614373
-0.020744634517537084 0.16564521151612213
-0.0023514046543484488 0.17635777969612934
0.08961474466159472 0.19778291605614373
0.18158089397753788 0.19778291605614373
0.2551538134302924 0.19778291605614373
0.32872673288304693 0.2406331887761725
0.4022996523358015 0.19778291605614373
0.4850691867201503 0.17635777969612934
0.5494454912413106 0.16564521151612213
0.6322150256256595 0.13350750697610056
0.7609676346679798 0.10136980243607896
0.8805236287787059 0.07994466607606457
1.0460626975474037 0.047806961536042976
1.2207983812476957 0.037094393356035774
1.3035679156320445 0.004956688816014186
1.3035679156320445 -0.0378935839040146
1.1932085364529128 -0.0700312884440362
0.8805236287787059 -0.15573183388409376
0.42069288219899015 -0.24143237932415135
-0.1954803182178291 -0.3164203565842017
-0.9036196679505915 -0.3592706293042305
-1.5197928683674107 -0.3057077884041945
-2.0715897642630696 -0.25214494750415856
-2.47624082125322 -0.25214494750415856
-2.7889257289274263 -0.19858210660412254
-3.037234332080473 -0.20929467478412975
-3.239559860575548 -0.24143237932415135
-3.441885389070623 -0.2735700838641729
-3.616621072770915 -0.23071981114414414
-3.7453736818132355 -0.14501926570408658
-3.8465364460607727 0.037094393356035774
-3.8741262908555556 0.26205832513618693
-3.8465364460607727 0.5727228023563956
-3.763766911676424 0.8619621432165899
-3.6993906071552636 1.140488915896777
-3.5798346130445378 1.408303120396957
-3.441885389070623 1.6868298930771441
-3.2579530904387366 1.9439315293973167
-3.0464309470120674 2.168895461177468
-2.8257121886538035 2.3617216884175973
-2.6233866601587286 2.511697642937698
-2.4394543615268423 2.5973981883777557
-2.3198983674161164 2.650961029277792
-2.2095389882369845 2.7259490065378422
-2.0439999194682867 2.7366615747178495
-1.8508710059048061 2.6830987338178134
-1.6025624027517595 2.4581348020376623
-1.32666395480393 2.018919506657367
-1.1243384263088552 1.4404408249369784
-0.949602742608563 0.7869741659565396
-0.8576365932926199 0.13350750697610056
-0.802456903703054 -0.3271329247642089
-0.7472772141134881 -0.6270848338044104
-0.6920975245239223 -0.7127853792444679
-0.5817381453447904 -0.6485099701644248
-0.4161990765760927 -0.5413842883643528
-0.15869385849145184 -0.45568374292429525
0.11720458945637767 -0.40212090202425926
0.3655131926094242 -0.3592706293042305
0.5678387211044992 -0.3699831974842377
0.6690014853520366 -0.3378454929442161
0.7701642495995742 -0.3271329247642089
0.7793608645311685 -0.3164203565842017
0.7425744048047912 -0.2735700838641729
0.7241811749416026 -0.24143237932415135
0.6965913301468196 -0.16644440206410097
0.6690014853520366 -0.16644440206410097
0.678198100283631 -0.16644440206410097
0.6965913301468196 -0.17715697024410815
0.6965913301468196 -0.19858210660412254
0.7241811749416026 -0.22000724296413696
0.7149845600100082 -0.20929467478412975
0.7425744048047912 -0.22000724296413696
0.7333777898731969 -0.23071981114414414
0.7517710197363855 -0.17715697024410815
0.7793608645311685 -0.17715697024410815
0.8069507093259515 -0.18786953842411536
0.852933783983923 -0.17715697024410815
0.8805236287787059 -0.16644440206410097
0.8805236287787059 -0.17715697024410815
0.9081134735734889 -0.20929467478412975
0.9265067034366775 -0.24143237932415135
0.9448999332998662 -0.25214494750415856
0.9540965482314605 -0.25214494750415856
0.9540965482314605 -0.25214494750415856
0.9816863930262434 -0.25214494750415856
0.9908830079578378 -0.24143237932415135
1.027669467684215 -0.19858210660412254
1.0736525423421865 -0.22000724296413696
1.0828491572737808 -0.20929467478412975
1.1196356170001582 -0.20929467478412975
1.1380288468633468 -0.23071981114414414
1.1564220767265354 -0.25214494750415856
1.1840119215213185 -0.2628575156841657
1.202405151384507 -0.2628575156841657
1.2575848409740729 -0.2735700838641729
1.2759780708372617 -0.25214494750415856
1.3035679156320445 -0.29499522022418734
1.349550990290016 -0.2735700838641729
1.3863374500163934 -0.28428265204418013
1.404730679879582 -0.28428265204418013
1.4323205246743649 -0.3057077884041945
1.4507137545375537 -0.3164203565842017
1.4691069844007423 -0.3164203565842017
1.4966968291955252 -0.3271329247642089
1.5058934441271195 -0.34855806112422333
1.5518765187850911 -0.3699831974842377
1.5610731337166854 -0.3592706293042305
1.579466363579874 -0.3806957656642449
1.5978595934430626 -0.4235460383842737
1.5978595934430626 -0.40212090202425926
1.5886629785114683 -0.4128334702042665
1.5610731337166854 -0.3806957656642449
1.5426799038534968 -0.3806957656642449
1.5426799038534968 -0.40212090202425926
1.5058934441271195 -0.4128334702042665
1.4783035993323366 -0.4128334702042665
1.4139272948111763 -0.4235460383842737
1.3771408350847991 -0.4449711747442881
1.3127645305636388 -0.45568374292429525
1.2667814559056672 -0.4128334702042665
1.2391916111108843 -0.4235460383842737
1.1932085364529128 -0.40212090202425926
1.1840119215213185 -0.4128334702042665
1.1196356170001582 -0.3699831974842377
1.1012423871369696 -0.34855806112422333
1.0184728527526208 -0.3164203565842017
0.9540965482314605 -0.3057077884041945
0.8713270138471116 -0.28428265204418013
0.7977540943943571 -0.25214494750415856
0.7241811749416026 -0.25214494750415856
0.6690014853520366 -0.2735700838641729
0.5770353360360935 -0.22000724296413696
0.5402488763097162 -0.19858210660412254
0.5218556464465276 -0.12359412934407217
0.4850691867201503 -0.0700312884440362
0.4666759568569617 -0.027181015724007405
0.43908611206217874 0.037094393356035774
0.4022996523358015 0.06923209789605736
0.3471199627462356 0.06923209789605736
0.2919402731566697 0.07994466607606457
0.22756396863550946 0.11208237061608615
0.19997412384072652 0.12279493879609335
0.14479443425116062 0.14422007515610774
0.08961474466159472 0.16564521151612213
0.0804181297300004 0.19778291605614373
0.05282828493521745 0.21920805241615812
0.08961474466159472 0.2513457569561797
0.06202489986681177 0.2727708933161941
0.06202489986681177 0.2941960296762085
0.07122151479840609 0.31562116603622287
0.05282828493521745 0.2941960296762085
0.07122151479840609 0.3049085978562157
0.043631670003623134 0.2941960296762085
0.016041825208840184 0.2513457569561797
0.006845210277245868 0.2299206205961653
-0.020744634517537084 0.2406331887761725
-0.039137864380725716 0.26205832513618693
-0.020744634517537084 0.2727708933161941
-0.0023514046543484488 0.2941960296762085
0.016041825208840184 0.2941960296762085
0.006845210277245868 0.3049085978562157
0.0252384401404345 0.2727708933161941
-0.011548019585942766 0.2834834614962013
-0.0023514046543484488 0.2727708933161941
0.006845210277245868 0.2406331887761725
-0.020744634517537084 0.2513457569561797
-0.06672770917550866 0.2406331887761725
-0.07592432410710298 0.2513457569561797
-0.07592432410710298 0.2727708933161941
-0.07592432410710298 0.2834834614962013
-0.05753109424391435 0.2941960296762085
-0.039137864380725716 0.2727708933161941
-0.011548019585942766 0.2941960296762085
-0.011548019585942766 0.2834834614962013
-0.011548019585942766 0.26205832513618693
-0.020744634517537084 0.2299206205961653
-0.039137864380725716 0.2299206205961653
-0.05753109424391435 0.2299206205961653
-0.06672770917550866 0.2406331887761725
-0.0851209390386973 0.26205832513618693
-0.09431755397029161 0.26205832513618693
-0.10351416890188593 0.2406331887761725
-0.09431755397029161 0.2727708933161941
-0.0851209390386973 0.2941960296762085
-0.06672770917550866 0.3049085978562157
-0.06672770917550866 0.2834834614962013
-0.06672770917550866 0.2513457569561797
-0.10351416890188593 0.2513457569561797
-0.11271078383348025 0.2299206205961653
-0.12190739876507457 0.2084954842361509
-0.11271078383348025 0.19778291605614373
-0.12190739876507457 0.2084954842361509
-0.12190739876507457 0.2406331887761725
-0.13110401369666888 0.2299206205961653
-0.11271078383348025 0.26205832513618693
-0.13110401369666888 0.26205832513618693
-0.12190739876507457 0.2406331887761725
-0.11271078383348025 0.2299206205961653
-0.1403006286282632 0.2299206205961653
-0.14949724355985752 0.21920805241615812
-0.14949724355985752 0.21920805241615812
-0.17708708835464046 0.21920805241615812
-0.15869385849145184 0.18707034787613652
-0.15869385849145184 0.19778291605614373
-0.15869385849145184 0.19778291605614373
-0.17708708835464046 0.19778291605614373
-0.13110401369666888 0.2084954842361509
-0.1403006286282632 0.2084954842361509
-0.12190739876507457 0.2299206205961653
-0.1403006286282632 0.21920805241615812
-0.15869385849145184 0.21920805241615812
-0.14949724355985752 0.16564521151612213
-0.14949724355985752 0.17635777969612934
-0.15869385849145184 0.15493264333611495
-0.16789047342304614 0.17635777969612934
-0.17708708835464046 0.17635777969612934
-0.1954803182178291 0.19778291605614373
-0.17708708835464046 0.2084954842361509
-0.16789047342304614 0.21920805241615812
-0.1403006286282632 0.2084954842361509
-0.13110401369666888 0.2084954842361509
-0.10351416890188593 0.21920805241615812
-0.13110401369666888 0.21920805241615812
-0.11271078383348025 0.19778291605614373
-0.15869385849145184 0.18707034787613652
-0.16789047342304614 0.16564521151612213
-0.22307016301261204 0.14422007515610774
-0.23226677794420636 0.13350750697610056
-0.20467693314942342 0.13350750697610056
-0.1954803182178291 0.17635777969612934
-0.17708708835464046 0.19778291605614373
-0.15869385849145184 0.2299206205961653
-0.18628370328623478 0.21920805241615812
-0.18628370328623478 0.19778291605614373
-0.18628370328623478 0.16564521151612213
-0.1954803182178291 0.13350750697610056
-0.21387354808101774 0.11208237061608615
-0.1954803182178291 0.10136980243607896
-0.18628370328623478 0.13350750697610056
-0.18628370328623478 0.15493264333611495
-0.14949724355985752 0.17635777969612934
-0.14949724355985752 0.19778291605614373
-0.1403006286282632 0.18707034787613652
-0.11271078383348025 0.18707034787613652
-0.10351416890188593 0.21920805241615812
-0.0851209390386973 0.2299206205961653
-0.09431755397029161 0.2513457569561797
-0.020744634517537084 0.26205832513618693
-0.011548019585942766 0.3049085978562157
0.016041825208840184 0.31562116603622287
0.043631670003623134 0.36918400693625886
0.06202489986681177 0.42274684783629485
0.0804181297300004 0.49773482509634526
0.08961474466159472 0.5512976659963812
0.10800797452478335 0.5834353705364028
0.1355978193195663 0.59414793871641
0.15399104918275494 0.5834353705364028
0.17238427904594356 0.5512976659963812
0.20917073877232084 0.48702225691633805
0.27354704329348106 0.43345941601630206
0.31953011795145264 0.3584714387562517
0.3655131926094242 0.2834834614962013
0.3747098075410185 0.2299206205961653
0.3747098075410185 0.16564521151612213
0.3471199627462356 0.13350750697610056
0.31953011795145264 0.12279493879609335
0.301136888088264 0.12279493879609335
0.2919402731566697 0.13350750697610056
0.28274365822507536 0.13350750697610056
0.31033350301985835 0.13350750697610056
0.3379233478146413 0.11208237061608615
0.3471199627462356 0.06923209789605736
0.301136888088264 0.026381825176028578
0.23676058356710378 -0.0378935839040146
0.18158089397753788 -0.05931872026402899
0.09881135959318904 -0.0700312884440362
0.05282828493521745 -0.016468447544000207
-0.0023514046543484488 0.026381825176028578
-0.0023514046543484488 0.11208237061608615
-0.039137864380725716 0.16564521151612213
-0.039137864380725716 0.19778291605614373
-0.0851209390386973 0.19778291605614373
-0.11271078383348025 0.15493264333611495
-0.15869385849145184 0.12279493879609335
-0.1954803182178291 0.11208237061608615
-0.21387354808101774 0.09065723425607176
-0.21387354808101774 0.07994466607606457
-0.23226677794420636 0.06923209789605736
-0.23226677794420636 0.09065723425607176
-0.21387354808101774 0.09065723425607176
-0.23226677794420636 0.12279493879609335
-0.1954803182178291 0.11208237061608615
-0.14949724355985752 0.10136980243607896
-0.14949724355985752 0.10136980243607896
-0.14949724355985752 0.09065723425607176
-0.17708708835464046 0.09065723425607176
-0.1954803182178291 0.10136980243607896
-0.1954803182178291 0.16564521151612213
-0.1954803182178291 0.26205832513618693
-0.12190739876507457 0.37989657511626607
-0.011548019585942766 0.49773482509634526
0.1907775089091322 0.5727228023563956
0.49426580165174466 0.540585097816374
0.8805236287787059 0.43345941601630206
1.2575848409740729 0.17635777969612934
1.6622358979642229 -0.19858210660412254
1.9933140355016183 -0.6913602428844536
2.3151955581074195 -1.3234017655048782
2.6370770807132207 -2.1054192426454037
2.8669924540030784 -2.962424697045979
3.032531522771776 -3.776579878726526
3.1061044422245305 -4.430046537706965
3.0693179824981534 -4.751423583107181
2.922172143592644 -4.772848719467196
2.627880465781626 -4.580022492227066
2.2048361789282875 -4.2050826059268145
1.6898257427590058 -3.776579878726526
1.1564220767265354 -3.283801742446195
0.6598048704204423 -2.7588859016258427
0.31033350301985835 -2.244682628985497
0.10800797452478335 -1.805467333605202
0.016041825208840184 -1.4519525836649645
-0.039137864380725716 -1.194850947344792
-0.05753109424391435 -0.980599583744648
-0.0851209390386973 -0.766348220144504
-0.1403006286282632 -0.5949471292643889
-0.250660007807395 -0.40212090202425926
-0.3610193869865268 -0.19858210660412254
-0.4805753810972529 -0.016468447544000207
-0.5357550706868188 0.09065723425607176
-0.5633449154816018 0.16564521151612213
-0.5633449154816018 0.17635777969612934
-0.5357550706868188 0.17635777969612934
-0.5173618408236302 0.16564521151612213
-0.5081652258920358 0.16564521151612213
-0.49896861096044154 0.17635777969612934
-0.49896861096044154 0.2406331887761725
-0.5081652258920358 0.26205832513618693
-0.5173618408236302 0.3049085978562157
-0.5173618408236302 0.3263337342162301
-0.5265584557552245 0.36918400693625886
-0.5265584557552245 0.3477588705762445
-0.5449516856184131 0.37989657511626607
-0.5633449154816018 0.37989657511626607
-0.5817381453447904 0.3906091432962733
-0.6093279901395734 0.43345941601630206
-0.627721220002762 0.41203427965628764
-0.627721220002762 0.41203427965628764
-0.6185246050711677 0.43345941601630206
-0.6369178349343563 0.47630968873633084
-0.6093279901395734 0.48702225691633805
-0.600131375207979 0.5298725296363668
-0.5817381453447904 0.5298725296363668
-0.5817381453447904 0.540585097816374
-0.5633449154816018 0.540585097816374
-0.5633449154816018 0.540585097816374
-0.5817381453447904 0.5620102341763884
-0.5909347602763847 0.5620102341763884
-0.6185246050711677 0.5512976659963812
-0.627721220002762 0.59414793871641
-0.6461144498659506 0.5834353705364028
-0.6737042946607336 0.59414793871641
-0.6645076797291393 0.6262856432564315
-0.6645076797291393 0.6691359159764604
-0.7012941394555166 0.6798484841564676
-0.6920975245239223 0.6798484841564676
-0.7012941394555166 0.701273620516482
-0.6920975245239223 0.7119861886964892
-0.7196873693187051 0.7119861886964892
-0.7104907543871108 0.7119861886964892
-0.7380805991818938 0.7119861886964892
-0.7380805991818938 0.7119861886964892
-0.7564738290450824 0.7655490295965252
-0.802456903703054 0.7869741659565396
-0.8116535186346483 0.8191118704965611
-0.8392433634294313 0.8512495750365827
-0.8576365932926199 0.9048124159366188
-0.8484399783610256 0.9476626886566475
-0.8760298231558086 0.9262375522966331
-0.9220128978137802 0.9369501204766403
-0.949602742608563 0.9476626886566475
-0.9863892023349403 0.8940998477566116
-1.032372276992912 0.9155249841166259
-1.0507655068561006 0.9262375522966331
-1.0691587367192892 0.9583752568366547
-1.1243384263088552 1.0012255295566834
-1.151928271103638 1.0655009386367267
-1.1427316561720438 1.0976386431767482
-1.1611248860352323 1.12977634771677
-1.179518115898421 1.12977634771677
-1.234697805487987 1.1083512113567555
-1.207107960693204 1.086926074996741
-1.2438944204195812 1.1083512113567555
-1.2530910353511755 1.0976386431767482
-1.2438944204195812 1.0976386431767482
-1.234697805487987 1.0762135068167338
-1.2163045756247983 1.086926074996741
-1.1703215009668266 1.1190637795367626
-1.151928271103638 1.1190637795367626
-1.151928271103638 1.12977634771677
-1.1151418113772609 1.1512014840767841
-1.1151418113772609 1.1190637795367626
-1.1059451964456664 1.086926074996741
-1.096748581514072 1.0762135068167338
-1.0691587367192892 1.0655009386367267
-1.0691587367192892 0.9905129613766763
-1.0139790471297232 0.9690878250166619
-0.9679959724717517 0.9262375522966331
-0.9036196679505915 0.8940998477566116
-0.8668332082242142 0.8405370068565755
-0.802456903703054 0.8191118704965611
-0.7564738290450824 0.7976867341365468
-0.6737042946607336 0.7655490295965252
-0.6185246050711677 0.7226987568764963
-0.5725415304131961 0.6584233477964532
-0.5081652258920358 0.59414793871641
-0.4621821512340643 0.5298725296363668
-0.4070024616444984 0.46559712055632363
-0.3978058467129041 0.41203427965628764
-0.3978058467129041 0.3370463023962373
-0.38860923178130974 0.3263337342162301
-0.3518227720549325 0.3263337342162301
-0.33342954219174387 0.2941960296762085
-0.2966430824653666 0.3049085978562157
-0.250660007807395 0.2834834614962013
-0.250660007807395 0.26205832513618693
-0.21387354808101774 0.2406331887761725
-0.21387354808101774 0.2084954842361509
-0.21387354808101774 0.16564521151612213
-0.20467693314942342 0.14422007515610774
-0.20467693314942342 0.14422007515610774
-0.20467693314942342 0.10136980243607896
-0.1954803182178291 0.10136980243607896
-0.20467693314942342 0.14422007515610774
-0.20467693314942342 0.14422007515610774
-0.21387354808101774 0.17635777969612934
-0.21387354808101774 0.2084954842361509
-0.22307016301261204 0.21920805241615812
-0.22307016301261204 0.2084954842361509
-0.23226677794420636 0.15493264333611495
-0.22307016301261204 0.12279493879609335
-0.22307016301261204 0.12279493879609335
-0.22307016301261204 0.13350750697610056
-0.23226677794420636 0.14422007515610774
-0.20467693314942342 0.15493264333611495
-0.1954803182178291 0.13350750697610056
-0.1954803182178291 0.17635777969612934
-0.17708708835464046 0.2406331887761725
-0.16789047342304614 0.21920805241615812
-0.14949724355985752 0.2084954842361509
-0.16789047342304614 0.18707034787613652
-0.14949724355985752 0.19778291605614373
-0.16789047342304614 0.16564521151612213
-0.17708708835464046 0.19778291605614373
-0.1954803182178291 0.18707034787613652
-0.23226677794420636 0.18707034787613652
-0.22307016301261204 0.18707034787613652
-0.21387354808101774 0.18707034787613652
-0.17708708835464046 0.2513457569561797
-0.15869385849145184 0.2406331887761725
-0.1403006286282632 0.2727708933161941
-0.13110401369666888 0.2406331887761725
-0.14949724355985752 0.2513457569561797
-0.14949724355985752 0.2406331887761725
-0.15869385849145184 0.2299206205961653
-0.1403006286282632 0.26205832513618693
-0.10351416890188593 0.2834834614962013
-0.05753109424391435 0.36918400693625886
-0.020744634517537084 0.44417198419630927
0.03443505507202882 0.48702225691633805
0.07122151479840609 0.5298725296363668
0.08961474466159472 0.5834353705364028
0.08961474466159472 0.5727228023563956
0.08961474466159472 0.5727228023563956
0.10800797452478335 0.5727228023563956
0.14479443425116062 0.5191599614563597
0.20917073877232084 0.5084473932763525
0.27354704329348106 0.42274684783629485
0.31953011795145264 0.3584714387562517
0.3563165776778299 0.2299206205961653
0.38390642247261286 0.2084954842361509
0.32872673288304693 0.15493264333611495
0.301136888088264 0.12279493879609335
0.31033350301985835 0.13350750697610056
0.2919402731566697 0.16564521151612213
0.301136888088264 0.16564521151612213
0.301136888088264 0.16564521151612213
0.301136888088264 0.11208237061608615
0.28274365822507536 0.06923209789605736
0.28274365822507536 -0.016468447544000207
0.2459571984986981 -0.0378935839040146
0.19997412384072652 -0.0700312884440362
0.14479443425116062 -0.09145642480405058
0.09881135959318904 -0.0700312884440362
0.07122151479840609 -0.016468447544000207
0.0252384401404345 0.026381825176028578
0.0252384401404345 0.09065723425607176
-0.0299412494491314 0.11208237061608615
-0.06672770917550866 0.11208237061608615
-0.10351416890188593 0.06923209789605736
-0.14949724355985752 0.09065723425607176
-0.1954803182178291 0.10136980243607896
-0.24146339287580068 0.11208237061608615
-0.2598566227389893 0.09065723425607176
-0.2966430824653666 0.07994466607606457
-0.3058396973969609 0.06923209789605736
-0.2598566227389893 0.05851952971605017
-0.21387354808101774 0.047806961536042976
-0.20467693314942342 0.047806961536042976
-0.1954803182178291 0.037094393356035774
-0.20467693314942342 0.047806961536042976
-0.21387354808101774 0.037094393356035774
-0.20467693314942342 0.026381825176028578
-0.22307016301261204 0.047806961536042976
-0.23226677794420636 0.047806961536042976
-0.22307016301261204 0.07994466607606457
-0.1954803182178291 0.17635777969612934
-0.1403006286282632 0.3049085978562157
-0.04833447931232003 0.4548845523763165
0.12640120438797198 0.5620102341763884
0.39310303740420716 0.5834353705364028
0.7517710197363855 0.43345941601630206
1.110439002068564 0.17635777969612934
1.4783035993323366 -0.23071981114414414
1.809381736869732 -0.7234979474244752
2.122066644543939 -1.3448269018648926
2.4163583223549567 -2.073281538105382
2.7014533852343807 -2.9838498334059937
2.9313687585242385 -3.8408552878065696
3.087711212361342 -4.547884787687044
3.115301057156125 -5.019237787607361
3.023334907840182 -5.126363469407433
2.8761890689346727 -4.9871000830673395
2.6186838508500316 -4.708573310387153
2.2048361789282875 -4.365771128626922
1.7358088174169775 -3.9908312423266703
1.2207983812476957 -3.594466219666404
0.7701642495995742 -3.1338257879260945
0.4482827269937731 -2.6838979243657923
0.20917073877232084 -2.2018323562654682
0.09881135959318904 -1.805467333605202
0.0252384401404345 -1.419814879124943
-0.0023514046543484488 -1.1305755382647487
-0.05753109424391435 -0.9377493110246191
-0.09431755397029161 -0.7556356519644968
-0.16789047342304614 -0.5628094247243672
-0.27824985260217794 -0.3806957656642449
-0.38860923178130974 -0.25214494750415856
-0.4713787661656586 -0.10216899298405778
-0.5081652258920358 0.026381825176028578
-0.5449516856184131 0.10136980243607896
-0.49896861096044154 0.14422007515610774
-0.5081652258920358 0.15493264333611495
-0.49896861096044154 0.18707034787613652
-0.5173618408236302 0.19778291605614373
-0.5357550706868188 0.26205832513618693
-0.5081652258920358 0.2941960296762085
-0.5081652258920358 0.3049085978562157
-0.5449516856184131 0.3477588705762445
-0.5357550706868188 0.3477588705762445
-0.5449516856184131 0.3584714387562517
-0.5449516856184131 0.3370463023962373
-0.5541483005500074 0.3584714387562517
-0.5357550706868188 0.3477588705762445
-0.5357550706868188 0.3477588705762445
-0.5357550706868188 0.4013217114762805
-0.5449516856184131 0.44417198419630927
-0.5817381453447904 0.47630968873633084
-0.5633449154816018 0.49773482509634526
-0.5725415304131961 0.49773482509634526
-0.5633449154816018 0.5191599614563597
-0.5817381453447904 0.5298725296363668
-0.5909347602763847 0.5298725296363668
-0.5725415304131961 0.5298725296363668
-0.5817381453447904 0.5298725296363668
-0.5909347602763847 0.5620102341763884
-0.600131375207979 0.5620102341763884
-0.6093279901395734 0.6048605068964172
-0.6185246050711677 0.647710779616446
-0.627721220002762 0.6691359159764604
-0.6093279901395734 0.7119861886964892
-0.600131375207979 0.7334113250565035
-0.6369178349343563 0.7334113250565035
-0.6461144498659506 0.7655490295965252
-0.6737042946607336 0.7334113250565035
-0.655311064797545 0.7441238932365107
-0.6645076797291393 0.7655490295965252
-0.6737042946607336 0.7976867341365468
-0.6920975245239223 0.8512495750365827
-0.7012941394555166 0.8726747113965971
-0.7288839842502994 0.9155249841166259
-0.7380805991818938 0.9583752568366547
-0.7288839842502994 0.9690878250166619
-0.7656704439766767 0.9798003931966691
-0.7656704439766767 1.0119380977366907
-0.8116535186346483 1.0333632340967052
-0.8484399783610256 1.0762135068167338
-0.8576365932926199 1.0655009386367267
-0.8760298231558086 1.1190637795367626
-0.9220128978137802 1.1190637795367626
-0.9220128978137802 1.1726266204367986
-0.9312095127453744 1.194051756796813
-0.949602742608563 1.2261894613368347
-0.9312095127453744 1.247614597696849
-0.9128162828821859 1.2690397340568633
-0.9220128978137802 1.301177438596885
-0.9128162828821859 1.2904648704168777
-0.9220128978137802 1.3226025749568995
-0.9404061276769687 1.3118900067768922
-0.9587993575401574 1.3118900067768922
-0.9863892023349403 1.2904648704168777
-0.977192587403346 1.3226025749568995
-0.949602742608563 1.301177438596885
-0.9220128978137802 1.2583271658768562
-0.8576365932926199 1.2690397340568633
-0.8208501335662426 1.2797523022368706
-0.7656704439766767 1.2690397340568633
-0.7196873693187051 1.2047643249768203
-0.6920975245239223 1.1619140522567915
-0.6737042946607336 1.0976386431767482
-0.655311064797545 1.0333632340967052
-0.6461144498659506 0.9690878250166619
-0.627721220002762 0.9262375522966331
-0.600131375207979 0.8726747113965971
-0.5541483005500074 0.754836461416518
-0.5081652258920358 0.7441238932365107
-0.45298553630246996 0.6905610523364748
-0.4070024616444984 0.647710779616446
-0.33342954219174387 0.6048605068964172
-0.3058396973969609 0.5620102341763884
-0.3058396973969609 0.540585097816374
-0.2966430824653666 0.43345941601630206
-0.3150363123285552 0.41203427965628764
-0.3242329272601495 0.3263337342162301
-0.3058396973969609 0.2834834614962013
-0.3150363123285552 0.26205832513618693
-0.2966430824653666 0.2513457569561797
-0.3058396973969609 0.21920805241615812
-0.2874464675337723 0.2513457569561797
-0.2874464675337723 0.2513457569561797
-0.250660007807395 0.2513457569561797
-0.24146339287580068 0.2299206205961653
-0.23226677794420636 0.2084954842361509
-0.22307016301261204 0.17635777969612934
-0.23226677794420636 0.19778291605614373
-0.22307016301261204 0.15493264333611495
-0.22307016301261204 0.17635777969612934
-0.24146339287580068 0.16564521151612213
-0.2598566227389893 0.17635777969612934
-0.2598566227389893 0.16564521151612213
-0.24146339287580068 0.17635777969612934
-0.23226677794420636 0.15493264333611495
-0.21387354808101774 0.15493264333611495
-0.20467693314942342 0.14422007515610774
-0.21387354808101774 0.15493264333611495
-0.23226677794420636 0.15493264333611495
-0.23226677794420636 0.12279493879609335
-0.24146339287580068 0.13350750697610056
-0.23226677794420636 0.10136980243607896
-0.23226677794420636 0.13350750697610056
-0.22307016301261204 0.12279493879609335
-0.24146339287580068 0.13350750697610056
-0.24146339287580068 0.14422007515610774
-0.2598566227389893 0.14422007515610774
-0.250660007807395 0.14422007515610774
-0.24146339287580068 0.12279493879609335
-0.21387354808101774 0.14422007515610774
-0.22307016301261204 0.14422007515610774
-0.1954803182178291 0.14422007515610774
-0.24146339287580068 0.11208237061608615
-0.22307016301261204 0.06923209789605736
-0.24146339287580068 0.06923209789605736
-0.250660007807395 0.09065723425607176
-0.250660007807395 0.11208237061608615
-0.24146339287580068 0.14422007515610774
-0.22307016301261204 0.15493264333611495
-0.21387354808101774 0.15493264333611495
-0.21387354808101774 0.17635777969612934
-0.17708708835464046 0.16564521151612213
-0.15869385849145184 0.18707034787613652
-0.1403006286282632 0.18707034787613652
-0.12190739876507457 0.2299206205961653
-0.11271078383348025 0.31562116603622287
-0.05753109424391435 0.4013217114762805
-0.039137864380725716 0.48702225691633805
0.006845210277245868 0.47630968873633084
0.0252384401404345 0.49773482509634526
0.03443505507202882 0.48702225691633805
0.06202489986681177 0.49773482509634526
0.0804181297300004 0.46559712055632363
0.1355978193195663 0.3906091432962733
0.18158089397753788 0.3370463023962373
0.2643504283618867 0.2513457569561797
0.28274365822507536 0.18707034787613652
0.2919402731566697 0.14422007515610774
0.28274365822507536 0.11208237061608615
0.2551538134302924 0.06923209789605736
0.21836735370391516 0.06923209789605736
0.21836735370391516 0.037094393356035774
0.21836735370391516 0.07994466607606457
0.21836735370391516 0.047806961536042976
0.21836735370391516 0.047806961536042976
0.2643504283618867 0.004956688816014186
0.23676058356710378 -0.0378935839040146
0.22756396863550946 -0.0700312884440362
0.17238427904594356 -0.14501926570408658
0.12640120438797198 -0.15573183388409376
0.05282828493521745 -0.16644440206410097
-0.020744634517537084 -0.15573183388409376
-0.06672770917550866 -0.08074385662404339
-0.0851209390386973 -0.0378935839040146
-0.0851209390386973 -0.0378935839040146
-0.07592432410710298 0.015669256996021383
-0.10351416890188593 0.037094393356035774
-0.15869385849145184 0.037094393356035774
-0.17708708835464046 0.015669256996021383
-0.23226677794420636 -0.00575587936399301
-0.3058396973969609 -0.00575587936399301
-0.3610193869865268 -0.027181015724007405
-0.38860923178130974 -0.048606152084021796
-0.37941261684971544 -0.027181015724007405
-0.34262615712333816 -0.016468447544000207
-0.2874464675337723 0.026381825176028578
-0.2598566227389893 0.037094393356035774
-0.24146339287580068 0.026381825176028578
-0.2598566227389893 0.047806961536042976
-0.2598566227389893 0.026381825176028578
-0.250660007807395 0.047806961536042976
-0.26905323767058364 0.015669256996021383
-0.26905323767058364 -0.016468447544000207
-0.3058396973969609 -0.00575587936399301
-0.27824985260217794 -0.016468447544000207
-0.2874464675337723 0.026381825176028578
-0.26905323767058364 0.09065723425607176
-0.21387354808101774 0.18707034787613652
-0.16789047342304614 0.3049085978562157
-0.039137864380725716 0.44417198419630927
0.10800797452478335 0.5620102341763884
0.3379233478146413 0.5512976659963812
0.650608255488848 0.43345941601630206
0.9816863930262434 0.17635777969612934
1.3403543753584217 -0.20929467478412975
1.63464605316944 -0.6377974019844176
1.928937730980458 -1.152000674624763
2.214032793859882 -1.7733296290651805
2.5175210866024944 -2.57677224256572
2.747436459892352 -3.4230651287862885
2.940565373455833 -4.194370037746807
3.032531522771776 -4.783561287647203
3.0141382929085876 -5.072800628507397
2.857795839071484 -5.083513196687404
2.6370770807132207 -4.912112105807289
2.324392173039014 -4.633585333127102
1.9381343459120524 -4.301495719546879
1.459910369469148 -3.9051306968866126
1.0092762378210265 -3.444490265146303
0.6046251808308765 -2.962424697045979
0.31033350301985835 -2.4267962880456193
0.11720458945637767 -1.9018804472252668
-0.020744634517537084 -1.5376531291050222
-0.05753109424391435 -1.2377012200648205
-0.06672770917550866 -1.0341624246446839
-0.13110401369666888 -0.8520487655845616
-0.1954803182178291 -0.6913602428844536
-0.2874464675337723 -0.55209685654436
-0.4161990765760927 -0.3806957656642449
-0.5081652258920358 -0.24143237932415135
-0.600131375207979 -0.09145642480405058
-0.6093279901395734 -0.00575587936399301
-0.627721220002762 0.09065723425607176
-0.5909347602763847 0.16564521151612213
-0.5817381453447904 0.18707034787613652
-0.5541483005500074 0.21920805241615812
-0.5541483005500074 0.21920805241615812
-0.5541483005500074 0.2513457569561797
-0.5817381453447904 0.26205832513618693
-0.600131375207979 0.2834834614962013
-0.6185246050711677 0.2834834614962013
-0.627721220002762 0.2941960296762085
-0.6461144498659506 0.2941960296762085
-0.6461144498659506 0.2941960296762085
-0.6461144498659506 0.3477588705762445
-0.6461144498659506 0.36918400693625886
-0.6369178349343563 0.41203427965628764
-0.627721220002762 0.42274684783629485
-0.5909347602763847 0.47630968873633084
-0.6185246050711677 0.5084473932763525
-0.6185246050711677 0.48702225691633805
-0.6369178349343563 0.48702225691633805
-0.6369178349343563 0.46559712055632363
-0.655311064797545 0.47630968873633084
-0.6645076797291393 0.5191599614563597
-0.6920975245239223 0.5298725296363668
-0.6920975245239223 0.5620102341763884
-0.6645076797291393 0.59414793871641
-0.627721220002762 0.6262856432564315
-0.627721220002762 0.647710779616446
-0.655311064797545 0.701273620516482
-0.6645076797291393 0.6798484841564676
-0.6920975245239223 0.7226987568764963
-0.7380805991818938 0.7119861886964892
-0.7656704439766767 0.7226987568764963
-0.774867058908271 0.7441238932365107
-0.7932602887714597 0.7655490295965252
-0.774867058908271 0.8405370068565755
-0.7840636738398654 0.8726747113965971
-0.774867058908271 0.9048124159366188
-0.7932602887714597 0.9262375522966331
-0.8392433634294313 0.9476626886566475
-0.8668332082242142 0.9583752568366547
-0.8852264380874029 1.0012255295566834
-0.8852264380874029 1.0119380977366907
-0.9220128978137802 1.0655009386367267
-0.9587993575401574 1.0655009386367267
-0.9863892023349403 1.0655009386367267
-0.9955858172665346 1.0976386431767482
-1.0139790471297232 1.0976386431767482
-1.0139790471297232 1.140488915896777
-1.0231756620613177 1.1833391886168059
-1.0139790471297232 1.194051756796813
-1.0231756620613177 1.2369020295168418
-1.0231756620613177 1.2369020295168418
-1.032372276992912 1.2690397340568633
-1.0415688919245063 1.2583271658768562
-1.0599621217876949 1.2690397340568633
-1.0691587367192892 1.2690397340568633
-1.0599621217876949 1.2369020295168418
-1.0415688919245063 1.2154768931568274
-1.004782432198129 1.2047643249768203
-0.977192587403346 1.194051756796813
-0.9220128978137802 1.1833391886168059
-0.8944230530189972 1.1726266204367986
-0.8484399783610256 1.1512014840767841
-0.8116535186346483 1.1190637795367626
-0.774867058908271 1.086926074996741
-0.7380805991818938 0.9905129613766763
-0.6920975245239223 0.9048124159366188
-0.6461144498659506 0.8298244386765683
-0.6185246050711677 0.754836461416518
-0.5909347602763847 0.7119861886964892
-0.5633449154816018 0.6584233477964532
-0.5081652258920358 0.6262856432564315
-0.4805753810972529 0.59414793871641
-0.4345923064392813 0.540585097816374
-0.38860923178130974 0.47630968873633084
-0.34262615712333816 0.42274684783629485
-0.3242329272601495 0.3584714387562517
-0.2966430824653666 0.2834834614962013
-0.3058396973969609 0.2513457569561797
-0.27824985260217794 0.18707034787613652
-0.26905323767058364 0.15493264333611495
-0.26905323767058364 0.17635777969612934
-0.24146339287580068 0.16564521151612213
-0.24146339287580068 0.18707034787613652
-0.21387354808101774 0.14422007515610774
-0.21387354808101774 0.13350750697610056
-0.18628370328623478 0.15493264333611495
-0.17708708835464046 0.16564521151612213
-0.16789047342304614 0.14422007515610774
-0.1403006286282632 0.13350750697610056
-0.10351416890188593 0.12279493879609335
-0.0851209390386973 0.10136980243607896
-0.06672770917550866 0.07994466607606457
-0.0299412494491314 0.06923209789605736
0.03443505507202882 0.10136980243607896
0.12640120438797198 0.13350750697610056
0.21836735370391516 0.13350750697610056
0.3379233478146413 0.14422007515610774
0.4482827269937731 0.15493264333611495
0.5586421061729049 0.12279493879609335
0.6414116405572537 0.11208237061608615
0.7885574794627628 0.07994466607606457
0.9448999332998662 0.026381825176028578
1.0920457722053751 -0.00575587936399301
1.1840119215213185 -0.05931872026402899
1.2391916111108843 -0.10216899298405778
1.1288322319317525 -0.16644440206410097
0.8253439391891401 -0.24143237932415135
0.32872673288304693 -0.3057077884041945
-0.3242329272601495 -0.3914083338442521
-1.0599621217876949 -0.4128334702042665
-1.7956913163152401 -0.3806957656642449
-2.365881442074088 -0.28428265204418013
-2.8257121886538035 -0.18786953842411536
-3.156790326191199 -0.17715697024410815
-3.3683124696178686 -0.17715697024410815
-3.5706379981129435 -0.23071981114414414
-3.7453736818132355 -0.24143237932415135
-3.8925195207187446 -0.18786953842411536
-4.002878899897876 -0.08074385662404339
-4.058058589487442 0.13350750697610056
-4.067255204419037 0.4013217114762805
-3.993682284966282 0.7119861886964892
-3.938502595376716 1.0333632340967052
-3.7821601415396127 1.365452847676928
-3.616621072770915 1.6975424612571512
-3.4602786189338115 2.018919506657367
-3.2855429352335195 2.2331708702575113
-3.064824176875256 2.425997097497641
-2.8716952633117754 2.565260483837734
-2.687762964679889 2.6830987338178134
-2.54061712577438 2.768799279257871
-2.4210611316636537 2.8544998246979287
-2.2463254479633616 2.9080626655979644
-2.025606689605098 2.8866375292379503
-1.758904856588863 2.7259490065378422
-1.4830064086410335 2.340296552057583
-1.1979113457616095 1.7725304385172016
-1.004782432198129 1.0012255295566834
-0.8852264380874029 0.19778291605614373
-0.8484399783610256 -0.46639631110430246
-0.8116535186346483 -0.8841864701245832
-0.7656704439766767 -0.9913121519246552
-0.6185246050711677 -0.9056116064845975
-0.3978058467129041 -0.7449230837844896
-0.0851209390386973 -0.5949471292643889
0.2459571984986981 -0.5092465838243313
0.49426580165174466 -0.4771088792843097
0.6873947152152253 -0.4449711747442881
0.7701642495995742 -0.46639631110430246
0.7333777898731969 -0.49853401564432404
0.6965913301468196 -0.4878214474643169
0.6138217957624708 -0.45568374292429525
0.5770353360360935 -0.40212090202425926
0.5678387211044992 -0.3271329247642089
0.5862319509676879 -0.3057077884041945
0.6138217957624708 -0.3057077884041945
0.6414116405572537 -0.2735700838641729
0.6965913301468196 -0.29499522022418734
0.7333777898731969 -0.3057077884041945
0.7517710197363855 -0.3164203565842017
0.7609676346679798 -0.34855806112422333
0.7609676346679798 -0.3806957656642449
0.7793608645311685 -0.4235460383842737
0.7793608645311685 -0.4128334702042665
0.8161473242575458 -0.3914083338442521
0.8345405541207344 -0.40212090202425926
0.8437371690523287 -0.3806957656642449
0.8805236287787059 -0.3699831974842377
0.8897202437103002 -0.3699831974842377
0.9173100885050832 -0.3699831974842377
0.9357033183682718 -0.3914083338442521
0.9448999332998662 -0.3914083338442521
1.000079622889432 -0.4235460383842737
1.0368660826158094 -0.4449711747442881
1.027669467684215 -0.4235460383842737
1.0460626975474037 -0.45568374292429525
1.0644559274105923 -0.4449711747442881
1.0920457722053751 -0.4342586065642809
1.1196356170001582 -0.4449711747442881
1.1656186916581297 -0.4449711747442881
1.1932085364529128 -0.4235460383842737
1.22999499617929 -0.4342586065642809
1.285174685768856 -0.45568374292429525
1.3127645305636388 -0.4771088792843097
1.3311577604268274 -0.4771088792843097
1.3587476052216105 -0.49853401564432404
1.3771408350847991 -0.5199591520043384
1.3955340649479877 -0.5735219929043744
1.404730679879582 -0.6056596974443961
1.4691069844007423 -0.6056596974443961
1.4966968291955252 -0.5842345610843817
1.5334832889219026 -0.5949471292643889
1.5610731337166854 -0.5628094247243672
1.5886629785114683 -0.5735219929043744
1.607056208374657 -0.5735219929043744
1.5978595934430626 -0.5628094247243672
1.607056208374657 -0.5949471292643889
1.5886629785114683 -0.6163722656244032
1.5702697486482797 -0.6377974019844176
1.5334832889219026 -0.659222538344432
1.5058934441271195 -0.659222538344432
1.459910369469148 -0.6485099701644248
1.4323205246743649 -0.6699351065244392
1.3955340649479877 -0.659222538344432
1.3679442201532048 -0.6485099701644248
1.3127645305636388 -0.659222538344432
1.2759780708372617 -0.6485099701644248
1.2116017663161014 -0.6485099701644248
1.1656186916581297 -0.659222538344432
1.0920457722053751 -0.6485099701644248
1.027669467684215 -0.6806476747044464
0.9724897780946491 -0.6163722656244032
0.9173100885050832 -0.6163722656244032
0.8621303989155173 -0.5735219929043744
0.8253439391891401 -0.5199591520043384
0.7609676346679798 -0.49853401564432404
0.7149845600100082 -0.45568374292429525
0.6690014853520366 -0.4235460383842737
0.6138217957624708 -0.40212090202425926
0.5402488763097162 -0.3378454929442161
0.475872571788556 -0.3057077884041945
0.39310303740420716 -0.2628575156841657
0.32872673288304693 -0.23071981114414414
0.28274365822507536 -0.17715697024410815
0.2459571984986981 -0.13430669752407937
0.19997412384072652 -0.08074385662404339
0.17238427904594356 -0.0378935839040146
0.1355978193195663 0.015669256996021383
0.09881135959318904 0.05851952971605017
0.08961474466159472 0.07994466607606457
0.06202489986681177 0.09065723425607176
0.03443505507202882 0.09065723425607176
0.006845210277245868 0.15493264333611495
-0.020744634517537084 0.15493264333611495
-0.039137864380725716 0.18707034787613652
-0.05753109424391435 0.13350750697610056
-0.0851209390386973 0.13350750697610056
-0.12190739876507457 0.10136980243607896
-0.12190739876507457 0.12279493879609335
-0.11271078383348025 0.16564521151612213
-0.09431755397029161 0.19778291605614373
-0.07592432410710298 0.2084954842361509
-0.0851209390386973 0.18707034787613652
-0.0851209390386973 0.19778291605614373
-0.10351416890188593 0.15493264333611495
-0.13110401369666888 0.14422007515610774
-0.13110401369666888 0.13350750697610056
-0.15869385849145184 0.12279493879609335
-0.14949724355985752 0.13350750697610056
-0.15869385849145184 0.11208237061608615
-0.1403006286282632 0.16564521151612213
-0.09431755397029161 0.17635777969612934
-0.05753109424391435 0.18707034787613652
-0.05753109424391435 0.19778291605614373
-0.07592432410710298 0.18707034787613652
-0.10351416890188593 0.16564521151612213
-0.11271078383348025 0.13350750697610056
-0.14949724355985752 0.11208237061608615
-0.16789047342304614 0.10136980243607896
-0.17708708835464046 0.06923209789605736
-0.16789047342304614 0.09065723425607176
-0.15869385849145184 0.12279493879609335
-0.14949724355985752 0.13350750697610056
-0.1403006286282632 0.15493264333611495
-0.1403006286282632 0.16564521151612213
-0.13110401369666888 0.15493264333611495
-0.1403006286282632 0.15493264333611495
-0.15869385849145184 0.14422007515610774
-0.15869385849145184 0.12279493879609335
-0.17708708835464046 0.10136980243607896
-0.17708708835464046 0.07994466607606457
-0.18628370328623478 0.10136980243607896
-0.22307016301261204 0.09065723425607176
-0.21387354808101774 0.10136980243607896
-0.21387354808101774 0.10136980243607896
-0.1954803182178291 0.13350750697610056
-0.20467693314942342 0.15493264333611495
-0.20467693314942342 0.14422007515610774
-0.20467693314942342 0.12279493879609335
-0.24146339287580068 0.12279493879609335
-0.250660007807395 0.11208237061608615
-0.23226677794420636 0.09065723425607176
-0.21387354808101774 0.07994466607606457
-0.22307016301261204 0.06923209789605736
-0.22307016301261204 0.047806961536042976
-0.21387354808101774 0.05851952971605017
-0.20467693314942342 0.037094393356035774
-0.23226677794420636 0.06923209789605736
-0.24146339287580068 0.05851952971605017
-0.250660007807395 0.09065723425607176
-0.24146339287580068 0.11208237061608615
-0.23226677794420636 0.12279493879609335
-0.21387354808101774 0.10136980243607896
-0.23226677794420636 0.07994466607606457
-0.20467693314942342 0.05851952971605017
-0.22307016301261204 0.026381825176028578
-0.23226677794420636 0.037094393356035774
-0.22307016301261204 0.026381825176028578
-0.21387354808101774 0.026381825176028578
-0.18628370328623478 0.07994466607606457
-0.16789047342304614 0.05851952971605017
-0.17708708835464046 0.10136980243607896
-0.15869385849145184 0.07994466607606457
-0.1954803182178291 0.07994466607606457
-0.17708708835464046 0.047806961536042976
-0.20467693314942342 0.037094393356035774
-0.21387354808101774 -0.016468447544000207
-0.2598566227389893 -0.016468447544000207
-0.2598566227389893 -0.016468447544000207
-0.26905323767058364 -0.00575587936399301
-0.26905323767058364 0.015669256996021383
-0.27824985260217794 0.037094393356035774
-0.24146339287580068 0.047806961536042976
-0.23226677794420636 0.05851952971605017
-0.23226677794420636 0.06923209789605736
-0.20467693314942342 0.026381825176028578
-0.24146339287580068 0.037094393356035774
-0.2598566227389893 0.047806961536042976
-0.250660007807395 0.037094393356035774
-0.24146339287580068 0.015669256996021383
-0.22307016301261204 0.015669256996021383
-0.20467693314942342 0.037094393356035774
-0.20467693314942342 0.015669256996021383
-0.16789047342304614 0.015669256996021383
-0.18628370328623478 0.047806961536042976
-0.20467693314942342 0.047806961536042976
-0.21387354808101774 0.05851952971605017
-0.2598566227389893 0.05851952971605017
-0.2598566227389893 0.037094393356035774
-0.27824985260217794 0.015669256996021383
-0.250660007807395 0.015669256996021383
-0.21387354808101774 0.004956688816014186
-0.18628370328623478 0.047806961536042976
-0.14949724355985752 0.047806961536042976
-0.14949724355985752 0.09065723425607176
-0.09431755397029161 0.11208237061608615
-0.06672770917550866 0.19778291605614373
-0.04833447931232003 0.2406331887761725
-0.011548019585942766 0.3477588705762445
-0.0023514046543484488 0.3477588705762445
0.0252384401404345 0.3906091432962733
0.016041825208840184 0.3477588705762445
0.0252384401404345 0.3370463023962373
0.006845210277245868 0.3263337342162301
0.043631670003623134 0.3370463023962373
0.08961474466159472 0.31562116603622287
0.16318766411434926 0.3263337342162301
0.2551538134302924 0.3049085978562157
0.32872673288304693 0.2299206205961653
0.3747098075410185 0.16564521151612213
0.38390642247261286 0.10136980243607896
0.31953011795145264 0.037094393356035774
0.27354704329348106 0.026381825176028578
0.21836735370391516 -0.00575587936399301
0.20917073877232084 0.004956688816014186
0.19997412384072652 0.004956688816014186
0.1907775089091322 -0.00575587936399301
0.22756396863550946 -0.016468447544000207
0.23676058356710378 -0.08074385662404339
0.2551538134302924 -0.11288156116406498
0.22756396863550946 -0.13430669752407937
0.18158089397753788 -0.17715697024410815
0.11720458945637767 -0.19858210660412254
0.07122151479840609 -0.17715697024410815
0.006845210277245868 -0.17715697024410815
-0.04833447931232003 -0.14501926570408658
-0.09431755397029161 -0.11288156116406498
-0.1403006286282632 -0.10216899298405778
-0.16789047342304614 -0.09145642480405058
-0.22307016301261204 -0.05931872026402899
-0.2598566227389893 -0.016468447544000207
-0.27824985260217794 -0.027181015724007405
-0.3058396973969609 -0.016468447544000207
-0.3058396973969609 -0.016468447544000207
-0.3150363123285552 -0.0378935839040146
-0.2966430824653666 -0.0700312884440362
-0.2874464675337723 -0.0700312884440362
-0.2874464675337723 -0.08074385662404339
-0.2598566227389893 -0.10216899298405778
-0.2598566227389893 -0.10216899298405778
-0.26905323767058364 -0.11288156116406498
-0.2598566227389893 -0.0700312884440362
-0.2598566227389893 -0.0700312884440362
-0.26905323767058364 -0.027181015724007405
-0.27824985260217794 0.015669256996021383
-0.250660007807395 0.11208237061608615
-0.20467693314942342 0.19778291605614373
-0.11271078383348025 0.31562116603622287
0.11720458945637767 0.4013217114762805
0.4114962672673958 0.37989657511626607
0.7701642495995742 0.2406331887761725
1.1564220767265354 0.015669256996021383
1.5334832889219026 -0.3592706293042305
1.892151271254081 -0.8199110610445399
2.2048361789282875 -1.3769646064049141
2.5083244716709 -2.073281538105382
2.7934195345503237 -2.8660115834259146
2.97735183318221 -3.64802906056644
3.032531522771776 -4.322920855906894
2.97735183318221 -4.740711014927174
2.8394026092082956 -4.901399537627282
2.563504161260466 -4.7942738558272096
2.2048361789282875 -4.569309924047059
1.7174155875537889 -4.2050826059268145
1.174815306589724 -3.8087175832665476
0.650608255488848 -3.2945143106262025
0.2643504283618867 -2.791023606165864
0.0252384401404345 -2.287532901705526
-0.0851209390386973 -1.8161799017852092
-0.1403006286282632 -1.473377720024979
-0.1403006286282632 -1.2162760837048063
-0.16789047342304614 -1.0341624246446839
-0.20467693314942342 -0.8627613337645688
-0.33342954219174387 -0.7020728110644608
-0.425395691507687 -0.5413842883643528
-0.5173618408236302 -0.34855806112422333
-0.600131375207979 -0.18786953842411536
-0.627721220002762 -0.05931872026402899
-0.627721220002762 0.026381825176028578
-0.600131375207979 0.05851952971605017
-0.5817381453447904 0.06923209789605736
-0.5633449154816018 0.06923209789605736
-0.5633449154816018 0.09065723425607176
-0.5725415304131961 0.13350750697610056
-0.6093279901395734 0.16564521151612213
-0.627721220002762 0.15493264333611495
-0.6645076797291393 0.17635777969612934
-0.6737042946607336 0.16564521151612213
-0.7012941394555166 0.16564521151612213
-0.7104907543871108 0.2084954842361509
-0.7012941394555166 0.2299206205961653
-0.655311064797545 0.26205832513618693
-0.6461144498659506 0.3049085978562157
-0.600131375207979 0.31562116603622287
-0.6093279901395734 0.31562116603622287
-0.6369178349343563 0.3263337342162301
-0.655311064797545 0.3049085978562157
-0.6920975245239223 0.3049085978562157
-0.7196873693187051 0.2941960296762085
-0.7380805991818938 0.3370463023962373
-0.7104907543871108 0.3370463023962373
-0.7104907543871108 0.3906091432962733
-0.6920975245239223 0.41203427965628764
-0.6829009095923279 0.42274684783629485
-0.6737042946607336 0.44417198419630927
-0.7012941394555166 0.46559712055632363
-0.7196873693187051 0.46559712055632363
-0.7380805991818938 0.49773482509634526
-0.7380805991818938 0.49773482509634526
-0.7472772141134881 0.5084473932763525
-0.774867058908271 0.49773482509634526
-0.7840636738398654 0.48702225691633805
-0.802456903703054 0.5298725296363668
-0.802456903703054 0.540585097816374
-0.830046748497837 0.6048605068964172
-0.8208501335662426 0.59414793871641
-0.830046748497837 0.6155730750764244
-0.8484399783610256 0.647710779616446
-0.8760298231558086 0.647710779616446
-0.9128162828821859 0.6691359159764604
-0.949602742608563 0.701273620516482
-0.9679959724717517 0.701273620516482
-1.004782432198129 0.7226987568764963
-1.0415688919245063 0.7226987568764963
-1.0875519665824778 0.7226987568764963
-1.0875519665824778 0.7655490295965252
-1.1059451964456664 0.7976867341365468
-1.1335350412404495 0.7869741659565396
-1.151928271103638 0.8298244386765683
-1.1887147308300152 0.9048124159366188
-1.1979113457616095 0.8833872795766043
-1.2530910353511755 0.9369501204766403
-1.2622876502827698 0.9369501204766403
-1.271484265214364 0.9369501204766403
-1.289877495077553 0.9583752568366547
-1.2990741100091472 0.9262375522966331
-1.3174673398723358 0.9155249841166259
-1.3082707249407415 0.9369501204766403
-1.32666395480393 0.9476626886566475
-1.3082707249407415 0.9583752568366547
-1.2806808801459584 0.9798003931966691
-1.2806808801459584 0.9905129613766763
-1.234697805487987 0.9798003931966691
-1.234697805487987 0.9048124159366188
-1.207107960693204 0.9262375522966331
-1.1887147308300152 0.8726747113965971
-1.151928271103638 0.8512495750365827
-1.1243384263088552 0.7976867341365468
-1.1059451964456664 0.7869741659565396
-1.0139790471297232 0.7762615977765324
-0.949602742608563 0.7441238932365107
-0.8760298231558086 0.6905610523364748
-0.8208501335662426 0.6584233477964532
-0.7656704439766767 0.6262856432564315
-0.6920975245239223 0.5727228023563956
-0.6645076797291393 0.5084473932763525
-0.627721220002762 0.48702225691633805
-0.5909347602763847 0.41203427965628764
-0.5449516856184131 0.3906091432962733
-0.49896861096044154 0.3370463023962373
-0.4713787661656586 0.2834834614962013
-0.44378892137087567 0.26205832513618693
-0.425395691507687 0.2299206205961653
-0.37941261684971544 0.2084954842361509
-0.3610193869865268 0.14422007515610774
-0.34262615712333816 0.15493264333611495
-0.3242329272601495 0.13350750697610056
-0.3058396973969609 0.11208237061608615
-0.27824985260217794 0.05851952971605017
-0.27824985260217794 0.06923209789605736
-0.27824985260217794 0.037094393356035774
-0.2598566227389893 0.015669256996021383
-0.27824985260217794 0.015669256996021383
-0.2874464675337723 0.015669256996021383
-0.2874464675337723 0.026381825176028578
-0.2874464675337723 0.015669256996021383
-0.2966430824653666 0.037094393356035774
-0.3150363123285552 0.05851952971605017
-0.2874464675337723 0.07994466607606457
-0.27824985260217794 0.10136980243607896
-0.26905323767058364 0.07994466607606457
-0.26905323767058364 0.06923209789605736
-0.27824985260217794 0.047806961536042976
-0.2874464675337723 0.004956688816014186
-0.27824985260217794 0.026381825176028578
-0.3058396973969609 0.037094393356035774
-0.26905323767058364 0.05851952971605017
-0.2598566227389893 0.05851952971605017
-0.26905323767058364 0.07994466607606457
-0.2598566227389893 0.07994466607606457
-0.24146339287580068 0.06923209789605736
-0.250660007807395 0.06923209789605736
-0.2598566227389893 0.09065723425607176
-0.27824985260217794 0.07994466607606457
-0.2966430824653666 0.09065723425607176
-0.3150363123285552 0.09065723425607176
-0.3058396973969609 0.09065723425607176
-0.2966430824653666 0.06923209789605736
-0.3058396973969609 0.09065723425607176
-0.27824985260217794 0.09065723425607176
-0.26905323767058364 0.06923209789605736
-0.250660007807395 0.12279493879609335
-0.24146339287580068 0.11208237061608615
-0.23226677794420636 0.15493264333611495
-0.250660007807395 0.16564521151612213
-0.24146339287580068 0.17635777969612934
-0.2598566227389893 0.2084954842361509
-0.24146339287580068 0.21920805241615812
-0.1954803182178291 0.2406331887761725
-0.16789047342304614 0.3049085978562157
-0.12190739876507457 0.3477588705762445
-0.0851209390386973 0.41203427965628764
-0.0299412494491314 0.47630968873633084
-0.0023514046543484488 0.47630968873633084
-0.0023514046543484488 0.47630968873633084
0.03443505507202882 0.49773482509634526
0.043631670003623134 0.47630968873633084
0.08961474466159472 0.44417198419630927
0.11720458945637767 0.42274684783629485
0.1355978193195663 0.37989657511626607
0.1907775089091322 0.2941960296762085
0.22756396863550946 0.2084954842361509
0.27354704329348106 0.16564521151612213
0.2643504283618867 0.10136980243607896
0.2551538134302924 0.047806961536042976
0.22756396863550946 0.047806961536042976
0.22756396863550946 0.047806961536042976
0.21836735370391516 0.037094393356035774
0.20917073877232084 0.026381825176028578
0.22756396863550946 -0.00575587936399301
0.22756396863550946 -0.05931872026402899
0.20917073877232084 -0.08074385662404339
0.18158089397753788 -0.12359412934407217
0.1355978193195663 -0.15573183388409376
0.0804181297300004 -0.16644440206410097
0.03443505507202882 -0.13430669752407937
-0.039137864380725716 -0.10216899298405778
-0.0851209390386973 -0.0700312884440362
-0.10351416890188593 -0.016468447544000207
-0.14949724355985752 0.004956688816014186
-0.14949724355985752 0.004956688816014186
-0.21387354808101774 -0.027181015724007405
-0.2598566227389893 -0.016468447544000207
-0.3058396973969609 -0.027181015724007405
-0.3610193869865268 -0.027181015724007405
-0.38860923178130974 -0.016468447544000207
-0.37941261684971544 -0.027181015724007405
-0.3610193869865268 0.004956688816014186
-0.33342954219174387 -0.016468447544000207
-0.3150363123285552 -0.00575587936399301
-0.2874464675337723 -0.00575587936399301
-0.2874464675337723 -0.016468447544000207
-0.2874464675337723 -0.016468447544000207
-0.27824985260217794 -0.027181015724007405
-0.3242329272601495 -0.08074385662404339
-0.3242329272601495 -0.05931872026402899
-0.34262615712333816 -0.08074385662404339
-0.34262615712333816 -0.0378935839040146
-0.3058396973969609 0.026381825176028578
-0.24146339287580068 0.14422007515610774
-0.14949724355985752 0.2727708933161941
-0.0023514046543484488 0.37989657511626607
0.2551538134302924 0.43345941601630206
0.5586421061729049 0.4013217114762805
0.9540965482314605 0.18707034787613652
1.349550990290016 -0.14501926570408658
1.6990223576906 -0.5949471292643889
2.0209038802964012 -1.1627132428047702
2.3151955581074195 -1.848317606325231
2.6186838508500316 -2.6624727880057777
2.84859922413989 -3.5194782424063535
2.97735183318221 -4.301495719546879
3.023334907840182 -4.804986424007217
2.940565373455833 -5.019237787607361
2.7658296897555408 -4.965674946707325
2.453144782081334 -4.740711014927174
2.03929711015959 -4.376483696806929
1.5610731337166854 -3.980118674146663
1.0184728527526208 -3.5409033787663677
0.5678387211044992 -3.058837810666044
0.2459571984986981 -2.555347106205706
0.016041825208840184 -2.073281538105382
-0.09431755397029161 -1.6769165154451158
-0.1403006286282632 -1.3555394700448997
-0.14949724355985752 -1.0877252655447198
-0.13110401369666888 -0.9056116064845975
-0.17708708835464046 -0.7342105156044824
-0.27824985260217794 -0.55209685654436
-0.37941261684971544 -0.3914083338442521
-0.4805753810972529 -0.23071981114414414
-0.5633449154816018 -0.11288156116406498
-0.627721220002762 -0.016468447544000207
-0.600131375207979 0.047806961536042976
-0.5909347602763847 0.05851952971605017
-0.600131375207979 0.07994466607606457
-0.5817381453447904 0.05851952971605017
-0.5633449154816018 0.09065723425607176
-0.5633449154816018 0.17635777969612934
-0.5817381453447904 0.16564521151612213
-0.6185246050711677 0.21920805241615812
-0.6369178349343563 0.2727708933161941
-0.655311064797545 0.2406331887761725
-0.6645076797291393 0.26205832513618693
-0.6829009095923279 0.2406331887761725
-0.6829009095923279 0.2406331887761725
-0.6645076797291393 0.2406331887761725
-0.655311064797545 0.2834834614962013
-0.6461144498659506 0.31562116603622287
-0.6369178349343563 0.3584714387562517
-0.655311064797545 0.42274684783629485
-0.655311064797545 0.42274684783629485
-0.6829009095923279 0.42274684783629485
-0.6645076797291393 0.41203427965628764
-0.655311064797545 0.44417198419630927
-0.6737042946607336 0.44417198419630927
-0.6737042946607336 0.46559712055632363
-0.7104907543871108 0.47630968873633084
-0.7012941394555166 0.5084473932763525
-0.7196873693187051 0.49773482509634526
-0.7288839842502994 0.5620102341763884
-0.7288839842502994 0.5727228023563956
-0.7104907543871108 0.59414793871641
-0.7196873693187051 0.5834353705364028
-0.7288839842502994 0.59414793871641
-0.7380805991818938 0.6048605068964172
-0.7656704439766767 0.6155730750764244
-0.7564738290450824 0.6155730750764244
-0.7564738290450824 0.6369982114364388
-0.7472772141134881 0.6691359159764604
-0.7380805991818938 0.6905610523364748
-0.7564738290450824 0.7441238932365107
-0.7656704439766767 0.7976867341365468
-0.8116535186346483 0.8298244386765683
-0.830046748497837 0.8940998477566116
-0.8944230530189972 0.8940998477566116
-0.8852264380874029 0.9155249841166259
-0.9220128978137802 0.9155249841166259
-0.9404061276769687 0.9476626886566475
-0.977192587403346 0.9583752568366547
-1.004782432198129 0.9905129613766763
-1.0231756620613177 1.0012255295566834
-1.032372276992912 1.0226506659166978
-1.0599621217876949 1.0333632340967052
-1.0599621217876949 1.0762135068167338
-1.0783553516508835 1.1083512113567555
-1.0783553516508835 1.1619140522567915
-1.0507655068561006 1.1619140522567915
-1.0507655068561006 1.194051756796813
-1.0415688919245063 1.194051756796813
-1.0507655068561006 1.2047643249768203
-1.0875519665824778 1.1833391886168059
-1.1059451964456664 1.1726266204367986
-1.1059451964456664 1.1512014840767841
-1.1059451964456664 1.1512014840767841
-1.0783553516508835 1.1619140522567915
-1.032372276992912 1.1619140522567915
-0.9863892023349403 1.140488915896777
-0.9036196679505915 1.1512014840767841
-0.8760298231558086 1.1190637795367626
-0.830046748497837 1.0762135068167338
-0.7932602887714597 1.0226506659166978
-0.7840636738398654 0.9798003931966691
-0.7932602887714597 0.9155249841166259
-0.7656704439766767 0.8512495750365827
-0.7288839842502994 0.7976867341365468
-0.7104907543871108 0.754836461416518
-0.655311064797545 0.6798484841564676
-0.6185246050711677 0.6262856432564315
-0.5725415304131961 0.59414793871641
-0.5173618408236302 0.5727228023563956
-0.4621821512340643 0.5298725296363668
-0.4161990765760927 0.48702225691633805
-0.38860923178130974 0.42274684783629485
-0.3978058467129041 0.37989657511626607
-0.3978058467129041 0.3263337342162301
-0.4161990765760927 0.2834834614962013
-0.4161990765760927 0.2513457569561797
-0.425395691507687 0.2084954842361509
-0.4070024616444984 0.21920805241615812
-0.38860923178130974 0.2084954842361509
-0.3610193869865268 0.2084954842361509
-0.3610193869865268 0.18707034787613652
-0.3610193869865268 0.16564521151612213
-0.3610193869865268 0.16564521151612213
-0.3610193869865268 0.14422007515610774
-0.3518227720549325 0.10136980243607896
-0.37941261684971544 0.09065723425607176
-0.3702160019181211 0.09065723425607176
-0.3702160019181211 0.09065723425607176
-0.3518227720549325 0.09065723425607176
-0.33342954219174387 0.07994466607606457
-0.34262615712333816 0.10136980243607896
-0.3702160019181211 0.09065723425607176
-0.3610193869865268 0.07994466607606457
-0.3518227720549325 0.09065723425607176
-0.3610193869865268 0.07994466607606457
-0.3518227720549325 0.07994466607606457
-0.37941261684971544 0.07994466607606457
-0.3610193869865268 0.07994466607606457
-0.3610193869865268 0.07994466607606457
-0.38860923178130974 0.07994466607606457
-0.3702160019181211 0.07994466607606457
-0.38860923178130974 0.09065723425607176
-0.3702160019181211 0.07994466607606457
-0.37941261684971544 0.10136980243607896
-0.38860923178130974 0.12279493879609335
-0.38860923178130974 0.12279493879609335
-0.38860923178130974 0.14422007515610774
-0.38860923178130974 0.11208237061608615
-0.37941261684971544 0.09065723425607176
-0.3610193869865268 0.07994466607606457
-0.3702160019181211 0.05851952971605017
-0.3610193869865268 0.047806961536042976
