-2.6366738457996055 -3.8584688910006038
-2.729910244629519 -3.8829978948034403
-2.7881829938982152 -3.768529210390203
-2.8114920936056937 -3.572297179967511
-2.7998375437519547 -3.351536145741982
-2.729910244629519 -3.1225987769155075
-2.590055646384649 -2.893661408089033
-2.397755573797952 -2.6320187008587763
-2.176319126576907 -2.3949049974313565
-1.9607099542827315 -2.1577912940039368
-1.7509280569154257 -1.9043249213746256
-1.5644552592555983 -1.6835638871490968
-1.4420824857913366 -1.4546265183226224
-1.3546733618882925 -1.2175128148952024
-1.2672642379852486 -0.9885754460687279
-1.1798551140822044 -0.8332250886507632
-1.0924459901791603 -0.6778747312327984
-0.9992095913492467 -0.5225243738148335
-0.9118004674462026 -0.39987935480065084
-0.8360458933968977 -0.23635266278174052
-0.7777731441282016 -0.1055313091666123
-0.7253276697863752 0.06617171745324353
-0.6495730957370703 0.15611139806364419
-0.5679912467608959 0.2133457402702628
-0.49223667271159105 0.2542274132749904
-0.38734572402793815 0.2542274132749904
-0.29410932519802446 0.2542274132749904
-0.17173655173376273 0.2542274132749904
-0.06684560305010985 0.24605107867404485
0.03804534563354303 0.2624037478759359
0.12545446953658712 0.2624037478759359
0.23034541822024 0.311461755481609
0.31192726719641445 0.3278144246835
0.40516366602632814 0.344167093885391
0.4692636902218938 0.35234342848633654
0.5333637144174594 0.344167093885391
0.5916364636861555 0.33599075928444555
0.6557364878817211 0.35234342848633654
0.7489728867116349 0.4014014360920096
0.8363820106146789 0.40957777069295515
0.894654759883375 0.41775410529390067
0.9296184094445926 0.4259304398948462
0.9179638595908534 0.44228310909673724
0.9296184094445926 0.46681211289957375
0.9412729592983318 0.49951745130335584
0.9412729592983318 0.5240464551061924
0.9412729592983318 0.5240464551061924
0.923791134517723 0.5485754589090289
0.9179638595908534 0.5567517935099744
0.9063093097371142 0.613986135716593
0.9296184094445926 0.6712204779232116
0.952927509152071 0.7121021509279393
0.952927509152071 0.7202784855288847
0.923791134517723 0.7284548201298302
0.923791134517723 0.7202784855288847
0.9587547840789407 0.7448074893317213
0.9645820590058103 0.7693364931345579
0.9704093339326798 0.8020418315383399
0.9878911587132887 0.8020418315383399
0.9937184336401582 0.8020418315383399
0.9995457085670278 0.8020418315383399
1.0286820832013759 0.8429235045430675
1.0519911829088544 0.8838051775477951
1.0811275575432024 0.9328631851534681
1.0986093823238112 0.9328631851534681
1.1219184820312895 0.9492158543553592
1.1510548566656376 0.9655685235572502
1.174363956373116 0.9982738619610323
1.2384639805686817 1.0473318695667053
1.2676003552030297 1.0800372079704874
1.2967367298373778 1.104566211773324
1.3433549292523346 1.120918880975215
1.3666640289598129 1.137271550177106
1.395800403594161 1.153624219378997
1.4307640531553787 1.1945058923837246
1.4599004277897267 1.2517402345903432
1.483209527497205 1.2435638999893976
1.5006913522778138 1.2680929037922342
1.5065186272046835 1.2599165691912888
1.5240004519852923 1.3007982421960163
1.5589641015465099 1.3089745767969618
1.5706186514002491 1.3253272459988528
1.5764459263271187 1.3253272459988528
1.5764459263271187 1.3335035805997983
1.5706186514002491 1.3007982421960163
1.5706186514002491 1.3335035805997983
1.588100476180858 1.341679915200744
1.588100476180858 1.374385253604526
1.5706186514002491 1.374385253604526
1.5647913764733796 1.3662089190035804
1.541482276765901 1.3498562498016895
1.5181731770584228 1.3580325844026349
1.4890368024240748 1.407090592008308
1.4657277027165962 1.4561485996139811
1.4365913280822482 1.4643249342149267
1.4016276785210307 1.472501268815872
1.3724913038866826 1.4479722650130356
1.3258731044717258 1.4316195958111446
1.3025640047642473 1.407090592008308
1.2676003552030297 1.390737922806417
1.2093276059343336 1.3335035805997983
1.145227581738768 1.2762692383931797
1.0694730076894632 1.2190348961865611
1.0403366330551151 1.1945058923837246
1.011200258420767 1.1618005539799425
0.9587547840789407 1.137271550177106
0.9004820348102446 1.0718608733695418
0.8363820106146789 1.0146265311629232
0.7722819864191133 0.9737448581581957
0.7081819622235476 0.9246868505525226
0.644081938027982 0.9083341813506316
0.5974637386130252 0.8838051775477951
0.5625000890518075 0.867452508345904
0.4867455150025026 0.8020418315383399
0.41681821588006734 0.7529838239326668
0.3702000164651105 0.7202784855288847
0.3235818170501537 0.7284548201298302
0.28861816748893604 0.7202784855288847
0.23617269314710962 0.6957494817260482
0.18955449373215277 0.6630441433222661
0.13710901939032633 0.6548678087213207
0.08466354504849988 0.630338804918484
0.04387262056041264 0.6466914741203751
0.02056352085293422 0.6548678087213207
-0.0027455788545442004 0.6466914741203751
-0.049363778269501044 0.6221624703175386
-0.09015470275758827 0.630338804918484
-0.13094562724567552 0.613986135716593
-0.13094562724567552 0.6221624703175386
-0.14260017709941472 0.630338804918484
-0.14260017709941472 0.6466914741203751
-0.16008200188002353 0.630338804918484
-0.18339110158750196 0.6058098011156475
-0.18339110158750196 0.6221624703175386
-0.20087292636811077 0.6466914741203751
-0.20087292636811077 0.6466914741203751
-0.21252747622184998 0.6548678087213207
-0.23000930100245878 0.6385151395194296
-0.2358365759293284 0.630338804918484
-0.2591456756368068 0.630338804918484
-0.2533184007099372 0.6548678087213207
-0.2358365759293284 0.6630441433222661
-0.2533184007099372 0.6630441433222661
-0.2649729505636764 0.630338804918484
-0.27080022549054605 0.6221624703175386
-0.28245477534428526 0.6385151395194296
-0.2649729505636764 0.6385151395194296
-0.2533184007099372 0.6712204779232116
-0.2591456756368068 0.6548678087213207
-0.27662750041741563 0.630338804918484
-0.28245477534428526 0.613986135716593
-0.28828205027115483 0.613986135716593
-0.28828205027115483 0.6385151395194296
-0.28245477534428526 0.6466914741203751
-0.27662750041741563 0.6466914741203751
-0.2649729505636764 0.613986135716593
-0.27080022549054605 0.5976334665147021
-0.28245477534428526 0.630338804918484
-0.28828205027115483 0.6058098011156475
-0.28245477534428526 0.6058098011156475
-0.27080022549054605 0.613986135716593
-0.27080022549054605 0.5894571319137565
-0.2649729505636764 0.56492812811092
-0.27080022549054605 0.5731044627118654
-0.2591456756368068 0.5731044627118654
-0.2591456756368068 0.581280797312811
-0.2533184007099372 0.56492812811092
-0.27080022549054605 0.5403991243080835
-0.27662750041741563 0.5158701205052468
-0.28245477534428526 0.5158701205052468
-0.2649729505636764 0.5322227897071379
-0.2591456756368068 0.5076937859043014
-0.2649729505636764 0.4831647821014648
-0.2591456756368068 0.4749884475005193
-0.2649729505636764 0.4749884475005193
-0.24166385085619801 0.4586357782986283
-0.2358365759293284 0.46681211289957375
-0.24166385085619801 0.4831647821014648
-0.22418202607558918 0.4749884475005193
-0.24749112578306762 0.4341067744957917
-0.2591456756368068 0.41775410529390067
-0.2533184007099372 0.41775410529390067
-0.24166385085619801 0.4341067744957917
-0.22418202607558918 0.4259304398948462
-0.23000930100245878 0.4259304398948462
-0.2358365759293284 0.38504876689011863
-0.24749112578306762 0.3768724322891731
-0.2649729505636764 0.3686960976882276
-0.24166385085619801 0.3686960976882276
-0.2358365759293284 0.36051976308728206
-0.23000930100245878 0.3686960976882276
-0.24166385085619801 0.3278144246835
-0.2591456756368068 0.311461755481609
-0.2591456756368068 0.27875641707782695
-0.24749112578306762 0.2624037478759359
-0.2533184007099372 0.23787474407309936
-0.24166385085619801 0.2051694056693173
-0.24749112578306762 0.18064040186648073
-0.24749112578306762 0.13158239426080764
-0.2533184007099372 0.12340605965986214
-0.24749112578306762 0.1070533904579711
-0.24749112578306762 0.09070072125608007
-0.24166385085619801 0.06617171745324353
-0.24749112578306762 0.02529004444851595
-0.2649729505636764 0.0007610406456794045
-0.28245477534428526 -0.007415293955266111
-0.27080022549054605 0.0007610406456794045
-0.27662750041741563 0.017113709847570435
-0.2649729505636764 -0.015591628556211625
-0.24749112578306762 -0.031944297758102654
-0.24749112578306762 -0.0564733015609392
-0.24749112578306762 -0.048296966959993685
-0.24166385085619801 -0.048296966959993685
-0.22418202607558918 -0.031944297758102654
-0.22418202607558918 -0.02376796315715714
-0.22418202607558918 -0.031944297758102654
-0.23000930100245878 -0.06464963616188471
-0.23000930100245878 -0.08100230536377574
-0.2533184007099372 -0.06464963616188471
-0.2649729505636764 -0.04012063235904817
-0.27662750041741563 -0.031944297758102654
-0.24749112578306762 -0.048296966959993685
-0.21835475114871958 -0.09735497456566677
-0.22418202607558918 -0.08100230536377574
-0.24166385085619801 -0.0564733015609392
-0.2358365759293284 -0.048296966959993685
-0.21835475114871958 -0.04012063235904817
-0.21252747622184998 -0.0564733015609392
-0.24749112578306762 -0.08100230536377574
-0.2591456756368068 -0.06464963616188471
-0.2533184007099372 -0.06464963616188471
-0.24749112578306762 -0.0564733015609392
-0.2533184007099372 -0.0564733015609392
-0.24166385085619801 -0.08100230536377574
-0.23000930100245878 -0.09735497456566677
-0.22418202607558918 -0.08100230536377574
-0.21835475114871958 -0.08917863996472127
-0.2358365759293284 -0.08100230536377574
-0.21835475114871958 -0.08917863996472127
-0.21835475114871958 -0.1137076437675578
-0.22418202607558918 -0.1137076437675578
-0.21252747622184998 -0.12188397836850333
-0.20087292636811077 -0.09735497456566677
-0.19504565144124117 -0.09735497456566677
-0.20087292636811077 -0.1055313091666123
-0.20087292636811077 -0.12188397836850333
-0.21252747622184998 -0.14641298217133986
-0.21835475114871958 -0.1137076437675578
-0.2358365759293284 -0.13823664757039436
-0.21835475114871958 -0.14641298217133986
-0.20087292636811077 -0.14641298217133986
-0.18921837651437157 -0.17094198597417642
-0.18339110158750196 -0.17911832057512192
-0.17173655173376273 -0.15458931677228538
-0.18339110158750196 -0.15458931677228538
-0.16008200188002353 -0.1627656513732309
-0.14842745202628432 -0.17094198597417642
-0.13677290217254512 -0.2036473243779585
-0.12511835231880591 -0.24452899738268605
-0.09598197768445788 -0.3589976817959233
-0.049363778269501044 -0.7759907464441446
0.00890897099919501 -1.2338654840970933
0.15459084417093513 -1.274747157101821
0.510054614709981 -0.8986357654583272
1.1277457569581593 -0.5634060468195612
1.8561551228168598 -0.3835266855987598
2.351473491600776 -0.31811600879119567
2.44470989043069 -0.28541067038741363
2.252409817843993 -0.26088166658457707
2.060109745257296 -0.22817632818079503
1.9552187965736432 -0.21182365897890398
1.896946047304947 -0.19547098977701297
1.8503278478899903 -0.2036473243779585
1.780400548767555 -0.18729465517606744
1.7104732496451196 -0.18729465517606744
1.6288914006689452 -0.22817632818079503
1.5298277269121618 -0.3017633395893047
1.424936778228509 -0.39987935480065084
1.3433549292523346 -0.4898190354110515
1.250118530422421 -0.6124640544252342
1.1219184820312895 -0.6778747312327984
0.9820638837864191 -0.735109073439417
0.8538638353952878 -0.8005197502469811
0.7198365120772868 -0.8904594308573818
0.5275364394905898 -0.9558701076649458
0.31192726719641445 -1.0785151266791286
0.09631809490223908 -1.1848074764914203
-0.13094562724567552 -1.2665708225008754
-0.3640366243204597 -1.323805164707494
-0.5796457966146351 -1.3483341685103305
-0.7894276939819409 -1.405568510716949
-0.9759004916417683 -1.528213529731132
-1.1507187394478564 -1.6672112179472056
-1.319709712327075 -1.8716195829708435
-1.465391585498815 -2.0596752787925903
-1.5644552592555983 -2.1823202978067733
-1.6343825583780336 -2.304965316820956
-1.704309857500469 -2.3949049974313565
-1.774237156622904 -2.5502553548493214
-1.8558190055990786 -2.7137820468682317
-1.9548826793558618 -2.84460340048336
-2.0947372776007325 -2.9836010886994337
-2.2345918758456027 -3.1225987769155075
-2.322000999748647 -3.2697727997325265
-2.391928298871082 -3.466004830155219
-2.4909919726278655 -3.5968261837703475
-2.5958829213115187 -3.515062837760892
-2.6716374953608235 -3.294301803535363
-2.6949465950683016 -3.0735407693098344
-2.6425011207264752 -2.8691324042861965
-2.485164697700996 -2.6483713700606675
-2.322000999748647 -2.419434001234193
-2.141355477015689 -2.223201970811501
-1.9723645041364708 -2.002440936585972
-1.7684098816960345 -1.798032571562334
-1.5877643589630768 -1.6181532103415326
-1.4479097607182063 -1.4628028529235677
-1.3663279117420317 -1.307452495505603
-1.2964006126195966 -1.1766311418904747
-1.24395513827777 -1.0621624574772375
-1.156546014374726 -0.9149884346602183
-1.0924459901791603 -0.8005197502469811
-1.040000515837334 -0.6942274004346893
-1.0050368662761162 -0.6206403890261798
-1.0050368662761162 -0.5552297122186156
-0.9933823164223771 -0.46529003160821497
-0.9584186668611594 -0.3589976817959233
-0.9001459175924634 -0.2772343357864681
-0.8360458933968977 -0.21182365897890398
-0.7544640444207232 -0.14641298217133986
-0.6612276455908096 -0.12188397836850333
-0.6029548963221135 -0.048296966959993685
-0.5330275971996783 0.02529004444851595
-0.4864093977847214 0.08252438665513456
-0.39317299895480773 0.13975872886175317
-0.30576387505176367 0.18064040186648073
-0.23000930100245878 0.2133457402702628
-0.15425472695315393 0.2542274132749904
-0.049363778269501044 0.29510908627971794
0.03221807070667343 0.344167093885391
0.1137999196828479 0.344167093885391
0.17789994387841357 0.344167093885391
0.23034541822024 0.344167093885391
0.30027271734267524 0.39322510149106416
0.3527181916845017 0.40957777069295515
0.38185456631884973 0.41775410529390067
0.40516366602632814 0.4341067744957917
0.39933639109945857 0.4341067744957917
0.42847276573380655 0.41775410529390067
0.451781865441285 0.46681211289957375
0.480918240075633 0.4913411167024103
0.4867455150025026 0.5158701205052468
0.5158818896368507 0.5076937859043014
0.5391909893443291 0.5240464551061924
0.5566728141249379 0.5240464551061924
0.5625000890518075 0.56492812811092
0.6091182884667643 0.5731044627118654
0.6266001132473732 0.5976334665147021
0.6673910377354604 0.6221624703175386
0.702354687296678 0.6221624703175386
0.6907001374429388 0.6385151395194296
0.7198365120772868 0.6793968125241572
0.7548001616385045 0.6875731471251026
0.8014183610534613 0.7366311547307758
0.8189001858340701 0.7611601585336123
0.8538638353952878 0.7448074893317213
0.8538638353952878 0.7775128277355033
0.8655183852490269 0.7856891623364488
0.9179638595908534 0.8183945007402309
0.9645820590058103 0.8756288429468495
0.9878911587132887 0.8919815121487406
1.0170275333476366 0.8919815121487406
1.0461639079819847 0.9001578467496861
1.0753002826163327 0.9573921889563047
1.1102639321775503 1.0064501965619779
1.1510548566656376 1.0146265311629232
1.1801912312999856 1.0636845387685965
1.1860185062268551 1.0636845387685965
1.2151548808612032 1.0636845387685965
1.2326367056418122 1.0963898771723783
1.2617730802761602 1.137271550177106
1.290909454910508 1.1781532231818337
1.3142185546179865 1.186329557782779
1.3317003793985953 1.186329557782779
1.3258731044717258 1.186329557782779
1.3317003793985953 1.2108585615856156
1.3433549292523346 1.2435638999893976
1.3724913038866826 1.2599165691912888
1.3899731286672914 1.2599165691912888
1.3841458537404219 1.2599165691912888
1.3724913038866826 1.2353875653884523
1.3608367540329434 1.2435638999893976
1.3724913038866826 1.2353875653884523
1.3608367540329434 1.2517402345903432
1.3608367540329434 1.2272112307875067
1.349182204179204 1.2026822269846702
1.3258731044717258 1.1618005539799425
1.3142185546179865 1.153624219378997
1.290909454910508 1.153624219378997
1.2734276301298992 1.137271550177106
1.250118530422421 1.0963898771723783
1.220982155788073 1.0309792003648144
1.1860185062268551 1.0064501965619779
1.1627094065193768 0.9573921889563047
1.1335730318850288 0.9246868505525226
1.0986093823238112 0.9001578467496861
1.0694730076894632 0.834747169942122
1.0403366330551151 0.7938654969373944
0.9878911587132887 0.7039258163269937
0.9471002342252014 0.6548678087213207
0.9063093097371142 0.6221624703175386
0.8713456601758965 0.5894571319137565
0.8189001858340701 0.5403991243080835
0.7722819864191133 0.45045944369768276
0.702354687296678 0.38504876689011863
0.6499092129548516 0.38504876689011863
0.6149455633936339 0.33599075928444555
0.5741546389055467 0.30328542088066346
0.510054614709981 0.2869327516787724
0.4576091403681546 0.22969840947215384
0.39933639109945857 0.1642877326645897
0.3643727415382409 0.15611139806364419
0.3235818170501537 0.13975872886175317
0.29444544241580567 0.13158239426080764
0.24782724300084882 0.11522972505891661
0.18955449373215277 0.06617171745324353
0.14876356924406553 0.0498190482513525
0.1079726447559783 0.02529004444851595
0.08466354504849988 0.02529004444851595
0.05552717041415185 0.03346637904946147
0.00890897099919501 0.00893737524662492
-0.020227403635153015 0.00893737524662492
-0.049363778269501044 -0.02376796315715714
-0.08432742783071867 -0.015591628556211625
-0.08432742783071867 -0.015591628556211625
-0.08432742783071867 -0.031944297758102654
-0.10180925261132749 -0.02376796315715714
-0.13094562724567552 -0.07282597076283023
-0.16008200188002353 -0.048296966959993685
-0.16590927680689313 -0.0564733015609392
-0.17756382666063236 -0.031944297758102654
-0.16590927680689313 -0.031944297758102654
-0.18921837651437157 -0.031944297758102654
-0.18921837651437157 -0.048296966959993685
-0.20670020129498037 -0.06464963616188471
-0.20670020129498037 -0.04012063235904817
-0.20670020129498037 -0.015591628556211625
-0.20670020129498037 -0.007415293955266111
-0.20670020129498037 0.0007610406456794045
-0.22418202607558918 -0.007415293955266111
-0.22418202607558918 -0.02376796315715714
-0.23000930100245878 -0.007415293955266111
-0.2533184007099372 0.00893737524662492
-0.23000930100245878 0.02529004444851595
-0.22418202607558918 0.017113709847570435
-0.2358365759293284 0.0007610406456794045
-0.2358365759293284 0.017113709847570435
-0.2358365759293284 0.02529004444851595
-0.24749112578306762 0.04164271365040698
-0.2358365759293284 0.04164271365040698
-0.24166385085619801 0.04164271365040698
-0.2591456756368068 0.04164271365040698
-0.27662750041741563 0.02529004444851595
-0.27080022549054605 0.0498190482513525
-0.27080022549054605 0.07434805205418904
-0.2533184007099372 0.05799538285229801
-0.2358365759293284 0.08252438665513456
-0.24749112578306762 0.08252438665513456
-0.2649729505636764 0.05799538285229801
-0.2591456756368068 0.05799538285229801
-0.27080022549054605 0.07434805205418904
-0.24166385085619801 0.09070072125608007
-0.23000930100245878 0.08252438665513456
-0.24749112578306762 0.09070072125608007
-0.24749112578306762 0.07434805205418904
-0.24749112578306762 0.08252438665513456
-0.2358365759293284 0.07434805205418904
-0.22418202607558918 0.09070072125608007
-0.22418202607558918 0.07434805205418904
-0.22418202607558918 0.05799538285229801
-0.21252747622184998 0.0498190482513525
-0.21252747622184998 0.0498190482513525
-0.21252747622184998 0.06617171745324353
-0.18921837651437157 0.06617171745324353
-0.18339110158750196 0.0498190482513525
-0.16590927680689313 0.03346637904946147
-0.17756382666063236 0.017113709847570435
-0.18921837651437157 0.017113709847570435
-0.18339110158750196 0.017113709847570435
-0.18339110158750196 0.02529004444851595
-0.17756382666063236 0.03346637904946147
-0.19504565144124117 0.00893737524662492
-0.19504565144124117 -0.015591628556211625
-0.20087292636811077 -0.02376796315715714
-0.18921837651437157 0.0007610406456794045
-0.17756382666063236 0.017113709847570435
-0.17173655173376273 0.0007610406456794045
-0.17756382666063236 -0.007415293955266111
-0.18921837651437157 -0.031944297758102654
-0.18921837651437157 -0.02376796315715714
-0.18339110158750196 -0.031944297758102654
-0.19504565144124117 -0.015591628556211625
-0.18339110158750196 -0.015591628556211625
-0.19504565144124117 -0.048296966959993685
-0.20087292636811077 -0.04012063235904817
-0.20670020129498037 -0.048296966959993685
-0.20087292636811077 -0.007415293955266111
-0.19504565144124117 0.00893737524662492
-0.18921837651437157 0.0007610406456794045
-0.18339110158750196 -0.015591628556211625
-0.17756382666063236 -0.031944297758102654
-0.18339110158750196 -0.007415293955266111
-0.16590927680689313 0.00893737524662492
-0.17173655173376273 0.04164271365040698
-0.17173655173376273 0.03346637904946147
-0.16008200188002353 0.017113709847570435
-0.17756382666063236 0.0007610406456794045
-0.17756382666063236 0.017113709847570435
-0.14842745202628432 0.09070072125608007
-0.16008200188002353 0.13975872886175317
-0.14260017709941472 0.19699307106837177
-0.14260017709941472 0.2051694056693173
-0.13677290217254512 0.23787474407309936
-0.1134638024650667 0.27875641707782695
-0.08432742783071867 0.311461755481609
-0.06684560305010985 0.36051976308728206
-0.043536503342631434 0.38504876689011863
-0.02605467856202262 0.39322510149106416
-0.020227403635153015 0.40957777069295515
0.003081696072325405 0.45045944369768276
0.05552717041415185 0.4913411167024103
0.10214536982910868 0.4749884475005193
0.1196271946097175 0.46681211289957375
0.13710901939032633 0.38504876689011863
0.13128174446345672 0.29510908627971794
0.13710901939032633 0.24605107867404485
0.16041811909780473 0.18881673646742625
0.21286359343963118 0.13975872886175317
0.259481792854588 0.1070533904579711
0.27696361763519683 0.04164271365040698
0.26530906778145763 0.0007610406456794045
0.23617269314710962 -0.02376796315715714
0.21286359343963118 -0.02376796315715714
0.19538176865902238 -0.0564733015609392
0.19538176865902238 -0.08917863996472127
0.17789994387841357 -0.1055313091666123
0.18372721880528317 -0.12188397836850333
0.19538176865902238 -0.08917863996472127
0.18955449373215277 -0.08917863996472127
0.21286359343963118 -0.07282597076283023
0.2245181432933704 -0.08917863996472127
0.2245181432933704 -0.1137076437675578
0.21286359343963118 -0.13006031296944884
0.19538176865902238 -0.13006031296944884
0.17789994387841357 -0.13823664757039436
0.13128174446345672 -0.13006031296944884
0.1196271946097175 -0.12188397836850333
0.07883627012163028 -0.13823664757039436
0.04969989548728224 -0.15458931677228538
0.014736245926064614 -0.13823664757039436
0.02056352085293422 -0.1055313091666123
0.026390795779803824 -0.09735497456566677
0.003081696072325405 -0.12188397836850333
-0.020227403635153015 -0.14641298217133986
-0.055191053196370646 -0.17094198597417642
-0.07850015290384907 -0.15458931677228538
-0.09598197768445788 -0.14641298217133986
-0.1134638024650667 -0.14641298217133986
-0.1192910773919363 -0.17911832057512192
-0.1192910773919363 -0.2199999935798495
-0.1134638024650667 -0.26088166658457707
-0.1192910773919363 -0.29358700498835916
-0.09015470275758827 -0.3753503509978143
-0.07850015290384907 -0.7269327388384714
-0.03188195348889222 -1.2502181532989844
0.06718172026789106 -1.4300975145197858
0.3352363669038929 -1.1275731342848017
0.8655183852490269 -0.751461742641308
1.5997550260345972 -0.5879350506223977
2.1883097936484273 -0.5470533776176701
2.3806098662351243 -0.5552297122186156
2.2582370927708624 -0.5307007084157791
2.0484551954035566 -0.514348039213888
1.9260824219392951 -0.4898190354110515
1.8736369475974686 -0.4898190354110515
1.8211914732556422 -0.497995370011997
1.751264174133207 -0.5307007084157791
1.646373225449554 -0.5797587160214521
1.5531368266196404 -0.6451693928290163
1.4599004277897267 -0.6451693928290163
1.3841458537404219 -0.6615220620309074
1.337527654325465 -0.6615220620309074
1.279254905056769 -0.7105800696365804
1.2151548808612032 -0.7432854080403625
1.1394003068118983 -0.7923434156460356
1.0461639079819847 -0.8086960848479267
0.9471002342252014 -0.8086960848479267
0.8538638353952878 -0.8332250886507632
0.7489728867116349 -0.9068121000592728
0.6324273881742427 -0.9640464422658914
0.4925727899293722 -1.0458097882753465
0.3410636418307625 -1.1357494688857472
0.21286359343963118 -1.2093364802942568
0.07883627012163028 -1.2829234917027665
-0.049363778269501044 -1.3483341685103305
-0.21252747622184998 -1.4219211799188403
-0.3756911741741989 -1.5200371951301865
-0.5155457724190694 -1.6263295449424782
-0.6379185458833312 -1.7244455601538242
-0.7486367694938536 -1.8552669137689526
-0.8302186184700281 -2.0269699403888084
-0.9001459175924634 -2.1741439632058275
-0.9467641170074202 -2.337670655224738
-0.9759004916417683 -2.4276103358351384
-0.9992095913492467 -2.525726351046485
-0.9992095913492467 -2.6483713700606675
-1.010864141202986 -2.779192723675796
-1.0633096155448123 -2.9672484194975426
-1.1682005642284652 -3.114422442314562
-1.348846086961423 -3.2779491343334723
-1.465391585498815 -3.4087704879486003
-1.570282534182468 -3.547768176164674
-1.6751734828661209 -3.6949421989816935
-1.8092008061841218 -3.735823871986421
-1.9490554044289923 -3.6295315221741293
-2.083082727746993 -3.4414758263523826
-2.1063918274544715 -3.2043621229249624
-2.083082727746993 -2.991777423300379
-1.9781917790633403 -2.779192723675796
-1.8558190055990786 -2.5666080240512126
-1.7509280569154257 -2.386728662830411
-1.628555283451164 -2.165967628604882
-1.4828734102794239 -1.9860882673840807
-1.3546733618882925 -1.8225615753651705
-1.2672642379852486 -1.6590348833462603
-1.2323005884240308 -1.544566198933023
-1.2264733134971613 -1.3646868377122217
-1.1973369388628132 -1.225689149496148
-1.1623732893015957 -1.1030441304819651
-1.127409639740378 -0.9803991114677825
-1.0866187152522908 -0.8495777578526542
-1.0633096155448123 -0.7432854080403625
-1.051655065691073 -0.6369930582280707
-1.0633096155448123 -0.514348039213888
-1.0633096155448123 -0.4162320240025419
-1.051655065691073 -0.30993967419025015
-1.0166914161298555 -0.23635266278174052
-0.9700732167148987 -0.17911832057512192
-0.9118004674462026 -0.12188397836850333
-0.8360458933968977 -0.04012063235904817
-0.7428094945669841 0.06617171745324353
-0.684536745298288 0.11522972505891661
-0.6379185458833312 0.19699307106837177
-0.5913003464683743 0.22969840947215384
-0.5272003222728087 0.30328542088066346
-0.4689275730041126 0.36051976308728206
-0.3756911741741989 0.4341067744957917
-0.27662750041741563 0.45045944369768276
-0.18339110158750196 0.4831647821014648
-0.1076365275381971 0.4913411167024103
-0.03770922841576183 0.5076937859043014
0.026390795779803824 0.5322227897071379
0.1079726447559783 0.5731044627118654
0.19538176865902238 0.581280797312811
0.2536545179277184 0.5976334665147021
0.259481792854588 0.5976334665147021
0.26530906778145763 0.6058098011156475
0.27696361763519683 0.630338804918484
0.29444544241580567 0.6630441433222661
0.3527181916845017 0.6793968125241572
0.3702000164651105 0.6957494817260482
0.3643727415382409 0.6957494817260482
0.3702000164651105 0.7121021509279393
0.39933639109945857 0.7284548201298302
0.42847276573380655 0.7693364931345579
0.4692636902218938 0.7775128277355033
0.4750909651487634 0.7938654969373944
0.4692636902218938 0.7938654969373944
0.480918240075633 0.7693364931345579
0.5275364394905898 0.8102181661392854
0.5858091887592859 0.851099839144013
0.6091182884667643 0.8838051775477951
0.6324273881742427 0.9001578467496861
0.644081938027982 0.8838051775477951
0.644081938027982 0.9001578467496861
0.6673910377354604 0.9328631851534681
0.6907001374429388 0.9737448581581957
0.7256637870041565 1.0146265311629232
0.7431456117847652 1.0064501965619779
0.760627436565374 1.0228028657638688
0.789763811199722 1.0391555349657597
0.8189001858340701 1.0473318695667053
0.8538638353952878 1.0800372079704874
0.9004820348102446 1.1290952155761604
0.9063093097371142 1.1290952155761604
0.9471002342252014 1.137271550177106
0.9645820590058103 1.137271550177106
0.9820638837864191 1.169976888580888
1.0286820832013759 1.2353875653884523
1.057818457835724 1.2599165691912888
1.0811275575432024 1.2517402345903432
1.0927821073969415 1.2762692383931797
1.1102639321775503 1.2844455729941253
1.1335730318850288 1.3253272459988528
1.1627094065193768 1.341679915200744
1.1918457811537249 1.3580325844026349
1.2151548808612032 1.3498562498016895
1.220982155788073 1.3662089190035804
1.2384639805686817 1.3498562498016895
1.2326367056418122 1.3825615882054714
1.250118530422421 1.390737922806417
1.2676003552030297 1.4152669266092535
1.279254905056769 1.3989142574073625
1.2734276301298992 1.3662089190035804
1.2559458053492905 1.3662089190035804
1.2559458053492905 1.374385253604526
1.250118530422421 1.3662089190035804
1.2676003552030297 1.3580325844026349
1.2676003552030297 1.3171509113979074
1.2617730802761602 1.2680929037922342
1.2384639805686817 1.2353875653884523
1.2151548808612032 1.2272112307875067
1.2035003310074641 1.1945058923837246
1.1918457811537249 1.169976888580888
1.174363956373116 1.1290952155761604
1.1394003068118983 1.0718608733695418
1.11609120710442 0.9900975273600867
1.086954832470072 0.9819211927591412
1.0694730076894632 0.9328631851534681
1.0403366330551151 0.9001578467496861
0.9937184336401582 0.8756288429468495
0.9704093339326798 0.8020418315383399
0.9121365846639838 0.7529838239326668
0.8830002100296358 0.6875731471251026
0.8480365604684181 0.6712204779232116
0.8130729109072005 0.6548678087213207
0.7781092613459829 0.5976334665147021
0.7256637870041565 0.5403991243080835
0.67321831266233 0.4831647821014648
0.6032910135398947 0.4586357782986283
0.5683273639786771 0.4586357782986283
0.5275364394905898 0.41775410529390067
0.49840006485624183 0.3686960976882276
0.4459545905144154 0.3196380900825545
0.39933639109945857 0.2705800824768814
0.3410636418307625 0.2542274132749904
0.3060999922695449 0.2705800824768814
0.2536545179277184 0.24605107867404485
0.21286359343963118 0.24605107867404485
0.16624539402467434 0.19699307106837177
0.12545446953658712 0.17246406726553523
0.08466354504849988 0.1642877326645897
0.05552717041415185 0.18064040186648073
0.05552717041415185 0.18881673646742625
0.026390795779803824 0.17246406726553523
-0.008572853781413805 0.1479350634626987
-0.03770922841576183 0.13158239426080764
-0.06101832812324025 0.15611139806364419
-0.07267287797697947 0.1479350634626987
-0.09015470275758827 0.1642877326645897
-0.09598197768445788 0.17246406726553523
-0.12511835231880591 0.13158239426080764
-0.14260017709941472 0.11522972505891661
-0.16590927680689313 0.11522972505891661
-0.15425472695315393 0.13975872886175317
-0.14260017709941472 0.13975872886175317
-0.14842745202628432 0.13158239426080764
-0.16590927680689313 0.1070533904579711
-0.17756382666063236 0.1070533904579711
-0.17756382666063236 0.12340605965986214
-0.17756382666063236 0.13158239426080764
-0.17173655173376273 0.1479350634626987
-0.16590927680689313 0.15611139806364419
-0.17173655173376273 0.13975872886175317
-0.18339110158750196 0.13975872886175317
-0.20670020129498037 0.13158239426080764
-0.20670020129498037 0.17246406726553523
-0.20670020129498037 0.1642877326645897
-0.20670020129498037 0.17246406726553523
-0.23000930100245878 0.15611139806364419
-0.20670020129498037 0.15611139806364419
-0.20670020129498037 0.18881673646742625
-0.18921837651437157 0.22969840947215384
-0.18921837651437157 0.2624037478759359
-0.18339110158750196 0.3196380900825545
-0.17756382666063236 0.344167093885391
-0.17756382666063236 0.3686960976882276
-0.16590927680689313 0.4259304398948462
-0.14842745202628432 0.4913411167024103
-0.10180925261132749 0.5158701205052468
-0.08432742783071867 0.5322227897071379
-0.06101832812324025 0.5485754589090289
-0.06684560305010985 0.5567517935099744
-0.02605467856202262 0.5976334665147021
-0.0027455788545442004 0.6793968125241572
0.06718172026789106 0.6957494817260482
0.10214536982910868 0.6875731471251026
0.13128174446345672 0.630338804918484
0.14876356924406553 0.581280797312811
0.14876356924406553 0.5322227897071379
0.17789994387841357 0.4749884475005193
0.20120904358589198 0.4259304398948462
0.20703631851276158 0.36051976308728206
0.23034541822024 0.30328542088066346
0.24782724300084882 0.27875641707782695
0.24782724300084882 0.2542274132749904
0.24199996807397922 0.22969840947215384
0.21869086836650078 0.19699307106837177
0.19538176865902238 0.18064040186648073
0.16624539402467434 0.13975872886175317
0.16041811909780473 0.13158239426080764
0.14293629431719593 0.13975872886175317
0.14876356924406553 0.1479350634626987
0.16624539402467434 0.17246406726553523
0.18372721880528317 0.12340605965986214
0.19538176865902238 0.11522972505891661
0.19538176865902238 0.07434805205418904
0.16624539402467434 0.06617171745324353
0.17207266895154394 0.07434805205418904
0.16041811909780473 0.08252438665513456
0.13128174446345672 0.06617171745324353
0.09631809490223908 0.03346637904946147
0.04387262056041264 0.0498190482513525
0.02056352085293422 0.0498190482513525
0.003081696072325405 0.09070072125608007
0.003081696072325405 0.1070533904579711
-0.02605467856202262 0.12340605965986214
-0.055191053196370646 0.1070533904579711
-0.09598197768445788 0.07434805205418904
-0.13677290217254512 0.05799538285229801
-0.14260017709941472 0.07434805205418904
-0.14842745202628432 0.06617171745324353
-0.17756382666063236 0.05799538285229801
-0.20670020129498037 0.0498190482513525
-0.2358365759293284 0.03346637904946147
-0.2591456756368068 0.00893737524662492
-0.27662750041741563 0.00893737524662492
-0.2591456756368068 0.02529004444851595
-0.27662750041741563 0.017113709847570435
-0.29410932519802446 0.0007610406456794045
-0.3232456998323725 -0.007415293955266111
-0.3465547995398509 0.00893737524662492
-0.3349002496861117 0.02529004444851595
-0.3232456998323725 0.02529004444851595
-0.3290729747592421 0.0007610406456794045
-0.3465547995398509 -0.007415293955266111
-0.3465547995398509 -0.031944297758102654
-0.3582093493935901 0.0007610406456794045
-0.3465547995398509 0.0007610406456794045
-0.3407275246129813 -0.02376796315715714
-0.3582093493935901 -0.007415293955266111
-0.3698638992473293 -0.015591628556211625
-0.3756911741741989 -0.02376796315715714
-0.39317299895480773 -0.015591628556211625
-0.3815184491010685 0.0007610406456794045
-0.3640366243204597 0.02529004444851595
-0.3640366243204597 0.00893737524662492
-0.38734572402793815 -0.015591628556211625
-0.39900027388167736 -0.02376796315715714
-0.39317299895480773 -0.02376796315715714
-0.3756911741741989 0.017113709847570435
-0.3756911741741989 0.0007610406456794045
-0.3698638992473293 0.017113709847570435
-0.3815184491010685 0.017113709847570435
-0.3815184491010685 -0.015591628556211625
-0.39900027388167736 -0.007415293955266111
-0.3815184491010685 -0.007415293955266111
-0.38734572402793815 0.00893737524662492
-0.38734572402793815 0.0007610406456794045
-0.3815184491010685 -0.015591628556211625
-0.39900027388167736 -0.031944297758102654
-0.38734572402793815 -0.007415293955266111
-0.3815184491010685 0.00893737524662492
-0.3756911741741989 0.017113709847570435
-0.3756911741741989 0.0007610406456794045
-0.38734572402793815 -0.007415293955266111
-0.3698638992473293 -0.04012063235904817
-0.3815184491010685 -0.04012063235904817
-0.3698638992473293 -0.007415293955266111
-0.3640366243204597 0.0007610406456794045
-0.3582093493935901 0.00893737524662492
-0.3698638992473293 -0.007415293955266111
-0.3698638992473293 -0.007415293955266111
-0.3756911741741989 0.0007610406456794045
-0.3698638992473293 -0.015591628556211625
-0.3582093493935901 0.0007610406456794045
-0.3582093493935901 -0.02376796315715714
-0.3698638992473293 -0.02376796315715714
-0.3640366243204597 -0.02376796315715714
-0.3465547995398509 -0.031944297758102654
-0.3407275246129813 -0.02376796315715714
-0.3465547995398509 0.0007610406456794045
-0.3523820744667205 -0.007415293955266111
-0.3407275246129813 -0.02376796315715714
-0.3523820744667205 -0.04012063235904817
-0.3290729747592421 -0.048296966959993685
-0.29410932519802446 -0.0564733015609392
-0.2649729505636764 -0.1055313091666123
-0.24749112578306762 -0.26088166658457707
-0.20670020129498037 -0.751461742641308
-0.13677290217254512 -1.2011601456933114
0.05552717041415185 -1.1357494688857472
0.4576091403681546 -0.751461742641308
1.0927821073969415 -0.4734663662091605
1.780400548767555 -0.3835266855987598
2.194137068575297 -0.3753503509978143
2.205791618429036 -0.3671740163968688
2.0193188207692088 -0.31811600879119567
1.8619823977437293 -0.2772343357864681
1.7745732738406854 -0.2690580011855226
1.7163005245719893 -0.3017633395893047
1.617236850815206 -0.3344686779930867
1.4948640773509443 -0.39987935480065084
1.3899731286672914 -0.39987935480065084
1.2967367298373778 -0.4162320240025419
1.2326367056418122 -0.4244083586034874
1.1627094065193768 -0.481642700810106
1.086954832470072 -0.5225243738148335
1.011200258420767 -0.5634060468195612
0.9121365846639838 -0.5961113852233432
0.8247274607609397 -0.6124640544252342
0.7198365120772868 -0.6696983966318528
0.6266001132473732 -0.7105800696365804
0.510054614709981 -0.8005197502469811
0.3760272913919801 -0.9068121000592728
0.2245181432933704 -1.0049281152706189
0.07883627012163028 -1.0948677958810196
-0.055191053196370646 -1.1929838110923658
-0.18921837651437157 -1.274747157101821
-0.3290729747592421 -1.3483341685103305
-0.4805821228578518 -1.4546265183226224
-0.6437458208102007 -1.560918868134914
-0.7952549689088105 -1.6917402217500424
-0.9525913919342898 -1.8634432483698982
-1.0924459901791603 -2.0596752787925903
-1.2031642137896827 -2.264083643816228
-1.2672642379852486 -2.4439630050370296
-1.2964006126195966 -2.5339026856474303
-1.2964006126195966 -2.656547704661613
-1.2964006126195966 -2.828250731281469
-1.377982461595771 -3.0326590963051068
-1.5003552350600327 -3.2288911267277993
-1.6460371082317728 -3.3924178187467096
-1.762582606769165 -3.547768176164674
-1.8325099058916001 -3.6949421989816935
-1.9257463047215138 -3.7930582141930396
-2.042291803258906 -3.7767055449911484
-2.147182751942559 -3.6295315221741293
-2.199628226284385 -3.4414758263523826
-2.193800951357516 -3.196185788324017
-2.0772554528201237 -2.975424754098488
-1.9548826793558618 -2.7137820468682317
-1.849991730672209 -2.5011973472436484
-1.7101371324273384 -2.2804363130181193
-1.5528007094018592 -2.0760279479944814
-1.4129461111569885 -1.847090579168007
-1.3080551624733356 -1.6181532103415326
-1.24395513827777 -1.4300975145197858
-1.2031642137896827 -1.25839448789993
-1.1740278391553347 -1.1112204650829107
-1.1332369146672476 -0.9640464422658914
-1.109927814959769 -0.8250487540498176
-1.040000515837334 -0.6451693928290163
-0.9933823164223771 -0.5061717046129426
-0.9875550414955074 -0.39987935480065084
-1.0050368662761162 -0.29358700498835916
-1.0166914161298555 -0.17911832057512192
-1.010864141202986 -0.07282597076283023
-0.9525913919342898 0.02529004444851595
-0.8884913677387242 0.11522972505891661
-0.8185640686162889 0.18881673646742625
-0.771945869201332 0.2624037478759359
-0.7253276697863752 0.3196380900825545
-0.6670549205176792 0.4259304398948462
-0.6029548963221135 0.5322227897071379
-0.5155457724190694 0.5894571319137565
-0.4456184732966342 0.630338804918484
-0.38734572402793815 0.6548678087213207
-0.3232456998323725 0.6875731471251026
-0.22418202607558918 0.7529838239326668
-0.14260017709941472 0.7775128277355033
-0.055191053196370646 0.7856891623364488
0.02056352085293422 0.8183945007402309
0.07300899519476066 0.8265708353411765
0.1196271946097175 0.834747169942122
0.14876356924406553 0.851099839144013
0.16624539402467434 0.8919815121487406
0.18372721880528317 0.9165105159515771
0.20120904358589198 0.9328631851534681
0.23034541822024 0.9410395197544137
0.24199996807397922 0.9328631851534681
0.2536545179277184 0.9819211927591412
0.26530906778145763 1.0064501965619779
0.29444544241580567 1.0228028657638688
0.3177545421232841 1.0309792003648144
0.3468909167576321 1.055508204167651
0.3527181916845017 1.055508204167651
0.3468909167576321 1.088213542571433
0.38768184124571936 1.104566211773324
0.422645490806937 1.1618005539799425
0.4401273155875458 1.1781532231818337
0.4634364152950242 1.1781532231818337
0.4750909651487634 1.186329557782779
0.4925727899293722 1.2272112307875067
0.5158818896368507 1.2599165691912888
0.5625000890518075 1.3007982421960163
0.5916364636861555 1.3335035805997983
0.6032910135398947 1.3171509113979074
0.5974637386130252 1.3498562498016895
0.6382546631011123 1.3825615882054714
0.6848728625160692 1.423443261210199
0.7198365120772868 1.4643249342149267
0.7548001616385045 1.4970302726187086
0.7664547114922436 1.5052066072196542
0.789763811199722 1.5133829418205997
0.7955910861265917 1.5542646148253272
0.8422092855415485 1.611498957031946
0.8713456601758965 1.6442042954357279
0.894654759883375 1.67690963383951
0.9004820348102446 1.6687332992385646
0.923791134517723 1.67690963383951
0.9354456843714622 1.7177913068442376
0.9645820590058103 1.7668493144499107
0.9878911587132887 1.7668493144499107
1.0053729834938974 1.7668493144499107
0.9937184336401582 1.7668493144499107
0.9995457085670278 1.7504966452480197
1.0053729834938974 1.7750256490508562
1.0403366330551151 1.7832019836518018
1.0519911829088544 1.8077309874546383
1.0519911829088544 1.7913783182527472
1.0519911829088544 1.758672979848965
1.0286820832013759 1.7341439760461286
1.0228548082745064 1.7177913068442376
1.0461639079819847 1.7504966452480197
1.0461639079819847 1.709614972243292
1.0636457327625934 1.6850859684404556
1.0345093581282454 1.6196752916328914
1.0228548082745064 1.578793618628164
1.0053729834938974 1.5542646148253272
0.9995457085670278 1.5542646148253272
0.9878911587132887 1.5706172840272183
0.9645820590058103 1.5379119456234362
0.9471002342252014 1.5133829418205997
0.9296184094445926 1.472501268815872
0.9004820348102446 1.43979593041209
0.8888274849565053 1.4152669266092535
0.9063093097371142 1.390737922806417
0.8830002100296358 1.341679915200744
0.8655183852490269 1.292621907595071
0.8422092855415485 1.2844455729941253
0.8480365604684181 1.2762692383931797
0.8363820106146789 1.2517402345903432
0.8247274607609397 1.2026822269846702
0.8072456359803309 1.088213542571433
0.7722819864191133 0.9410395197544137
0.7548001616385045 0.7856891623364488
0.7198365120772868 0.6712204779232116
0.6965274123698084 0.5976334665147021
0.6790455875891996 0.5240464551061924
0.644081938027982 0.4749884475005193
0.5974637386130252 0.3768724322891731
0.5275364394905898 0.3196380900825545
0.4634364152950242 0.27875641707782695
0.39350911617258894 0.2624037478759359
0.3468909167576321 0.2542274132749904
0.31192726719641445 0.23787474407309936
0.28861816748893604 0.2051694056693173
0.26530906778145763 0.18881673646742625
0.259481792854588 0.2051694056693173
0.24199996807397922 0.17246406726553523
0.20703631851276158 0.23787474407309936
0.17789994387841357 0.2133457402702628
0.1196271946097175 0.17246406726553523
0.07300899519476066 0.1479350634626987
0.026390795779803824 0.1642877326645897
-0.0027455788545442004 0.18064040186648073
-0.03770922841576183 0.19699307106837177
-0.07267287797697947 0.2133457402702628
-0.1076365275381971 0.2051694056693173
-0.14842745202628432 0.2215220748712083
-0.18339110158750196 0.2542274132749904
-0.22418202607558918 0.2705800824768814
-0.24749112578306762 0.2705800824768814
-0.29410932519802446 0.2542274132749904
-0.3232456998323725 0.2542274132749904
-0.3582093493935901 0.2542274132749904
-0.3756911741741989 0.22969840947215384
-0.38734572402793815 0.24605107867404485
-0.39900027388167736 0.23787474407309936
-0.43396392344289497 0.24605107867404485
-0.4514457482235038 0.22969840947215384
-0.463100298077243 0.22969840947215384
-0.4805821228578518 0.22969840947215384
-0.4864093977847214 0.2624037478759359
-0.49223667271159105 0.27875641707782695
-0.5038912225653303 0.29510908627971794
-0.5155457724190694 0.2705800824768814
-0.521373047345939 0.2624037478759359
-0.5330275971996783 0.2705800824768814
-0.521373047345939 0.30328542088066346
-0.5097184974921999 0.30328542088066346
-0.5097184974921999 0.30328542088066346
-0.521373047345939 0.29510908627971794
-0.521373047345939 0.2705800824768814
-0.521373047345939 0.27875641707782695
-0.5097184974921999 0.311461755481609
-0.5038912225653303 0.344167093885391
-0.5097184974921999 0.33599075928444555
-0.5155457724190694 0.3196380900825545
-0.5272003222728087 0.30328542088066346
-0.521373047345939 0.3196380900825545
-0.5155457724190694 0.3278144246835
-0.4980639476384606 0.33599075928444555
-0.5038912225653303 0.3278144246835
-0.5155457724190694 0.30328542088066346
-0.5272003222728087 0.30328542088066346
-0.5155457724190694 0.29510908627971794
-0.4980639476384606 0.3278144246835
-0.4747548479309822 0.33599075928444555
-0.4805821228578518 0.33599075928444555
-0.4864093977847214 0.29510908627971794
-0.4980639476384606 0.2869327516787724
-0.4980639476384606 0.27875641707782695
-0.49223667271159105 0.2705800824768814
-0.4805821228578518 0.27875641707782695
-0.4747548479309822 0.2705800824768814
-0.4689275730041126 0.24605107867404485
-0.4864093977847214 0.24605107867404485
-0.4864093977847214 0.2542274132749904
-0.4689275730041126 0.2624037478759359
-0.463100298077243 0.2705800824768814
-0.4747548479309822 0.2705800824768814
-0.4864093977847214 0.22969840947215384
-0.4864093977847214 0.24605107867404485
-0.49223667271159105 0.23787474407309936
-0.4864093977847214 0.23787474407309936
-0.4980639476384606 0.24605107867404485
-0.4980639476384606 0.23787474407309936
-0.5097184974921999 0.2215220748712083
-0.5155457724190694 0.2215220748712083
-0.5272003222728087 0.22969840947215384
-0.5097184974921999 0.24605107867404485
-0.5038912225653303 0.2542274132749904
-0.4980639476384606 0.2542274132749904
-0.4980639476384606 0.22969840947215384
-0.4980639476384606 0.2051694056693173
-0.5097184974921999 0.2133457402702628
-0.4980639476384606 0.2051694056693173
-0.5038912225653303 0.23787474407309936
-0.4864093977847214 0.2133457402702628
-0.4805821228578518 0.22969840947215384
-0.4980639476384606 0.23787474407309936
-0.521373047345939 0.2215220748712083
-0.49223667271159105 0.23787474407309936
-0.4980639476384606 0.23787474407309936
-0.4980639476384606 0.2542274132749904
-0.5038912225653303 0.23787474407309936
-0.5097184974921999 0.22969840947215384
-0.5155457724190694 0.24605107867404485
-0.4980639476384606 0.2705800824768814
-0.5038912225653303 0.2542274132749904
-0.5038912225653303 0.2624037478759359
-0.5038912225653303 0.2542274132749904
-0.5038912225653303 0.23787474407309936
-0.5038912225653303 0.23787474407309936
-0.4805821228578518 0.2542274132749904
-0.4747548479309822 0.2624037478759359
-0.4805821228578518 0.2705800824768814
-0.4864093977847214 0.24605107867404485
-0.49223667271159105 0.22969840947215384
-0.49223667271159105 0.2542274132749904
-0.4864093977847214 0.2624037478759359
-0.4689275730041126 0.2624037478759359
-0.4747548479309822 0.2705800824768814
-0.4689275730041126 0.24605107867404485
-0.4689275730041126 0.23787474407309936
-0.463100298077243 0.2624037478759359
-0.4456184732966342 0.2869327516787724
-0.43396392344289497 0.27875641707782695
-0.4456184732966342 0.27875641707782695
-0.463100298077243 0.2624037478759359
-0.4747548479309822 0.2624037478759359
-0.4805821228578518 0.27875641707782695
-0.4689275730041126 0.2869327516787724
-0.463100298077243 0.2869327516787724
-0.4514457482235038 0.2869327516787724
-0.4397911983697646 0.27875641707782695
-0.4456184732966342 0.23787474407309936
-0.4397911983697646 0.2542274132749904
-0.42813664851602534 0.2624037478759359
-0.41065482373541656 0.27875641707782695
-0.40482754880854693 0.2705800824768814
-0.38734572402793815 0.2542274132749904
-0.38734572402793815 0.22969840947215384
-0.39900027388167736 0.23787474407309936
-0.3756911741741989 0.24605107867404485
-0.3582093493935901 0.23787474407309936
-0.3698638992473293 0.2215220748712083
-0.3698638992473293 0.2133457402702628
-0.3756911741741989 0.18064040186648073
-0.3698638992473293 0.18064040186648073
-0.3523820744667205 0.1642877326645897
-0.31741842490550287 0.1479350634626987
-0.29410932519802446 0.09887705585702558
-0.28828205027115483 -0.015591628556211625
-0.2591456756368068 -0.26088166658457707
-0.21835475114871958 -0.8086960848479267
-0.12511835231880591 -1.2175128148952024
0.07883627012163028 -1.0866914612800742
0.4867455150025026 -0.6778747312327984
1.1394003068118983 -0.3917030201997053
1.8328460231093813 -0.30993967419025015
2.2407552679902536 -0.2690580011855226
2.223273443209645 -0.25270533198363154
2.0542824703304263 -0.21182365897890398
1.8561551228168598 -0.2036473243779585
1.7629187239869462 -0.24452899738268605
1.6929914248645108 -0.25270533198363154
1.588100476180858 -0.3017633395893047
1.483209527497205 -0.30993967419025015
1.4016276785210307 -0.3344686779930867
1.3258731044717258 -0.3671740163968688
1.2151548808612032 -0.4162320240025419
1.11609120710442 -0.4489373624063239
1.0228548082745064 -0.481642700810106
0.9296184094445926 -0.5061717046129426
0.8247274607609397 -0.5307007084157791
0.6848728625160692 -0.5552297122186156
0.5450182642711987 -0.6451693928290163
0.38185456631884973 -0.6778747312327984
0.20703631851276158 -0.7432854080403625
0.03804534563354303 -0.78416708104509
-0.15425472695315393 -0.9068121000592728
-0.3407275246129813 -0.9967517806696734
-0.5505094219802871 -1.0785151266791286
-0.7486367694938536 -1.119396799683856
-0.9875550414955074 -1.1602784726885838
-1.2089914887165525 -1.25839448789993
-1.4129461111569885 -1.3892158415150582
-1.6052461837436856 -1.560918868134914
-1.745100781988556 -1.7571508985576063
-1.8558190055990786 -1.9779119327831354
-1.9257463047215138 -2.1250859556001545
-1.9607099542827315 -2.215025636210555
-1.9840190539902098 -2.2967889822200105
-2.0364645283320364 -2.4439630050370296
-2.065600902966384 -2.640195035459722
-2.1704918516500373 -2.8118980620795777
-2.3161737248217773 -2.975424754098488
-2.4502010481397782 -3.147127780718344
-2.514301072335344 -3.3188308073381996
-2.5667465466771704 -3.5232391723618375
-2.659982945507084 -3.547768176164674
-2.764873894190737 -3.3760651495448184
-2.8231466434594332 -3.08171710391078
-2.7590466192638674 -2.8200743966805235
-2.6133647460921274 -2.5584316894502668
-2.4152373985785607 -2.264083643816228
-2.205455501211255 -2.0596752787925903
-2.0248099784782974 -1.8552669137689526
-1.8266826309647306 -1.6590348833462603
-1.628555283451164 -1.4219211799188403
-1.4712188604256846 -1.225689149496148
-1.3663279117420317 -1.0621624574772375
-1.3022278875464661 -0.9231647692611639
-1.2497824132046398 -0.767814411843199
-1.1915096639359437 -0.6369930582280707
-1.1332369146672476 -0.5061717046129426
-1.0691368904716818 -0.35082134719497776
-1.0341732409104643 -0.24452899738268605
-1.022518691056725 -0.18729465517606744
-1.010864141202986 -0.1137076437675578
-0.9875550414955074 -0.02376796315715714
-0.935109567153681 0.0498190482513525
-0.847700443250637 0.11522972505891661
-0.7428094945669841 0.2051694056693173
-0.6612276455908096 0.2542274132749904
-0.5913003464683743 0.33599075928444555
-0.5446821470534174 0.40957777069295515
-0.4514457482235038 0.4749884475005193
-0.38734572402793815 0.56492812811092
-0.3232456998323725 0.581280797312811
-0.22418202607558918 0.6385151395194296
-0.12511835231880591 0.6630441433222661
-0.014400128708283411 0.7039258163269937
0.08466354504849988 0.7366311547307758
0.17789994387841357 0.7448074893317213
0.259481792854588 0.7448074893317213
0.31192726719641445 0.7529838239326668
0.38768184124571936 0.7775128277355033
0.42847276573380655 0.8020418315383399
0.4750909651487634 0.867452508345904
0.5042273397831114 0.9328631851534681
0.5217091645637203 0.9900975273600867
0.5625000890518075 1.0391555349657597
0.5741546389055467 1.055508204167651
0.6032910135398947 1.104566211773324
0.6790455875891996 1.1781532231818337
0.7256637870041565 1.2272112307875067
0.7722819864191133 1.2517402345903432
0.8247274607609397 1.2680929037922342
0.8655183852490269 1.3171509113979074
0.9471002342252014 1.390737922806417
1.0170275333476366 1.4316195958111446
1.1102639321775503 1.4479722650130356
1.1627094065193768 1.407090592008308
1.1976730560805944 1.3335035805997983
1.2326367056418122 1.2762692383931797
1.2734276301298992 1.2190348961865611
1.337527654325465 1.2108585615856156
1.4016276785210307 1.186329557782779
1.442418603009118 1.169976888580888
1.4773822525703355 1.120918880975215
1.4773822525703355 1.088213542571433
1.4948640773509443 1.0636845387685965
1.5065186272046835 1.088213542571433
1.5531368266196404 1.120918880975215
1.5764459263271187 1.137271550177106
1.6114095758883364 1.1454478847780516
1.646373225449554 1.153624219378997
1.675509600083902 1.1945058923837246
1.7396096242794676 1.2108585615856156
1.7745732738406854 1.2272112307875067
1.7687459989138157 1.1945058923837246
1.7629187239869462 1.186329557782779
1.7396096242794676 1.1945058923837246
1.7396096242794676 1.2108585615856156
1.7396096242794676 1.2435638999893976
1.7570914490600764 1.2680929037922342
1.7570914490600764 1.2680929037922342
1.7396096242794676 1.2599165691912888
1.6988186997913806 1.2435638999893976
1.675509600083902 1.2435638999893976
1.6696823251570325 1.2272112307875067
1.6580277753032933 1.2353875653884523
1.6405459505226845 1.1945058923837246
1.6114095758883364 1.1454478847780516
1.5706186514002491 1.088213542571433
1.5473095516927708 1.0718608733695418
1.5181731770584228 1.0473318695667053
1.4773822525703355 1.0146265311629232
1.424936778228509 0.9819211927591412
1.3608367540329434 0.9165105159515771
1.3025640047642473 0.851099839144013
1.2617730802761602 0.8183945007402309
1.2326367056418122 0.7938654969373944
1.1918457811537249 0.7448074893317213
1.1277457569581593 0.7284548201298302
1.0519911829088544 0.6466914741203751
0.9820638837864191 0.581280797312811
0.9179638595908534 0.5240464551061924
0.8655183852490269 0.49951745130335584
0.8072456359803309 0.45045944369768276
0.7314910619310261 0.4014014360920096
0.6790455875891996 0.344167093885391
0.6032910135398947 0.29510908627971794
0.5275364394905898 0.2624037478759359
0.4750909651487634 0.2624037478759359
0.41681821588006734 0.23787474407309936
0.3702000164651105 0.2051694056693173
0.30027271734267524 0.1479350634626987
0.24199996807397922 0.11522972505891661
0.16624539402467434 0.09070072125608007
0.12545446953658712 0.07434805205418904
0.08466354504849988 0.06617171745324353
0.026390795779803824 0.06617171745324353
-0.008572853781413805 0.04164271365040698
-0.06101832812324025 0.03346637904946147
-0.09598197768445788 0.0498190482513525
-0.09598197768445788 0.07434805205418904
-0.1192910773919363 0.05799538285229801
-0.15425472695315393 0.05799538285229801
-0.17756382666063236 0.0007610406456794045
-0.21252747622184998 -0.007415293955266111
-0.24166385085619801 0.017113709847570435
-0.23000930100245878 0.05799538285229801
-0.24749112578306762 0.05799538285229801
-0.2649729505636764 0.06617171745324353
-0.28828205027115483 0.03346637904946147
-0.30576387505176367 0.02529004444851595
-0.30576387505176367 0.0498190482513525
-0.29993660012489404 0.0498190482513525
-0.29410932519802446 0.06617171745324353
-0.29993660012489404 0.0498190482513525
-0.3290729747592421 0.05799538285229801
-0.3523820744667205 0.0498190482513525
-0.3407275246129813 0.0498190482513525
-0.3523820744667205 0.09070072125608007
-0.3290729747592421 0.08252438665513456
-0.3232456998323725 0.09070072125608007
-0.3232456998323725 0.09070072125608007
-0.3407275246129813 0.0498190482513525
-0.3465547995398509 0.07434805205418904
-0.3582093493935901 0.09070072125608007
-0.3349002496861117 0.09070072125608007
-0.3349002496861117 0.1070533904579711
-0.3523820744667205 0.07434805205418904
-0.3465547995398509 0.06617171745324353
-0.3465547995398509 0.07434805205418904
-0.3349002496861117 0.09887705585702558
-0.3349002496861117 0.12340605965986214
-0.3349002496861117 0.1070533904579711
-0.3582093493935901 0.09070072125608007
-0.3465547995398509 0.08252438665513456
-0.3582093493935901 0.1070533904579711
-0.3349002496861117 0.13158239426080764
-0.3232456998323725 0.12340605965986214
-0.3349002496861117 0.13975872886175317
-0.3407275246129813 0.09070072125608007
-0.3290729747592421 0.07434805205418904
-0.3407275246129813 0.07434805205418904
-0.3290729747592421 0.1070533904579711
-0.30576387505176367 0.1070533904579711
-0.30576387505176367 0.09070072125608007
-0.31741842490550287 0.09070072125608007
-0.31741842490550287 0.06617171745324353
-0.31741842490550287 0.07434805205418904
-0.30576387505176367 0.08252438665513456
-0.28828205027115483 0.09070072125608007
-0.30576387505176367 0.09070072125608007
-0.29410932519802446 0.07434805205418904
-0.30576387505176367 0.04164271365040698
-0.29410932519802446 0.04164271365040698
-0.28828205027115483 0.0498190482513525
-0.29410932519802446 0.0498190482513525
-0.29993660012489404 0.0498190482513525
-0.28245477534428526 0.02529004444851595
-0.29993660012489404 0.017113709847570435
-0.28828205027115483 0.0007610406456794045
-0.28245477534428526 0.02529004444851595
-0.28245477534428526 0.04164271365040698
-0.29410932519802446 0.02529004444851595
-0.29993660012489404 0.0007610406456794045
-0.29993660012489404 -0.02376796315715714
-0.31159114997863324 -0.015591628556211625
-0.30576387505176367 -0.007415293955266111
-0.29993660012489404 0.017113709847570435
-0.29993660012489404 -0.015591628556211625
-0.30576387505176367 -0.048296966959993685
-0.3290729747592421 -0.048296966959993685
-0.3232456998323725 -0.031944297758102654
-0.29410932519802446 0.0007610406456794045
-0.28828205027115483 0.00893737524662492
-0.29993660012489404 -0.007415293955266111
-0.31741842490550287 -0.02376796315715714
-0.3232456998323725 -0.04012063235904817
-0.3290729747592421 -0.031944297758102654
-0.31741842490550287 -0.04012063235904817
-0.31159114997863324 -0.048296966959993685
-0.30576387505176367 -0.04012063235904817
-0.31741842490550287 -0.06464963616188471
-0.31741842490550287 -0.07282597076283023
-0.3407275246129813 -0.048296966959993685
-0.31741842490550287 -0.04012063235904817
-0.29410932519802446 -0.031944297758102654
-0.29993660012489404 -0.031944297758102654
-0.29993660012489404 -0.048296966959993685
-0.3232456998323725 -0.07282597076283023
-0.3232456998323725 -0.0564733015609392
-0.3290729747592421 -0.048296966959993685
-0.29993660012489404 -0.015591628556211625
-0.29410932519802446 -0.031944297758102654
-0.29993660012489404 -0.0564733015609392
-0.3232456998323725 -0.08100230536377574
-0.31741842490550287 -0.0564733015609392
-0.31741842490550287 -0.048296966959993685
-0.29993660012489404 -0.031944297758102654
-0.28828205027115483 -0.031944297758102654
-0.31159114997863324 -0.04012063235904817
-0.31159114997863324 -0.0564733015609392
-0.3232456998323725 -0.04012063235904817
-0.31741842490550287 -0.048296966959993685
-0.29410932519802446 -0.0564733015609392
-0.28828205027115483 -0.04012063235904817
-0.28828205027115483 -0.048296966959993685
-0.29410932519802446 -0.07282597076283023
-0.30576387505176367 -0.0564733015609392
-0.29410932519802446 -0.04012063235904817
-0.28828205027115483 -0.048296966959993685
-0.27662750041741563 -0.031944297758102654
-0.29410932519802446 -0.048296966959993685
-0.30576387505176367 -0.048296966959993685
-0.30576387505176367 -0.0564733015609392
-0.28245477534428526 -0.0564733015609392
-0.28245477534428526 -0.048296966959993685
-0.28245477534428526 -0.04012063235904817
-0.29993660012489404 -0.031944297758102654
-0.29410932519802446 -0.0564733015609392
-0.29410932519802446 -0.06464963616188471
-0.28245477534428526 -0.048296966959993685
-0.2649729505636764 -0.0564733015609392
-0.27080022549054605 -0.08917863996472127
-0.27080022549054605 -0.08917863996472127
-0.2649729505636764 -0.08917863996472127
-0.27080022549054605 -0.08917863996472127
-0.24749112578306762 -0.08100230536377574
-0.2358365759293284 -0.1137076437675578
-0.21835475114871958 -0.17094198597417642
-0.19504565144124117 -0.3835266855987598
-0.16008200188002353 -0.8986357654583272
-0.09598197768445788 -1.3728631723131672
0.07883627012163028 -1.307452495505603
0.4634364152950242 -0.8822830962564362
1.1277457569581593 -0.5715823814205067
1.8445005729631205 -0.497995370011997
2.275718917551471 -0.5225243738148335
2.2407552679902536 -0.497995370011997
2.0426279204766873 -0.4162320240025419
1.9027733222318166 -0.40805568940159637
1.8211914732556422 -0.4162320240025419
1.7570914490600764 -0.46529003160821497
1.6405459505226845 -0.4898190354110515
1.5473095516927708 -0.5225243738148335
1.4599004277897267 -0.5307007084157791
1.3783185788135521 -0.5552297122186156
1.308391279691117 -0.5634060468195612
1.2093276059343336 -0.6124640544252342
1.11609120710442 -0.6696983966318528
1.0228548082745064 -0.6696983966318528
0.923791134517723 -0.6860510658337439
0.8247274607609397 -0.718756404237526
0.67321831266233 -0.7596380772422535
0.5158818896368507 -0.8005197502469811
0.3352363669038929 -0.8986357654583272
0.14876356924406553 -0.9640464422658914
-0.014400128708283411 -1.0458097882753465
-0.16008200188002353 -1.1275731342848017
-0.3290729747592421 -1.1929838110923658
-0.5505094219802871 -1.274747157101821
-0.7428094945669841 -1.3483341685103305
-0.9176277423730722 -1.4300975145197858
-1.0633096155448123 -1.5527425335339684
-1.185682389009074 -1.6753875525481512
-1.2847460627658573 -1.830737909966116
-1.3546733618882925 -1.9697355981821898
-1.4246006610107278 -2.0433226095906996
-1.4770461353525544 -2.0923806171963726
-1.5061825099869024 -2.149614959402991
-1.5353188846212502 -2.2477309746143375
-1.628555283451164 -2.468492008839866
-1.7684098816960345 -2.672900373863504
-1.9257463047215138 -2.8609560696852507
-2.059773628039515 -3.0163064271032156
-2.147182751942559 -3.212538457525908
-2.2287646009187334 -3.3188308073381996
-2.333655549602386 -3.261596465131581
-2.409410123651691 -3.0653644347088886
-2.4327192233591695 -2.828250731281469
-2.3627919242367343 -2.5993133624549944
-2.199628226284385 -2.3785523282294654
-2.001500878770819 -2.165967628604882
-1.7684098816960345 -1.9942646019850263
-1.5469734344749895 -1.8716195829708435
-1.319709712327075 -1.7162692255528789
-1.1390641895941171 -1.544566198933023
-1.0166914161298555 -1.3810395069141126
-0.9700732167148987 -1.2175128148952024
-0.9700732167148987 -1.0621624574772375
-0.9525913919342898 -0.9558701076649458
-0.905973192519333 -0.8495777578526542
-0.8768368178849849 -0.7105800696365804
-0.8127367936894193 -0.5388770430167246
-0.7602913193475929 -0.40805568940159637
-0.7544640444207232 -0.30993967419025015
-0.7544640444207232 -0.2199999935798495
-0.7661185942744625 -0.13823664757039436
-0.7369822196401145 -0.0564733015609392
-0.6728821954445487 0.0498190482513525
-0.5971276213952439 0.1479350634626987
-0.5388548721265478 0.22969840947215384
-0.5097184974921999 0.33599075928444555
-0.4864093977847214 0.39322510149106416
-0.463100298077243 0.49951745130335584
-0.43396392344289497 0.6058098011156475
-0.3698638992473293 0.6548678087213207
-0.31159114997863324 0.7121021509279393
-0.24166385085619801 0.7202784855288847
-0.20087292636811077 0.7366311547307758
-0.14260017709941472 0.7693364931345579
-0.07850015290384907 0.7856891623364488
-0.014400128708283411 0.7938654969373944
0.04969989548728224 0.8020418315383399
0.061354445341021455 0.8183945007402309
0.06718172026789106 0.8020418315383399
0.061354445341021455 0.8429235045430675
0.06718172026789106 0.8838051775477951
0.07300899519476066 0.8838051775477951
0.09049081997536948 0.9165105159515771
0.1079726447559783 0.9001578467496861
0.1196271946097175 0.9328631851534681
0.1196271946097175 0.9573921889563047
0.16041811909780473 0.9900975273600867
0.20703631851276158 1.0146265311629232
0.20703631851276158 1.0309792003648144
0.23034541822024 1.0391555349657597
0.24782724300084882 1.0309792003648144
0.2536545179277184 1.088213542571433
0.29444544241580567 1.137271550177106
0.31192726719641445 1.1454478847780516
0.3410636418307625 1.1781532231818337
0.3760272913919801 1.169976888580888
0.39350911617258894 1.1945058923837246
0.422645490806937 1.2517402345903432
0.4634364152950242 1.2844455729941253
0.4867455150025026 1.3253272459988528
0.5275364394905898 1.3171509113979074
0.5625000890518075 1.341679915200744
0.5799819138324163 1.3825615882054714
0.5916364636861555 1.4152669266092535
0.6499092129548516 1.472501268815872
0.6907001374429388 1.5215592764215453
0.7140092371504172 1.5133829418205997
0.7373183368578956 1.5215592764215453
0.760627436565374 1.5379119456234362
0.7839365362728524 1.5706172840272183
0.8130729109072005 1.611498957031946
0.8363820106146789 1.6442042954357279
0.8713456601758965 1.660556964637619
0.8771729351027662 1.67690963383951
0.8830002100296358 1.67690963383951
0.9004820348102446 1.7177913068442376
0.9296184094445926 1.7341439760461286
0.9471002342252014 1.7341439760461286
0.9587547840789407 1.7259676414451832
0.9412729592983318 1.7014386376423465
0.9354456843714622 1.6850859684404556
0.9296184094445926 1.6932623030414011
0.9354456843714622 1.6932623030414011
0.9412729592983318 1.6850859684404556
0.9354456843714622 1.660556964637619
0.9179638595908534 1.627851626233837
0.8830002100296358 1.578793618628164
0.8771729351027662 1.5624409494262728
0.8538638353952878 1.5215592764215453
0.8480365604684181 1.472501268815872
0.8247274607609397 1.4152669266092535
0.7839365362728524 1.374385253604526
0.7489728867116349 1.3171509113979074
0.7140092371504172 1.2599165691912888
0.6907001374429388 1.2026822269846702
0.6790455875891996 1.169976888580888
0.6266001132473732 1.0963898771723783
0.5858091887592859 1.0064501965619779
0.5275364394905898 0.9328631851534681
0.4692636902218938 0.8756288429468495
0.422645490806937 0.834747169942122
0.39933639109945857 0.7938654969373944
0.3352363669038929 0.7366311547307758
0.28861816748893604 0.6793968125241572
0.2245181432933704 0.6221624703175386
0.17789994387841357 0.5731044627118654
0.10214536982910868 0.56492812811092
0.07300899519476066 0.5240464551061924
0.03221807070667343 0.4831647821014648
-0.020227403635153015 0.46681211289957375
-0.06684560305010985 0.4259304398948462
-0.12511835231880591 0.40957777069295515
-0.13094562724567552 0.3768724322891731
-0.16590927680689313 0.3768724322891731
-0.18339110158750196 0.36051976308728206
-0.23000930100245878 0.311461755481609
-0.2649729505636764 0.27875641707782695
-0.30576387505176367 0.29510908627971794
-0.3290729747592421 0.3278144246835
-0.3290729747592421 0.311461755481609
-0.3523820744667205 0.29510908627971794
-0.3640366243204597 0.27875641707782695
-0.3815184491010685 0.2624037478759359
-0.39900027388167736 0.2705800824768814
-0.40482754880854693 0.27875641707782695
-0.41065482373541656 0.27875641707782695
-0.42230937358915577 0.2705800824768814
-0.43396392344289497 0.23787474407309936
-0.4456184732966342 0.23787474407309936
-0.4514457482235038 0.24605107867404485
-0.463100298077243 0.2705800824768814
-0.4397911983697646 0.29510908627971794
-0.4456184732966342 0.2869327516787724
-0.4747548479309822 0.2542274132749904
-0.4805821228578518 0.23787474407309936
-0.4864093977847214 0.24605107867404485
-0.49223667271159105 0.2705800824768814
-0.49223667271159105 0.30328542088066346
-0.5038912225653303 0.29510908627971794
-0.4980639476384606 0.29510908627971794
-0.5038912225653303 0.27875641707782695
-0.521373047345939 0.27875641707782695
-0.49223667271159105 0.27875641707782695
-0.49223667271159105 0.30328542088066346
-0.49223667271159105 0.3278144246835
-0.4980639476384606 0.30328542088066346
-0.5038912225653303 0.2705800824768814
-0.5155457724190694 0.30328542088066346
-0.4980639476384606 0.3196380900825545
-0.4864093977847214 0.311461755481609
-0.4747548479309822 0.3278144246835
-0.4805821228578518 0.311461755481609
-0.5038912225653303 0.2869327516787724
-0.5038912225653303 0.2869327516787724
-0.4980639476384606 0.29510908627971794
-0.49223667271159105 0.3196380900825545
-0.4864093977847214 0.311461755481609
-0.4980639476384606 0.30328542088066346
-0.5038912225653303 0.29510908627971794
-0.4805821228578518 0.29510908627971794
-0.463100298077243 0.3278144246835
-0.463100298077243 0.33599075928444555
-0.4514457482235038 0.311461755481609
-0.4514457482235038 0.30328542088066346
-0.4397911983697646 0.2624037478759359
-0.4456184732966342 0.2869327516787724
-0.42813664851602534 0.30328542088066346
-0.41648209866228614 0.311461755481609
-0.42813664851602534 0.29510908627971794
-0.42813664851602534 0.2624037478759359
-0.42813664851602534 0.2624037478759359
-0.41065482373541656 0.24605107867404485
-0.38734572402793815 0.24605107867404485
-0.3815184491010685 0.2542274132749904
-0.40482754880854693 0.2705800824768814
-0.40482754880854693 0.23787474407309936
-0.41065482373541656 0.23787474407309936
-0.40482754880854693 0.23787474407309936
-0.39317299895480773 0.23787474407309936
-0.39317299895480773 0.23787474407309936
-0.38734572402793815 0.23787474407309936
-0.3815184491010685 0.2051694056693173
-0.39900027388167736 0.2051694056693173
-0.41065482373541656 0.2215220748712083
-0.39317299895480773 0.22969840947215384
-0.38734572402793815 0.23787474407309936
-0.3815184491010685 0.2133457402702628
-0.39317299895480773 0.2133457402702628
-0.39317299895480773 0.18881673646742625
-0.3756911741741989 0.19699307106837177
-0.38734572402793815 0.2133457402702628
-0.3698638992473293 0.2133457402702628
-0.3815184491010685 0.19699307106837177
-0.38734572402793815 0.17246406726553523
-0.41648209866228614 0.1642877326645897
-0.39900027388167736 0.18881673646742625
-0.39317299895480773 0.2051694056693173
-0.3698638992473293 0.19699307106837177
-0.3698638992473293 0.18881673646742625
-0.3815184491010685 0.17246406726553523
-0.3815184491010685 0.15611139806364419
-0.38734572402793815 0.1642877326645897
-0.3756911741741989 0.17246406726553523
-0.3640366243204597 0.17246406726553523
-0.3640366243204597 0.18881673646742625
-0.3756911741741989 0.15611139806364419
-0.3815184491010685 0.1479350634626987
-0.38734572402793815 0.15611139806364419
-0.3698638992473293 0.17246406726553523
-0.3407275246129813 0.18881673646742625
-0.3407275246129813 0.18064040186648073
-0.3640366243204597 0.17246406726553523
-0.38734572402793815 0.13975872886175317
-0.3756911741741989 0.1642877326645897
-0.3698638992473293 0.15611139806364419
-0.3465547995398509 0.15611139806364419
-0.3407275246129813 0.1642877326645897
-0.3523820744667205 0.1479350634626987
-0.3698638992473293 0.1070533904579711
-0.3698638992473293 0.1479350634626987
-0.3582093493935901 0.15611139806364419
-0.3407275246129813 0.18881673646742625
-0.3523820744667205 0.17246406726553523
-0.3523820744667205 0.15611139806364419
-0.3582093493935901 0.13975872886175317
-0.3640366243204597 0.1642877326645897
-0.3523820744667205 0.1479350634626987
-0.3232456998323725 0.18064040186648073
-0.31741842490550287 0.17246406726553523
-0.31741842490550287 0.1642877326645897
-0.3232456998323725 0.13975872886175317
-0.3465547995398509 0.15611139806364419
-0.31741842490550287 0.23787474407309936
-0.29410932519802446 0.2705800824768814
-0.29410932519802446 0.30328542088066346
-0.29410932519802446 0.3196380900825545
-0.27080022549054605 0.3686960976882276
-0.2649729505636764 0.4259304398948462
-0.2358365759293284 0.45045944369768276
-0.22418202607558918 0.46681211289957375
-0.20087292636811077 0.4831647821014648
-0.18921837651437157 0.5076937859043014
-0.15425472695315393 0.5240464551061924
-0.10180925261132749 0.5567517935099744
-0.043536503342631434 0.5731044627118654
0.003081696072325405 0.56492812811092
0.03804534563354303 0.5158701205052468
0.06718172026789106 0.38504876689011863
0.09049081997536948 0.2624037478759359
0.1196271946097175 0.03346637904946147
0.18955449373215277 -0.4489373624063239
0.27696361763519683 -1.02128078447251
0.42847276573380655 -1.1030441304819651
0.702354687296678 -0.8086960848479267
1.1918457811537249 -0.4898190354110515
1.8328460231093813 -0.3589976817959233
2.310682567112689 -0.3753503509978143
2.4330553405769506 -0.3589976817959233
2.275718917551471 -0.34264501259403224
2.1009006697453834 -0.3262923433921412
2.0018369959886 -0.3344686779930867
1.9610460715005127 -0.3753503509978143
1.9086005971586864 -0.3589976817959233
1.8445005729631205 -0.40805568940159637
1.7396096242794676 -0.4244083586034874
1.6580277753032933 -0.481642700810106
1.5589641015465099 -0.5225243738148335
1.4599004277897267 -0.5552297122186156
1.3899731286672914 -0.5961113852233432
1.2967367298373778 -0.6369930582280707
1.1801912312999856 -0.7024037350356349
1.0403366330551151 -0.7024037350356349
0.9121365846639838 -0.735109073439417
0.7722819864191133 -0.7596380772422535
0.6207728383205036 -0.8168724194488721
0.4576091403681546 -0.8904594308573818
0.28861816748893604 -1.02128078447251
0.09049081997536948 -1.1521021380876382
-0.07850015290384907 -1.291099826303712
-0.2533184007099372 -1.3646868377122217
-0.4456184732966342 -1.4219211799188403
-0.6437458208102007 -1.5036845259282954
-0.8535277181775065 -1.6263295449424782
-1.0574823406179428 -1.7898562369613884
-1.2323005884240308 -1.9942646019850263
-1.4129461111569885 -2.20684930160961
-1.5294916096943807 -2.419434001234193
-1.6343825583780336 -2.591137027854049
-1.7276189572079472 -2.7464873852720135
-1.803373531257252 -2.877308738887142
-1.879128105306557 -3.040835430906052
-1.9548826793558618 -3.196185788324017
-2.0889100026738627 -3.3188308073381996
-2.217110051064994 -3.4578284955542737
-2.3569646493098646 -3.605002518371293
-2.467682872920387 -3.7603528757892577
-2.57257382160404 -3.9075268986062768
-2.677464770287693 -3.940232237010059
-2.782355718971346 -3.825763552596822
-2.8114920936056937 -3.572297179967511
-2.8173193685325635 -3.310654472737254
-2.72408296970265 -3.089893438511725
-2.5609192717503007 -2.8527797350843054
-2.3569646493098646 -2.5502553548493214
-2.147182751942559 -2.2886126476190647
-1.9490554044289923 -2.0351462749897538
-1.7684098816960345 -1.7898562369613884
-1.628555283451164 -1.609976875740587
-1.5469734344749895 -1.3973921761160037
-1.4887006852062934 -1.2011601456933114
-1.4246006610107278 -1.0131044498715644
-1.3663279117420317 -0.8577540924535997
-1.2964006126195966 -0.718756404237526
-1.2264733134971613 -0.5879350506223977
-1.185682389009074 -0.45711369700726945
-1.1682005642284652 -0.3262923433921412
-1.1507187394478564 -0.18729465517606744
-1.144891464520987 -0.06464963616188471
-1.1041005400328996 0.03346637904946147
-1.040000515837334 0.09887705585702558
-0.9700732167148987 0.18064040186648073
-0.8826640928118545 0.2869327516787724
-0.7952549689088105 0.3686960976882276
-0.7253276697863752 0.46681211289957375
-0.6728821954445487 0.5322227897071379
-0.6204367211027223 0.5894571319137565
-0.5505094219802871 0.6221624703175386
-0.4747548479309822 0.6793968125241572
-0.3640366243204597 0.7366311547307758
-0.24749112578306762 0.7775128277355033
-0.16008200188002353 0.8183945007402309
-0.09015470275758827 0.8183945007402309
-0.02605467856202262 0.8183945007402309
0.03221807070667343 0.851099839144013
0.12545446953658712 0.8838051775477951
0.16041811909780473 0.9083341813506316
0.17207266895154394 0.9328631851534681
0.17789994387841357 0.9083341813506316
0.19538176865902238 0.9410395197544137
0.2245181432933704 0.9819211927591412
0.28279089256206646 1.0228028657638688
0.3060999922695449 1.0309792003648144
0.3352363669038929 1.055508204167651
0.3410636418307625 1.055508204167651
0.3585454666113713 1.0718608733695418
0.39350911617258894 1.104566211773324
0.422645490806937 1.1454478847780516
0.4750909651487634 1.1618005539799425
0.5042273397831114 1.169976888580888
0.5217091645637203 1.153624219378997
0.5508455391980682 1.1945058923837246
0.5916364636861555 1.2026822269846702
0.6207728383205036 1.2599165691912888
0.6673910377354604 1.2680929037922342
0.6907001374429388 1.3007982421960163
0.7314910619310261 1.3007982421960163
0.760627436565374 1.3089745767969618
0.7955910861265917 1.3498562498016895
0.8422092855415485 1.374385253604526
0.8713456601758965 1.3825615882054714
0.9179638595908534 1.390737922806417
0.9587547840789407 1.4152669266092535
1.0053729834938974 1.423443261210199
1.0519911829088544 1.472501268815872
1.1044366572506807 1.5133829418205997
1.145227581738768 1.5379119456234362
1.1976730560805944 1.5460882802243818
1.2384639805686817 1.5624409494262728
1.2617730802761602 1.5624409494262728
1.2850821799836385 1.578793618628164
1.349182204179204 1.6196752916328914
1.4016276785210307 1.611498957031946
1.4191095033016394 1.5951462878300549
1.4482458779359875 1.5951462878300549
1.4482458779359875 1.5951462878300549
1.442418603009118 1.6033226224310004
1.4599004277897267 1.611498957031946
1.483209527497205 1.6196752916328914
1.4773822525703355 1.5869699532291093
1.4773822525703355 1.5624409494262728
1.4599004277897267 1.5297356110224907
1.454073152862857 1.5133829418205997
1.4599004277897267 1.4970302726187086
1.4482458779359875 1.472501268815872
1.41328222837477 1.4561485996139811
1.395800403594161 1.3989142574073625
1.3550094791060738 1.341679915200744
1.308391279691117 1.3007982421960163
1.2734276301298992 1.2680929037922342
1.2559458053492905 1.2190348961865611
1.2093276059343336 1.186329557782779
1.1568821315925073 1.104566211773324
1.0927821073969415 1.0391555349657597
1.0286820832013759 0.9900975273600867
0.9820638837864191 0.9737448581581957
0.923791134517723 0.9246868505525226
0.8655183852490269 0.8756288429468495
0.8189001858340701 0.7938654969373944
0.7489728867116349 0.7284548201298302
0.6790455875891996 0.7039258163269937
0.6207728383205036 0.6630441433222661
0.5625000890518075 0.613986135716593
0.49840006485624183 0.581280797312811
0.42847276573380655 0.5322227897071379
0.3643727415382409 0.4831647821014648
0.3060999922695449 0.46681211289957375
0.24782724300084882 0.45045944369768276
0.19538176865902238 0.4341067744957917
0.13710901939032633 0.4014014360920096
0.09631809490223908 0.3768724322891731
0.05552717041415185 0.36051976308728206
0.03221807070667343 0.36051976308728206
-0.008572853781413805 0.3686960976882276
-0.03770922841576183 0.3686960976882276
-0.09015470275758827 0.33599075928444555
-0.13677290217254512 0.3196380900825545
-0.17173655173376273 0.2869327516787724
-0.18921837651437157 0.30328542088066346
-0.17756382666063236 0.29510908627971794
-0.20087292636811077 0.30328542088066346
-0.22418202607558918 0.311461755481609
-0.2358365759293284 0.30328542088066346
-0.24166385085619801 0.29510908627971794
-0.2649729505636764 0.29510908627971794
-0.2591456756368068 0.3196380900825545
-0.2591456756368068 0.30328542088066346
-0.2533184007099372 0.3196380900825545
-0.27080022549054605 0.3196380900825545
-0.27662750041741563 0.29510908627971794
-0.28828205027115483 0.30328542088066346
-0.28828205027115483 0.30328542088066346
-0.29410932519802446 0.3278144246835
-0.28245477534428526 0.3196380900825545
-0.29993660012489404 0.30328542088066346
-0.31159114997863324 0.3278144246835
-0.31741842490550287 0.3278144246835
-0.3290729747592421 0.344167093885391
-0.28828205027115483 0.36051976308728206
-0.29993660012489404 0.3686960976882276
-0.28828205027115483 0.35234342848633654
-0.31741842490550287 0.3686960976882276
-0.31741842490550287 0.35234342848633654
-0.29410932519802446 0.3768724322891731
-0.28828205027115483 0.3686960976882276
-0.30576387505176367 0.39322510149106416
-0.3232456998323725 0.3686960976882276
-0.30576387505176367 0.4014014360920096
-0.30576387505176367 0.41775410529390067
-0.27080022549054605 0.4259304398948462
-0.27080022549054605 0.41775410529390067
-0.28828205027115483 0.4259304398948462
-0.30576387505176367 0.4014014360920096
-0.29993660012489404 0.40957777069295515
-0.28828205027115483 0.4014014360920096
-0.2533184007099372 0.4341067744957917
-0.2533184007099372 0.41775410529390067
-0.2591456756368068 0.4259304398948462
-0.27662750041741563 0.40957777069295515
-0.27080022549054605 0.41775410529390067
-0.24166385085619801 0.40957777069295515
-0.23000930100245878 0.41775410529390067
-0.21252747622184998 0.4341067744957917
-0.22418202607558918 0.40957777069295515
-0.24166385085619801 0.41775410529390067
-0.24749112578306762 0.4014014360920096
-0.2591456756368068 0.40957777069295515
-0.22418202607558918 0.4341067744957917
-0.18921837651437157 0.4259304398948462
-0.18921837651437157 0.41775410529390067
-0.20670020129498037 0.4014014360920096
-0.21835475114871958 0.39322510149106416
-0.23000930100245878 0.40957777069295515
-0.21835475114871958 0.4586357782986283
-0.20087292636811077 0.4831647821014648
-0.20087292636811077 0.5322227897071379
-0.20670020129498037 0.5403991243080835
-0.20670020129498037 0.581280797312811
-0.20087292636811077 0.6221624703175386
-0.17173655173376273 0.6630441433222661
-0.12511835231880591 0.6875731471251026
-0.1076365275381971 0.6957494817260482
-0.1134638024650667 0.7039258163269937
-0.09015470275758827 0.7284548201298302
-0.06684560305010985 0.7856891623364488
-0.014400128708283411 0.8265708353411765
0.03221807070667343 0.834747169942122
0.061354445341021455 0.8102181661392854
0.06718172026789106 0.7529838239326668
0.08466354504849988 0.6548678087213207
0.09631809490223908 0.581280797312811
0.14293629431719593 0.5403991243080835
0.18955449373215277 0.4831647821014648
0.21286359343963118 0.4586357782986283
0.21286359343963118 0.4014014360920096
0.18372721880528317 0.33599075928444555
0.13128174446345672 0.30328542088066346
0.1079726447559783 0.27875641707782695
0.12545446953658712 0.23787474407309936
0.12545446953658712 0.23787474407309936
0.13128174446345672 0.2051694056693173
0.13710901939032633 0.2215220748712083
0.1196271946097175 0.2051694056693173
0.12545446953658712 0.2051694056693173
0.1079726447559783 0.2133457402702628
0.1079726447559783 0.19699307106837177
0.08466354504849988 0.15611139806364419
0.04969989548728224 0.13158239426080764
0.00890897099919501 0.13158239426080764
0.00890897099919501 0.13975872886175317
-0.0027455788545442004 0.17246406726553523
-0.014400128708283411 0.1642877326645897
-0.043536503342631434 0.18881673646742625
-0.09598197768445788 0.18064040186648073
-0.1134638024650667 0.18064040186648073
-0.12511835231880591 0.17246406726553523
-0.13677290217254512 0.1642877326645897
-0.17756382666063236 0.13158239426080764
-0.20087292636811077 0.11522972505891661
-0.23000930100245878 0.12340605965986214
-0.23000930100245878 0.1070533904579711
-0.23000930100245878 0.09070072125608007
-0.24749112578306762 0.09070072125608007
-0.2358365759293284 0.06617171745324353
-0.2591456756368068 0.05799538285229801
-0.27662750041741563 0.06617171745324353
-0.31741842490550287 0.06617171745324353
-0.31741842490550287 0.08252438665513456
-0.28828205027115483 0.06617171745324353
-0.28245477534428526 0.06617171745324353
-0.3232456998323725 0.0498190482513525
-0.3465547995398509 0.0498190482513525
-0.3465547995398509 0.05799538285229801
-0.3232456998323725 0.0498190482513525
-0.28245477534428526 0.03346637904946147
-0.29993660012489404 0.02529004444851595
-0.31741842490550287 0.017113709847570435
-0.3407275246129813 0.0007610406456794045
-0.31159114997863324 0.00893737524662492
-0.31159114997863324 0.017113709847570435
-0.30576387505176367 0.03346637904946147
-0.28828205027115483 0.017113709847570435
-0.27662750041741563 -0.007415293955266111
-0.27080022549054605 -0.048296966959993685
-0.27662750041741563 -0.0564733015609392
-0.27662750041741563 -0.06464963616188471
-0.2591456756368068 -0.1137076437675578
-0.24749112578306762 -0.2199999935798495
-0.18921837651437157 -0.6206403890261798
-0.1192910773919363 -1.2338654840970933
-0.008572853781413805 -1.4791555221254589
0.28861816748893604 -1.1602784726885838
0.8189001858340701 -0.751461742641308
1.5473095516927708 -0.5388770430167246
2.1242097694528614 -0.5307007084157791
2.310682567112689 -0.5225243738148335
2.194137068575297 -0.45711369700726945
2.0193188207692088 -0.4325846932044329
1.9202551470124254 -0.4325846932044329
1.8561551228168598 -0.4407610278053784
1.7629187239869462 -0.4898190354110515
1.6405459505226845 -0.5225243738148335
1.5298277269121618 -0.5634060468195612
1.4482458779359875 -0.5388770430167246
1.349182204179204 -0.5715823814205067
1.250118530422421 -0.5961113852233432
1.1335730318850288 -0.6451693928290163
1.0286820832013759 -0.718756404237526
0.9004820348102446 -0.7269327388384714
0.7781092613459829 -0.767814411843199
0.6499092129548516 -0.7759907464441446
0.49840006485624183 -0.8005197502469811
0.3643727415382409 -0.8741067616554907
0.21869086836650078 -0.9476937730640004
0.061354445341021455 -1.0131044498715644
-0.09015470275758827 -1.0785151266791286
-0.2591456756368068 -1.119396799683856
-0.42230937358915577 -1.1848074764914203
-0.5738185216877655 -1.2829234917027665
-0.7369822196401145 -1.3646868377122217
-0.8768368178849849 -1.4464501837216768
-1.022518691056725 -1.5363898643320775
-1.1682005642284652 -1.6917402217500424
-1.3022278875464661 -1.8552669137689526
-1.4012915613032495 -2.0596752787925903
-1.4770461353525544 -2.1741439632058275
-1.5353188846212502 -2.272259978417174
-1.5761098091093375 -2.4112576666332477
-1.6110734586705553 -2.574784358652158
-1.6810007577929904 -2.7464873852720135
-1.774237156622904 -2.9018377426899784
-1.9024372050140355 -3.049011765506998
-2.0306372534051667 -3.196185788324017
-2.118046377308211 -3.3270071419391454
-2.217110051064994 -3.5232391723618375
-2.322000999748647 -3.6377078567750747
-2.4327192233591695 -3.547768176164674
-2.5201283472622134 -3.351536145741982
-2.5550919968234314 -3.1225987769155075
-2.4909919726278655 -2.8609560696852507
-2.380273749017343 -2.656547704661613
-2.246246425699342 -2.4276103358351384
-2.12970092716195 -2.2395546400133917
-1.9781917790633403 -2.0433226095906996
-1.7800644315497738 -1.830737909966116
-1.5935916338899463 -1.6018005411396417
-1.4828734102794239 -1.4382738491207312
-1.4012915613032495 -1.274747157101821
-1.3313642621808142 -1.1275731342848017
-1.2614369630583788 -0.9885754460687279
-1.1915096639359437 -0.8577540924535997
-1.1332369146672476 -0.718756404237526
-1.0691368904716818 -0.6042877198242887
-1.010864141202986 -0.5061717046129426
-0.9933823164223771 -0.4244083586034874
-0.9933823164223771 -0.34264501259403224
-0.9933823164223771 -0.2690580011855226
-0.9292822922268114 -0.18729465517606744
-0.8710095429581154 -0.13006031296944884
-0.7952549689088105 -0.0564733015609392
-0.7195003948595056 0.0007610406456794045
-0.6612276455908096 0.0498190482513525
-0.5854730715415047 0.12340605965986214
-0.5155457724190694 0.19699307106837177
-0.43396392344289497 0.2542274132749904
-0.3756911741741989 0.33599075928444555
-0.30576387505176367 0.3686960976882276
-0.2358365759293284 0.40957777069295515
-0.17173655173376273 0.45045944369768276
-0.08432742783071867 0.4831647821014648
0.00890897099919501 0.5240464551061924
0.09631809490223908 0.5322227897071379
0.17207266895154394 0.5240464551061924
0.2245181432933704 0.5158701205052468
0.27696361763519683 0.5485754589090289
0.30027271734267524 0.5731044627118654
0.3177545421232841 0.5894571319137565
0.3468909167576321 0.613986135716593
0.3585454666113713 0.630338804918484
0.3643727415382409 0.630338804918484
0.38768184124571936 0.6466914741203751
0.41681821588006734 0.6875731471251026
0.4459545905144154 0.7202784855288847
0.4692636902218938 0.7121021509279393
0.480918240075633 0.7202784855288847
0.510054614709981 0.7121021509279393
0.5217091645637203 0.7448074893317213
0.5566728141249379 0.7856891623364488
0.5858091887592859 0.8020418315383399
0.6091182884667643 0.8020418315383399
0.6149455633936339 0.7938654969373944
0.644081938027982 0.8183945007402309
0.6615637628085907 0.851099839144013
0.6790455875891996 0.8838051775477951
0.7081819622235476 0.9083341813506316
0.7314910619310261 0.9001578467496861
0.7664547114922436 0.9083341813506316
0.7781092613459829 0.9246868505525226
0.789763811199722 0.9573921889563047
0.8363820106146789 0.9982738619610323
0.8771729351027662 1.0146265311629232
0.9004820348102446 1.0146265311629232
0.9296184094445926 1.0309792003648144
0.9412729592983318 1.0473318695667053
0.9762366088595494 1.0800372079704874
1.0053729834938974 1.120918880975215
1.0403366330551151 1.137271550177106
1.057818457835724 1.1618005539799425
1.0811275575432024 1.186329557782779
1.0927821073969415 1.1781532231818337
1.1102639321775503 1.2190348961865611
1.1335730318850288 1.2599165691912888
1.1510548566656376 1.2680929037922342
1.174363956373116 1.2762692383931797
1.1801912312999856 1.2599165691912888
1.1976730560805944 1.2435638999893976
1.2035003310074641 1.2844455729941253
1.2093276059343336 1.3171509113979074
1.2151548808612032 1.3335035805997983
1.2035003310074641 1.3089745767969618
1.2151548808612032 1.3089745767969618
1.2151548808612032 1.292621907595071
1.2151548808612032 1.292621907595071
1.2151548808612032 1.3089745767969618
1.2151548808612032 1.3007982421960163
1.1860185062268551 1.2599165691912888
1.1568821315925073 1.2190348961865611
1.1335730318850288 1.186329557782779
1.11609120710442 1.1618005539799425
1.1102639321775503 1.153624219378997
1.0927821073969415 1.1127425463742695
1.0694730076894632 1.088213542571433
1.0403366330551151 1.0391555349657597
0.9995457085670278 0.9819211927591412
0.9645820590058103 0.9410395197544137
0.9471002342252014 0.9328631851534681
0.923791134517723 0.8838051775477951
0.8830002100296358 0.8265708353411765
0.8422092855415485 0.7529838239326668
0.7955910861265917 0.6875731471251026
0.7373183368578956 0.6548678087213207
0.7081819622235476 0.6385151395194296
0.6790455875891996 0.581280797312811
0.6382546631011123 0.5240464551061924
0.5741546389055467 0.4749884475005193
0.5158818896368507 0.4259304398948462
0.4634364152950242 0.38504876689011863
0.422645490806937 0.3768724322891731
0.38768184124571936 0.3278144246835
0.3352363669038929 0.29510908627971794
0.28279089256206646 0.2542274132749904
0.21869086836650078 0.23787474407309936
0.18372721880528317 0.2215220748712083
0.16041811909780473 0.22969840947215384
0.1196271946097175 0.19699307106837177
0.08466354504849988 0.1642877326645897
0.03221807070667343 0.1479350634626987
-0.0027455788545442004 0.09887705585702558
-0.043536503342631434 0.11522972505891661
-0.07267287797697947 0.12340605965986214
-0.09598197768445788 0.12340605965986214
-0.1134638024650667 0.11522972505891661
-0.14260017709941472 0.1070533904579711
-0.16590927680689313 0.09070072125608007
-0.20087292636811077 0.1070533904579711
-0.18339110158750196 0.1642877326645897
-0.17756382666063236 0.22969840947215384
-0.20087292636811077 0.2624037478759359
-0.20670020129498037 0.2705800824768814
-0.20670020129498037 0.311461755481609
-0.20670020129498037 0.35234342848633654
-0.18339110158750196 0.39322510149106416
-0.14260017709941472 0.4259304398948462
-0.14842745202628432 0.44228310909673724
-0.1192910773919363 0.4259304398948462
-0.09598197768445788 0.4749884475005193
-0.06101832812324025 0.4913411167024103
-0.02605467856202262 0.5567517935099744
0.02056352085293422 0.5403991243080835
0.03804534563354303 0.49951745130335584
0.04387262056041264 0.4341067744957917
0.04387262056041264 0.3686960976882276
0.061354445341021455 0.2869327516787724
0.08466354504849988 0.2051694056693173
0.1196271946097175 0.18881673646742625
0.13710901939032633 0.15611139806364419
0.1196271946097175 0.11522972505891661
0.07300899519476066 0.05799538285229801
0.04387262056041264 0.0498190482513525
0.03804534563354303 0.06617171745324353
0.026390795779803824 0.0498190482513525
0.014736245926064614 0.03346637904946147
0.00890897099919501 0.02529004444851595
-0.0027455788545442004 0.02529004444851595
0.014736245926064614 0.04164271365040698
0.014736245926064614 0.09070072125608007
0.02056352085293422 0.08252438665513456
0.00890897099919501 0.06617171745324353
-0.0027455788545442004 0.05799538285229801
-0.03188195348889222 0.017113709847570435
-0.055191053196370646 0.02529004444851595
-0.055191053196370646 0.017113709847570435
-0.09015470275758827 0.04164271365040698
-0.1134638024650667 0.03346637904946147
-0.14260017709941472 0.04164271365040698
-0.16590927680689313 0.04164271365040698
-0.20087292636811077 0.07434805205418904
-0.22418202607558918 0.09070072125608007
-0.2358365759293284 0.08252438665513456
-0.27080022549054605 0.06617171745324353
-0.31159114997863324 0.0498190482513525
-0.3349002496861117 0.017113709847570435
-0.3582093493935901 0.02529004444851595
-0.3582093493935901 0.03346637904946147
-0.3640366243204597 0.0007610406456794045
-0.3756911741741989 0.0007610406456794045
-0.41065482373541656 -0.031944297758102654
-0.41648209866228614 -0.0564733015609392
-0.4456184732966342 -0.04012063235904817
-0.4456184732966342 -0.02376796315715714
-0.4397911983697646 -0.031944297758102654
-0.463100298077243 -0.0564733015609392
-0.4747548479309822 -0.04012063235904817
-0.4747548479309822 -0.06464963616188471
-0.4805821228578518 -0.06464963616188471
-0.463100298077243 -0.06464963616188471
-0.463100298077243 -0.0564733015609392
-0.4514457482235038 -0.07282597076283023
-0.4747548479309822 -0.08917863996472127
-0.4689275730041126 -0.08917863996472127
-0.4689275730041126 -0.06464963616188471
-0.4747548479309822 -0.0564733015609392
-0.4689275730041126 -0.06464963616188471
-0.4805821228578518 -0.0564733015609392
-0.4980639476384606 -0.08100230536377574
-0.4980639476384606 -0.1055313091666123
-0.4980639476384606 -0.09735497456566677
-0.4864093977847214 -0.09735497456566677
-0.4747548479309822 -0.08100230536377574
-0.4864093977847214 -0.08100230536377574
-0.4864093977847214 -0.08917863996472127
-0.5038912225653303 -0.12188397836850333
-0.5038912225653303 -0.09735497456566677
-0.49223667271159105 -0.08917863996472127
-0.4747548479309822 -0.08100230536377574
-0.49223667271159105 -0.08100230536377574
-0.5038912225653303 -0.1055313091666123
-0.5038912225653303 -0.1137076437675578
-0.5038912225653303 -0.1137076437675578
-0.4980639476384606 -0.09735497456566677
-0.4864093977847214 -0.1055313091666123
-0.4980639476384606 -0.09735497456566677
-0.4980639476384606 -0.09735497456566677
-0.5155457724190694 -0.1055313091666123
-0.5155457724190694 -0.08100230536377574
-0.5038912225653303 -0.07282597076283023
-0.5097184974921999 -0.06464963616188471
-0.4747548479309822 -0.08917863996472127
-0.4864093977847214 -0.1055313091666123
-0.5038912225653303 -0.1055313091666123
-0.5097184974921999 -0.08917863996472127
-0.5097184974921999 -0.0564733015609392
-0.49223667271159105 -0.07282597076283023
-0.5038912225653303 -0.06464963616188471
-0.49223667271159105 -0.08100230536377574
-0.5038912225653303 -0.09735497456566677
-0.5097184974921999 -0.08100230536377574
-0.49223667271159105 -0.048296966959993685
-0.4747548479309822 -0.0564733015609392
-0.4864093977847214 -0.06464963616188471
-0.49223667271159105 -0.07282597076283023
-0.49223667271159105 -0.06464963616188471
-0.5097184974921999 -0.06464963616188471
-0.4980639476384606 -0.0564733015609392
-0.4747548479309822 -0.04012063235904817
-0.4805821228578518 -0.048296966959993685
-0.4805821228578518 -0.0564733015609392
-0.49223667271159105 -0.07282597076283023
-0.4864093977847214 -0.04012063235904817
-0.4805821228578518 -0.031944297758102654
-0.4572730231503734 -0.031944297758102654
-0.4572730231503734 -0.02376796315715714
-0.463100298077243 -0.0564733015609392
-0.463100298077243 -0.048296966959993685
-0.463100298077243 -0.04012063235904817
-0.4514457482235038 -0.031944297758102654
-0.4456184732966342 -0.031944297758102654
-0.4572730231503734 -0.04012063235904817
-0.4514457482235038 -0.0564733015609392
-0.4514457482235038 -0.0564733015609392
-0.4572730231503734 -0.048296966959993685
-0.4397911983697646 -0.048296966959993685
-0.42813664851602534 -0.04012063235904817
-0.40482754880854693 -0.0564733015609392
-0.41065482373541656 -0.07282597076283023
-0.40482754880854693 -0.1137076437675578
-0.39900027388167736 -0.12188397836850333
-0.3698638992473293 -0.12188397836850333
-0.3349002496861117 -0.19547098977701297
-0.29993660012489404 -0.4244083586034874
-0.2649729505636764 -0.9476937730640004
-0.18339110158750196 -1.3892158415150582
-0.014400128708283411 -1.3156288301065486
0.3585454666113713 -0.9149884346602183
0.9471002342252014 -0.6042877198242887
1.6230641257420757 -0.497995370011997
2.071764295111035 -0.481642700810106
2.1650006939409487 -0.481642700810106
1.9785278962811215 -0.4244083586034874
1.8037096484750335 -0.3917030201997053
1.7221277994988589 -0.3835266855987598
1.6696823251570325 -0.3917030201997053
1.5939277511077277 -0.4244083586034874
1.5006913522778138 -0.45711369700726945
1.3841458537404219 -0.481642700810106
1.320045829544856 -0.4898190354110515
1.2676003552030297 -0.497995370011997
1.1976730560805944 -0.5388770430167246
1.1277457569581593 -0.6042877198242887
1.057818457835724 -0.6696983966318528
0.9937184336401582 -0.6778747312327984
0.923791134517723 -0.6942274004346893
0.8422092855415485 -0.7269327388384714
0.7489728867116349 -0.78416708104509
0.644081938027982 -0.8332250886507632
0.5391909893443291 -0.9068121000592728
0.422645490806937 -0.9558701076649458
0.27696361763519683 -1.0458097882753465
0.13710901939032633 -1.1848074764914203
0.014736245926064614 -1.291099826303712
-0.14842745202628432 -1.3646868377122217
-0.29993660012489404 -1.4300975145197858
-0.4456184732966342 -1.511860860529241
-0.5738185216877655 -1.6018005411396417
-0.7078458450057664 -1.7244455601538242
-0.8884913677387242 -1.89614858677368
-1.0458277907642035 -2.0596752787925903
-1.1740278391553347 -2.2804363130181193
-1.2323005884240308 -2.403081332032302
-1.2614369630583788 -2.468492008839866
-1.2614369630583788 -2.5829606932531033
-1.2847460627658573 -2.7464873852720135
-1.3255369872539446 -2.991777423300379
-1.407118836230119 -3.196185788324017
-1.54114615954812 -3.3760651495448184
-1.6751734828661209 -3.5395918415637286
-1.7684098816960345 -3.6949421989816935
-1.849991730672209 -3.866645225601549
-1.9315735796483835 -4.005642913817623
-2.053946353112645 -3.95658490621195
-2.1355282020888198 -3.7603528757892577
-2.1646645767231676 -3.5232391723618375
-2.1238736522350803 -3.3270071419391454
-2.0481190781857754 -3.098069773112671
-1.966537229209601 -2.893661408089033
-1.8558190055990786 -2.68107670846445
-1.733446232134817 -2.419434001234193
-1.5586279843287287 -2.1904966324077186
-1.3896370114495102 -1.9942646019850263
-1.2789187878389876 -1.7816799023604428
-1.2031642137896827 -1.6345058795434237
-1.1915096639359437 -1.4709791875245133
-1.1682005642284652 -1.307452495505603
-1.1041005400328996 -1.1439258034866928
-1.0691368904716818 -1.0294571190734556
-1.040000515837334 -0.8659304270545453
-1.0166914161298555 -0.7432854080403625
-0.9875550414955074 -0.6124640544252342
-0.9933823164223771 -0.46529003160821497
-0.9875550414955074 -0.35082134719497776
-0.9759004916417683 -0.2199999935798495
-0.964245941788029 -0.14641298217133986
-0.9409368420805506 -0.08100230536377574
-0.905973192519333 0.0007610406456794045
-0.8535277181775065 0.08252438665513456
-0.7894276939819409 0.2051694056693173
-0.7020185700788968 0.2705800824768814
-0.6495730957370703 0.3278144246835
-0.6146094461758528 0.3686960976882276
-0.5738185216877655 0.40957777069295515
-0.521373047345939 0.4749884475005193
-0.4514457482235038 0.5731044627118654
-0.3815184491010685 0.5731044627118654
-0.29993660012489404 0.613986135716593
-0.21252747622184998 0.6466914741203751
-0.15425472695315393 0.6466914741203751
-0.09015470275758827 0.6875731471251026
-0.0027455788545442004 0.7284548201298302
0.07300899519476066 0.7448074893317213
0.12545446953658712 0.7529838239326668
0.17207266895154394 0.7611601585336123
0.18372721880528317 0.7775128277355033
0.21286359343963118 0.7856891623364488
0.23034541822024 0.8265708353411765
0.2536545179277184 0.867452508345904
0.26530906778145763 0.8756288429468495
0.28861816748893604 0.8756288429468495
0.3177545421232841 0.8756288429468495
0.3294090919770233 0.9001578467496861
0.3760272913919801 0.9410395197544137
0.38768184124571936 0.9655685235572502
0.39350911617258894 0.9737448581581957
0.40516366602632814 0.9819211927591412
0.422645490806937 1.0064501965619779
0.422645490806937 1.0228028657638688
0.451781865441285 1.0636845387685965
0.4867455150025026 1.088213542571433
0.510054614709981 1.1127425463742695
0.5217091645637203 1.1127425463742695
0.5450182642711987 1.1290952155761604
0.5625000890518075 1.1618005539799425
0.5974637386130252 1.2026822269846702
0.6324273881742427 1.2353875653884523
0.6499092129548516 1.2599165691912888
0.6790455875891996 1.2680929037922342
0.6790455875891996 1.2844455729941253
0.702354687296678 1.3171509113979074
0.7373183368578956 1.3580325844026349
0.7839365362728524 1.3825615882054714
0.8130729109072005 1.407090592008308
0.8189001858340701 1.4316195958111446
0.8305547356878094 1.43979593041209
0.8655183852490269 1.472501268815872
0.9121365846639838 1.5133829418205997
0.9354456843714622 1.5297356110224907
0.9762366088595494 1.5542646148253272
0.9995457085670278 1.578793618628164
1.0286820832013759 1.6196752916328914
1.0461639079819847 1.6850859684404556
1.0927821073969415 1.7423203106470742
1.1219184820312895 1.7913783182527472
1.1568821315925073 1.8404363258584204
1.1860185062268551 1.8731416642622023
1.2093276059343336 1.8894943334640935
1.2326367056418122 1.91402333726693
1.290909454910508 1.9549050102716576
1.3433549292523346 2.0039630178773304
1.3724913038866826 2.0121393524782762
1.395800403594161 2.028492021680167
1.4482458779359875 2.0366683562811128
1.4715549776434658 2.053021025483004
1.5181731770584228 2.053021025483004
1.5589641015465099 2.0039630178773304
1.5647913764733796 1.91402333726693
1.5706186514002491 1.7995546528536928
1.5822732012539884 1.6932623030414011
1.5589641015465099 1.6196752916328914
1.5939277511077277 1.5624409494262728
1.6114095758883364 1.5215592764215453
1.5939277511077277 1.423443261210199
1.5647913764733796 1.3498562498016895
1.5065186272046835 1.2680929037922342
1.4599004277897267 1.2026822269846702
1.424936778228509 1.1618005539799425
1.4074549534479002 1.0963898771723783
1.3666640289598129 1.0309792003648144
1.3433549292523346 0.9573921889563047
1.2967367298373778 0.9001578467496861
1.2559458053492905 0.8756288429468495
1.2326367056418122 0.8592761737449585
1.1976730560805944 0.7938654969373944
1.1510548566656376 0.7366311547307758
1.0986093823238112 0.6385151395194296
1.0170275333476366 0.56492812811092
0.9296184094445926 0.5240464551061924
0.8655183852490269 0.4831647821014648
0.8072456359803309 0.4341067744957917
0.7140092371504172 0.4014014360920096
0.6382546631011123 0.3768724322891731
0.5391909893443291 0.344167093885391
0.4634364152950242 0.3686960976882276
0.39933639109945857 0.33599075928444555
0.3352363669038929 0.29510908627971794
0.2536545179277184 0.2705800824768814
0.16624539402467434 0.2215220748712083
0.09631809490223908 0.18881673646742625
0.014736245926064614 0.17246406726553523
-0.014400128708283411 0.1642877326645897
-0.03188195348889222 0.1479350634626987
-0.07267287797697947 0.13158239426080764
-0.12511835231880591 0.09887705585702558
-0.16008200188002353 0.07434805205418904
-0.20670020129498037 0.08252438665513456
-0.23000930100245878 0.09070072125608007
-0.24166385085619801 0.11522972505891661
-0.27080022549054605 0.09887705585702558
-0.29410932519802446 0.05799538285229801
-0.3290729747592421 0.06617171745324353
-0.3407275246129813 0.07434805205418904
-0.3523820744667205 0.08252438665513456
-0.3349002496861117 0.09887705585702558
-0.3465547995398509 0.09070072125608007
-0.3640366243204597 0.07434805205418904
-0.38734572402793815 0.06617171745324353
-0.39900027388167736 0.07434805205418904
-0.38734572402793815 0.09887705585702558
-0.38734572402793815 0.09070072125608007
-0.38734572402793815 0.08252438665513456
-0.40482754880854693 0.08252438665513456
-0.41648209866228614 0.06617171745324353
-0.43396392344289497 0.09887705585702558
-0.41648209866228614 0.11522972505891661
-0.41648209866228614 0.11522972505891661
-0.4514457482235038 0.12340605965986214
-0.4456184732966342 0.09887705585702558
-0.4572730231503734 0.08252438665513456
-0.4572730231503734 0.09887705585702558
-0.4456184732966342 0.12340605965986214
-0.4397911983697646 0.13158239426080764
-0.4397911983697646 0.12340605965986214
-0.4514457482235038 0.12340605965986214
-0.4514457482235038 0.12340605965986214
-0.43396392344289497 0.1070533904579711
-0.4456184732966342 0.13158239426080764
-0.42813664851602534 0.13158239426080764
-0.42813664851602534 0.13158239426080764
-0.43396392344289497 0.1070533904579711
-0.4456184732966342 0.09070072125608007
-0.4514457482235038 0.11522972505891661
-0.4456184732966342 0.13975872886175317
-0.42230937358915577 0.17246406726553523
-0.41648209866228614 0.15611139806364419
-0.43396392344289497 0.13158239426080764
-0.4397911983697646 0.11522972505891661
-0.42230937358915577 0.11522972505891661
-0.40482754880854693 0.15611139806364419
-0.41065482373541656 0.17246406726553523
-0.40482754880854693 0.1479350634626987
-0.41065482373541656 0.13975872886175317
-0.41065482373541656 0.13975872886175317
-0.41648209866228614 0.11522972505891661
-0.40482754880854693 0.13975872886175317
-0.3815184491010685 0.15611139806364419
-0.40482754880854693 0.11522972505891661
-0.39900027388167736 0.1070533904579711
-0.39317299895480773 0.09070072125608007
-0.40482754880854693 0.09887705585702558
-0.39317299895480773 0.13158239426080764
-0.41648209866228614 0.13158239426080764
-0.39317299895480773 0.12340605965986214
-0.39317299895480773 0.09887705585702558
-0.39317299895480773 0.09070072125608007
-0.40482754880854693 0.07434805205418904
-0.40482754880854693 0.09887705585702558
-0.39317299895480773 0.11522972505891661
-0.40482754880854693 0.11522972505891661
-0.39900027388167736 0.09887705585702558
-0.41065482373541656 0.09070072125608007
-0.42230937358915577 0.09887705585702558
-0.41065482373541656 0.09887705585702558
-0.39317299895480773 0.12340605965986214
-0.39317299895480773 0.09887705585702558
-0.39900027388167736 0.08252438665513456
-0.39900027388167736 0.1070533904579711
-0.41648209866228614 0.11522972505891661
-0.39317299895480773 0.1070533904579711
-0.3756911741741989 0.11522972505891661
-0.3698638992473293 0.12340605965986214
-0.3756911741741989 0.09070072125608007
-0.39317299895480773 0.07434805205418904
-0.39900027388167736 0.09887705585702558
-0.3815184491010685 0.12340605965986214
-0.3756911741741989 0.13158239426080764
-0.3815184491010685 0.1070533904579711
-0.3815184491010685 0.09887705585702558
-0.38734572402793815 0.09887705585702558
-0.38734572402793815 0.08252438665513456
-0.3756911741741989 0.08252438665513456
-0.3640366243204597 0.08252438665513456
-0.3582093493935901 0.1070533904579711
-0.3698638992473293 0.09887705585702558
-0.3640366243204597 0.09070072125608007
-0.3640366243204597 0.09070072125608007
-0.3640366243204597 0.11522972505891661
-0.3465547995398509 0.12340605965986214
-0.3523820744667205 0.09887705585702558
-0.3582093493935901 0.1070533904579711
-0.3640366243204597 0.09887705585702558
-0.3640366243204597 0.09070072125608007
-0.3523820744667205 0.11522972505891661
-0.3407275246129813 0.13158239426080764
-0.3290729747592421 0.11522972505891661
-0.3407275246129813 0.09887705585702558
-0.3523820744667205 0.11522972505891661
-0.3523820744667205 0.11522972505891661
-0.3407275246129813 0.1070533904579711
-0.3465547995398509 0.13158239426080764
-0.3407275246129813 0.11522972505891661
-0.3407275246129813 0.09887705585702558
-0.3465547995398509 0.09070072125608007
-0.3523820744667205 0.09887705585702558
-0.3290729747592421 0.1070533904579711
-0.3290729747592421 0.12340605965986214
-0.3232456998323725 0.1070533904579711
-0.3349002496861117 0.09887705585702558
-0.3407275246129813 0.09070072125608007
-0.3290729747592421 0.1070533904579711
-0.31741842490550287 0.11522972505891661
-0.30576387505176367 0.1070533904579711
-0.3232456998323725 0.1070533904579711
-0.30576387505176367 0.09070072125608007
-0.30576387505176367 0.08252438665513456
-0.31159114997863324 0.07434805205418904
-0.28828205027115483 0.09887705585702558
-0.28245477534428526 0.09887705585702558
-0.28828205027115483 0.09887705585702558
-0.28245477534428526 0.08252438665513456
-0.27662750041741563 0.08252438665513456
-0.27080022549054605 0.08252438665513456
-0.2591456756368068 0.09887705585702558
-0.24749112578306762 0.09070072125608007
-0.2533184007099372 0.06617171745324353
-0.24749112578306762 0.0498190482513525
-0.24166385085619801 0.00893737524662492
-0.24166385085619801 0.017113709847570435
-0.20670020129498037 -0.007415293955266111
-0.17756382666063236 -0.0564733015609392
-0.15425472695315393 -0.24452899738268605
-0.13094562724567552 -0.735109073439417
-0.09015470275758827 -1.25839448789993
0.03221807070667343 -1.2829234917027665
0.3235818170501537 -0.8904594308573818
0.8655183852490269 -0.5634060468195612
1.5997550260345972 -0.4407610278053784
2.1533461440872097 -0.4489373624063239
2.2932007423320804 -0.45711369700726945
2.135864319306601 -0.40805568940159637
1.9668733464273822 -0.3753503509978143
1.8852914974512078 -0.3753503509978143
1.8211914732556422 -0.3835266855987598
1.7396096242794676 -0.40805568940159637
1.646373225449554 -0.45711369700726945
1.5356550018390316 -0.4898190354110515
1.442418603009118 -0.5061717046129426
1.3608367540329434 -0.5307007084157791
1.250118530422421 -0.5634060468195612
1.1568821315925073 -0.6206403890261798
1.057818457835724 -0.6533457274299618
0.9587547840789407 -0.6860510658337439
0.8480365604684181 -0.6942274004346893
0.7256637870041565 -0.735109073439417
0.5566728141249379 -0.7923434156460356
0.39350911617258894 -0.8577540924535997
0.2245181432933704 -0.9558701076649458
0.03804534563354303 -1.0539861228762921
-0.1134638024650667 -1.119396799683856
-0.2649729505636764 -1.2011601456933114
-0.42813664851602534 -1.2992761609046575
-0.6204367211027223 -1.3892158415150582
-0.8593549931043761 -1.4709791875245133
-1.0633096155448123 -1.5772715373368051
-1.24395513827777 -1.7244455601538242
-1.407118836230119 -1.879795917571789
-1.5528007094018592 -2.084204282595427
-1.6693462079392511 -2.2804363130181193
-1.7684098816960345 -2.4112576666332477
-1.8558190055990786 -2.5011973472436484
-1.9257463047215138 -2.574784358652158
-1.9723645041364708 -2.730134716070123
-2.042291803258906 -2.8854850734880872
-2.1355282020888198 -3.0571881001079433
-2.27538280033369 -3.2043621229249624
-2.397755573797952 -3.3597124803429272
-2.4735101478472568 -3.515062837760892
-2.531782897115953 -3.6949421989816935
-2.601710196238388 -3.817587217995876
-2.677464770287693 -3.7930582141930396
-2.7532193443369977 -3.6458841913760205
-2.7881829938982152 -3.433299491751437
-2.7415647944832586 -3.1880094537230717
-2.6191920210189967 -2.9508957502956514
-2.4735101478472568 -2.689253043065395
-2.2986919000411685 -2.4848446780417572
-2.12970092716195 -2.2967889822200105
-1.9548826793558618 -2.084204282595427
-1.774237156622904 -1.847090579168007
-1.599418908816816 -1.6917402217500424
-1.465391585498815 -1.5036845259282954
-1.4012915613032495 -1.3156288301065486
-1.3371915371076837 -1.1439258034866928
-1.273091512912118 -0.9885754460687279
-1.2031642137896827 -0.8414014232517086
-1.1157550898866389 -0.7105800696365804
-1.051655065691073 -0.5797587160214521
-1.0166914161298555 -0.4489373624063239
-0.9875550414955074 -0.3344686779930867
-0.964245941788029 -0.19547098977701297
-0.9292822922268114 -0.06464963616188471
-0.8651822680312458 0.07434805205418904
-0.7952549689088105 0.19699307106837177
-0.7486367694938536 0.29510908627971794
-0.6612276455908096 0.41775410529390067
-0.5563366969071567 0.5403991243080835
-0.4456184732966342 0.630338804918484
-0.3523820744667205 0.7039258163269937
-0.27662750041741563 0.8183945007402309
-0.18921837651437157 0.867452508345904
-0.1076365275381971 0.9655685235572502
0.00890897099919501 1.055508204167651
0.13710901939032633 1.153624219378997
0.26530906778145763 1.169976888580888
0.38768184124571936 1.169976888580888
0.4750909651487634 1.1127425463742695
0.5508455391980682 1.055508204167651
0.6324273881742427 0.9982738619610323
0.7140092371504172 0.9573921889563047
0.8189001858340701 0.9328631851534681
0.8830002100296358 0.9001578467496861
0.9121365846639838 0.8919815121487406
0.923791134517723 0.851099839144013
0.9121365846639838 0.851099839144013
0.9063093097371142 0.867452508345904
0.9121365846639838 0.8592761737449585
0.923791134517723 0.8429235045430675
0.9412729592983318 0.8429235045430675
0.9471002342252014 0.8183945007402309
0.9704093339326798 0.8592761737449585
0.9937184336401582 0.8838051775477951
1.0403366330551151 0.9165105159515771
1.0345093581282454 0.9246868505525226
1.0403366330551151 0.9246868505525226
1.057818457835724 0.9246868505525226
1.0519911829088544 0.9410395197544137
1.0811275575432024 0.9737448581581957
1.0986093823238112 1.0064501965619779
1.0927821073969415 1.0473318695667053
1.0927821073969415 1.0146265311629232
1.0811275575432024 1.0636845387685965
1.0811275575432024 1.0963898771723783
1.086954832470072 1.1618005539799425
1.0811275575432024 1.2026822269846702
1.0986093823238112 1.1945058923837246
1.086954832470072 1.186329557782779
1.0927821073969415 1.2272112307875067
1.0986093823238112 1.2517402345903432
1.1277457569581593 1.2680929037922342
1.1510548566656376 1.2762692383931797
1.1510548566656376 1.292621907595071
1.1801912312999856 1.292621907595071
1.1860185062268551 1.3171509113979074
1.2035003310074641 1.341679915200744
1.2326367056418122 1.3662089190035804
1.2559458053492905 1.390737922806417
1.2559458053492905 1.4152669266092535
1.2734276301298992 1.4316195958111446
1.279254905056769 1.4479722650130356
1.2850821799836385 1.4806776034168176
1.320045829544856 1.5052066072196542
1.349182204179204 1.5133829418205997
1.3550094791060738 1.5297356110224907
1.3608367540329434 1.5215592764215453
1.349182204179204 1.5379119456234362
1.3550094791060738 1.5379119456234362
1.3550094791060738 1.5624409494262728
1.3783185788135521 1.5542646148253272
1.395800403594161 1.5460882802243818
1.395800403594161 1.5215592764215453
1.4016276785210307 1.4970302726187086
1.3724913038866826 1.5052066072196542
1.3666640289598129 1.5052066072196542
1.3608367540329434 1.472501268815872
1.3317003793985953 1.4561485996139811
1.3025640047642473 1.4152669266092535
1.2676003552030297 1.3580325844026349
1.220982155788073 1.3171509113979074
1.1801912312999856 1.3007982421960163
1.1685366814462463 1.2517402345903432
1.1277457569581593 1.2190348961865611
1.0927821073969415 1.1454478847780516
1.0519911829088544 1.0800372079704874
1.0053729834938974 1.0473318695667053
0.9645820590058103 0.9982738619610323
0.9179638595908534 0.9410395197544137
0.8596911103221574 0.867452508345904
0.8189001858340701 0.7938654969373944
0.7664547114922436 0.7448074893317213
0.7140092371504172 0.7039258163269937
0.6615637628085907 0.6712204779232116
0.6266001132473732 0.6221624703175386
0.5508455391980682 0.56492812811092
0.4925727899293722 0.49951745130335584
0.4343000406606762 0.45045944369768276
0.38185456631884973 0.4259304398948462
0.3468909167576321 0.39322510149106416
0.3060999922695449 0.38504876689011863
0.23617269314710962 0.35234342848633654
0.17207266895154394 0.311461755481609
0.1196271946097175 0.2705800824768814
0.06718172026789106 0.2705800824768814
0.04969989548728224 0.2624037478759359
0.003081696072325405 0.24605107867404485
-0.03770922841576183 0.2051694056693173
-0.055191053196370646 0.19699307106837177
-0.09598197768445788 0.17246406726553523
-0.12511835231880591 0.19699307106837177
-0.15425472695315393 0.2051694056693173
-0.16008200188002353 0.19699307106837177
-0.19504565144124117 0.17246406726553523
-0.21252747622184998 0.15611139806364419
-0.22418202607558918 0.13975872886175317
-0.2358365759293284 0.1479350634626987
-0.2591456756368068 0.17246406726553523
-0.2533184007099372 0.17246406726553523
-0.2649729505636764 0.18064040186648073
-0.2591456756368068 0.15611139806364419
-0.28828205027115483 0.1479350634626987
-0.30576387505176367 0.1642877326645897
-0.31159114997863324 0.2051694056693173
-0.30576387505176367 0.19699307106837177
-0.31159114997863324 0.18881673646742625
-0.31741842490550287 0.1642877326645897
-0.3290729747592421 0.15611139806364419
-0.3407275246129813 0.17246406726553523
-0.3407275246129813 0.2051694056693173
-0.3290729747592421 0.2133457402702628
-0.3349002496861117 0.17246406726553523
-0.3465547995398509 0.1642877326645897
-0.3640366243204597 0.17246406726553523
-0.3582093493935901 0.18881673646742625
-0.3407275246129813 0.2133457402702628
-0.3290729747592421 0.19699307106837177
-0.3407275246129813 0.2133457402702628
-0.3407275246129813 0.2051694056693173
-0.3407275246129813 0.19699307106837177
-0.3407275246129813 0.2215220748712083
-0.3349002496861117 0.22969840947215384
-0.3232456998323725 0.2215220748712083
-0.3407275246129813 0.22969840947215384
-0.3523820744667205 0.2133457402702628
-0.3640366243204597 0.2133457402702628
-0.3523820744667205 0.23787474407309936
-0.3407275246129813 0.23787474407309936
-0.31741842490550287 0.23787474407309936
-0.3290729747592421 0.23787474407309936
-0.3407275246129813 0.22969840947215384
-0.3465547995398509 0.2133457402702628
-0.3407275246129813 0.24605107867404485
-0.31741842490550287 0.27875641707782695
-0.29993660012489404 0.2705800824768814
-0.29993660012489404 0.27875641707782695
-0.31741842490550287 0.2542274132749904
-0.3232456998323725 0.2542274132749904
-0.3232456998323725 0.24605107867404485
-0.29410932519802446 0.2705800824768814
-0.28828205027115483 0.27875641707782695
-0.28245477534428526 0.2869327516787724
-0.29410932519802446 0.2624037478759359
-0.29993660012489404 0.2542274132749904
-0.28828205027115483 0.2624037478759359
-0.27662750041741563 0.2624037478759359
-0.28245477534428526 0.2624037478759359
-0.2649729505636764 0.2869327516787724
-0.27662750041741563 0.24605107867404485
-0.28245477534428526 0.24605107867404485
-0.29993660012489404 0.23787474407309936
-0.29410932519802446 0.2705800824768814
-0.28245477534428526 0.27875641707782695
-0.27080022549054605 0.2624037478759359
-0.27080022549054605 0.2215220748712083
-0.28245477534428526 0.2133457402702628
-0.28828205027115483 0.2133457402702628
-0.27080022549054605 0.24605107867404485
-0.2649729505636764 0.24605107867404485
-0.27080022549054605 0.2215220748712083
-0.29410932519802446 0.2133457402702628
-0.31159114997863324 0.17246406726553523
-0.30576387505176367 0.18881673646742625
-0.28828205027115483 0.2051694056693173
-0.2591456756368068 0.18881673646742625
-0.27080022549054605 0.18881673646742625
-0.27080022549054605 0.15611139806364419
-0.28828205027115483 0.13975872886175317
-0.27662750041741563 0.15611139806364419
-0.27080022549054605 0.1642877326645897
-0.24749112578306762 0.18064040186648073
-0.24749112578306762 0.15611139806364419
-0.2649729505636764 0.12340605965986214
-0.27662750041741563 0.1070533904579711
-0.28828205027115483 0.11522972505891661
-0.27662750041741563 0.13158239426080764
-0.2591456756368068 0.13975872886175317
-0.27080022549054605 0.11522972505891661
-0.28245477534428526 0.09070072125608007
-0.29410932519802446 0.09070072125608007
-0.28828205027115483 0.09070072125608007
-0.2649729505636764 0.1070533904579711
-0.24749112578306762 0.07434805205418904
-0.24166385085619801 0.07434805205418904
-0.27080022549054605 0.07434805205418904
-0.27080022549054605 0.05799538285229801
-0.27080022549054605 0.06617171745324353
-0.24749112578306762 0.08252438665513456
-0.2358365759293284 0.09887705585702558
-0.23000930100245878 0.08252438665513456
-0.24749112578306762 0.06617171745324353
-0.24749112578306762 0.0498190482513525
-0.28828205027115483 0.05799538285229801
-0.29410932519802446 0.07434805205418904
-0.28245477534428526 0.06617171745324353
-0.2649729505636764 0.06617171745324353
-0.24749112578306762 0.04164271365040698
-0.24749112578306762 0.04164271365040698
-0.2591456756368068 0.0498190482513525
-0.24166385085619801 0.06617171745324353
-0.21252747622184998 0.06617171745324353
-0.21835475114871958 0.04164271365040698
-0.21252747622184998 0.03346637904946147
-0.22418202607558918 0.03346637904946147
-0.22418202607558918 0.04164271365040698
-0.21835475114871958 0.04164271365040698
-0.20670020129498037 0.04164271365040698
-0.21835475114871958 0.02529004444851595
-0.22418202607558918 0.017113709847570435
-0.2533184007099372 0.00893737524662492
-0.2533184007099372 0.017113709847570435
-0.2358365759293284 0.03346637904946147
-0.20670020129498037 0.05799538285229801
-0.19504565144124117 0.0498190482513525
-0.21835475114871958 0.02529004444851595
-0.21835475114871958 0.017113709847570435
-0.21252747622184998 0.0007610406456794045
-0.20087292636811077 0.03346637904946147
-0.18921837651437157 0.03346637904946147
-0.18921837651437157 0.02529004444851595
-0.19504565144124117 0.00893737524662492
-0.18339110158750196 -0.02376796315715714
-0.18921837651437157 0.0007610406456794045
-0.17756382666063236 -0.015591628556211625
-0.16008200188002353 -0.015591628556211625
-0.16008200188002353 -0.04012063235904817
-0.14842745202628432 -0.1055313091666123
-0.13677290217254512 -0.15458931677228538
-0.1134638024650667 -0.29358700498835916
