-0.1722723850309387 0.26944163238983854
-0.25981927216908063 0.29607605369940515
-0.23063697645636666 0.3227104750089717
-0.14309008931822473 0.22949000042548867
-0.14309008931822473 0.20285557911592209
-0.08472549789279676 0.14958673649678894
-0.1722723850309387 0.16290394715157222
-0.3181838635945086 0.16290394715157222
-0.4640953421580785 0.13626952584200563
-0.3181838635945086 0.1895383684611388
-0.1722723850309387 0.29607605369940515
-0.1722723850309387 0.3093932643541884
-0.11390779360551075 0.29607605369940515
-0.2014546807436527 0.20285557911592209
-0.1722723850309387 0.1895383684611388
-0.11390779360551075 0.3093932643541884
0.03200368495805914 0.4558825815568046
0.14873286780891506 0.6290063200689874
0.17791516352162903 0.8021300585811701
0.29464434637248493 0.9885710077481362
0.4989204163614828 1.1883291675698857
0.8491079649140506 1.4147217487012016
1.1701132177539044 1.7609692257255671
1.2284778091793322 2.120533913404716
1.0825663306157625 2.5600018650125644
0.8199256692013366 3.0127870272751966
0.8491079649140506 3.492206610847395
1.0242017391903344 3.9316745624552434
1.1992955134666183 4.291239250134392
1.0825663306157625 4.610852305849192
0.8782902606267645 5.01036862549269
0.5864673034996247 5.409884945136189
0.5572850077869108 5.809401264779687
0.8782902606267645 6.089062688530136
1.549483062019186 6.049111056565787
2.3082227505497497 5.569691472993588
3.154509326218455 4.530949041920492
3.5630614661964506 3.185910765787379
3.3879676919201667 2.0539478601307994
2.3665873419751775 1.3614529060820684
0.7031964863504807 0.9885710077481362
-0.9310120735615022 0.655640741378554
-1.8356632406556355 0.3626621069733216
-2.0983039020700613 0.2161727897707054
-1.9523924235064913 0.1895383684611388
-1.6605694663793515 0.16290394715157222
-1.106105847837786 0.10963510453243906
-0.6683714121470764 0.0696834725680892
-0.4057307507326505 -0.03685421267017713
-0.37654845501993656 -0.076805844634527
-0.4349130464453645 -0.10344026594409358
-0.2890015678817946 -0.10344026594409358
-0.1722723850309387 -0.09012305528931029
-0.11390779360551075 -0.10344026594409358
-0.11390779360551075 -0.15670910856322676
-0.23063697645636666 -0.19666074052757662
-0.23063697645636666 -0.19666074052757662
-0.25981927216908063 -0.18334352987279334
-0.11390779360551075 -0.14339189790844345
0.03200368495805914 -0.11675747659887688
0.03200368495805914 -0.18334352987279334
-0.02636090646736881 -0.2099779511823599
0.0028213892453451675 -0.2099779511823599
0.0903682763834871 -0.2366123724919265
0.17791516352162903 -0.19666074052757662
0.14873286780891506 -0.2499295831467098
0.236279754947057 -0.2765640044562764
0.03200368495805914 -0.30319842576584294
-0.02636090646736881 -0.2765640044562764
0.0903682763834871 -0.2099779511823599
0.236279754947057 -0.2232951618371432
0.3530089377979129 -0.2366123724919265
0.236279754947057 -0.31651563642062625
0.20709745923434303 -0.3564672683849761
0.14873286780891506 -0.3697844790397594
0.14873286780891506 -0.30319842576584294
0.20709745923434303 -0.28988121511105963
0.236279754947057 -0.28988121511105963
0.17791516352162903 -0.3431500577301928
0.11955057209620108 -0.396418900349326
0.14873286780891506 -0.396418900349326
0.29464434637248493 -0.3564672683849761
0.32382664208519896 -0.28988121511105963
0.41137352922334086 -0.31651563642062625
0.3530089377979129 -0.32983284707540955
0.32382664208519896 -0.3431500577301928
0.29464434637248493 -0.38310168969454267
0.3530089377979129 -0.3564672683849761
0.41137352922334086 -0.31651563642062625
0.5281027120741968 -0.30319842576584294
0.46973812064876885 -0.30319842576584294
0.44055582493605483 -0.38310168969454267
0.3821912335106269 -0.43637053231367584
0.46973812064876885 -0.4230533216588926
0.5281027120741968 -0.38310168969454267
0.5864673034996247 -0.38310168969454267
0.5281027120741968 -0.396418900349326
0.46973812064876885 -0.4097361110041093
0.3821912335106269 -0.38310168969454267
0.46973812064876885 -0.28988121511105963
0.5281027120741968 -0.2099779511823599
0.6448318949250527 -0.2765640044562764
0.7031964863504807 -0.43637053231367584
0.7031964863504807 -0.5295910068971589
0.6156495992123387 -0.5562254282067255
0.5572850077869108 -0.44968774296845915
0.6448318949250527 -0.3564672683849761
0.6156495992123387 -0.3431500577301928
0.6156495992123387 -0.4097361110041093
0.6156495992123387 -0.44968774296845915
0.6448318949250527 -0.46300495362324245
0.7323787820631946 -0.396418900349326
0.8199256692013366 -0.3564672683849761
0.9074725563394785 -0.3431500577301928
0.9658371477649065 -0.3564672683849761
0.8491079649140506 -0.3564672683849761
0.9950194434776205 -0.31651563642062625
1.0242017391903344 -0.2632467938014931
1.1992955134666183 -0.2499295831467098
1.3160246963174742 -0.2099779511823599
1.3160246963174742 -0.13007468725366017
1.2284778091793322 -0.06348863397974372
1.2868424006047603 0.01641462994895603
1.3452069920301881 0.02973184060373932
1.43275387916833 0.003097419294172739
1.607847653444614 -0.03685421267017713
1.549483062019186 0.056366261913305904
1.43275387916833 0.1895383684611388
1.2868424006047603 0.28275884304462184
1.4035715834556162 0.3227104750089717
1.607847653444614 0.40261373893767144
1.637029949157328 0.42924816024723805
1.607847653444614 0.42924816024723805
1.4035715834556162 0.42924816024723805
1.3743892877429023 0.4691997922115879
1.3743892877429023 0.5091514241759378
1.4619361748810442 0.5757374774498543
1.43275387916833 0.5757374774498543
1.2868424006047603 0.5357858454855043
1.1701132177539044 0.5091514241759378
1.0825663306157625 0.5357858454855043
1.0533840349030483 0.5491030561402876
0.9950194434776205 0.5890546881046376
1.0825663306157625 0.5091514241759378
0.9074725563394785 0.4958342135211545
0.7907433734886226 0.42924816024723805
0.6448318949250527 0.41593094959245475
0.5864673034996247 0.42924816024723805
0.5572850077869108 0.4425653709020213
0.6448318949250527 0.4558825815568046
0.41137352922334086 0.40261373893767144
0.41137352922334086 0.3759793176281049
0.32382664208519896 0.3626621069733216
0.3530089377979129 0.3093932643541884
0.3821912335106269 0.3626621069733216
0.20709745923434303 0.41593094959245475
0.20709745923434303 0.41593094959245475
0.14873286780891506 0.41593094959245475
0.11955057209620108 0.3626621069733216
0.17791516352162903 0.3626621069733216
0.26546205065977097 0.3759793176281049
0.26546205065977097 0.3493448963185383
0.29464434637248493 0.3227104750089717
0.14873286780891506 0.29607605369940515
0.0903682763834871 0.3493448963185383
0.17791516352162903 0.3759793176281049
0.26546205065977097 0.40261373893767144
0.14873286780891506 0.3759793176281049
0.26546205065977097 0.3227104750089717
0.14873286780891506 0.3227104750089717
0.14873286780891506 0.3493448963185383
0.14873286780891506 0.336027685663755
0.20709745923434303 0.40261373893767144
0.26546205065977097 0.3093932643541884
0.11955057209620108 0.24280721108027198
-0.05554320218008279 0.22949000042548867
-0.05554320218008279 0.29607605369940515
-0.05554320218008279 0.336027685663755
0.03200368495805914 0.3626621069733216
0.14873286780891506 0.3093932643541884
0.061185980670773125 0.20285557911592209
-0.02636090646736881 0.1895383684611388
-0.08472549789279676 0.22949000042548867
-0.11390779360551075 0.29607605369940515
0.0028213892453451675 0.3093932643541884
0.061185980670773125 0.26944163238983854
-0.05554320218008279 0.26944163238983854
-0.05554320218008279 0.26944163238983854
0.0028213892453451675 0.2561244217350553
0.03200368495805914 0.2161727897707054
0.061185980670773125 0.20285557911592209
0.03200368495805914 0.1895383684611388
0.061185980670773125 0.2161727897707054
-0.08472549789279676 0.2161727897707054
-0.14309008931822473 0.26944163238983854
-0.11390779360551075 0.29607605369940515
-0.02636090646736881 0.3493448963185383
0.11955057209620108 0.336027685663755
0.0903682763834871 0.336027685663755
0.0028213892453451675 0.3093932643541884
-0.05554320218008279 0.28275884304462184
0.061185980670773125 0.2561244217350553
0.14873286780891506 0.26944163238983854
0.14873286780891506 0.2561244217350553
0.061185980670773125 0.22949000042548867
-0.02636090646736881 0.2561244217350553
-0.14309008931822473 0.29607605369940515
0.0028213892453451675 0.3626621069733216
0.03200368495805914 0.40261373893767144
0.0903682763834871 0.3759793176281049
0.061185980670773125 0.3493448963185383
-0.02636090646736881 0.29607605369940515
-0.11390779360551075 0.29607605369940515
-0.02636090646736881 0.3227104750089717
0.061185980670773125 0.3493448963185383
0.03200368495805914 0.3093932643541884
0.0028213892453451675 0.2561244217350553
-0.08472549789279676 0.2161727897707054
-0.2014546807436527 0.20285557911592209
-0.1722723850309387 0.2561244217350553
-0.2014546807436527 0.29607605369940515
-0.14309008931822473 0.26944163238983854
-0.11390779360551075 0.24280721108027198
-0.23063697645636666 0.2161727897707054
-0.2890015678817946 0.22949000042548867
-0.25981927216908063 0.28275884304462184
-0.23063697645636666 0.3093932643541884
-0.11390779360551075 0.29607605369940515
-0.2014546807436527 0.22949000042548867
-0.23063697645636666 0.16290394715157222
-0.3473661593072226 0.20285557911592209
-0.3181838635945086 0.24280721108027198
-0.23063697645636666 0.28275884304462184
-0.2014546807436527 0.2561244217350553
-0.25981927216908063 0.2561244217350553
-0.3181838635945086 0.22949000042548867
-0.37654845501993656 0.22949000042548867
-0.37654845501993656 0.26944163238983854
-0.2014546807436527 0.3227104750089717
-0.23063697645636666 0.28275884304462184
-0.25981927216908063 0.24280721108027198
-0.4349130464453645 0.24280721108027198
-0.3473661593072226 0.22949000042548867
-0.3181838635945086 0.28275884304462184
-0.25981927216908063 0.3227104750089717
-0.14309008931822473 0.26944163238983854
-0.14309008931822473 0.2561244217350553
-0.2890015678817946 0.1895383684611388
-0.4057307507326505 0.17622115780635553
-0.2890015678817946 0.24280721108027198
-0.2890015678817946 0.28275884304462184
-0.2890015678817946 0.2161727897707054
-0.3181838635945086 0.16290394715157222
-0.2890015678817946 0.08300068322287249
-0.4057307507326505 0.13626952584200563
-0.37654845501993656 0.1895383684611388
-0.25981927216908063 0.24280721108027198
-0.23063697645636666 0.26944163238983854
-0.2014546807436527 0.26944163238983854
-0.25981927216908063 0.28275884304462184
-0.2014546807436527 0.26944163238983854
-0.2014546807436527 0.29607605369940515
-0.14309008931822473 0.40261373893767144
-0.02636090646736881 0.3892965282828882
-0.05554320218008279 0.3759793176281049
-0.2014546807436527 0.3759793176281049
-0.23063697645636666 0.336027685663755
-0.11390779360551075 0.3493448963185383
0.061185980670773125 0.41593094959245475
0.061185980670773125 0.41593094959245475
0.03200368495805914 0.42924816024723805
0.03200368495805914 0.3892965282828882
0.0028213892453451675 0.41593094959245475
-0.08472549789279676 0.4558825815568046
0.03200368495805914 0.5491030561402876
-0.02636090646736881 0.5091514241759378
-0.14309008931822473 0.3759793176281049
-0.23063697645636666 0.3227104750089717
-0.2890015678817946 0.2561244217350553
-0.3181838635945086 0.26944163238983854
-0.2014546807436527 0.336027685663755
-0.1722723850309387 0.3626621069733216
-0.3181838635945086 0.3227104750089717
-0.3473661593072226 0.3493448963185383
-0.4640953421580785 0.3626621069733216
-0.2890015678817946 0.4425653709020213
-0.25981927216908063 0.4691997922115879
-0.08472549789279676 0.42924816024723805
-0.14309008931822473 0.3626621069733216
-0.14309008931822473 0.29607605369940515
-0.2014546807436527 0.2561244217350553
-0.25981927216908063 0.26944163238983854
-0.25981927216908063 0.26944163238983854
-0.37654845501993656 0.29607605369940515
-0.4349130464453645 0.29607605369940515
-0.5224599335835065 0.22949000042548867
-0.5516422292962204 0.20285557911592209
-0.4640953421580785 0.17622115780635553
-0.4349130464453645 0.26944163238983854
-0.37654845501993656 0.24280721108027198
-0.4640953421580785 0.17622115780635553
-0.5224599335835065 0.16290394715157222
-0.6391891164343624 0.14958673649678894
-0.6100068207216484 0.20285557911592209
-0.4932776378707925 0.24280721108027198
-0.4932776378707925 0.1895383684611388
-0.5516422292962204 0.13626952584200563
-0.7267360035725043 0.09631789387765577
-0.6683714121470764 0.09631789387765577
-0.6683714121470764 0.14958673649678894
-0.5516422292962204 0.2161727897707054
-0.5808245250089344 0.17622115780635553
-0.5224599335835065 0.1895383684611388
-0.6391891164343624 0.1895383684611388
-0.6100068207216484 0.2161727897707054
-0.6683714121470764 0.20285557911592209
-0.5808245250089344 0.26944163238983854
-0.4932776378707925 0.1895383684611388
-0.5224599335835065 0.20285557911592209
-0.6100068207216484 0.2161727897707054
-0.5808245250089344 0.28275884304462184
-0.5224599335835065 0.3626621069733216
-0.4057307507326505 0.522468634830721
-0.3181838635945086 0.6156891094142041
-0.23063697645636666 0.7222267946524704
-0.11390779360551075 0.8553989012003034
0.061185980670773125 1.0817914823316193
0.32382664208519896 1.3747701167368518
0.7615610777759086 1.6411143298325175
0.9074725563394785 1.9474101748925332
0.7907433734886226 2.346926494536032
0.5281027120741968 2.8396632887630138
0.5281027120741968 3.3457172936447788
0.6448318949250527 3.8251368772169774
0.7907433734886226 4.2379704075152596
0.7907433734886226 4.490997409956142
0.4989204163614828 4.783976044361374
0.14873286780891506 5.156857942695306
0.0028213892453451675 5.6762291582318545
0.0903682763834871 6.195600373768403
0.6156495992123387 6.408675744244936
1.2284778091793322 6.208917584423186
2.0455820891353236 5.569691472993588
2.6875925948150314 4.371142514063092
3.008597847654885 3.0127870272751966
2.629228003389603 1.8675069109638334
1.4035715834556162 1.2415980101890187
-0.4349130464453645 0.8021300585811701
-1.8940278320810635 0.4825170028663712
-2.477673746335343 0.3626621069733216
-2.448491450622629 0.28275884304462184
-2.2150330849209174 0.3093932643541884
-1.8356632406556355 0.2561244217350553
-1.2520173264013559 0.14958673649678894
-0.8726474821360742 0.08300068322287249
-0.6683714121470764 0.04304905125852261
-0.6100068207216484 0.003097419294172739
-0.5224599335835065 0.003097419294172739
-0.4057307507326505 0.04304905125852261
-0.2890015678817946 -0.023537002015393844
-0.37654845501993656 -0.03685421267017713
-0.37654845501993656 -0.09012305528931029
-0.4640953421580785 -0.09012305528931029
-0.37654845501993656 -0.06348863397974372
-0.25981927216908063 -0.11675747659887688
-0.1722723850309387 -0.18334352987279334
-0.2014546807436527 -0.19666074052757662
-0.25981927216908063 -0.18334352987279334
-0.3181838635945086 -0.11675747659887688
-0.23063697645636666 -0.023537002015393844
-0.11390779360551075 -0.023537002015393844
-0.11390779360551075 -0.076805844634527
-0.02636090646736881 -0.19666074052757662
-0.14309008931822473 -0.28988121511105963
-0.2014546807436527 -0.31651563642062625
-0.2014546807436527 -0.2765640044562764
-0.1722723850309387 -0.18334352987279334
-0.08472549789279676 -0.14339189790844345
-0.11390779360551075 -0.13007468725366017
-0.14309008931822473 -0.18334352987279334
-0.11390779360551075 -0.2099779511823599
-0.02636090646736881 -0.2099779511823599
0.11955057209620108 -0.2232951618371432
0.11955057209620108 -0.2765640044562764
0.061185980670773125 -0.32983284707540955
-0.14309008931822473 -0.31651563642062625
-0.1722723850309387 -0.2765640044562764
-0.08472549789279676 -0.2499295831467098
0.03200368495805914 -0.19666074052757662
-0.02636090646736881 -0.2366123724919265
0.061185980670773125 -0.30319842576584294
0.0028213892453451675 -0.30319842576584294
-0.02636090646736881 -0.3431500577301928
0.03200368495805914 -0.30319842576584294
0.17791516352162903 -0.30319842576584294
0.17791516352162903 -0.31651563642062625
0.14873286780891506 -0.396418900349326
0.0903682763834871 -0.3697844790397594
0.03200368495805914 -0.3431500577301928
0.11955057209620108 -0.2765640044562764
0.11955057209620108 -0.2232951618371432
0.236279754947057 -0.2632467938014931
0.236279754947057 -0.31651563642062625
0.236279754947057 -0.396418900349326
0.17791516352162903 -0.4763221642780257
0.236279754947057 -0.46300495362324245
0.26546205065977097 -0.4230533216588926
0.26546205065977097 -0.4230533216588926
0.20709745923434303 -0.43637053231367584
0.17791516352162903 -0.4230533216588926
0.20709745923434303 -0.4230533216588926
0.14873286780891506 -0.396418900349326
0.44055582493605483 -0.3697844790397594
0.44055582493605483 -0.4230533216588926
0.44055582493605483 -0.44968774296845915
0.41137352922334086 -0.489639374932809
0.4989204163614828 -0.4097361110041093
0.5864673034996247 -0.3431500577301928
0.6156495992123387 -0.31651563642062625
0.6740141906377667 -0.30319842576584294
0.7323787820631946 -0.32983284707540955
0.7031964863504807 -0.3564672683849761
0.7323787820631946 -0.3697844790397594
0.8199256692013366 -0.3697844790397594
0.9074725563394785 -0.31651563642062625
0.9658371477649065 -0.30319842576584294
0.9658371477649065 -0.28988121511105963
0.8782902606267645 -0.2232951618371432
0.9074725563394785 -0.18334352987279334
1.0825663306157625 -0.076805844634527
1.1992955134666183 0.01641462994895603
1.2868424006047603 0.01641462994895603
1.3452069920301881 -0.023537002015393844
1.3452069920301881 -0.023537002015393844
1.3452069920301881 -0.010219791360610552
1.3452069920301881 0.09631789387765577
1.549483062019186 0.2161727897707054
1.607847653444614 0.2561244217350553
1.5786653577319 0.28275884304462184
1.4035715834556162 0.28275884304462184
1.4619361748810442 0.3493448963185383
1.520300766306472 0.4558825815568046
1.5786653577319 0.5491030561402876
1.549483062019186 0.562420266795071
1.4035715834556162 0.562420266795071
1.4035715834556162 0.5357858454855043
1.4035715834556162 0.562420266795071
1.4035715834556162 0.5890546881046376
1.3743892877429023 0.6156891094142041
1.3743892877429023 0.6156891094142041
1.1117486263284764 0.6156891094142041
1.0242017391903344 0.6023718987594208
0.9366548520521925 0.5357858454855043
0.8491079649140506 0.5890546881046376
0.9366548520521925 0.562420266795071
0.8782902606267645 0.562420266795071
0.7615610777759086 0.522468634830721
0.5864673034996247 0.4558825815568046
0.5281027120741968 0.4691997922115879
0.5572850077869108 0.42924816024723805
0.5281027120741968 0.4691997922115879
0.5572850077869108 0.42924816024723805
0.44055582493605483 0.3626621069733216
0.236279754947057 0.28275884304462184
0.236279754947057 0.29607605369940515
0.17791516352162903 0.336027685663755
0.3530089377979129 0.3892965282828882
0.3530089377979129 0.3493448963185383
0.32382664208519896 0.3493448963185383
0.17791516352162903 0.3093932643541884
0.14873286780891506 0.3227104750089717
0.26546205065977097 0.3759793176281049
0.3821912335106269 0.3626621069733216
0.3530089377979129 0.3892965282828882
0.3530089377979129 0.3626621069733216
0.20709745923434303 0.3493448963185383
0.17791516352162903 0.3626621069733216
0.20709745923434303 0.3892965282828882
0.3530089377979129 0.41593094959245475
0.32382664208519896 0.3759793176281049
0.26546205065977097 0.3759793176281049
0.11955057209620108 0.336027685663755
0.11955057209620108 0.336027685663755
0.14873286780891506 0.3227104750089717
0.20709745923434303 0.3093932643541884
0.20709745923434303 0.24280721108027198
0.14873286780891506 0.1895383684611388
0.03200368495805914 0.1895383684611388
-0.05554320218008279 0.20285557911592209
-0.02636090646736881 0.24280721108027198
0.061185980670773125 0.26944163238983854
0.14873286780891506 0.28275884304462184
0.11955057209620108 0.28275884304462184
0.03200368495805914 0.28275884304462184
0.0028213892453451675 0.2161727897707054
0.03200368495805914 0.16290394715157222
0.11955057209620108 0.17622115780635553
0.11955057209620108 0.20285557911592209
0.0028213892453451675 0.1895383684611388
-0.11390779360551075 0.16290394715157222
-0.02636090646736881 0.1895383684611388
0.0028213892453451675 0.22949000042548867
0.14873286780891506 0.26944163238983854
0.17791516352162903 0.26944163238983854
0.14873286780891506 0.20285557911592209
0.03200368495805914 0.17622115780635553
0.0028213892453451675 0.2161727897707054
0.0028213892453451675 0.2561244217350553
0.11955057209620108 0.3093932643541884
0.17791516352162903 0.336027685663755
0.17791516352162903 0.3493448963185383
0.0903682763834871 0.28275884304462184
0.0903682763834871 0.28275884304462184
0.061185980670773125 0.336027685663755
0.20709745923434303 0.3093932643541884
0.236279754947057 0.3093932643541884
0.11955057209620108 0.26944163238983854
-0.05554320218008279 0.1895383684611388
-0.02636090646736881 0.22949000042548867
0.0903682763834871 0.26944163238983854
0.236279754947057 0.3093932643541884
0.11955057209620108 0.2561244217350553
0.0903682763834871 0.2161727897707054
0.061185980670773125 0.22949000042548867
0.061185980670773125 0.2561244217350553
0.0903682763834871 0.2561244217350553
0.17791516352162903 0.28275884304462184
0.11955057209620108 0.3227104750089717
0.0028213892453451675 0.3227104750089717
0.03200368495805914 0.3227104750089717
0.03200368495805914 0.336027685663755
0.0903682763834871 0.336027685663755
0.14873286780891506 0.3493448963185383
0.17791516352162903 0.336027685663755
0.14873286780891506 0.3093932643541884
0.0903682763834871 0.29607605369940515
0.0028213892453451675 0.26944163238983854
0.061185980670773125 0.2161727897707054
0.20709745923434303 0.17622115780635553
0.14873286780891506 0.16290394715157222
0.03200368495805914 0.20285557911592209
-0.1722723850309387 0.20285557911592209
-0.14309008931822473 0.24280721108027198
-0.05554320218008279 0.28275884304462184
0.0028213892453451675 0.29607605369940515
0.061185980670773125 0.3093932643541884
0.03200368495805914 0.29607605369940515
-0.11390779360551075 0.20285557911592209
-0.1722723850309387 0.2161727897707054
-0.14309008931822473 0.20285557911592209
0.0028213892453451675 0.2561244217350553
-0.02636090646736881 0.26944163238983854
-0.05554320218008279 0.24280721108027198
-0.11390779360551075 0.24280721108027198
-0.1722723850309387 0.2561244217350553
-0.05554320218008279 0.28275884304462184
0.0028213892453451675 0.3227104750089717
0.0028213892453451675 0.336027685663755
-0.05554320218008279 0.29607605369940515
-0.02636090646736881 0.26944163238983854
0.0028213892453451675 0.29607605369940515
0.03200368495805914 0.336027685663755
0.17791516352162903 0.3093932643541884
0.29464434637248493 0.26944163238983854
0.26546205065977097 0.22949000042548867
0.17791516352162903 0.2161727897707054
0.20709745923434303 0.28275884304462184
0.20709745923434303 0.3626621069733216
0.29464434637248493 0.40261373893767144
0.44055582493605483 0.4425653709020213
0.32382664208519896 0.4558825815568046
0.236279754947057 0.4425653709020213
0.32382664208519896 0.4691997922115879
0.46973812064876885 0.4425653709020213
0.4989204163614828 0.4691997922115879
0.5281027120741968 0.4425653709020213
0.46973812064876885 0.40261373893767144
0.41137352922334086 0.3892965282828882
0.32382664208519896 0.3759793176281049
0.3821912335106269 0.3626621069733216
0.44055582493605483 0.3227104750089717
0.3821912335106269 0.336027685663755
0.17791516352162903 0.3227104750089717
0.0028213892453451675 0.3227104750089717
-0.11390779360551075 0.3759793176281049
0.0028213892453451675 0.40261373893767144
0.17791516352162903 0.40261373893767144
0.0903682763834871 0.40261373893767144
0.061185980670773125 0.3626621069733216
0.0028213892453451675 0.3759793176281049
0.03200368495805914 0.41593094959245475
0.11955057209620108 0.4825170028663712
0.26546205065977097 0.522468634830721
0.29464434637248493 0.4958342135211545
0.26546205065977097 0.42924816024723805
0.17791516352162903 0.3093932643541884
0.20709745923434303 0.22949000042548867
0.17791516352162903 0.22949000042548867
0.0903682763834871 0.3093932643541884
0.03200368495805914 0.26944163238983854
-0.08472549789279676 0.2561244217350553
-0.1722723850309387 0.22949000042548867
-0.23063697645636666 0.2561244217350553
-0.1722723850309387 0.29607605369940515
-0.08472549789279676 0.3093932643541884
-0.08472549789279676 0.2561244217350553
-0.05554320218008279 0.22949000042548867
-0.23063697645636666 0.2161727897707054
-0.25981927216908063 0.2561244217350553
-0.2014546807436527 0.28275884304462184
-0.1722723850309387 0.3227104750089717
-0.11390779360551075 0.24280721108027198
-0.08472549789279676 0.1895383684611388
-0.08472549789279676 0.17622115780635553
-0.2014546807436527 0.2161727897707054
-0.2014546807436527 0.28275884304462184
-0.11390779360551075 0.3227104750089717
-0.05554320218008279 0.336027685663755
-0.11390779360551075 0.29607605369940515
-0.2014546807436527 0.26944163238983854
-0.2014546807436527 0.28275884304462184
-0.11390779360551075 0.29607605369940515
-0.05554320218008279 0.29607605369940515
-0.02636090646736881 0.24280721108027198
-0.2014546807436527 0.2161727897707054
-0.2890015678817946 0.17622115780635553
-0.3473661593072226 0.2161727897707054
-0.1722723850309387 0.26944163238983854
-0.05554320218008279 0.3493448963185383
-0.02636090646736881 0.3892965282828882
-0.02636090646736881 0.42924816024723805
-0.05554320218008279 0.4558825815568046
0.0028213892453451675 0.6290063200689874
0.20709745923434303 0.8154472692359535
0.5281027120741968 1.0418398503672694
0.7323787820631946 1.2415980101890187
0.9366548520521925 1.4946250126299012
1.1117486263284764 1.7742864363803503
1.1992955134666183 2.213754387988199
1.0825663306157625 2.706491182215181
1.0242017391903344 3.172593555132596
1.1117486263284764 3.5188410321569616
1.1992955134666183 3.865088509181327
1.1409309220411903 4.198018775550909
0.8491079649140506 4.557583463230058
0.5572850077869108 4.997051414837907
0.46973812064876885 5.489788209064889
0.5572850077869108 5.929256160672737
0.8199256692013366 6.2621864270423195
1.2868424006047603 6.288820848351886
2.0747643848480375 6.089062688530136
2.921050960516743 5.356616102517056
3.6797906490473067 4.131432722276993
3.7381552404727345 2.719808392869964
3.037780143367599 1.6810659617968673
1.3452069920301881 1.121743114295969
-0.4640953421580785 0.8553989012003034
-1.7189340578047796 0.6156891094142041
-1.9523924235064913 0.522468634830721
-1.8648455363683496 0.3759793176281049
-1.6897517620920657 0.26944163238983854
-1.3687465092522118 0.16290394715157222
-0.8726474821360742 0.14958673649678894
-0.3473661593072226 0.16290394715157222
0.0028213892453451675 0.16290394715157222
0.0903682763834871 0.08300068322287249
0.061185980670773125 0.003097419294172739
-0.08472549789279676 -0.023537002015393844
0.0028213892453451675 -0.06348863397974372
0.11955057209620108 -0.06348863397974372
0.17791516352162903 -0.03685421267017713
0.11955057209620108 -0.11675747659887688
0.03200368495805914 -0.14339189790844345
-0.02636090646736881 -0.15670910856322676
0.03200368495805914 -0.14339189790844345
0.11955057209620108 -0.15670910856322676
0.20709745923434303 -0.09012305528931029
0.236279754947057 -0.11675747659887688
0.14873286780891506 -0.10344026594409358
0.11955057209620108 -0.13007468725366017
0.20709745923434303 -0.11675747659887688
0.20709745923434303 -0.11675747659887688
0.236279754947057 -0.14339189790844345
0.29464434637248493 -0.18334352987279334
0.29464434637248493 -0.2099779511823599
0.26546205065977097 -0.2099779511823599
0.20709745923434303 -0.2232951618371432
0.26546205065977097 -0.2499295831467098
0.44055582493605483 -0.2499295831467098
0.41137352922334086 -0.2632467938014931
0.41137352922334086 -0.2632467938014931
0.26546205065977097 -0.2499295831467098
0.26546205065977097 -0.28988121511105963
0.29464434637248493 -0.31651563642062625
0.44055582493605483 -0.31651563642062625
0.5281027120741968 -0.3564672683849761
0.44055582493605483 -0.396418900349326
0.3530089377979129 -0.4097361110041093
0.32382664208519896 -0.31651563642062625
0.29464434637248493 -0.30319842576584294
0.46973812064876885 -0.30319842576584294
0.5281027120741968 -0.32983284707540955
0.46973812064876885 -0.38310168969454267
0.44055582493605483 -0.4230533216588926
0.44055582493605483 -0.38310168969454267
0.44055582493605483 -0.3431500577301928
0.5864673034996247 -0.32983284707540955
0.6156495992123387 -0.38310168969454267
0.5572850077869108 -0.396418900349326
0.3821912335106269 -0.4097361110041093
0.41137352922334086 -0.4230533216588926
0.5572850077869108 -0.38310168969454267
0.5864673034996247 -0.38310168969454267
0.6448318949250527 -0.396418900349326
0.5864673034996247 -0.43637053231367584
0.5572850077869108 -0.46300495362324245
0.5572850077869108 -0.43637053231367584
0.6448318949250527 -0.43637053231367584
0.7323787820631946 -0.3697844790397594
0.7031964863504807 -0.396418900349326
0.6740141906377667 -0.4097361110041093
0.6740141906377667 -0.4230533216588926
0.6740141906377667 -0.4097361110041093
0.7907433734886226 -0.4230533216588926
0.8782902606267645 -0.4097361110041093
0.9366548520521925 -0.46300495362324245
0.8491079649140506 -0.5029565855875923
0.7907433734886226 -0.5562254282067255
0.8199256692013366 -0.5562254282067255
0.9074725563394785 -0.5029565855875923
0.9658371477649065 -0.44968774296845915
0.9950194434776205 -0.43637053231367584
0.9950194434776205 -0.5162737962423756
0.9658371477649065 -0.5029565855875923
0.9950194434776205 -0.46300495362324245
1.1409309220411903 -0.38310168969454267
1.2576601048920462 -0.28988121511105963
1.3160246963174742 -0.2765640044562764
1.3452069920301881 -0.2099779511823599
1.3743892877429023 -0.2632467938014931
1.43275387916833 -0.2632467938014931
1.607847653444614 -0.2232951618371432
1.637029949157328 -0.14339189790844345
1.7245768362954699 -0.06348863397974372
1.695394540582756 -0.010219791360610552
1.7245768362954699 0.056366261913305904
1.8121237234336118 0.12295231518722236
1.8413060191463257 0.22949000042548867
2.0163997934226097 0.29607605369940515
2.0747643848480375 0.3493448963185383
2.0455820891353236 0.3493448963185383
1.9872174977098958 0.42924816024723805
1.8704883148590399 0.4558825815568046
1.8996706105717538 0.5357858454855043
2.0747643848480375 0.5491030561402876
2.0163997934226097 0.5491030561402876
1.9288529062844677 0.522468634830721
1.7245768362954699 0.4825170028663712
1.607847653444614 0.4958342135211545
1.607847653444614 0.5757374774498543
1.607847653444614 0.6023718987594208
1.520300766306472 0.5757374774498543
1.4035715834556162 0.5357858454855043
1.3452069920301881 0.522468634830721
1.2868424006047603 0.5491030561402876
1.2284778091793322 0.5757374774498543
1.1992955134666183 0.5890546881046376
1.1117486263284764 0.562420266795071
0.9950194434776205 0.5091514241759378
0.8782902606267645 0.4425653709020213
0.8491079649140506 0.41593094959245475
0.8782902606267645 0.4425653709020213
0.9366548520521925 0.4825170028663712
0.9366548520521925 0.5091514241759378
0.8491079649140506 0.42924816024723805
0.7615610777759086 0.41593094959245475
0.7615610777759086 0.42924816024723805
0.7615610777759086 0.4691997922115879
0.8782902606267645 0.4958342135211545
0.8199256692013366 0.4558825815568046
0.7323787820631946 0.3759793176281049
0.6156495992123387 0.336027685663755
0.5281027120741968 0.336027685663755
0.5864673034996247 0.336027685663755
0.5864673034996247 0.3892965282828882
0.5864673034996247 0.3626621069733216
0.46973812064876885 0.336027685663755
0.4989204163614828 0.3227104750089717
0.44055582493605483 0.3759793176281049
0.46973812064876885 0.41593094959245475
0.5572850077869108 0.42924816024723805
0.5864673034996247 0.40261373893767144
0.5864673034996247 0.3493448963185383
0.41137352922334086 0.29607605369940515
0.46973812064876885 0.3227104750089717
0.46973812064876885 0.336027685663755
0.5864673034996247 0.3759793176281049
0.6156495992123387 0.3759793176281049
0.5281027120741968 0.336027685663755
0.29464434637248493 0.2561244217350553
0.32382664208519896 0.26944163238983854
0.29464434637248493 0.3227104750089717
0.44055582493605483 0.3093932643541884
0.44055582493605483 0.26944163238983854
0.3530089377979129 0.2161727897707054
0.3530089377979129 0.22949000042548867
0.3821912335106269 0.28275884304462184
0.3530089377979129 0.336027685663755
0.4989204163614828 0.336027685663755
0.5281027120741968 0.336027685663755
0.4989204163614828 0.3227104750089717
0.46973812064876885 0.28275884304462184
0.3821912335106269 0.29607605369940515
0.44055582493605483 0.3227104750089717
0.44055582493605483 0.3093932643541884
0.5281027120741968 0.2561244217350553
0.44055582493605483 0.24280721108027198
0.3530089377979129 0.2161727897707054
0.32382664208519896 0.28275884304462184
0.44055582493605483 0.3227104750089717
0.5281027120741968 0.3759793176281049
0.5864673034996247 0.3892965282828882
0.5572850077869108 0.3759793176281049
0.46973812064876885 0.3493448963185383
0.41137352922334086 0.3227104750089717
0.46973812064876885 0.336027685663755
0.5572850077869108 0.3759793176281049
0.5864673034996247 0.3227104750089717
0.5281027120741968 0.24280721108027198
0.44055582493605483 0.22949000042548867
0.3821912335106269 0.26944163238983854
0.46973812064876885 0.336027685663755
0.4989204163614828 0.41593094959245475
0.5281027120741968 0.3626621069733216
0.5281027120741968 0.336027685663755
0.46973812064876885 0.29607605369940515
0.4989204163614828 0.336027685663755
0.4989204163614828 0.3759793176281049
0.5281027120741968 0.3759793176281049
0.5281027120741968 0.3626621069733216
0.44055582493605483 0.336027685663755
0.41137352922334086 0.3227104750089717
0.44055582493605483 0.3493448963185383
0.41137352922334086 0.40261373893767144
0.4989204163614828 0.3892965282828882
0.4989204163614828 0.3493448963185383
0.46973812064876885 0.28275884304462184
0.3530089377979129 0.2561244217350553
0.3530089377979129 0.28275884304462184
0.32382664208519896 0.3093932643541884
0.41137352922334086 0.3227104750089717
0.3821912335106269 0.336027685663755
0.26546205065977097 0.29607605369940515
0.17791516352162903 0.26944163238983854
0.14873286780891506 0.28275884304462184
0.29464434637248493 0.29607605369940515
0.3530089377979129 0.3093932643541884
0.3821912335106269 0.28275884304462184
0.20709745923434303 0.2561244217350553
0.17791516352162903 0.2561244217350553
0.11955057209620108 0.3093932643541884
0.14873286780891506 0.336027685663755
0.26546205065977097 0.3493448963185383
0.32382664208519896 0.3493448963185383
0.17791516352162903 0.3093932643541884
0.11955057209620108 0.26944163238983854
0.14873286780891506 0.29607605369940515
0.20709745923434303 0.336027685663755
0.32382664208519896 0.336027685663755
0.32382664208519896 0.40261373893767144
0.32382664208519896 0.3493448963185383
0.236279754947057 0.336027685663755
0.236279754947057 0.3493448963185383
0.29464434637248493 0.3892965282828882
0.3821912335106269 0.41593094959245475
0.3530089377979129 0.3892965282828882
0.3530089377979129 0.3493448963185383
0.29464434637248493 0.29607605369940515
0.236279754947057 0.3227104750089717
0.41137352922334086 0.3626621069733216
0.46973812064876885 0.41593094959245475
0.5281027120741968 0.41593094959245475
0.4989204163614828 0.3892965282828882
0.41137352922334086 0.3892965282828882
0.4989204163614828 0.41593094959245475
0.5281027120741968 0.4558825815568046
0.5281027120741968 0.5091514241759378
0.6448318949250527 0.4825170028663712
0.5864673034996247 0.4825170028663712
0.5572850077869108 0.4825170028663712
0.6156495992123387 0.4691997922115879
0.6448318949250527 0.4825170028663712
0.7323787820631946 0.4958342135211545
0.7907433734886226 0.4558825815568046
0.7031964863504807 0.4558825815568046
0.5281027120741968 0.4825170028663712
0.46973812064876885 0.5091514241759378
0.46973812064876885 0.562420266795071
0.46973812064876885 0.6023718987594208
0.5281027120741968 0.6023718987594208
0.5281027120741968 0.5357858454855043
0.46973812064876885 0.40261373893767144
0.41137352922334086 0.3227104750089717
0.44055582493605483 0.3892965282828882
0.46973812064876885 0.4958342135211545
0.3821912335106269 0.5357858454855043
0.29464434637248493 0.4958342135211545
0.3821912335106269 0.5091514241759378
0.44055582493605483 0.5091514241759378
0.5281027120741968 0.5091514241759378
0.6156495992123387 0.4958342135211545
0.5864673034996247 0.4691997922115879
0.41137352922334086 0.3626621069733216
0.14873286780891506 0.3093932643541884
0.0903682763834871 0.3227104750089717
-0.02636090646736881 0.336027685663755
0.14873286780891506 0.3759793176281049
0.17791516352162903 0.3493448963185383
0.14873286780891506 0.29607605369940515
0.03200368495805914 0.26944163238983854
-0.02636090646736881 0.3227104750089717
0.0903682763834871 0.3759793176281049
0.03200368495805914 0.40261373893767144
0.03200368495805914 0.3892965282828882
0.0903682763834871 0.3626621069733216
0.03200368495805914 0.29607605369940515
0.061185980670773125 0.29607605369940515
0.061185980670773125 0.3227104750089717
0.0903682763834871 0.3626621069733216
0.0028213892453451675 0.3093932643541884
0.03200368495805914 0.24280721108027198
-0.08472549789279676 0.28275884304462184
-0.14309008931822473 0.28275884304462184
-0.08472549789279676 0.3227104750089717
0.03200368495805914 0.3093932643541884
0.03200368495805914 0.336027685663755
0.0028213892453451675 0.28275884304462184
-0.14309008931822473 0.3227104750089717
-0.1722723850309387 0.3493448963185383
-0.11390779360551075 0.3892965282828882
0.061185980670773125 0.41593094959245475
0.11955057209620108 0.40261373893767144
0.0903682763834871 0.3892965282828882
0.061185980670773125 0.4691997922115879
0.03200368495805914 0.5491030561402876
0.14873286780891506 0.6689579520333373
0.3530089377979129 0.8287644798907368
0.5572850077869108 1.0018882184029196
0.7615610777759086 1.2282807995342355
0.9074725563394785 1.4946250126299012
1.1409309220411903 1.800920857689917
1.1992955134666183 2.2936576519168987
1.1117486263284764 2.7331256035247473
1.0533840349030483 3.1592763444778127
0.9366548520521925 3.545475453466528
0.8782902606267645 3.9316745624552434
0.7907433734886226 4.3045564607891755
0.5281027120741968 4.757341623051808
0.3530089377979129 5.223443995969222
0.32382664208519896 5.702863579541421
0.4989204163614828 5.902621739363171
1.0242017391903344 5.769449632815338
1.8121237234336118 5.263395627933573
2.6000457076768893 4.264604828824826
3.2420562133565967 2.999469816620413
2.950233256229457 1.9074585429281834
1.782941427720898 1.2282807995342355
0.061185980670773125 0.8553989012003034
-1.4271111006776398 0.5890546881046376
-1.9815747192192055 0.40261373893767144
-1.8356632406556355 0.3493448963185383
-1.5730225792412098 0.28275884304462184
-1.4562933963903537 0.2161727897707054
-1.0185589606996441 0.10963510453243906
-0.6100068207216484 0.12295231518722236
-0.08472549789279676 0.09631789387765577
0.11955057209620108 0.09631789387765577
0.17791516352162903 0.003097419294172739
0.061185980670773125 -0.03685421267017713
-0.02636090646736881 -0.076805844634527
-0.08472549789279676 -0.076805844634527
0.0903682763834871 -0.076805844634527
0.20709745923434303 -0.023537002015393844
0.20709745923434303 -0.076805844634527
0.17791516352162903 -0.11675747659887688
0.11955057209620108 -0.14339189790844345
0.061185980670773125 -0.10344026594409358
0.20709745923434303 -0.10344026594409358
0.29464434637248493 -0.09012305528931029
0.32382664208519896 -0.13007468725366017
0.17791516352162903 -0.18334352987279334
0.17791516352162903 -0.2232951618371432
0.17791516352162903 -0.18334352987279334
0.32382664208519896 -0.19666074052757662
0.44055582493605483 -0.13007468725366017
0.41137352922334086 -0.15670910856322676
0.32382664208519896 -0.19666074052757662
0.20709745923434303 -0.2499295831467098
0.26546205065977097 -0.2632467938014931
0.32382664208519896 -0.2765640044562764
0.41137352922334086 -0.2232951618371432
0.46973812064876885 -0.2366123724919265
0.3530089377979129 -0.31651563642062625
0.29464434637248493 -0.3564672683849761
0.29464434637248493 -0.3431500577301928
0.44055582493605483 -0.2765640044562764
0.46973812064876885 -0.2499295831467098
0.46973812064876885 -0.2632467938014931
0.44055582493605483 -0.3431500577301928
0.3821912335106269 -0.396418900349326
0.44055582493605483 -0.396418900349326
0.46973812064876885 -0.4097361110041093
0.4989204163614828 -0.38310168969454267
0.5572850077869108 -0.4097361110041093
0.46973812064876885 -0.43637053231367584
0.32382664208519896 -0.4763221642780257
0.3821912335106269 -0.43637053231367584
0.44055582493605483 -0.4097361110041093
0.5572850077869108 -0.4097361110041093
0.41137352922334086 -0.4230533216588926
0.4989204163614828 -0.43637053231367584
0.46973812064876885 -0.5029565855875923
0.46973812064876885 -0.5162737962423756
0.6448318949250527 -0.43637053231367584
0.6740141906377667 -0.4097361110041093
0.6156495992123387 -0.396418900349326
0.5572850077869108 -0.489639374932809
0.5864673034996247 -0.5162737962423756
0.5281027120741968 -0.5695426388615088
0.4989204163614828 -0.5295910068971589
0.6448318949250527 -0.5029565855875923
0.6156495992123387 -0.5029565855875923
0.6156495992123387 -0.5029565855875923
0.6156495992123387 -0.5162737962423756
0.6156495992123387 -0.5162737962423756
0.7323787820631946 -0.489639374932809
0.8491079649140506 -0.43637053231367584
0.8491079649140506 -0.5029565855875923
0.8199256692013366 -0.5295910068971589
0.7323787820631946 -0.5562254282067255
0.7615610777759086 -0.5162737962423756
0.8491079649140506 -0.46300495362324245
0.9950194434776205 -0.4230533216588926
1.0242017391903344 -0.4097361110041093
0.9950194434776205 -0.43637053231367584
0.9658371477649065 -0.43637053231367584
0.9950194434776205 -0.4097361110041093
1.0825663306157625 -0.3697844790397594
1.1701132177539044 -0.3431500577301928
1.2284778091793322 -0.3564672683849761
1.1409309220411903 -0.3564672683849761
1.1992955134666183 -0.28988121511105963
1.2576601048920462 -0.2499295831467098
1.3743892877429023 -0.13007468725366017
1.4911184705937581 -0.06348863397974372
1.637029949157328 -0.050171423324960426
1.5786653577319 -0.023537002015393844
1.520300766306472 0.003097419294172739
1.549483062019186 0.10963510453243906
1.637029949157328 0.20285557911592209
1.607847653444614 0.22949000042548867
1.695394540582756 0.2561244217350553
1.607847653444614 0.28275884304462184
1.549483062019186 0.2561244217350553
1.4911184705937581 0.28275884304462184
1.549483062019186 0.3493448963185383
1.549483062019186 0.3493448963185383
1.43275387916833 0.3493448963185383
1.2576601048920462 0.336027685663755
1.1409309220411903 0.3227104750089717
1.0533840349030483 0.336027685663755
1.0533840349030483 0.3227104750089717
1.0533840349030483 0.3093932643541884
0.9658371477649065 0.29607605369940515
0.7323787820631946 0.2561244217350553
0.6740141906377667 0.22949000042548867
0.4989204163614828 0.22949000042548867
0.5281027120741968 0.20285557911592209
0.6156495992123387 0.20285557911592209
0.5572850077869108 0.16290394715157222
0.46973812064876885 0.14958673649678894
0.32382664208519896 0.10963510453243906
0.26546205065977097 0.10963510453243906
0.29464434637248493 0.16290394715157222
0.3821912335106269 0.17622115780635553
0.44055582493605483 0.17622115780635553
0.32382664208519896 0.09631789387765577
0.20709745923434303 0.08300068322287249
0.20709745923434303 0.0696834725680892
0.26546205065977097 0.09631789387765577
0.26546205065977097 0.10963510453243906
0.236279754947057 0.09631789387765577
0.236279754947057 0.08300068322287249
0.17791516352162903 0.0696834725680892
0.236279754947057 0.0696834725680892
0.236279754947057 0.0696834725680892
0.32382664208519896 0.04304905125852261
0.29464434637248493 -0.010219791360610552
0.20709745923434303 -0.010219791360610552
0.061185980670773125 -0.010219791360610552
-0.02636090646736881 -0.023537002015393844
0.03200368495805914 0.04304905125852261
0.11955057209620108 0.09631789387765577
0.17791516352162903 0.04304905125852261
0.11955057209620108 -0.010219791360610552
0.0028213892453451675 -0.03685421267017713
-0.08472549789279676 0.003097419294172739
0.03200368495805914 0.0696834725680892
0.14873286780891506 0.08300068322287249
0.11955057209620108 0.02973184060373932
0.061185980670773125 -0.09012305528931029
0.061185980670773125 -0.17002631921801004
-0.02636090646736881 -0.15670910856322676
0.0028213892453451675 -0.14339189790844345
0.061185980670773125 -0.09012305528931029
0.0903682763834871 -0.09012305528931029
0.0028213892453451675 -0.14339189790844345
0.0028213892453451675 -0.11675747659887688
0.0028213892453451675 -0.050171423324960426
0.061185980670773125 0.003097419294172739
0.14873286780891506 -0.023537002015393844
0.17791516352162903 -0.06348863397974372
0.11955057209620108 -0.10344026594409358
0.061185980670773125 -0.14339189790844345
-0.05554320218008279 -0.10344026594409358
0.0903682763834871 -0.076805844634527
0.11955057209620108 -0.050171423324960426
0.0903682763834871 -0.076805844634527
0.11955057209620108 -0.11675747659887688
0.061185980670773125 -0.11675747659887688
0.03200368495805914 -0.11675747659887688
0.11955057209620108 -0.11675747659887688
0.20709745923434303 -0.11675747659887688
0.17791516352162903 -0.11675747659887688
0.11955057209620108 -0.13007468725366017
0.061185980670773125 -0.13007468725366017
-0.02636090646736881 -0.09012305528931029
0.061185980670773125 -0.09012305528931029
0.17791516352162903 -0.06348863397974372
0.11955057209620108 -0.13007468725366017
0.14873286780891506 -0.18334352987279334
0.061185980670773125 -0.19666074052757662
-0.02636090646736881 -0.17002631921801004
0.11955057209620108 -0.14339189790844345
0.0903682763834871 -0.13007468725366017
0.0903682763834871 -0.13007468725366017
0.061185980670773125 -0.18334352987279334
0.0028213892453451675 -0.17002631921801004
0.0028213892453451675 -0.14339189790844345
0.11955057209620108 -0.06348863397974372
0.29464434637248493 -0.03685421267017713
0.0903682763834871 -0.076805844634527
0.03200368495805914 -0.17002631921801004
0.03200368495805914 -0.2232951618371432
-0.05554320218008279 -0.2232951618371432
-0.02636090646736881 -0.2232951618371432
0.03200368495805914 -0.18334352987279334
0.0028213892453451675 -0.2099779511823599
-0.08472549789279676 -0.2232951618371432
-0.14309008931822473 -0.2099779511823599
-0.14309008931822473 -0.18334352987279334
-0.11390779360551075 -0.14339189790844345
-0.08472549789279676 -0.18334352987279334
0.0028213892453451675 -0.2366123724919265
-0.11390779360551075 -0.28988121511105963
-0.14309008931822473 -0.2632467938014931
-0.2890015678817946 -0.2366123724919265
-0.23063697645636666 -0.19666074052757662
-0.14309008931822473 -0.2099779511823599
-0.14309008931822473 -0.2366123724919265
-0.14309008931822473 -0.2499295831467098
-0.2890015678817946 -0.2499295831467098
-0.23063697645636666 -0.2366123724919265
-0.25981927216908063 -0.2232951618371432
-0.14309008931822473 -0.17002631921801004
-0.14309008931822473 -0.18334352987279334
-0.3473661593072226 -0.2232951618371432
-0.25981927216908063 -0.28988121511105963
-0.25981927216908063 -0.30319842576584294
-0.2014546807436527 -0.2499295831467098
-0.11390779360551075 -0.15670910856322676
-0.05554320218008279 -0.17002631921801004
-0.08472549789279676 -0.2099779511823599
-0.05554320218008279 -0.2232951618371432
-0.05554320218008279 -0.15670910856322676
0.03200368495805914 -0.076805844634527
0.03200368495805914 -0.03685421267017713
0.11955057209620108 -0.09012305528931029
0.0903682763834871 -0.13007468725366017
0.11955057209620108 -0.13007468725366017
0.14873286780891506 -0.11675747659887688
0.14873286780891506 -0.09012305528931029
0.14873286780891506 -0.09012305528931029
0.0903682763834871 -0.10344026594409358
0.0028213892453451675 -0.14339189790844345
-0.1722723850309387 -0.14339189790844345
-0.2014546807436527 -0.11675747659887688
-0.14309008931822473 -0.09012305528931029
-0.11390779360551075 -0.06348863397974372
-0.11390779360551075 -0.06348863397974372
-0.1722723850309387 -0.050171423324960426
-0.14309008931822473 -0.050171423324960426
-0.25981927216908063 -0.023537002015393844
-0.08472549789279676 -0.010219791360610552
0.03200368495805914 -0.076805844634527
0.0028213892453451675 -0.15670910856322676
-0.2014546807436527 -0.31651563642062625
-0.3181838635945086 -0.31651563642062625
-0.4640953421580785 -0.2099779511823599
-0.5808245250089344 -0.10344026594409358
-0.4932776378707925 -0.076805844634527
-0.37654845501993656 -0.14339189790844345
-0.4057307507326505 -0.2632467938014931
-0.4640953421580785 -0.30319842576584294
-0.5224599335835065 -0.28988121511105963
-0.5224599335835065 -0.19666074052757662
-0.4932776378707925 -0.19666074052757662
-0.4640953421580785 -0.2099779511823599
-0.5224599335835065 -0.2499295831467098
-0.5516422292962204 -0.2366123724919265
-0.5808245250089344 -0.19666074052757662
-0.4640953421580785 -0.18334352987279334
-0.4349130464453645 -0.14339189790844345
-0.4057307507326505 -0.15670910856322676
-0.4640953421580785 -0.17002631921801004
-0.5808245250089344 -0.19666074052757662
-0.5224599335835065 -0.14339189790844345
-0.4057307507326505 -0.13007468725366017
-0.37654845501993656 -0.11675747659887688
-0.3473661593072226 -0.09012305528931029
-0.3473661593072226 -0.11675747659887688
-0.5224599335835065 -0.10344026594409358
-0.4932776378707925 -0.06348863397974372
-0.4057307507326505 -0.050171423324960426
-0.3181838635945086 0.01641462994895603
-0.25981927216908063 0.09631789387765577
-0.3473661593072226 0.16290394715157222
-0.3181838635945086 0.28275884304462184
-0.2014546807436527 0.522468634830721
0.061185980670773125 0.7621784266168203
0.41137352922334086 1.0018882184029196
0.7615610777759086 1.214963588879452
0.8199256692013366 1.4546733806655514
0.6156495992123387 1.7609692257255671
0.5281027120741968 2.213754387988199
0.46973812064876885 2.706491182215181
0.41137352922334086 3.1459591338230295
0.26546205065977097 3.4788894001926116
-0.05554320218008279 3.771868034597844
-0.4057307507326505 4.131432722276993
-0.8142828907106463 4.557583463230058
-0.8142828907106463 5.13022352138574
-0.7267360035725043 5.543057051684022
-0.25981927216908063 5.6096431049579385
0.3530089377979129 5.343298891862272
1.2284778091793322 4.637486727158758
2.0455820891353236 3.5188410321569616
2.5416811162514614 2.320292073226465
2.2498581591243214 1.4147217487012016
1.0533840349030483 0.8820333225098699
-0.5224599335835065 0.5357858454855043
-1.6897517620920657 0.29607605369940515
-2.2442153806336314 0.2161727897707054
-2.2150330849209174 0.17622115780635553
-1.9523924235064913 0.12295231518722236
-1.4854756921030678 0.056366261913305904
-0.9893766649869301 -0.03685421267017713
-0.6391891164343624 -0.03685421267017713
-0.4057307507326505 -0.03685421267017713
-0.2890015678817946 -0.050171423324960426
-0.14309008931822473 -0.10344026594409358
-0.2014546807436527 -0.2099779511823599
-0.2014546807436527 -0.32983284707540955
-0.23063697645636666 -0.38310168969454267
-0.25981927216908063 -0.3431500577301928
-0.1722723850309387 -0.28988121511105963
-0.2014546807436527 -0.30319842576584294
-0.1722723850309387 -0.31651563642062625
-0.1722723850309387 -0.3564672683849761
-0.14309008931822473 -0.3564672683849761
-0.08472549789279676 -0.30319842576584294
-0.08472549789279676 -0.28988121511105963
0.11955057209620108 -0.2499295831467098
0.14873286780891506 -0.31651563642062625
0.061185980670773125 -0.3564672683849761
-0.02636090646736881 -0.3697844790397594
0.03200368495805914 -0.3431500577301928
0.11955057209620108 -0.30319842576584294
0.26546205065977097 -0.32983284707540955
0.17791516352162903 -0.3564672683849761
0.11955057209620108 -0.4230533216588926
0.0903682763834871 -0.3697844790397594
0.14873286780891506 -0.32983284707540955
0.20709745923434303 -0.30319842576584294
0.29464434637248493 -0.2632467938014931
0.32382664208519896 -0.28988121511105963
0.32382664208519896 -0.3431500577301928
0.26546205065977097 -0.396418900349326
0.29464434637248493 -0.3431500577301928
0.3530089377979129 -0.31651563642062625
0.41137352922334086 -0.3431500577301928
0.3821912335106269 -0.3431500577301928
0.3530089377979129 -0.3697844790397594
0.29464434637248493 -0.3697844790397594
0.29464434637248493 -0.3564672683849761
0.3530089377979129 -0.30319842576584294
0.5572850077869108 -0.2765640044562764
0.5572850077869108 -0.2765640044562764
0.4989204163614828 -0.30319842576584294
0.44055582493605483 -0.28988121511105963
0.41137352922334086 -0.2765640044562764
0.4989204163614828 -0.28988121511105963
0.6448318949250527 -0.30319842576584294
0.5864673034996247 -0.3431500577301928
0.5864673034996247 -0.4097361110041093
0.4989204163614828 -0.44968774296845915
0.46973812064876885 -0.4097361110041093
0.5281027120741968 -0.38310168969454267
0.6156495992123387 -0.3431500577301928
0.6156495992123387 -0.396418900349326
0.5572850077869108 -0.3697844790397594
0.5864673034996247 -0.3564672683849761
0.6156495992123387 -0.28988121511105963
0.7615610777759086 -0.2632467938014931
0.7323787820631946 -0.28988121511105963
0.8491079649140506 -0.43637053231367584
0.7323787820631946 -0.489639374932809
0.7323787820631946 -0.5162737962423756
0.7323787820631946 -0.44968774296845915
0.7615610777759086 -0.3697844790397594
0.8199256692013366 -0.3564672683849761
0.8782902606267645 -0.4097361110041093
0.8782902606267645 -0.46300495362324245
0.7907433734886226 -0.5029565855875923
0.7907433734886226 -0.489639374932809
0.9074725563394785 -0.44968774296845915
0.9950194434776205 -0.44968774296845915
0.9950194434776205 -0.4230533216588926
0.9658371477649065 -0.489639374932809
0.8782902606267645 -0.4763221642780257
0.9366548520521925 -0.43637053231367584
0.9658371477649065 -0.38310168969454267
1.0533840349030483 -0.3697844790397594
1.1409309220411903 -0.3564672683849761
1.0533840349030483 -0.3564672683849761
1.0533840349030483 -0.3431500577301928
1.0825663306157625 -0.2632467938014931
1.1701132177539044 -0.2099779511823599
1.2284778091793322 -0.17002631921801004
1.3452069920301881 -0.14339189790844345
1.2868424006047603 -0.14339189790844345
1.2868424006047603 -0.15670910856322676
1.3160246963174742 -0.14339189790844345
1.43275387916833 -0.09012305528931029
1.520300766306472 -0.010219791360610552
1.520300766306472 0.04304905125852261
1.4911184705937581 0.10963510453243906
1.4911184705937581 0.16290394715157222
1.607847653444614 0.2161727897707054
1.7245768362954699 0.3093932643541884
1.8121237234336118 0.3759793176281049
1.753759132008184 0.3892965282828882
1.637029949157328 0.41593094959245475
1.549483062019186 0.4425653709020213
1.5786653577319 0.4425653709020213
1.637029949157328 0.522468634830721
1.695394540582756 0.5491030561402876
1.695394540582756 0.5491030561402876
1.4911184705937581 0.4958342135211545
1.4035715834556162 0.4958342135211545
1.2868424006047603 0.4825170028663712
1.3452069920301881 0.5491030561402876
1.2576601048920462 0.5890546881046376
1.2576601048920462 0.562420266795071
1.1701132177539044 0.522468634830721
1.0533840349030483 0.5357858454855043
0.9950194434776205 0.5890546881046376
1.0533840349030483 0.6423235307237707
1.0533840349030483 0.5890546881046376
1.0533840349030483 0.5091514241759378
0.9074725563394785 0.40261373893767144
0.8491079649140506 0.3759793176281049
0.8491079649140506 0.3493448963185383
0.8491079649140506 0.4691997922115879
0.8491079649140506 0.5091514241759378
0.8199256692013366 0.522468634830721
0.7031964863504807 0.4691997922115879
0.6740141906377667 0.4691997922115879
0.6740141906377667 0.4825170028663712
0.7323787820631946 0.4958342135211545
0.7907433734886226 0.4958342135211545
0.8199256692013366 0.5091514241759378
0.7615610777759086 0.42924816024723805
0.6740141906377667 0.42924816024723805
0.6156495992123387 0.4425653709020213
0.6740141906377667 0.4958342135211545
0.7615610777759086 0.5091514241759378
0.7615610777759086 0.4958342135211545
0.7615610777759086 0.4558825815568046
0.5864673034996247 0.4558825815568046
0.6448318949250527 0.4558825815568046
0.6156495992123387 0.5091514241759378
0.6740141906377667 0.5357858454855043
0.7615610777759086 0.5091514241759378
0.6448318949250527 0.4825170028663712
0.5281027120741968 0.40261373893767144
0.5864673034996247 0.41593094959245475
0.6740141906377667 0.4825170028663712
0.7031964863504807 0.522468634830721
0.7323787820631946 0.4958342135211545
0.6740141906377667 0.4558825815568046
0.5572850077869108 0.4691997922115879
0.5864673034996247 0.5091514241759378
0.7031964863504807 0.5091514241759378
0.7907433734886226 0.522468634830721
0.7031964863504807 0.4958342135211545
0.6448318949250527 0.42924816024723805
0.6156495992123387 0.29607605369940515
0.6156495992123387 0.3227104750089717
0.5864673034996247 0.3759793176281049
0.5281027120741968 0.42924816024723805
0.5281027120741968 0.42924816024723805
0.4989204163614828 0.40261373893767144
0.4989204163614828 0.3892965282828882
0.5572850077869108 0.4691997922115879
0.6156495992123387 0.4958342135211545
0.6448318949250527 0.4691997922115879
0.6448318949250527 0.41593094959245475
0.5281027120741968 0.40261373893767144
0.5281027120741968 0.40261373893767144
0.6156495992123387 0.4425653709020213
0.6156495992123387 0.4958342135211545
0.7323787820631946 0.4958342135211545
0.7323787820631946 0.522468634830721
0.5864673034996247 0.4425653709020213
0.5864673034996247 0.41593094959245475
0.5572850077869108 0.4425653709020213
0.6740141906377667 0.42924816024723805
0.5864673034996247 0.4558825815568046
0.5572850077869108 0.41593094959245475
0.5864673034996247 0.41593094959245475
0.5572850077869108 0.3759793176281049
0.5572850077869108 0.4691997922115879
0.6448318949250527 0.4691997922115879
0.7615610777759086 0.5091514241759378
0.6740141906377667 0.4425653709020213
0.6156495992123387 0.4425653709020213
0.5572850077869108 0.41593094959245475
0.5572850077869108 0.42924816024723805
0.5572850077869108 0.4958342135211545
0.6740141906377667 0.522468634830721
0.7031964863504807 0.5357858454855043
0.5864673034996247 0.522468634830721
0.5281027120741968 0.4958342135211545
0.5572850077869108 0.5091514241759378
0.6156495992123387 0.5357858454855043
0.6740141906377667 0.5357858454855043
0.6448318949250527 0.4958342135211545
0.5281027120741968 0.4425653709020213
0.41137352922334086 0.40261373893767144
0.3530089377979129 0.40261373893767144
0.46973812064876885 0.4558825815568046
0.5281027120741968 0.4825170028663712
0.44055582493605483 0.41593094959245475
0.3821912335106269 0.40261373893767144
0.29464434637248493 0.41593094959245475
0.26546205065977097 0.41593094959245475
0.41137352922334086 0.4825170028663712
0.46973812064876885 0.4825170028663712
0.44055582493605483 0.4691997922115879
0.3530089377979129 0.41593094959245475
0.26546205065977097 0.41593094959245475
0.26546205065977097 0.4558825815568046
0.3530089377979129 0.4958342135211545
0.44055582493605483 0.4958342135211545
0.3821912335106269 0.4958342135211545
0.41137352922334086 0.4691997922115879
0.32382664208519896 0.42924816024723805
0.26546205065977097 0.4558825815568046
0.3530089377979129 0.522468634830721
0.46973812064876885 0.4825170028663712
0.4989204163614828 0.42924816024723805
0.41137352922334086 0.42924816024723805
0.44055582493605483 0.42924816024723805
0.3821912335106269 0.4425653709020213
0.46973812064876885 0.4958342135211545
0.6740141906377667 0.5357858454855043
0.7031964863504807 0.522468634830721
0.6448318949250527 0.522468634830721
0.5864673034996247 0.5091514241759378
0.4989204163614828 0.5091514241759378
0.6156495992123387 0.5491030561402876
0.7907433734886226 0.5357858454855043
0.7615610777759086 0.562420266795071
0.7031964863504807 0.5491030561402876
0.7323787820631946 0.5757374774498543
0.7907433734886226 0.6290063200689874
0.8199256692013366 0.6689579520333373
0.9074725563394785 0.6955923733429038
0.9950194434776205 0.7089095839976871
0.9366548520521925 0.655640741378554
0.7615610777759086 0.6423235307237707
0.7907433734886226 0.6156891094142041
0.7323787820631946 0.6423235307237707
0.7323787820631946 0.6156891094142041
0.7323787820631946 0.5757374774498543
0.6156495992123387 0.522468634830721
0.5281027120741968 0.5491030561402876
0.5281027120741968 0.6290063200689874
0.5864673034996247 0.6822751626881206
0.6740141906377667 0.7089095839976871
0.6740141906377667 0.7089095839976871
0.5281027120741968 0.6689579520333373
0.5572850077869108 0.6423235307237707
0.46973812064876885 0.6423235307237707
0.6740141906377667 0.6423235307237707
0.7907433734886226 0.6023718987594208
0.7907433734886226 0.562420266795071
0.6156495992123387 0.5091514241759378
0.5281027120741968 0.5091514241759378
0.4989204163614828 0.5091514241759378
0.44055582493605483 0.5757374774498543
0.46973812064876885 0.562420266795071
0.3821912335106269 0.5357858454855043
0.26546205065977097 0.4958342135211545
0.17791516352162903 0.4825170028663712
0.20709745923434303 0.4958342135211545
0.3530089377979129 0.562420266795071
0.44055582493605483 0.5491030561402876
0.46973812064876885 0.522468634830721
0.3821912335106269 0.4825170028663712
0.32382664208519896 0.4691997922115879
0.29464434637248493 0.5091514241759378
0.32382664208519896 0.5491030561402876
0.44055582493605483 0.5890546881046376
0.3530089377979129 0.562420266795071
0.3821912335106269 0.522468634830721
0.26546205065977097 0.4825170028663712
0.236279754947057 0.4825170028663712
0.26546205065977097 0.5091514241759378
0.26546205065977097 0.4825170028663712
0.236279754947057 0.4691997922115879
0.061185980670773125 0.4558825815568046
0.14873286780891506 0.4958342135211545
0.061185980670773125 0.4958342135211545
0.14873286780891506 0.6023718987594208
0.26546205065977097 0.6156891094142041
0.29464434637248493 0.6023718987594208
0.20709745923434303 0.522468634830721
0.20709745923434303 0.4558825815568046
0.20709745923434303 0.4958342135211545
0.32382664208519896 0.5491030561402876
0.3821912335106269 0.5890546881046376
0.3530089377979129 0.6423235307237707
0.29464434637248493 0.6290063200689874
0.26546205065977097 0.6689579520333373
0.3821912335106269 0.748861215962037
0.4989204163614828 0.8687161118550867
0.6448318949250527 1.0152054290577028
0.7615610777759086 1.1350603249507525
0.8199256692013366 1.3081840634629351
0.9366548520521925 1.5212594339394678
1.2576601048920462 1.7876036470351337
1.549483062019186 2.0805822814403663
1.7245768362954699 2.4534641797742984
1.4911184705937581 2.8263460781082306
1.3160246963174742 3.2391796084065123
1.2576601048920462 3.6253787173952277
1.4911184705937581 4.024895037038727
1.695394540582756 4.371142514063092
1.637029949157328 4.6641211484683245
1.4619361748810442 4.943782572218773
1.1701132177539044 5.303347259897922
0.9366548520521925 5.729498000850988
0.9950194434776205 6.1156971098397035
1.2576601048920462 6.355406901625803
1.8704883148590399 6.368724112280586
2.4833165248260336 6.075745477875353
3.066962439080313 5.463153787755322
3.5630614661964506 4.504314620610925
3.6797906490473067 3.3457172936447788
3.5338791704837367 2.3868781265003816
2.6875925948150314 1.7742864363803503
1.1117486263284764 1.3614529060820684
-0.5224599335835065 1.028522639712486
-1.3979288049649259 0.7888128479263868
-1.6313871706666376 0.7089095839976871
-1.5146579878157818 0.6423235307237707
-1.310381917826784 0.6156891094142041
-1.106105847837786 0.5491030561402876
-0.8142828907106463 0.4425653709020213
-0.4057307507326505 0.41593094959245475
0.03200368495805914 0.42924816024723805
0.26546205065977097 0.41593094959245475
0.3530089377979129 0.3626621069733216
0.3530089377979129 0.3227104750089717
0.41137352922334086 0.22949000042548867
0.3821912335106269 0.1895383684611388
0.44055582493605483 0.17622115780635553
0.41137352922334086 0.16290394715157222
0.4989204163614828 0.1895383684611388
0.46973812064876885 0.16290394715157222
0.46973812064876885 0.13626952584200563
0.3821912335106269 0.12295231518722236
0.46973812064876885 0.13626952584200563
0.4989204163614828 0.1895383684611388
0.6156495992123387 0.1895383684611388
0.6740141906377667 0.16290394715157222
0.5864673034996247 0.13626952584200563
0.5864673034996247 0.16290394715157222
0.5864673034996247 0.17622115780635553
0.7031964863504807 0.17622115780635553
0.7907433734886226 0.14958673649678894
0.7615610777759086 0.056366261913305904
0.7031964863504807 0.003097419294172739
0.6156495992123387 -0.023537002015393844
0.5281027120741968 0.02973184060373932
0.6156495992123387 0.0696834725680892
0.6448318949250527 0.09631789387765577
0.6740141906377667 0.0696834725680892
0.6448318949250527 0.003097419294172739
0.6156495992123387 -0.03685421267017713
0.5864673034996247 -0.023537002015393844
0.6740141906377667 -0.03685421267017713
0.7323787820631946 -0.050171423324960426
0.6740141906377667 -0.11675747659887688
0.6740141906377667 -0.15670910856322676
0.6448318949250527 -0.13007468725366017
0.6448318949250527 -0.09012305528931029
0.6448318949250527 -0.023537002015393844
0.7323787820631946 -0.06348863397974372
0.8199256692013366 -0.010219791360610552
0.7323787820631946 -0.10344026594409358
0.7323787820631946 -0.13007468725366017
0.6740141906377667 -0.09012305528931029
0.7031964863504807 -0.050171423324960426
0.9074725563394785 -0.010219791360610552
0.8199256692013366 -0.06348863397974372
0.8199256692013366 -0.09012305528931029
0.7323787820631946 -0.15670910856322676
0.7615610777759086 -0.17002631921801004
0.8199256692013366 -0.18334352987279334
0.9658371477649065 -0.14339189790844345
0.9366548520521925 -0.14339189790844345
0.8491079649140506 -0.19666074052757662
0.7615610777759086 -0.19666074052757662
0.8491079649140506 -0.2099779511823599
0.8491079649140506 -0.19666074052757662
0.9950194434776205 -0.17002631921801004
0.9658371477649065 -0.19666074052757662
0.9074725563394785 -0.2366123724919265
0.7907433734886226 -0.2099779511823599
0.8491079649140506 -0.19666074052757662
0.9074725563394785 -0.18334352987279334
1.0242017391903344 -0.18334352987279334
0.9950194434776205 -0.19666074052757662
0.9658371477649065 -0.2232951618371432
0.8782902606267645 -0.2366123724919265
0.9074725563394785 -0.2632467938014931
1.0242017391903344 -0.2499295831467098
1.1992955134666183 -0.2632467938014931
1.1409309220411903 -0.2366123724919265
1.0533840349030483 -0.2632467938014931
1.1117486263284764 -0.2632467938014931
1.1409309220411903 -0.19666074052757662
1.2868424006047603 -0.14339189790844345
1.3452069920301881 -0.10344026594409358
1.4035715834556162 -0.13007468725366017
1.43275387916833 -0.18334352987279334
1.43275387916833 -0.2232951618371432
1.3743892877429023 -0.17002631921801004
1.520300766306472 -0.050171423324960426
1.5786653577319 0.056366261913305904
1.753759132008184 0.08300068322287249
1.782941427720898 0.13626952584200563
1.8704883148590399 0.13626952584200563
1.9872174977098958 0.12295231518722236
2.0747643848480375 0.16290394715157222
2.103946680560752 0.2561244217350553
2.1331289762734658 0.3493448963185383
2.103946680560752 0.42924816024723805
2.1331289762734658 0.4558825815568046
2.2206758634116075 0.4825170028663712
2.3957696376878914 0.5357858454855043
2.4833165248260336 0.5890546881046376
2.3082227505497497 0.6290063200689874
2.2790404548370353 0.6156891094142041
2.1623112719861797 0.6423235307237707
2.1331289762734658 0.7089095839976871
2.1914935676988936 0.7621784266168203
2.1623112719861797 0.7754956372716036
2.1331289762734658 0.7754956372716036
1.8996706105717538 0.7621784266168203
1.8121237234336118 0.7222267946524704
1.782941427720898 0.7222267946524704
1.782941427720898 0.7754956372716036
1.7245768362954699 0.7621784266168203
1.666212244870042 0.7355440053072537
1.549483062019186 0.6822751626881206
1.43275387916833 0.6822751626881206
1.3452069920301881 0.7089095839976871
1.2868424006047603 0.7222267946524704
1.4619361748810442 0.7089095839976871
1.3452069920301881 0.6822751626881206
1.2284778091793322 0.6290063200689874
1.0825663306157625 0.5890546881046376
1.0533840349030483 0.6423235307237707
1.0533840349030483 0.6689579520333373
1.1992955134666183 0.6689579520333373
1.1409309220411903 0.7222267946524704
1.0242017391903344 0.6822751626881206
0.8199256692013366 0.6689579520333373
0.8782902606267645 0.7355440053072537
0.9950194434776205 0.7222267946524704
1.0825663306157625 0.6822751626881206
0.9950194434776205 0.6023718987594208
0.9074725563394785 0.5491030561402876
0.7907433734886226 0.522468634830721
0.7615610777759086 0.522468634830721
0.8199256692013366 0.5491030561402876
0.8491079649140506 0.5757374774498543
0.7907433734886226 0.5890546881046376
0.7615610777759086 0.5890546881046376
0.7323787820631946 0.5757374774498543
0.7615610777759086 0.6023718987594208
0.8199256692013366 0.5890546881046376
0.9366548520521925 0.5491030561402876
0.9074725563394785 0.4958342135211545
0.8491079649140506 0.4425653709020213
0.7907433734886226 0.4691997922115879
0.7031964863504807 0.4825170028663712
0.7615610777759086 0.522468634830721
0.8491079649140506 0.522468634830721
0.8782902606267645 0.522468634830721
0.7323787820631946 0.4691997922115879
0.7615610777759086 0.4691997922115879
0.6156495992123387 0.4958342135211545
0.7031964863504807 0.562420266795071
0.7907433734886226 0.5491030561402876
0.8199256692013366 0.4691997922115879
0.7615610777759086 0.42924816024723805
0.7323787820631946 0.42924816024723805
0.6448318949250527 0.4825170028663712
0.7323787820631946 0.562420266795071
0.8782902606267645 0.5491030561402876
0.7907433734886226 0.522468634830721
0.7615610777759086 0.4558825815568046
0.7907433734886226 0.4825170028663712
0.7907433734886226 0.5491030561402876
0.8491079649140506 0.6023718987594208
0.9074725563394785 0.6023718987594208
0.8491079649140506 0.6023718987594208
0.9074725563394785 0.4958342135211545
0.8782902606267645 0.42924816024723805
0.8199256692013366 0.4425653709020213
0.8782902606267645 0.4825170028663712
0.8782902606267645 0.562420266795071
0.8491079649140506 0.5757374774498543
0.8199256692013366 0.5491030561402876
0.7907433734886226 0.5357858454855043
0.8782902606267645 0.5357858454855043
0.8782902606267645 0.5757374774498543
0.9074725563394785 0.5357858454855043
0.9074725563394785 0.4825170028663712
0.7907433734886226 0.4558825815568046
0.7323787820631946 0.40261373893767144
0.7323787820631946 0.522468634830721
0.8199256692013366 0.522468634830721
0.8782902606267645 0.5357858454855043
0.8199256692013366 0.4958342135211545
0.7323787820631946 0.4825170028663712
0.7031964863504807 0.5091514241759378
0.7031964863504807 0.5091514241759378
0.7323787820631946 0.522468634830721
0.8199256692013366 0.5091514241759378
0.7907433734886226 0.522468634830721
0.7907433734886226 0.5357858454855043
0.7031964863504807 0.5091514241759378
0.6740141906377667 0.5491030561402876
0.7323787820631946 0.5757374774498543
0.8199256692013366 0.5757374774498543
0.8491079649140506 0.562420266795071
0.7615610777759086 0.4958342135211545
0.7323787820631946 0.4691997922115879
0.6740141906377667 0.5091514241759378
0.6740141906377667 0.562420266795071
0.7323787820631946 0.562420266795071
0.7031964863504807 0.5491030561402876
0.7031964863504807 0.5091514241759378
0.5864673034996247 0.5091514241759378
0.6156495992123387 0.5357858454855043
0.7031964863504807 0.522468634830721
0.7615610777759086 0.4958342135211545
0.7031964863504807 0.4691997922115879
0.6740141906377667 0.4425653709020213
0.5572850077869108 0.4691997922115879
0.46973812064876885 0.4825170028663712
0.6156495992123387 0.562420266795071
0.6740141906377667 0.5091514241759378
0.6740141906377667 0.4825170028663712
0.6156495992123387 0.4825170028663712
0.5572850077869108 0.4825170028663712
0.5281027120741968 0.5091514241759378
0.6448318949250527 0.5357858454855043
0.7031964863504807 0.522468634830721
0.5864673034996247 0.4825170028663712
0.6156495992123387 0.42924816024723805
0.4989204163614828 0.42924816024723805
0.5572850077869108 0.4691997922115879
0.7031964863504807 0.4958342135211545
0.7907433734886226 0.4958342135211545
0.7615610777759086 0.4958342135211545
0.6448318949250527 0.4691997922115879
0.5864673034996247 0.5091514241759378
0.6156495992123387 0.5757374774498543
0.8199256692013366 0.6290063200689874
0.9074725563394785 0.6689579520333373
0.9074725563394785 0.6023718987594208
0.8199256692013366 0.562420266795071
0.7907433734886226 0.5357858454855043
0.8199256692013366 0.522468634830721
0.8782902606267645 0.562420266795071
0.9658371477649065 0.6023718987594208
0.9366548520521925 0.5890546881046376
0.9366548520521925 0.6023718987594208
0.9074725563394785 0.6423235307237707
0.9658371477649065 0.6689579520333373
1.0242017391903344 0.748861215962037
1.1409309220411903 0.7222267946524704
1.1117486263284764 0.6822751626881206
1.0533840349030483 0.6290063200689874
0.8782902606267645 0.5757374774498543
0.8782902606267645 0.6023718987594208
0.8199256692013366 0.6822751626881206
0.8782902606267645 0.6822751626881206
0.8199256692013366 0.6955923733429038
0.7615610777759086 0.6156891094142041
0.6448318949250527 0.6023718987594208
0.6156495992123387 0.6423235307237707
0.7615610777759086 0.6689579520333373
0.8782902606267645 0.6822751626881206
0.7323787820631946 0.6822751626881206
0.7031964863504807 0.6822751626881206
0.6740141906377667 0.6822751626881206
0.7615610777759086 0.6822751626881206
0.8782902606267645 0.7089095839976871
0.9950194434776205 0.6822751626881206
0.9950194434776205 0.6290063200689874
0.8199256692013366 0.5890546881046376
0.7907433734886226 0.4958342135211545
0.7031964863504807 0.4825170028663712
0.6740141906377667 0.5091514241759378
0.6740141906377667 0.522468634830721
0.5864673034996247 0.5357858454855043
0.41137352922334086 0.5491030561402876
0.3821912335106269 0.5357858454855043
0.3530089377979129 0.522468634830721
0.5281027120741968 0.562420266795071
0.6156495992123387 0.562420266795071
0.5281027120741968 0.562420266795071
0.4989204163614828 0.4825170028663712
0.41137352922334086 0.4691997922115879
0.3821912335106269 0.4958342135211545
0.44055582493605483 0.522468634830721
0.44055582493605483 0.522468634830721
0.41137352922334086 0.5357858454855043
0.41137352922334086 0.4958342135211545
0.236279754947057 0.5091514241759378
0.3530089377979129 0.5491030561402876
0.41137352922334086 0.5890546881046376
0.4989204163614828 0.5491030561402876
0.46973812064876885 0.4691997922115879
0.3821912335106269 0.3626621069733216
0.3530089377979129 0.3759793176281049
0.14873286780891506 0.40261373893767144
0.26546205065977097 0.4425653709020213
0.41137352922334086 0.4691997922115879
0.41137352922334086 0.4691997922115879
0.32382664208519896 0.4958342135211545
0.26546205065977097 0.4691997922115879
0.3530089377979129 0.522468634830721
0.46973812064876885 0.5357858454855043
0.46973812064876885 0.5357858454855043
0.5572850077869108 0.522468634830721
0.5281027120741968 0.522468634830721
0.46973812064876885 0.562420266795071
0.41137352922334086 0.6290063200689874
0.4989204163614828 0.7222267946524704
0.6740141906377667 0.8154472692359535
0.7907433734886226 0.9219849544742198
0.7907433734886226 1.0551570610220526
0.9074725563394785 1.2549152208438021
1.1409309220411903 1.4679905913203346
1.4619361748810442 1.6411143298325175
1.753759132008184 1.8808241216186168
1.8121237234336118 2.133851124059499
1.637029949157328 2.493415811738648
1.43275387916833 2.90624934203693
1.3743892877429023 3.319082872335212
1.520300766306472 3.718599191978711
1.8121237234336118 4.0115778263839434
1.8121237234336118 4.317873671443959
1.4035715834556162 4.557583463230058
1.3160246963174742 4.93046536156399
1.0533840349030483 5.383250523826622
1.2284778091793322 5.809401264779687
1.43275387916833 6.06242826722057
1.9580352019971818 6.049111056565787
2.5124988205387475 5.742815211505771
3.154509326218455 5.1035891000761735
3.8257021276108762 4.051529458348293
4.175889676163444 2.94620097400128
3.7965198318981623 2.1072167027499327
2.658410299102317 1.5478938552490344
0.9658371477649065 1.161694746260319
-0.5516422292962204 0.8953505331646532
-1.310381917826784 0.6689579520333373
-1.4562933963903537 0.562420266795071
-1.3395642135394978 0.5357858454855043
-1.193652734975928 0.522468634830721
-0.9893766649869301 0.41593094959245475
-0.6391891164343624 0.336027685663755
-0.25981927216908063 0.26944163238983854
0.20709745923434303 0.28275884304462184
0.32382664208519896 0.24280721108027198
0.3530089377979129 0.20285557911592209
0.3821912335106269 0.17622115780635553
0.26546205065977097 0.17622115780635553
0.26546205065977097 0.20285557911592209
0.44055582493605483 0.2161727897707054
0.5281027120741968 0.22949000042548867
0.5864673034996247 0.16290394715157222
0.5281027120741968 0.08300068322287249
0.3821912335106269 0.0696834725680892
0.4989204163614828 0.056366261913305904
0.5864673034996247 0.056366261913305904
0.7031964863504807 0.04304905125852261
0.6740141906377667 -0.03685421267017713
0.5864673034996247 0.003097419294172739
0.5281027120741968 0.02973184060373932
0.5864673034996247 0.02973184060373932
0.6740141906377667 0.056366261913305904
0.8491079649140506 0.0696834725680892
0.8199256692013366 -0.010219791360610552
0.7323787820631946 -0.03685421267017713
0.5864673034996247 -0.06348863397974372
0.6740141906377667 -0.06348863397974372
0.6740141906377667 -0.050171423324960426
0.7323787820631946 -0.03685421267017713
0.7615610777759086 -0.076805844634527
0.6448318949250527 -0.11675747659887688
0.5864673034996247 -0.15670910856322676
0.6448318949250527 -0.14339189790844345
0.7907433734886226 -0.15670910856322676
0.9074725563394785 -0.13007468725366017
0.9074725563394785 -0.13007468725366017
0.6740141906377667 -0.15670910856322676
0.6448318949250527 -0.15670910856322676
0.7031964863504807 -0.11675747659887688
0.9074725563394785 -0.11675747659887688
0.9366548520521925 -0.09012305528931029
0.9074725563394785 -0.10344026594409358
0.8491079649140506 -0.17002631921801004
0.7907433734886226 -0.19666074052757662
0.8782902606267645 -0.2366123724919265
0.9074725563394785 -0.2099779511823599
1.0242017391903344 -0.2765640044562764
0.9366548520521925 -0.2632467938014931
0.8199256692013366 -0.2632467938014931
0.7907433734886226 -0.2232951618371432
0.8782902606267645 -0.2099779511823599
0.9658371477649065 -0.18334352987279334
1.0242017391903344 -0.15670910856322676
1.0825663306157625 -0.2232951618371432
0.9950194434776205 -0.2765640044562764
0.9366548520521925 -0.2632467938014931
0.9658371477649065 -0.2499295831467098
1.0533840349030483 -0.2366123724919265
1.1409309220411903 -0.2499295831467098
1.1117486263284764 -0.2765640044562764
1.0242017391903344 -0.2765640044562764
0.9074725563394785 -0.28988121511105963
1.0242017391903344 -0.2632467938014931
1.0533840349030483 -0.2765640044562764
1.2284778091793322 -0.31651563642062625
1.1992955134666183 -0.3431500577301928
1.1701132177539044 -0.3697844790397594
1.1409309220411903 -0.30319842576584294
1.1992955134666183 -0.2765640044562764
1.2868424006047603 -0.2632467938014931
1.3743892877429023 -0.2765640044562764
1.43275387916833 -0.32983284707540955
1.3452069920301881 -0.30319842576584294
1.2576601048920462 -0.2499295831467098
1.2868424006047603 -0.15670910856322676
1.549483062019186 -0.10344026594409358
1.666212244870042 -0.09012305528931029
1.666212244870042 -0.06348863397974372
1.666212244870042 -0.076805844634527
1.637029949157328 -0.09012305528931029
1.8121237234336118 0.003097419294172739
1.8704883148590399 0.08300068322287249
1.9872174977098958 0.12295231518722236
2.0163997934226097 0.09631789387765577
2.0163997934226097 0.08300068322287249
2.0455820891353236 0.1895383684611388
2.0747643848480375 0.336027685663755
2.103946680560752 0.42924816024723805
2.2206758634116075 0.41593094959245475
2.1623112719861797 0.3626621069733216
2.2206758634116075 0.336027685663755
2.1623112719861797 0.3626621069733216
2.1331289762734658 0.4691997922115879
2.0455820891353236 0.5357858454855043
2.103946680560752 0.5757374774498543
2.0455820891353236 0.5491030561402876
1.9288529062844677 0.4825170028663712
1.8413060191463257 0.4825170028663712
1.695394540582756 0.5357858454855043
1.753759132008184 0.6023718987594208
1.695394540582756 0.5357858454855043
1.666212244870042 0.5091514241759378
1.520300766306472 0.42924816024723805
1.3743892877429023 0.4558825815568046
1.3160246963174742 0.4958342135211545
1.3160246963174742 0.522468634830721
1.3160246963174742 0.4958342135211545
1.2576601048920462 0.4825170028663712
1.1992955134666183 0.42924816024723805
1.0825663306157625 0.42924816024723805
0.9950194434776205 0.4825170028663712
1.0825663306157625 0.4958342135211545
1.1117486263284764 0.5091514241759378
0.9950194434776205 0.42924816024723805
0.8782902606267645 0.3626621069733216
0.9074725563394785 0.3227104750089717
0.9366548520521925 0.3227104750089717
0.8782902606267645 0.40261373893767144
0.9074725563394785 0.3892965282828882
0.8491079649140506 0.336027685663755
0.8199256692013366 0.28275884304462184
0.7615610777759086 0.2561244217350553
0.7031964863504807 0.26944163238983854
0.7907433734886226 0.29607605369940515
0.8199256692013366 0.3093932643541884
0.7615610777759086 0.2561244217350553
0.7031964863504807 0.2561244217350553
0.6740141906377667 0.22949000042548867
0.6156495992123387 0.26944163238983854
0.6740141906377667 0.3227104750089717
0.7907433734886226 0.3093932643541884
0.7615610777759086 0.29607605369940515
0.5864673034996247 0.24280721108027198
0.6448318949250527 0.24280721108027198
0.6448318949250527 0.26944163238983854
0.6740141906377667 0.2561244217350553
0.7031964863504807 0.24280721108027198
0.6156495992123387 0.22949000042548867
0.6156495992123387 0.16290394715157222
0.5864673034996247 0.20285557911592209
0.4989204163614828 0.2561244217350553
0.6156495992123387 0.28275884304462184
0.6740141906377667 0.26944163238983854
0.6740141906377667 0.17622115780635553
0.5864673034996247 0.0696834725680892
0.5281027120741968 0.056366261913305904
0.6156495992123387 0.08300068322287249
0.5864673034996247 0.14958673649678894
0.6156495992123387 0.16290394715157222
0.5864673034996247 0.16290394715157222
0.5572850077869108 0.056366261913305904
0.46973812064876885 0.08300068322287249
0.4989204163614828 0.12295231518722236
0.6156495992123387 0.17622115780635553
0.7031964863504807 0.20285557911592209
0.7615610777759086 0.17622115780635553
0.6156495992123387 0.1895383684611388
0.5281027120741968 0.16290394715157222
0.5572850077869108 0.16290394715157222
0.6156495992123387 0.1895383684611388
0.6156495992123387 0.1895383684611388
0.7323787820631946 0.10963510453243906
0.7031964863504807 0.09631789387765577
0.5864673034996247 0.13626952584200563
0.5281027120741968 0.17622115780635553
0.6156495992123387 0.2161727897707054
0.7323787820631946 0.17622115780635553
0.6740141906377667 0.13626952584200563
0.6156495992123387 0.09631789387765577
0.5281027120741968 0.13626952584200563
0.5572850077869108 0.17622115780635553
0.6448318949250527 0.24280721108027198
0.7907433734886226 0.1895383684611388
0.7323787820631946 0.10963510453243906
0.6740141906377667 0.04304905125852261
0.5864673034996247 0.056366261913305904
0.6448318949250527 0.01641462994895603
0.7323787820631946 0.12295231518722236
0.7615610777759086 0.08300068322287249
0.6448318949250527 0.0696834725680892
0.6740141906377667 0.056366261913305904
0.5281027120741968 0.056366261913305904
0.5864673034996247 0.12295231518722236
0.4989204163614828 0.14958673649678894
0.6448318949250527 0.17622115780635553
0.6740141906377667 0.09631789387765577
0.6448318949250527 0.02973184060373932
0.4989204163614828 0.04304905125852261
0.5281027120741968 0.04304905125852261
0.4989204163614828 0.10963510453243906
0.5572850077869108 0.10963510453243906
0.5281027120741968 0.09631789387765577
0.41137352922334086 0.0696834725680892
0.32382664208519896 0.04304905125852261
0.32382664208519896 0.12295231518722236
0.4989204163614828 0.13626952584200563
0.5572850077869108 0.16290394715157222
0.44055582493605483 0.12295231518722236
0.41137352922334086 0.13626952584200563
0.3821912335106269 0.12295231518722236
0.46973812064876885 0.08300068322287249
0.44055582493605483 0.0696834725680892
0.4989204163614828 0.02973184060373932
0.4989204163614828 0.01641462994895603
0.44055582493605483 -0.023537002015393844
0.32382664208519896 -0.023537002015393844
0.29464434637248493 0.01641462994895603
0.3530089377979129 0.02973184060373932
0.4989204163614828 0.056366261913305904
0.44055582493605483 0.02973184060373932
0.41137352922334086 -0.023537002015393844
0.3821912335106269 -0.010219791360610552
0.3821912335106269 0.003097419294172739
0.41137352922334086 0.04304905125852261
0.41137352922334086 0.04304905125852261
0.41137352922334086 0.003097419294172739
0.3530089377979129 0.003097419294172739
0.26546205065977097 -0.010219791360610552
0.26546205065977097 0.04304905125852261
0.3530089377979129 0.0696834725680892
0.4989204163614828 0.04304905125852261
0.44055582493605483 0.003097419294172739
0.32382664208519896 -0.050171423324960426
0.29464434637248493 -0.09012305528931029
0.26546205065977097 -0.023537002015393844
0.29464434637248493 0.02973184060373932
0.32382664208519896 0.09631789387765577
0.3530089377979129 0.01641462994895603
0.29464434637248493 0.02973184060373932
0.32382664208519896 -0.010219791360610552
0.44055582493605483 0.01641462994895603
0.4989204163614828 0.02973184060373932
0.5864673034996247 0.056366261913305904
0.5281027120741968 0.01641462994895603
0.44055582493605483 0.01641462994895603
0.3821912335106269 0.09631789387765577
0.41137352922334086 0.10963510453243906
0.46973812064876885 0.10963510453243906
0.5864673034996247 0.12295231518722236
0.5864673034996247 0.0696834725680892
0.5864673034996247 0.0696834725680892
0.4989204163614828 0.10963510453243906
0.46973812064876885 0.16290394715157222
0.6740141906377667 0.22949000042548867
0.7615610777759086 0.2161727897707054
0.8199256692013366 0.17622115780635553
0.7907433734886226 0.056366261913305904
0.6448318949250527 0.01641462994895603
0.5572850077869108 0.056366261913305904
0.4989204163614828 0.10963510453243906
0.4989204163614828 0.09631789387765577
0.3821912335106269 0.08300068322287249
0.17791516352162903 0.056366261913305904
0.20709745923434303 0.02973184060373932
0.20709745923434303 0.056366261913305904
0.17791516352162903 0.12295231518722236
0.3530089377979129 0.13626952584200563
0.26546205065977097 0.14958673649678894
0.29464434637248493 0.08300068322287249
0.236279754947057 0.01641462994895603
0.236279754947057 0.04304905125852261
0.3530089377979129 0.08300068322287249
0.44055582493605483 0.0696834725680892
0.46973812064876885 0.056366261913305904
0.29464434637248493 0.003097419294172739
0.236279754947057 -0.010219791360610552
0.20709745923434303 0.01641462994895603
0.17791516352162903 0.056366261913305904
0.14873286780891506 0.056366261913305904
0.061185980670773125 0.01641462994895603
-0.05554320218008279 -0.076805844634527
-0.05554320218008279 -0.050171423324960426
-0.02636090646736881 -0.03685421267017713
-0.02636090646736881 0.003097419294172739
-0.08472549789279676 0.02973184060373932
0.11955057209620108 0.01641462994895603
-0.05554320218008279 -0.11675747659887688
-0.08472549789279676 -0.17002631921801004
-0.05554320218008279 -0.17002631921801004
-0.02636090646736881 -0.10344026594409358
0.0028213892453451675 -0.023537002015393844
-0.05554320218008279 -0.010219791360610552
-0.11390779360551075 -0.050171423324960426
-0.14309008931822473 -0.03685421267017713
-0.05554320218008279 -0.010219791360610552
0.0028213892453451675 -0.03685421267017713
-0.02636090646736881 -0.09012305528931029
-0.02636090646736881 -0.09012305528931029
-0.1722723850309387 -0.13007468725366017
-0.25981927216908063 -0.076805844634527
-0.2014546807436527 -0.023537002015393844
-0.11390779360551075 0.01641462994895603
0.0028213892453451675 0.003097419294172739
0.03200368495805914 -0.06348863397974372
-0.05554320218008279 -0.076805844634527
-0.2014546807436527 -0.09012305528931029
-0.14309008931822473 -0.023537002015393844
-0.02636090646736881 0.056366261913305904
0.03200368495805914 0.04304905125852261
0.03200368495805914 0.02973184060373932
-0.05554320218008279 0.0696834725680892
-0.11390779360551075 0.1895383684611388
0.0028213892453451675 0.3493448963185383
0.20709745923434303 0.5357858454855043
0.46973812064876885 0.7222267946524704
0.7031964863504807 0.8687161118550867
0.9074725563394785 1.0152054290577028
0.9366548520521925 1.2415980101890187
1.0533840349030483 1.667748751142084
0.9658371477649065 2.133851124059499
0.8782902606267645 2.520050233048215
0.7615610777759086 2.86629771007258
0.5864673034996247 3.1193247125134627
0.5864673034996247 3.412303346918695
0.29464434637248493 3.7052819813239277
0.0028213892453451675 4.104798300967427
-0.2890015678817946 4.504314620610925
-0.4932776378707925 4.917148150909207
-0.4349130464453645 5.210126785314439
-0.1722723850309387 5.276712838588356
0.5572850077869108 4.983734204183124
1.4911184705937581 4.264604828824826
2.3374050462624636 3.0926902912038963
2.658410299102317 1.8941413322734
2.1331289762734658 1.0951086929864027
0.8491079649140506 0.6689579520333373
-0.6391891164343624 0.40261373893767144
-1.6897517620920657 0.2161727897707054
-1.8648455363683496 0.09631789387765577
-1.7772986492302076 -0.010219791360610552
-1.6022048749539237 -0.076805844634527
-1.2520173264013559 -0.13007468725366017
-0.8434651864233602 -0.11675747659887688
-0.2890015678817946 -0.10344026594409358
-0.02636090646736881 -0.10344026594409358
0.0028213892453451675 -0.14339189790844345
-0.14309008931822473 -0.19666074052757662
-0.11390779360551075 -0.19666074052757662
0.03200368495805914 -0.19666074052757662
0.11955057209620108 -0.2366123724919265
0.236279754947057 -0.2499295831467098
0.11955057209620108 -0.31651563642062625
0.14873286780891506 -0.4230533216588926
0.0903682763834871 -0.396418900349326
0.11955057209620108 -0.3697844790397594
0.20709745923434303 -0.32983284707540955
0.32382664208519896 -0.3697844790397594
0.3821912335106269 -0.396418900349326
0.3821912335106269 -0.4097361110041093
0.29464434637248493 -0.43637053231367584
0.3821912335106269 -0.3697844790397594
0.46973812064876885 -0.3564672683849761
0.4989204163614828 -0.396418900349326
0.44055582493605483 -0.43637053231367584
0.41137352922334086 -0.489639374932809
0.3530089377979129 -0.44968774296845915
0.32382664208519896 -0.38310168969454267
0.41137352922334086 -0.38310168969454267
0.5572850077869108 -0.4097361110041093
0.5281027120741968 -0.489639374932809
0.4989204163614828 -0.5429082175519422
0.3821912335106269 -0.44968774296845915
0.3821912335106269 -0.4230533216588926
0.4989204163614828 -0.43637053231367584
0.6448318949250527 -0.46300495362324245
0.5864673034996247 -0.5029565855875923
0.5572850077869108 -0.5695426388615088
0.44055582493605483 -0.5562254282067255
0.5281027120741968 -0.5029565855875923
0.6156495992123387 -0.489639374932809
0.7323787820631946 -0.5029565855875923
0.6448318949250527 -0.5429082175519422
0.5864673034996247 -0.6094942708258586
0.6156495992123387 -0.6094942708258586
0.6740141906377667 -0.5429082175519422
0.7323787820631946 -0.5162737962423756
0.8199256692013366 -0.5029565855875923
0.7907433734886226 -0.5562254282067255
0.7615610777759086 -0.5562254282067255
0.7323787820631946 -0.5961770601710753
0.7323787820631946 -0.5162737962423756
0.7907433734886226 -0.44968774296845915
0.8782902606267645 -0.46300495362324245
0.8782902606267645 -0.5162737962423756
0.7907433734886226 -0.5295910068971589
0.8491079649140506 -0.5961770601710753
0.8491079649140506 -0.6228114814806419
0.9658371477649065 -0.5429082175519422
0.9658371477649065 -0.5162737962423756
0.9366548520521925 -0.5961770601710753
0.8782902606267645 -0.6627631134449918
0.8491079649140506 -0.716031956064125
1.0242017391903344 -0.676080324099775
1.0533840349030483 -0.6094942708258586
1.1117486263284764 -0.5828598495162921
1.1117486263284764 -0.6094942708258586
1.1117486263284764 -0.5961770601710753
1.1117486263284764 -0.5828598495162921
1.2284778091793322 -0.5429082175519422
1.3160246963174742 -0.5295910068971589
1.3452069920301881 -0.5162737962423756
1.3452069920301881 -0.5029565855875923
1.3452069920301881 -0.46300495362324245
1.2868424006047603 -0.44968774296845915
1.3452069920301881 -0.3564672683849761
1.4911184705937581 -0.31651563642062625
1.5786653577319 -0.28988121511105963
1.607847653444614 -0.31651563642062625
1.5786653577319 -0.31651563642062625
1.520300766306472 -0.2765640044562764
1.5786653577319 -0.17002631921801004
1.666212244870042 -0.03685421267017713
1.753759132008184 0.02973184060373932
1.8704883148590399 0.02973184060373932
1.8121237234336118 0.056366261913305904
1.695394540582756 0.056366261913305904
1.753759132008184 0.12295231518722236
1.8413060191463257 0.22949000042548867
1.8413060191463257 0.2161727897707054
1.7245768362954699 0.24280721108027198
1.4911184705937581 0.20285557911592209
1.4911184705937581 0.2561244217350553
1.4911184705937581 0.24280721108027198
1.4619361748810442 0.28275884304462184
1.4035715834556162 0.28275884304462184
1.2284778091793322 0.29607605369940515
1.0825663306157625 0.22949000042548867
0.9366548520521925 0.2161727897707054
0.8782902606267645 0.24280721108027198
0.8782902606267645 0.1895383684611388
0.9366548520521925 0.12295231518722236
0.9074725563394785 0.003097419294172739
0.7031964863504807 -0.023537002015393844
0.5572850077869108 0.003097419294172739
0.5281027120741968 0.08300068322287249
0.6156495992123387 0.12295231518722236
0.7031964863504807 0.12295231518722236
0.7031964863504807 0.09631789387765577
0.5281027120741968 0.04304905125852261
0.46973812064876885 -0.010219791360610552
0.4989204163614828 0.02973184060373932
0.5281027120741968 0.08300068322287249
0.5572850077869108 0.056366261913305904
0.5572850077869108 0.02973184060373932
0.5281027120741968 -0.023537002015393844
0.46973812064876885 -0.023537002015393844
0.46973812064876885 0.01641462994895603
0.4989204163614828 0.02973184060373932
0.5864673034996247 0.04304905125852261
0.5572850077869108 -0.023537002015393844
0.41137352922334086 -0.09012305528931029
0.32382664208519896 -0.13007468725366017
0.26546205065977097 -0.076805844634527
0.26546205065977097 -0.03685421267017713
0.41137352922334086 0.01641462994895603
0.41137352922334086 0.01641462994895603
0.3530089377979129 0.01641462994895603
0.29464434637248493 0.01641462994895603
0.3530089377979129 0.02973184060373932
0.44055582493605483 -0.023537002015393844
0.5281027120741968 -0.10344026594409358
0.46973812064876885 -0.18334352987279334
0.3530089377979129 -0.18334352987279334
0.236279754947057 -0.15670910856322676
0.236279754947057 -0.076805844634527
0.32382664208519896 -0.023537002015393844
0.41137352922334086 -0.06348863397974372
0.3821912335106269 -0.11675747659887688
0.3530089377979129 -0.13007468725366017
0.3530089377979129 -0.15670910856322676
0.3530089377979129 -0.076805844634527
0.41137352922334086 -0.06348863397974372
0.4989204163614828 -0.03685421267017713
0.5281027120741968 -0.03685421267017713
0.5572850077869108 -0.09012305528931029
0.3530089377979129 -0.076805844634527
0.3530089377979129 -0.06348863397974372
0.44055582493605483 -0.03685421267017713
0.5281027120741968 -0.023537002015393844
0.3821912335106269 -0.050171423324960426
0.29464434637248493 -0.09012305528931029
0.29464434637248493 -0.10344026594409358
0.41137352922334086 -0.09012305528931029
0.46973812064876885 -0.03685421267017713
0.5864673034996247 -0.050171423324960426
0.4989204163614828 -0.09012305528931029
0.3530089377979129 -0.14339189790844345
0.26546205065977097 -0.11675747659887688
0.29464434637248493 -0.11675747659887688
0.3530089377979129 -0.076805844634527
0.3530089377979129 -0.10344026594409358
0.44055582493605483 -0.10344026594409358
0.3530089377979129 -0.17002631921801004
0.236279754947057 -0.18334352987279334
0.3821912335106269 -0.17002631921801004
0.32382664208519896 -0.15670910856322676
0.41137352922334086 -0.13007468725366017
0.41137352922334086 -0.13007468725366017
0.29464434637248493 -0.18334352987279334
0.29464434637248493 -0.14339189790844345
0.236279754947057 -0.10344026594409358
0.3821912335106269 -0.050171423324960426
0.3821912335106269 -0.03685421267017713
0.3821912335106269 -0.11675747659887688
0.236279754947057 -0.19666074052757662
0.14873286780891506 -0.2232951618371432
0.20709745923434303 -0.2099779511823599
0.14873286780891506 -0.14339189790844345
0.26546205065977097 -0.11675747659887688
0.236279754947057 -0.14339189790844345
0.14873286780891506 -0.2099779511823599
0.17791516352162903 -0.2366123724919265
0.17791516352162903 -0.2366123724919265
0.236279754947057 -0.2099779511823599
0.236279754947057 -0.18334352987279334
0.11955057209620108 -0.19666074052757662
0.0903682763834871 -0.2366123724919265
0.0028213892453451675 -0.2099779511823599
-0.02636090646736881 -0.19666074052757662
0.0903682763834871 -0.2366123724919265
0.17791516352162903 -0.2632467938014931
0.20709745923434303 -0.31651563642062625
0.0028213892453451675 -0.30319842576584294
-0.02636090646736881 -0.2499295831467098
0.061185980670773125 -0.19666074052757662
0.0903682763834871 -0.15670910856322676
0.20709745923434303 -0.19666074052757662
0.0903682763834871 -0.2632467938014931
0.0903682763834871 -0.30319842576584294
0.0028213892453451675 -0.2765640044562764
-0.02636090646736881 -0.18334352987279334
0.0903682763834871 -0.18334352987279334
0.11955057209620108 -0.2632467938014931
0.14873286780891506 -0.3431500577301928
0.0903682763834871 -0.44968774296845915
-0.05554320218008279 -0.46300495362324245
-0.05554320218008279 -0.38310168969454267
0.03200368495805914 -0.2765640044562764
0.17791516352162903 -0.2099779511823599
0.17791516352162903 -0.2366123724919265
0.14873286780891506 -0.2632467938014931
0.11955057209620108 -0.2765640044562764
0.0903682763834871 -0.2232951618371432
0.14873286780891506 -0.2366123724919265
0.29464434637248493 -0.19666074052757662
0.26546205065977097 -0.2366123724919265
0.17791516352162903 -0.2765640044562764
0.17791516352162903 -0.2632467938014931
0.26546205065977097 -0.2632467938014931
0.41137352922334086 -0.18334352987279334
0.44055582493605483 -0.19666074052757662
0.32382664208519896 -0.2232951618371432
0.3530089377979129 -0.28988121511105963
0.32382664208519896 -0.2499295831467098
0.26546205065977097 -0.2232951618371432
0.26546205065977097 -0.2366123724919265
0.236279754947057 -0.28988121511105963
0.0903682763834871 -0.3431500577301928
-0.05554320218008279 -0.3697844790397594
-0.23063697645636666 -0.3697844790397594
-0.14309008931822473 -0.30319842576584294
-0.08472549789279676 -0.2499295831467098
-0.05554320218008279 -0.2632467938014931
-0.08472549789279676 -0.2632467938014931
-0.1722723850309387 -0.31651563642062625
-0.14309008931822473 -0.396418900349326
-0.1722723850309387 -0.3697844790397594
-0.02636090646736881 -0.3431500577301928
0.0903682763834871 -0.30319842576584294
0.0028213892453451675 -0.32983284707540955
-0.08472549789279676 -0.4097361110041093
-0.14309008931822473 -0.396418900349326
-0.23063697645636666 -0.396418900349326
-0.1722723850309387 -0.4097361110041093
-0.25981927216908063 -0.44968774296845915
-0.3473661593072226 -0.5295910068971589
-0.4640953421580785 -0.5562254282067255
-0.4932776378707925 -0.5695426388615088
-0.4932776378707925 -0.5562254282067255
-0.4640953421580785 -0.5562254282067255
-0.37654845501993656 -0.5695426388615088
-0.4057307507326505 -0.5961770601710753
-0.5224599335835065 -0.6094942708258586
-0.5808245250089344 -0.6094942708258586
-0.5808245250089344 -0.6094942708258586
-0.4932776378707925 -0.5695426388615088
-0.4640953421580785 -0.6094942708258586
-0.5224599335835065 -0.6627631134449918
-0.6975537078597903 -0.7027147454093416
-0.7559182992852183 -0.7027147454093416
-0.6975537078597903 -0.6494459027902085
-0.6683714121470764 -0.6494459027902085
-0.5808245250089344 -0.716031956064125
-0.6391891164343624 -0.7426663773736916
-0.8434651864233602 -0.7426663773736916
-0.8726474821360742 -0.7027147454093416
-0.8434651864233602 -0.6094942708258586
-0.6391891164343624 -0.6361286921354252
-0.6975537078597903 -0.7027147454093416
-0.6975537078597903 -0.7959352199928247
-0.7851005949979323 -0.7826180093380414
-0.8726474821360742 -0.7559835880284749
-0.8434651864233602 -0.676080324099775
-0.7559182992852183 -0.6228114814806419
-0.6391891164343624 -0.6228114814806419
-0.5224599335835065 -0.5828598495162921
-0.5516422292962204 -0.5162737962423756
-0.6100068207216484 -0.2765640044562764
-0.4057307507326505 0.003097419294172739
-0.08472549789279676 0.24280721108027198
0.26546205065977097 0.4425653709020213
0.3821912335106269 0.6689579520333373
0.3821912335106269 0.9752537970933529
0.0903682763834871 1.4679905913203346
0.0028213892453451675 2.000679017511666
-0.1722723850309387 2.440146969119515
-0.08472549789279676 2.7597600248343137
-0.3473661593072226 2.999469816620413
-0.7267360035725043 3.2924484510256455
-1.2520173264013559 3.678647560014361
-1.5438402835284957 4.2246531968604755
-1.5146579878157818 4.637486727158758
-1.164470439263214 4.797293255016157
-0.6683714121470764 4.597535095194408
0.11955057209620108 3.9449917731100266
0.9658371477649065 2.8396632887630138
1.607847653444614 1.6144799085229509
1.607847653444614 0.6822751626881206
0.7907433734886226 0.0696834725680892
-0.6391891164343624 -0.32983284707540955
-1.9815747192192055 -0.5828598495162921
-2.652767520611627 -0.809252430647608
-2.681949816324341 -0.902472905231091
-2.302579972059059 -0.942424537195441
-1.9232101277937774 -1.0223278011241406
-1.4562933963903537 -1.0622794330884906
-1.2520173264013559 -1.1421826970171902
-1.1352881435505 -1.2354031716006733
-1.047741256412358 -1.2487203822554567
-1.047741256412358 -1.2487203822554567
-0.9018297778487881 -1.2886720142198065
-0.9310120735615022 -1.3286236461841563
-1.0185589606996441 -1.368575278148506
-1.0185589606996441 -1.4218441207676393
-0.9601943692742162 -1.368575278148506
-0.8434651864233602 -1.3419408568389397
-0.6975537078597903 -1.368575278148506
-0.8434651864233602 -1.4351613314224227
-0.8726474821360742 -1.4884301740415558
-0.8434651864233602 -1.5550162273154722
-0.7851005949979323 -1.541699016660689
-0.7851005949979323 -1.5550162273154722
-0.6683714121470764 -1.6216022805893888
-0.7559182992852183 -1.6082850699346054
-0.7851005949979323 -1.5816506486250388
-0.8142828907106463 -1.5683334379702556
-0.7851005949979323 -1.541699016660689
-0.6683714121470764 -1.5550162273154722
-0.5808245250089344 -1.6082850699346054
-0.5516422292962204 -1.634919491244172
-0.6975537078597903 -1.634919491244172
-0.7851005949979323 -1.6615539125537386
-0.6683714121470764 -1.634919491244172
-0.6100068207216484 -1.6216022805893888
-0.4932776378707925 -1.6748711232085218
-0.5808245250089344 -1.728139965827655
-0.6975537078597903 -1.7015055445180884
-0.7559182992852183 -1.7148227551728719
-0.7559182992852183 -1.7015055445180884
-0.5808245250089344 -1.6881883338633052
-0.5224599335835065 -1.7414571764824383
-0.4932776378707925 -1.7814088084467883
-0.6100068207216484 -1.8479948617207047
-0.6975537078597903 -1.821360440411138
-0.5808245250089344 -1.7947260191015715
-0.4932776378707925 -1.7148227551728719
-0.4057307507326505 -1.7547743871372217
-0.4057307507326505 -1.808043229756355
-0.5516422292962204 -1.8479948617207047
-0.5808245250089344 -1.8479948617207047
-0.5516422292962204 -1.8346776510659213
-0.4057307507326505 -1.7947260191015715
-0.37654845501993656 -1.821360440411138
-0.4349130464453645 -1.8479948617207047
-0.4640953421580785 -1.8879464936850545
-0.4349130464453645 -1.901263704339838
-0.37654845501993656 -1.7814088084467883
-0.2890015678817946 -1.7947260191015715
-0.2890015678817946 -1.808043229756355
-0.1722723850309387 -1.8346776510659213
-0.23063697645636666 -1.8879464936850545
-0.2890015678817946 -1.8879464936850545
-0.2890015678817946 -1.861312072375488
-0.23063697645636666 -1.8346776510659213
-0.08472549789279676 -1.901263704339838
-0.14309008931822473 -1.9678497576137544
-0.25981927216908063 -1.9811669682685376
-0.3473661593072226 -1.9678497576137544
-0.3473661593072226 -1.9145809149946211
-0.11390779360551075 -1.821360440411138
-0.05554320218008279 -1.821360440411138
-0.02636090646736881 -1.8479948617207047
-0.11390779360551075 -1.9145809149946211
-0.11390779360551075 -1.9145809149946211
-0.02636090646736881 -1.901263704339838
0.061185980670773125 -1.821360440411138
0.0903682763834871 -1.7947260191015715
0.17791516352162903 -1.7680915977920049
0.17791516352162903 -1.821360440411138
0.17791516352162903 -1.821360440411138
0.236279754947057 -1.7947260191015715
0.29464434637248493 -1.728139965827655
0.3530089377979129 -1.6881883338633052
0.3530089377979129 -1.634919491244172
0.3530089377979129 -1.6082850699346054
0.3530089377979129 -1.5550162273154722
0.44055582493605483 -1.4617957527319891
0.5572850077869108 -1.355258067493723
0.6448318949250527 -1.355258067493723
0.5864673034996247 -1.355258067493723
0.4989204163614828 -1.3952096994580727
0.3821912335106269 -1.368575278148506
0.26546205065977097 -1.275354803565023
0.32382664208519896 -1.2354031716006733
0.26546205065977097 -1.2487203822554567
0.26546205065977097 -1.3019892248745897
0.061185980670773125 -1.3419408568389397
0.0028213892453451675 -1.368575278148506
-0.14309008931822473 -1.3019892248745897
-0.14309008931822473 -1.2620375929102399
-0.1722723850309387 -1.3419408568389397
-0.23063697645636666 -1.368575278148506
-0.4349130464453645 -1.368575278148506
-0.5808245250089344 -1.3818924888032895
-0.5808245250089344 -1.315306435529373
-0.6391891164343624 -1.3419408568389397
-0.6100068207216484 -1.355258067493723
-0.8142828907106463 -1.4218441207676393
-0.8726474821360742 -1.4351613314224227
-0.8726474821360742 -1.4751129633867726
-0.8726474821360742 -1.4218441207676393
-0.8726474821360742 -1.4085269101128561
-0.8434651864233602 -1.3952096994580727
-0.9018297778487881 -1.4617957527319891
-1.0185589606996441 -1.5017473846963392
-1.047741256412358 -1.5017473846963392
-1.164470439263214 -1.5283818060059058
-1.1352881435505 -1.5017473846963392
-1.1352881435505 -1.5017473846963392
-1.106105847837786 -1.4751129633867726
-1.193652734975928 -1.5150645953511224
-1.164470439263214 -1.5150645953511224
-1.106105847837786 -1.5017473846963392
-1.1352881435505 -1.5017473846963392
-1.076923552125072 -1.541699016660689
-1.076923552125072 -1.5683334379702556
-1.1352881435505 -1.5683334379702556
-1.222835030688642 -1.541699016660689
-1.193652734975928 -1.5283818060059058
-1.193652734975928 -1.4884301740415558
-1.076923552125072 -1.541699016660689
-1.106105847837786 -1.5683334379702556
-1.193652734975928 -1.541699016660689
-1.2520173264013559 -1.5150645953511224
-1.193652734975928 -1.5150645953511224
-1.076923552125072 -1.5150645953511224
-1.106105847837786 -1.5550162273154722
-1.106105847837786 -1.541699016660689
-1.222835030688642 -1.541699016660689
-1.193652734975928 -1.541699016660689
-1.222835030688642 -1.5150645953511224
-1.106105847837786 -1.5017473846963392
-1.193652734975928 -1.5683334379702556
-1.2520173264013559 -1.5949678592798222
-1.193652734975928 -1.5683334379702556
-1.2520173264013559 -1.541699016660689
-1.2520173264013559 -1.5017473846963392
-1.193652734975928 -1.4751129633867726
-1.106105847837786 -1.5150645953511224
-1.1352881435505 -1.5683334379702556
-1.164470439263214 -1.6216022805893888
-1.28119962211407 -1.634919491244172
-1.28119962211407 -1.5816506486250388
-1.2520173264013559 -1.4884301740415558
-1.1352881435505 -1.5017473846963392
-1.164470439263214 -1.541699016660689
-1.164470439263214 -1.6082850699346054
-1.2520173264013559 -1.5683334379702556
-1.164470439263214 -1.5550162273154722
-1.193652734975928 -1.4884301740415558
-1.1352881435505 -1.4884301740415558
-1.193652734975928 -1.4751129633867726
-1.310381917826784 -1.5283818060059058
-1.3395642135394978 -1.541699016660689
-1.222835030688642 -1.5283818060059058
-1.1352881435505 -1.541699016660689
-1.106105847837786 -1.5283818060059058
-1.164470439263214 -1.5283818060059058
-1.28119962211407 -1.5150645953511224
-1.3687465092522118 -1.5283818060059058
-1.28119962211407 -1.4884301740415558
-1.2520173264013559 -1.448478542077206
-1.106105847837786 -1.4085269101128561
-1.1352881435505 -1.4218441207676393
-1.222835030688642 -1.4617957527319891
-1.193652734975928 -1.4751129633867726
-1.193652734975928 -1.448478542077206
-1.1352881435505 -1.4351613314224227
-1.106105847837786 -1.4751129633867726
-1.164470439263214 -1.5017473846963392
-1.28119962211407 -1.5017473846963392
-1.2520173264013559 -1.4617957527319891
-1.2520173264013559 -1.4085269101128561
-1.1352881435505 -1.3818924888032895
-1.164470439263214 -1.355258067493723
-1.2520173264013559 -1.355258067493723
-1.3395642135394978 -1.4085269101128561
-1.3687465092522118 -1.3952096994580727
-1.28119962211407 -1.3952096994580727
-1.164470439263214 -1.368575278148506
-1.106105847837786 -1.448478542077206
-1.193652734975928 -1.4884301740415558
-1.2520173264013559 -1.4617957527319891
-1.3395642135394978 -1.4617957527319891
-1.28119962211407 -1.4085269101128561
-1.2520173264013559 -1.3952096994580727
-1.310381917826784 -1.4218441207676393
-1.193652734975928 -1.3952096994580727
-1.28119962211407 -1.3818924888032895
-1.3687465092522118 -1.355258067493723
-1.193652734975928 -1.315306435529373
-1.076923552125072 -1.275354803565023
-1.0185589606996441 -1.3286236461841563
-1.164470439263214 -1.3419408568389397
-1.193652734975928 -1.4218441207676393
-1.28119962211407 -1.4218441207676393
-1.28119962211407 -1.4085269101128561
-1.164470439263214 -1.3419408568389397
-1.106105847837786 -1.3419408568389397
-1.193652734975928 -1.355258067493723
-1.28119962211407 -1.448478542077206
-1.310381917826784 -1.4218441207676393
-1.310381917826784 -1.3818924888032895
-1.193652734975928 -1.275354803565023
-1.047741256412358 -1.22208596094589
-1.047741256412358 -1.2620375929102399
-1.076923552125072 -1.3019892248745897
-1.0185589606996441 -1.3019892248745897
-1.047741256412358 -1.2354031716006733
-0.9018297778487881 -1.1688171183267568
-0.8726474821360742 -1.1688171183267568
-0.9018297778487881 -1.18213432898154
-0.9601943692742162 -1.1688171183267568
-0.9018297778487881 -1.128865486362407
-0.8142828907106463 -1.088913854398057
-0.7559182992852183 -1.0622794330884906
-0.7267360035725043 -1.1155482757076236
-0.7267360035725043 -1.1554999076719736
-0.8726474821360742 -1.128865486362407
-0.8726474821360742 -1.1022310650528404
-0.9893766649869301 -1.0090105904693574
-0.9601943692742162 -1.0622794330884906
-0.9601943692742162 -1.1421826970171902
-0.9893766649869301 -1.1554999076719736
-1.106105847837786 -1.1554999076719736
-1.106105847837786 -1.0622794330884906
-1.106105847837786 -1.0090105904693574
-1.0185589606996441 -1.0090105904693574
-0.9018297778487881 -1.035645011778924
-0.8434651864233602 -1.035645011778924
-0.9018297778487881 -1.035645011778924
-0.9310120735615022 -0.9956933798145741
-0.9310120735615022 -0.9690589585050075
-0.7851005949979323 -0.9823761691597908
-0.7267360035725043 -1.1155482757076236
-0.6683714121470764 -1.2087687502911066
-0.8434651864233602 -1.2487203822554567
-1.106105847837786 -1.22208596094589
-1.193652734975928 -1.128865486362407
-1.222835030688642 -1.0755966437432738
-1.076923552125072 -1.1022310650528404
-1.222835030688642 -1.128865486362407
-1.1352881435505 -1.1155482757076236
-1.28119962211407 -1.1022310650528404
-1.193652734975928 -1.0755966437432738
-1.106105847837786 -1.035645011778924
-0.9893766649869301 -1.1022310650528404
-1.076923552125072 -1.128865486362407
-1.164470439263214 -1.1554999076719736
-1.28119962211407 -1.1421826970171902
-1.3395642135394978 -1.088913854398057
-1.222835030688642 -1.035645011778924
-1.1352881435505 -1.0489622224337072
-1.193652734975928 -1.1155482757076236
-1.310381917826784 -1.128865486362407
-1.28119962211407 -1.0755966437432738
-1.2520173264013559 -1.0090105904693574
-1.1352881435505 -0.9157901158858743
-1.076923552125072 -0.942424537195441
-0.9893766649869301 -0.9823761691597908
-1.1352881435505 -1.035645011778924
-1.164470439263214 -1.0755966437432738
-1.1352881435505 -1.0489622224337072
-1.106105847837786 -0.9956933798145741
-1.1352881435505 -0.9557417478502241
-1.193652734975928 -0.8891556945763077
-1.164470439263214 -0.8358868519571746
-1.106105847837786 -0.7959352199928247
-1.076923552125072 -0.716031956064125
-0.8726474821360742 -0.6094942708258586
-0.7559182992852183 -0.5029565855875923
-0.6975537078597903 -0.28988121511105963
-0.6100068207216484 -0.06348863397974372
-0.4349130464453645 0.2561244217350553
-0.11390779360551075 0.5491030561402876
0.061185980670773125 0.9619365864385697
-0.05554320218008279 1.388087327391635
-0.3181838635945086 1.8675069109638334
-0.6100068207216484 2.2936576519168987
-0.7559182992852183 2.6399051289412645
-0.7851005949979323 2.9728353953108466
-1.076923552125072 3.2924484510256455
-1.4854756921030678 3.6386959280500113
-1.9232101277937774 4.078163879657859
-2.2150330849209174 4.624169516503975
-2.2733976763463453 5.090271889421389
-1.8356632406556355 5.383250523826622
-1.106105847837786 5.356616102517056
-0.25981927216908063 4.7440244123970245
0.6156495992123387 3.6120615067404445
1.1992955134666183 2.2537060199525487
1.2284778091793322 1.1084259036411859
0.5281027120741968 0.3227104750089717
-0.7851005949979323 -0.10344026594409358
-2.0107570149319196 -0.396418900349326
-2.711132112037055 -0.5828598495162921
-2.7694967034624827 -0.7293491667189083
-2.536038337760771 -0.809252430647608
-2.0691216063573474 -0.7559835880284749
-1.4854756921030678 -0.7559835880284749
-1.047741256412358 -0.8225696413023913
-0.9310120735615022 -0.9291073265406576
-0.9018297778487881 -1.0223278011241406
-0.8726474821360742 -1.1155482757076236
-0.8726474821360742 -1.0755966437432738
-0.7267360035725043 -1.1022310650528404
-0.7851005949979323 -1.1022310650528404
-0.8142828907106463 -1.1554999076719736
-0.8726474821360742 -1.1554999076719736
-0.8726474821360742 -1.128865486362407
-0.7559182992852183 -1.0489622224337072
-0.6391891164343624 -1.035645011778924
-0.5224599335835065 -1.088913854398057
-0.5516422292962204 -1.22208596094589
-0.6391891164343624 -1.315306435529373
-0.6100068207216484 -1.3286236461841563
-0.6391891164343624 -1.22208596094589
-0.5808245250089344 -1.1554999076719736
-0.4640953421580785 -1.1554999076719736
-0.4932776378707925 -1.1954515396363234
-0.4349130464453645 -1.18213432898154
-0.4057307507326505 -1.1421826970171902
-0.37654845501993656 -1.1155482757076236
-0.2890015678817946 -1.1554999076719736
-0.25981927216908063 -1.22208596094589
-0.23063697645636666 -1.275354803565023
-0.4057307507326505 -1.2620375929102399
-0.4932776378707925 -1.22208596094589
-0.4640953421580785 -1.2087687502911066
-0.25981927216908063 -1.1554999076719736
-0.25981927216908063 -1.18213432898154
-0.2014546807436527 -1.18213432898154
-0.3473661593072226 -1.1954515396363234
-0.3181838635945086 -1.1688171183267568
-0.23063697645636666 -1.1554999076719736
-0.08472549789279676 -1.1554999076719736
-0.14309008931822473 -1.1688171183267568
-0.08472549789279676 -1.2487203822554567
-0.2014546807436527 -1.2886720142198065
-0.2014546807436527 -1.2354031716006733
-0.11390779360551075 -1.18213432898154
-0.05554320218008279 -1.1421826970171902
0.061185980670773125 -1.1421826970171902
0.03200368495805914 -1.1554999076719736
0.0028213892453451675 -1.2487203822554567
0.0028213892453451675 -1.2487203822554567
0.14873286780891506 -1.2354031716006733
0.17791516352162903 -1.18213432898154
0.29464434637248493 -1.1688171183267568
0.17791516352162903 -1.18213432898154
0.0903682763834871 -1.1421826970171902
0.11955057209620108 -1.1688171183267568
0.17791516352162903 -1.1022310650528404
0.29464434637248493 -1.088913854398057
0.32382664208519896 -1.128865486362407
0.3530089377979129 -1.1688171183267568
0.236279754947057 -1.18213432898154
0.11955057209620108 -1.128865486362407
0.29464434637248493 -1.0622794330884906
0.3530089377979129 -1.0622794330884906
0.44055582493605483 -1.0755966437432738
0.4989204163614828 -1.1155482757076236
0.3821912335106269 -1.1421826970171902
0.41137352922334086 -1.088913854398057
0.4989204163614828 -1.0090105904693574
0.5864673034996247 -0.9823761691597908
0.7323787820631946 -1.0090105904693574
0.7323787820631946 -1.0622794330884906
0.7615610777759086 -1.128865486362407
0.7031964863504807 -1.0755966437432738
0.6740141906377667 -0.9557417478502241
0.7907433734886226 -0.902472905231091
0.9658371477649065 -0.902472905231091
1.0242017391903344 -0.9557417478502241
1.0242017391903344 -0.9690589585050075
0.9658371477649065 -0.8625212732667411
1.0825663306157625 -0.7826180093380414
1.1701132177539044 -0.676080324099775
1.2576601048920462 -0.6494459027902085
1.2868424006047603 -0.7027147454093416
1.2868424006047603 -0.6094942708258586
1.2576601048920462 -0.5162737962423756
1.3743892877429023 -0.44968774296845915
1.4911184705937581 -0.3697844790397594
1.549483062019186 -0.38310168969454267
1.520300766306472 -0.3564672683849761
1.3452069920301881 -0.31651563642062625
1.3452069920301881 -0.2632467938014931
1.3452069920301881 -0.19666074052757662
1.3743892877429023 -0.10344026594409358
1.3743892877429023 -0.11675747659887688
1.2868424006047603 -0.13007468725366017
1.2576601048920462 -0.11675747659887688
1.1409309220411903 -0.076805844634527
1.0825663306157625 -0.03685421267017713
1.0533840349030483 -0.023537002015393844
0.9658371477649065 -0.09012305528931029
0.9074725563394785 -0.10344026594409358
0.8199256692013366 -0.11675747659887688
0.7031964863504807 -0.06348863397974372
0.6740141906377667 -0.03685421267017713
0.7031964863504807 -0.023537002015393844
0.7031964863504807 -0.10344026594409358
0.6156495992123387 -0.18334352987279334
0.46973812064876885 -0.2366123724919265
0.32382664208519896 -0.18334352987279334
0.3530089377979129 -0.13007468725366017
0.32382664208519896 -0.03685421267017713
0.41137352922334086 -0.03685421267017713
0.17791516352162903 -0.076805844634527
0.20709745923434303 -0.15670910856322676
0.17791516352162903 -0.18334352987279334
0.11955057209620108 -0.19666074052757662
0.20709745923434303 -0.11675747659887688
0.20709745923434303 -0.15670910856322676
0.17791516352162903 -0.17002631921801004
0.03200368495805914 -0.2099779511823599
-0.02636090646736881 -0.14339189790844345
0.0028213892453451675 -0.09012305528931029
0.0903682763834871 -0.010219791360610552
0.11955057209620108 -0.050171423324960426
0.17791516352162903 -0.10344026594409358
0.03200368495805914 -0.19666074052757662
0.0028213892453451675 -0.2232951618371432
0.061185980670773125 -0.17002631921801004
0.0903682763834871 -0.03685421267017713
0.11955057209620108 -0.050171423324960426
0.061185980670773125 -0.09012305528931029
0.11955057209620108 -0.17002631921801004
0.11955057209620108 -0.19666074052757662
0.17791516352162903 -0.18334352987279334
0.17791516352162903 -0.10344026594409358
0.17791516352162903 -0.10344026594409358
0.11955057209620108 -0.11675747659887688
0.0028213892453451675 -0.15670910856322676
0.061185980670773125 -0.10344026594409358
0.17791516352162903 -0.050171423324960426
0.20709745923434303 -0.06348863397974372
0.20709745923434303 -0.10344026594409358
0.11955057209620108 -0.19666074052757662
0.11955057209620108 -0.2099779511823599
0.0028213892453451675 -0.19666074052757662
0.0028213892453451675 -0.15670910856322676
0.061185980670773125 -0.076805844634527
0.20709745923434303 -0.09012305528931029
0.17791516352162903 -0.13007468725366017
0.03200368495805914 -0.15670910856322676
0.061185980670773125 -0.14339189790844345
0.061185980670773125 -0.076805844634527
0.14873286780891506 -0.09012305528931029
0.17791516352162903 -0.050171423324960426
0.14873286780891506 -0.03685421267017713
0.0903682763834871 -0.076805844634527
0.0028213892453451675 -0.10344026594409358
0.11955057209620108 -0.09012305528931029
0.14873286780891506 -0.050171423324960426
0.20709745923434303 -0.050171423324960426
0.20709745923434303 -0.023537002015393844
0.061185980670773125 -0.03685421267017713
0.03200368495805914 -0.09012305528931029
0.14873286780891506 -0.06348863397974372
0.20709745923434303 -0.03685421267017713
0.17791516352162903 -0.03685421267017713
0.0903682763834871 -0.050171423324960426
-0.05554320218008279 -0.09012305528931029
-0.05554320218008279 -0.076805844634527
0.061185980670773125 0.003097419294172739
0.17791516352162903 0.003097419294172739
0.236279754947057 0.003097419294172739
0.17791516352162903 -0.050171423324960426
0.0903682763834871 -0.10344026594409358
0.061185980670773125 -0.06348863397974372
0.061185980670773125 -0.023537002015393844
0.11955057209620108 0.04304905125852261
0.20709745923434303 0.04304905125852261
0.11955057209620108 0.056366261913305904
0.0028213892453451675 0.003097419294172739
0.03200368495805914 0.01641462994895603
-0.02636090646736881 0.04304905125852261
0.11955057209620108 0.0696834725680892
0.0903682763834871 0.0696834725680892
0.14873286780891506 0.01641462994895603
0.0028213892453451675 -0.03685421267017713
0.0028213892453451675 -0.06348863397974372
0.061185980670773125 0.003097419294172739
0.061185980670773125 0.08300068322287249
0.061185980670773125 0.08300068322287249
0.061185980670773125 -0.010219791360610552
-0.02636090646736881 -0.03685421267017713
-0.08472549789279676 -0.050171423324960426
-0.05554320218008279 0.04304905125852261
-0.02636090646736881 0.12295231518722236
0.0903682763834871 0.12295231518722236
