-0.8142828907106463 -0.31651563642062625
-0.7267360035725043 -0.2765640044562764
-0.6391891164343624 -0.28988121511105963
-0.6100068207216484 -0.32983284707540955
-0.6100068207216484 -0.3564672683849761
-0.6975537078597903 -0.3697844790397594
-0.6683714121470764 -0.3431500577301928
-0.6975537078597903 -0.30319842576584294
-0.6391891164343624 -0.32983284707540955
-0.6391891164343624 -0.31651563642062625
-0.6975537078597903 -0.3564672683849761
-0.7851005949979323 -0.3431500577301928
-0.7267360035725043 -0.30319842576584294
-0.6975537078597903 -0.2632467938014931
-0.4932776378707925 -0.28988121511105963
-0.4640953421580785 -0.28988121511105963
-0.4932776378707925 -0.28988121511105963
-0.6100068207216484 -0.2632467938014931
-0.5808245250089344 -0.19666074052757662
-0.4640953421580785 -0.18334352987279334
-0.3181838635945086 -0.18334352987279334
-0.2890015678817946 -0.2232951618371432
-0.37654845501993656 -0.2366123724919265
-0.5224599335835065 -0.2366123724919265
-0.4349130464453645 -0.2366123724919265
-0.37654845501993656 -0.2099779511823599
-0.25981927216908063 -0.18334352987279334
-0.37654845501993656 -0.14339189790844345
-0.4640953421580785 -0.17002631921801004
-0.4932776378707925 -0.19666074052757662
-0.4640953421580785 -0.17002631921801004
-0.37654845501993656 -0.2232951618371432
-0.3473661593072226 -0.2499295831467098
-0.4349130464453645 -0.2765640044562764
-0.6391891164343624 -0.32983284707540955
-0.7267360035725043 -0.30319842576584294
-0.7559182992852183 -0.2632467938014931
-0.6683714121470764 -0.18334352987279334
-0.5516422292962204 -0.2099779511823599
-0.5808245250089344 -0.2232951618371432
-0.7267360035725043 -0.2632467938014931
-0.7559182992852183 -0.2632467938014931
-0.7559182992852183 -0.2099779511823599
-0.6391891164343624 -0.15670910856322676
-0.6100068207216484 -0.18334352987279334
-0.5808245250089344 -0.2232951618371432
-0.6100068207216484 -0.2366123724919265
-0.6391891164343624 -0.2632467938014931
-0.5808245250089344 -0.2499295831467098
-0.5224599335835065 -0.2499295831467098
-0.4932776378707925 -0.30319842576584294
-0.6100068207216484 -0.31651563642062625
-0.8434651864233602 -0.3697844790397594
-0.9310120735615022 -0.32983284707540955
-0.9310120735615022 -0.30319842576584294
-0.8142828907106463 -0.2499295831467098
-0.7267360035725043 -0.28988121511105963
-0.7559182992852183 -0.30319842576584294
-0.8434651864233602 -0.3564672683849761
-0.9601943692742162 -0.3431500577301928
-0.9310120735615022 -0.3431500577301928
-0.8142828907106463 -0.2765640044562764
-0.9018297778487881 -0.2765640044562764
-0.8142828907106463 -0.30319842576584294
-0.9310120735615022 -0.3564672683849761
-1.0185589606996441 -0.38310168969454267
-0.9601943692742162 -0.38310168969454267
-0.8142828907106463 -0.3431500577301928
-0.8726474821360742 -0.32983284707540955
-0.8726474821360742 -0.3564672683849761
-0.9601943692742162 -0.38310168969454267
-1.0185589606996441 -0.3697844790397594
-0.9601943692742162 -0.31651563642062625
-0.8726474821360742 -0.2765640044562764
-0.9018297778487881 -0.2632467938014931
-0.9310120735615022 -0.30319842576584294
-1.0185589606996441 -0.3431500577301928
-1.106105847837786 -0.2765640044562764
-1.0185589606996441 -0.2632467938014931
-0.9018297778487881 -0.18334352987279334
-0.7851005949979323 -0.19666074052757662
-0.7851005949979323 -0.2099779511823599
-0.8434651864233602 -0.2499295831467098
-0.8434651864233602 -0.15670910856322676
-0.7851005949979323 -0.010219791360610552
-0.7559182992852183 0.13626952584200563
-0.5808245250089344 0.3093932643541884
-0.4349130464453645 0.4958342135211545
-0.3473661593072226 0.6290063200689874
-0.2014546807436527 0.8420816905455201
-0.05554320218008279 1.0951086929864027
-0.08472549789279676 1.481307801975118
-0.3181838635945086 1.8941413322734
-0.6683714121470764 2.2936576519168987
-1.0185589606996441 2.626587918286481
-1.164470439263214 2.999469816620413
-1.3979288049649259 3.319082872335212
-1.7772986492302076 3.6653303493595777
-2.2150330849209174 4.051529458348293
-2.623585224898913 4.544266252575275
-2.681949816324341 4.983734204183124
-2.4193091549099153 5.236761206624006
-1.9232101277937774 5.223443995969222
-1.106105847837786 4.690755569777891
-0.3473661593072226 3.6520131387047945
0.32382664208519896 2.320292073226465
0.44055582493605483 1.1750119569151023
-0.2014546807436527 0.4691997922115879
-1.193652734975928 0.08300068322287249
-2.331762267771773 -0.15670910856322676
-2.9445904777387666 -0.32983284707540955
-3.1488665477277644 -0.38310168969454267
-3.0905019563023366 -0.396418900349326
-2.9154081820260527 -0.3697844790397594
-2.652767520611627 -0.3431500577301928
-2.0691216063573474 -0.3697844790397594
-1.4562933963903537 -0.396418900349326
-1.0185589606996441 -0.43637053231367584
-0.9310120735615022 -0.5029565855875923
-0.9310120735615022 -0.5162737962423756
-0.8726474821360742 -0.5162737962423756
-0.7559182992852183 -0.5029565855875923
-0.6391891164343624 -0.489639374932809
-0.6683714121470764 -0.5295910068971589
-0.7267360035725043 -0.5429082175519422
-0.8142828907106463 -0.5828598495162921
-0.7851005949979323 -0.5828598495162921
-0.5808245250089344 -0.5828598495162921
-0.5516422292962204 -0.6094942708258586
-0.4932776378707925 -0.6094942708258586
-0.5808245250089344 -0.6361286921354252
-0.5516422292962204 -0.5828598495162921
-0.4932776378707925 -0.5695426388615088
-0.3473661593072226 -0.5295910068971589
-0.3473661593072226 -0.5828598495162921
-0.2890015678817946 -0.6228114814806419
-0.4057307507326505 -0.6228114814806419
-0.4640953421580785 -0.6361286921354252
-0.4640953421580785 -0.6094942708258586
-0.3473661593072226 -0.6094942708258586
-0.2890015678817946 -0.6094942708258586
-0.23063697645636666 -0.6361286921354252
-0.4057307507326505 -0.676080324099775
-0.4057307507326505 -0.676080324099775
-0.4057307507326505 -0.6361286921354252
-0.3473661593072226 -0.5961770601710753
-0.14309008931822473 -0.5695426388615088
-0.2014546807436527 -0.6094942708258586
-0.23063697645636666 -0.6361286921354252
-0.2890015678817946 -0.6494459027902085
-0.2890015678817946 -0.6361286921354252
-0.23063697645636666 -0.6094942708258586
-0.14309008931822473 -0.6494459027902085
-0.23063697645636666 -0.6494459027902085
-0.25981927216908063 -0.7027147454093416
-0.3473661593072226 -0.716031956064125
-0.3473661593072226 -0.676080324099775
-0.23063697645636666 -0.6494459027902085
-0.08472549789279676 -0.676080324099775
-0.14309008931822473 -0.6494459027902085
-0.2014546807436527 -0.716031956064125
-0.23063697645636666 -0.716031956064125
-0.2014546807436527 -0.7027147454093416
-0.02636090646736881 -0.6893975347545583
-0.02636090646736881 -0.6494459027902085
-0.05554320218008279 -0.6494459027902085
-0.11390779360551075 -0.7027147454093416
-0.14309008931822473 -0.6627631134449918
-0.05554320218008279 -0.6228114814806419
-0.05554320218008279 -0.6094942708258586
0.0028213892453451675 -0.6361286921354252
0.0028213892453451675 -0.6627631134449918
-0.05554320218008279 -0.676080324099775
-0.08472549789279676 -0.6361286921354252
-0.02636090646736881 -0.6361286921354252
0.03200368495805914 -0.6228114814806419
0.14873286780891506 -0.6361286921354252
0.0028213892453451675 -0.6494459027902085
-0.1722723850309387 -0.6893975347545583
-0.11390779360551075 -0.676080324099775
-0.05554320218008279 -0.6361286921354252
0.0903682763834871 -0.5828598495162921
0.20709745923434303 -0.5695426388615088
0.14873286780891506 -0.5695426388615088
0.11955057209620108 -0.6094942708258586
0.11955057209620108 -0.6361286921354252
0.236279754947057 -0.5695426388615088
0.32382664208519896 -0.5562254282067255
0.32382664208519896 -0.5429082175519422
0.3821912335106269 -0.5295910068971589
0.32382664208519896 -0.5429082175519422
0.3530089377979129 -0.489639374932809
0.3821912335106269 -0.44968774296845915
0.5281027120741968 -0.396418900349326
0.5864673034996247 -0.396418900349326
0.5572850077869108 -0.396418900349326
0.6448318949250527 -0.38310168969454267
0.5864673034996247 -0.3431500577301928
0.6156495992123387 -0.28988121511105963
0.7615610777759086 -0.19666074052757662
0.8199256692013366 -0.15670910856322676
0.8491079649140506 -0.13007468725366017
0.8491079649140506 -0.15670910856322676
0.8199256692013366 -0.10344026594409358
0.8782902606267645 -0.023537002015393844
0.9658371477649065 0.0696834725680892
1.0242017391903344 0.08300068322287249
0.9950194434776205 0.10963510453243906
0.9074725563394785 0.10963510453243906
0.8199256692013366 0.12295231518722236
0.8199256692013366 0.22949000042548867
0.9366548520521925 0.2161727897707054
0.9074725563394785 0.1895383684611388
0.8491079649140506 0.13626952584200563
0.7323787820631946 0.10963510453243906
0.5572850077869108 0.12295231518722236
0.4989204163614828 0.16290394715157222
0.44055582493605483 0.14958673649678894
0.46973812064876885 0.14958673649678894
0.46973812064876885 0.09631789387765577
0.3530089377979129 0.08300068322287249
0.17791516352162903 0.08300068322287249
0.11955057209620108 0.09631789387765577
0.03200368495805914 0.056366261913305904
0.03200368495805914 0.04304905125852261
-0.02636090646736881 0.003097419294172739
-0.1722723850309387 -0.03685421267017713
-0.3181838635945086 -0.06348863397974372
-0.25981927216908063 -0.09012305528931029
-0.23063697645636666 -0.076805844634527
-0.2014546807436527 -0.06348863397974372
-0.3181838635945086 -0.09012305528931029
-0.4057307507326505 -0.14339189790844345
-0.4640953421580785 -0.14339189790844345
-0.4640953421580785 -0.10344026594409358
-0.4057307507326505 -0.11675747659887688
-0.4057307507326505 -0.14339189790844345
-0.4349130464453645 -0.17002631921801004
-0.6391891164343624 -0.17002631921801004
-0.6391891164343624 -0.17002631921801004
-0.7559182992852183 -0.14339189790844345
-0.6100068207216484 -0.11675747659887688
-0.6100068207216484 -0.10344026594409358
-0.5224599335835065 -0.13007468725366017
-0.6683714121470764 -0.11675747659887688
-0.7267360035725043 -0.14339189790844345
-0.7267360035725043 -0.15670910856322676
-0.6683714121470764 -0.18334352987279334
-0.5808245250089344 -0.2366123724919265
-0.6100068207216484 -0.2765640044562764
-0.6683714121470764 -0.2765640044562764
-0.9018297778487881 -0.2499295831467098
-0.7851005949979323 -0.19666074052757662
-0.6100068207216484 -0.14339189790844345
-0.5224599335835065 -0.18334352987279334
-0.6100068207216484 -0.2099779511823599
-0.7267360035725043 -0.2499295831467098
-0.7559182992852183 -0.2632467938014931
-0.7559182992852183 -0.2099779511823599
-0.6391891164343624 -0.18334352987279334
-0.6100068207216484 -0.19666074052757662
-0.6975537078597903 -0.2232951618371432
-0.8142828907106463 -0.2632467938014931
-0.8142828907106463 -0.2632467938014931
-0.6683714121470764 -0.19666074052757662
-0.6100068207216484 -0.18334352987279334
-0.6683714121470764 -0.19666074052757662
-0.7851005949979323 -0.2632467938014931
-0.8142828907106463 -0.30319842576584294
-0.8726474821360742 -0.2632467938014931
-0.8726474821360742 -0.2366123724919265
-0.6683714121470764 -0.19666074052757662
-0.6975537078597903 -0.2099779511823599
-0.6683714121470764 -0.2366123724919265
-0.7267360035725043 -0.2632467938014931
-0.8142828907106463 -0.2499295831467098
-0.7559182992852183 -0.19666074052757662
-0.6683714121470764 -0.17002631921801004
-0.5808245250089344 -0.18334352987279334
-0.6391891164343624 -0.18334352987279334
-0.7267360035725043 -0.2232951618371432
-0.7267360035725043 -0.2366123724919265
-0.7559182992852183 -0.19666074052757662
-0.6391891164343624 -0.17002631921801004
-0.6975537078597903 -0.19666074052757662
-0.6100068207216484 -0.18334352987279334
-0.7851005949979323 -0.2499295831467098
-0.7559182992852183 -0.2366123724919265
-0.6683714121470764 -0.19666074052757662
-0.6391891164343624 -0.18334352987279334
-0.6100068207216484 -0.14339189790844345
-0.5808245250089344 -0.19666074052757662
-0.6975537078597903 -0.2232951618371432
-0.7267360035725043 -0.2499295831467098
-0.7267360035725043 -0.19666074052757662
-0.7267360035725043 -0.18334352987279334
-0.6683714121470764 -0.15670910856322676
-0.6683714121470764 -0.15670910856322676
-0.6975537078597903 -0.2099779511823599
-0.8726474821360742 -0.18334352987279334
-0.8726474821360742 -0.15670910856322676
-0.6975537078597903 -0.13007468725366017
-0.6975537078597903 -0.14339189790844345
-0.7851005949979323 -0.14339189790844345
-0.9018297778487881 -0.2099779511823599
-0.9018297778487881 -0.18334352987279334
-0.9018297778487881 -0.18334352987279334
-0.8726474821360742 -0.15670910856322676
-0.7267360035725043 -0.17002631921801004
-0.7267360035725043 -0.2099779511823599
-0.8142828907106463 -0.2765640044562764
-0.8434651864233602 -0.2099779511823599
-0.9018297778487881 -0.19666074052757662
-0.8434651864233602 -0.15670910856322676
-0.7559182992852183 -0.17002631921801004
-0.8142828907106463 -0.19666074052757662
-0.8726474821360742 -0.2499295831467098
-0.9310120735615022 -0.2366123724919265
-0.9601943692742162 -0.2099779511823599
-0.8142828907106463 -0.17002631921801004
-0.8142828907106463 -0.14339189790844345
-0.8726474821360742 -0.17002631921801004
-0.9018297778487881 -0.2099779511823599
-0.9601943692742162 -0.19666074052757662
-0.9018297778487881 -0.15670910856322676
-0.8726474821360742 -0.10344026594409358
-0.9018297778487881 -0.14339189790844345
-0.9018297778487881 -0.2099779511823599
-0.9310120735615022 -0.28988121511105963
-1.0185589606996441 -0.30319842576584294
-1.0185589606996441 -0.2765640044562764
-0.9310120735615022 -0.2232951618371432
-0.9310120735615022 -0.2366123724919265
-0.9601943692742162 -0.2232951618371432
-1.047741256412358 -0.2499295831467098
-1.0185589606996441 -0.2232951618371432
-0.9893766649869301 -0.17002631921801004
-0.9310120735615022 -0.13007468725366017
-0.8726474821360742 -0.15670910856322676
-0.9018297778487881 -0.19666074052757662
-1.0185589606996441 -0.2499295831467098
-1.0185589606996441 -0.2632467938014931
-0.9601943692742162 -0.2366123724919265
-0.9310120735615022 -0.18334352987279334
-0.9018297778487881 -0.15670910856322676
-0.9310120735615022 -0.19666074052757662
-0.9893766649869301 -0.2232951618371432
-1.047741256412358 -0.2232951618371432
-1.047741256412358 -0.18334352987279334
-1.0185589606996441 -0.15670910856322676
-0.9601943692742162 -0.17002631921801004
-0.8726474821360742 -0.2232951618371432
-1.047741256412358 -0.2366123724919265
-1.047741256412358 -0.2366123724919265
-0.9601943692742162 -0.17002631921801004
-0.8142828907106463 -0.11675747659887688
-0.7267360035725043 -0.11675747659887688
-0.7851005949979323 -0.13007468725366017
-0.8434651864233602 -0.11675747659887688
-0.9018297778487881 -0.13007468725366017
-0.9018297778487881 -0.06348863397974372
-0.6975537078597903 -0.023537002015393844
-0.5808245250089344 -0.023537002015393844
-0.5808245250089344 -0.03685421267017713
-0.5808245250089344 -0.06348863397974372
-0.6100068207216484 -0.076805844634527
-0.6391891164343624 -0.023537002015393844
-0.6683714121470764 -0.010219791360610552
-0.5808245250089344 -0.06348863397974372
-0.6100068207216484 -0.11675747659887688
-0.7267360035725043 -0.13007468725366017
-0.8434651864233602 -0.10344026594409358
-0.9310120735615022 -0.076805844634527
-0.9018297778487881 -0.050171423324960426
-0.8726474821360742 -0.10344026594409358
-0.9601943692742162 -0.09012305528931029
-1.106105847837786 -0.13007468725366017
-1.1352881435505 -0.10344026594409358
-1.0185589606996441 -0.03685421267017713
-0.9601943692742162 -0.023537002015393844
-0.8726474821360742 -0.023537002015393844
-0.8434651864233602 -0.03685421267017713
-0.9893766649869301 -0.10344026594409358
-0.9601943692742162 -0.09012305528931029
-0.9601943692742162 -0.09012305528931029
-0.8726474821360742 -0.03685421267017713
-0.8726474821360742 -0.10344026594409358
-0.8434651864233602 -0.19666074052757662
-0.9601943692742162 -0.2366123724919265
-1.047741256412358 -0.18334352987279334
-1.164470439263214 -0.18334352987279334
-1.164470439263214 -0.15670910856322676
-1.164470439263214 -0.17002631921801004
-1.047741256412358 -0.19666074052757662
-1.076923552125072 -0.19666074052757662
-1.106105847837786 -0.2232951618371432
-1.164470439263214 -0.19666074052757662
-1.0185589606996441 -0.15670910856322676
-1.047741256412358 -0.2232951618371432
-1.1352881435505 -0.2232951618371432
-1.222835030688642 -0.2632467938014931
-1.28119962211407 -0.2499295831467098
-1.193652734975928 -0.2099779511823599
-1.106105847837786 -0.15670910856322676
-1.106105847837786 -0.18334352987279334
-1.076923552125072 -0.19666074052757662
-1.164470439263214 -0.18334352987279334
-1.1352881435505 -0.2232951618371432
-1.193652734975928 -0.19666074052757662
-1.076923552125072 -0.17002631921801004
-1.076923552125072 -0.2232951618371432
-1.164470439263214 -0.2099779511823599
-1.193652734975928 -0.2366123724919265
-1.222835030688642 -0.2232951618371432
-1.164470439263214 -0.19666074052757662
-1.047741256412358 -0.15670910856322676
-1.0185589606996441 -0.19666074052757662
-1.0185589606996441 -0.2099779511823599
-1.076923552125072 -0.17002631921801004
-1.106105847837786 -0.06348863397974372
-1.0185589606996441 0.0696834725680892
-0.8434651864233602 0.20285557911592209
-0.6391891164343624 0.3759793176281049
-0.5516422292962204 0.5491030561402876
-0.4640953421580785 0.748861215962037
-0.37654845501993656 0.9752537970933529
-0.25981927216908063 1.388087327391635
-0.4640953421580785 1.8808241216186168
-0.7267360035725043 2.3336092838812488
-0.9310120735615022 2.7464428141795305
-1.076923552125072 3.1459591338230295
-1.3979288049649259 3.545475453466528
-1.7189340578047796 3.95830898376481
-1.9523924235064913 4.464362988646575
-2.1274861977827753 5.023685836147473
-2.0399393106446335 5.463153787755322
-1.6313871706666376 5.596325894303154
-0.9018297778487881 5.383250523826622
0.061185980670773125 4.650803937813541
0.8491079649140506 3.4256205575734784
1.2284778091793322 1.9740445962020998
0.7907433734886226 0.8687161118550867
-0.5516422292962204 0.28275884304462184
-2.0983039020700613 0.01641462994895603
-3.1196842520150505 -0.10344026594409358
-3.3531426177167623 -0.15670910856322676
-3.0613196605896227 -0.19666074052757662
-2.652767520611627 -0.2366123724919265
-2.185850789208203 -0.2366123724919265
-1.6605694663793515 -0.2765640044562764
-1.2520173264013559 -0.28988121511105963
-1.047741256412358 -0.28988121511105963
-0.8726474821360742 -0.38310168969454267
-0.9018297778487881 -0.4763221642780257
-0.9310120735615022 -0.5295910068971589
-1.0185589606996441 -0.5029565855875923
-0.9310120735615022 -0.5295910068971589
-0.8726474821360742 -0.5029565855875923
-0.7267360035725043 -0.5295910068971589
-0.7267360035725043 -0.5695426388615088
-0.7851005949979323 -0.6094942708258586
-0.7851005949979323 -0.5828598495162921
-0.7559182992852183 -0.5695426388615088
-0.6683714121470764 -0.5695426388615088
-0.6391891164343624 -0.5695426388615088
-0.6391891164343624 -0.5828598495162921
-0.6391891164343624 -0.6228114814806419
-0.6975537078597903 -0.5695426388615088
-0.4932776378707925 -0.6094942708258586
-0.4640953421580785 -0.5562254282067255
-0.4057307507326505 -0.5695426388615088
-0.4640953421580785 -0.6494459027902085
-0.5224599335835065 -0.7027147454093416
-0.5516422292962204 -0.676080324099775
-0.4640953421580785 -0.6627631134449918
-0.3181838635945086 -0.6228114814806419
-0.25981927216908063 -0.6228114814806419
-0.23063697645636666 -0.6228114814806419
-0.3181838635945086 -0.7027147454093416
-0.37654845501993656 -0.7293491667189083
-0.4349130464453645 -0.7027147454093416
-0.3473661593072226 -0.7293491667189083
-0.3473661593072226 -0.7693007986832581
-0.37654845501993656 -0.7959352199928247
-0.4349130464453645 -0.7959352199928247
-0.37654845501993656 -0.7959352199928247
-0.3181838635945086 -0.7426663773736916
-0.23063697645636666 -0.7027147454093416
-0.25981927216908063 -0.7027147454093416
-0.25981927216908063 -0.7426663773736916
-0.2890015678817946 -0.7426663773736916
-0.2890015678817946 -0.7293491667189083
-0.14309008931822473 -0.7293491667189083
-0.05554320218008279 -0.7027147454093416
-0.11390779360551075 -0.7426663773736916
-0.14309008931822473 -0.7959352199928247
-0.2014546807436527 -0.8225696413023913
-0.14309008931822473 -0.8225696413023913
-0.11390779360551075 -0.809252430647608
0.0028213892453451675 -0.7426663773736916
0.061185980670773125 -0.7293491667189083
0.0903682763834871 -0.7559835880284749
0.0028213892453451675 -0.7959352199928247
-0.02636090646736881 -0.8225696413023913
-0.02636090646736881 -0.809252430647608
0.0903682763834871 -0.7559835880284749
0.17791516352162903 -0.7426663773736916
0.0903682763834871 -0.7826180093380414
0.03200368495805914 -0.7959352199928247
0.03200368495805914 -0.7693007986832581
-0.02636090646736881 -0.7559835880284749
0.17791516352162903 -0.716031956064125
0.236279754947057 -0.7293491667189083
0.26546205065977097 -0.7559835880284749
0.20709745923434303 -0.7959352199928247
0.14873286780891506 -0.7693007986832581
0.236279754947057 -0.6893975347545583
0.3530089377979129 -0.6627631134449918
0.3821912335106269 -0.6627631134449918
0.44055582493605483 -0.676080324099775
0.4989204163614828 -0.676080324099775
0.41137352922334086 -0.676080324099775
0.44055582493605483 -0.6094942708258586
0.6156495992123387 -0.5562254282067255
0.7323787820631946 -0.5295910068971589
0.7031964863504807 -0.5295910068971589
0.7615610777759086 -0.5162737962423756
0.7615610777759086 -0.44968774296845915
0.8199256692013366 -0.3564672683849761
0.8491079649140506 -0.30319842576584294
0.9658371477649065 -0.28988121511105963
0.9950194434776205 -0.28988121511105963
0.9950194434776205 -0.28988121511105963
0.9366548520521925 -0.2099779511823599
0.9366548520521925 -0.09012305528931029
1.2284778091793322 0.003097419294172739
1.2576601048920462 0.003097419294172739
1.2284778091793322 0.01641462994895603
1.1409309220411903 -0.010219791360610552
1.0242017391903344 0.04304905125852261
0.9658371477649065 0.10963510453243906
1.0533840349030483 0.14958673649678894
1.0825663306157625 0.16290394715157222
1.0533840349030483 0.13626952584200563
0.7907433734886226 0.09631789387765577
0.7907433734886226 0.12295231518722236
0.6740141906377667 0.16290394715157222
0.7615610777759086 0.13626952584200563
0.6740141906377667 0.10963510453243906
0.5572850077869108 0.08300068322287249
0.3821912335106269 0.04304905125852261
0.26546205065977097 0.01641462994895603
0.20709745923434303 0.0696834725680892
0.236279754947057 0.0696834725680892
0.20709745923434303 0.01641462994895603
0.0903682763834871 -0.03685421267017713
-0.1722723850309387 -0.076805844634527
-0.1722723850309387 -0.06348863397974372
-0.2014546807436527 -0.09012305528931029
-0.1722723850309387 -0.050171423324960426
-0.14309008931822473 -0.06348863397974372
-0.2014546807436527 -0.09012305528931029
-0.37654845501993656 -0.15670910856322676
-0.4349130464453645 -0.14339189790844345
-0.3473661593072226 -0.11675747659887688
-0.3181838635945086 -0.13007468725366017
-0.2890015678817946 -0.15670910856322676
-0.3181838635945086 -0.15670910856322676
-0.37654845501993656 -0.2232951618371432
-0.37654845501993656 -0.19666074052757662
-0.4057307507326505 -0.13007468725366017
-0.3473661593072226 -0.14339189790844345
-0.37654845501993656 -0.15670910856322676
-0.37654845501993656 -0.18334352987279334
-0.4932776378707925 -0.2366123724919265
-0.5224599335835065 -0.2499295831467098
-0.5224599335835065 -0.2099779511823599
-0.4640953421580785 -0.18334352987279334
-0.5516422292962204 -0.19666074052757662
-0.6100068207216484 -0.19666074052757662
-0.6100068207216484 -0.2765640044562764
-0.6391891164343624 -0.28988121511105963
-0.5808245250089344 -0.2765640044562764
-0.4640953421580785 -0.2099779511823599
-0.4932776378707925 -0.2366123724919265
-0.5516422292962204 -0.2366123724919265
-0.6100068207216484 -0.2765640044562764
-0.5808245250089344 -0.28988121511105963
-0.5808245250089344 -0.2366123724919265
-0.5224599335835065 -0.2366123724919265
-0.4640953421580785 -0.2232951618371432
-0.4349130464453645 -0.2632467938014931
-0.5224599335835065 -0.28988121511105963
-0.5224599335835065 -0.30319842576584294
-0.6100068207216484 -0.2632467938014931
-0.5224599335835065 -0.2499295831467098
-0.5224599335835065 -0.2765640044562764
-0.5516422292962204 -0.3564672683849761
-0.5516422292962204 -0.32983284707540955
-0.6391891164343624 -0.30319842576584294
-0.5224599335835065 -0.2765640044562764
-0.5516422292962204 -0.2499295831467098
-0.4640953421580785 -0.2499295831467098
-0.5224599335835065 -0.28988121511105963
-0.6100068207216484 -0.30319842576584294
-0.6391891164343624 -0.30319842576584294
-0.6100068207216484 -0.2765640044562764
-0.5516422292962204 -0.2499295831467098
-0.4932776378707925 -0.2366123724919265
-0.5516422292962204 -0.2632467938014931
-0.6100068207216484 -0.28988121511105963
-0.7267360035725043 -0.30319842576584294
-0.6391891164343624 -0.2499295831467098
-0.4932776378707925 -0.2366123724919265
-0.4640953421580785 -0.2632467938014931
-0.4640953421580785 -0.2765640044562764
-0.5808245250089344 -0.32983284707540955
-0.6100068207216484 -0.32983284707540955
-0.5516422292962204 -0.2632467938014931
-0.4932776378707925 -0.2099779511823599
-0.4640953421580785 -0.2499295831467098
-0.5224599335835065 -0.28988121511105963
-0.6683714121470764 -0.32983284707540955
-0.6391891164343624 -0.31651563642062625
-0.6683714121470764 -0.28988121511105963
-0.6100068207216484 -0.2632467938014931
-0.6100068207216484 -0.2499295831467098
-0.6683714121470764 -0.32983284707540955
-0.7559182992852183 -0.32983284707540955
-0.8434651864233602 -0.38310168969454267
-0.7851005949979323 -0.28988121511105963
-0.7559182992852183 -0.2499295831467098
-0.6975537078597903 -0.30319842576584294
-0.7559182992852183 -0.31651563642062625
-0.7851005949979323 -0.3431500577301928
-0.8434651864233602 -0.3431500577301928
-0.7559182992852183 -0.31651563642062625
-0.7559182992852183 -0.28988121511105963
-0.7267360035725043 -0.31651563642062625
-0.7559182992852183 -0.3697844790397594
-0.8142828907106463 -0.4097361110041093
-0.9310120735615022 -0.38310168969454267
-0.9018297778487881 -0.31651563642062625
-0.7559182992852183 -0.2765640044562764
-0.7559182992852183 -0.3431500577301928
-0.8142828907106463 -0.4097361110041093
-0.8726474821360742 -0.4763221642780257
-0.9310120735615022 -0.43637053231367584
-0.9310120735615022 -0.3697844790397594
-0.9310120735615022 -0.3431500577301928
-0.8434651864233602 -0.32983284707540955
-0.9310120735615022 -0.31651563642062625
-0.9893766649869301 -0.3697844790397594
-0.9893766649869301 -0.396418900349326
-0.9018297778487881 -0.3697844790397594
-0.8434651864233602 -0.3431500577301928
-0.9310120735615022 -0.3697844790397594
-0.8726474821360742 -0.38310168969454267
-0.9893766649869301 -0.396418900349326
-1.047741256412358 -0.4097361110041093
-1.047741256412358 -0.3564672683849761
-0.9018297778487881 -0.32983284707540955
-0.8726474821360742 -0.3697844790397594
-0.8434651864233602 -0.396418900349326
-0.9310120735615022 -0.43637053231367584
-0.9601943692742162 -0.396418900349326
-0.9310120735615022 -0.3431500577301928
-0.8726474821360742 -0.32983284707540955
-0.8726474821360742 -0.3431500577301928
-0.8434651864233602 -0.396418900349326
-0.9310120735615022 -0.4230533216588926
-0.9310120735615022 -0.4097361110041093
-0.8726474821360742 -0.3564672683849761
-0.8726474821360742 -0.30319842576584294
-0.7851005949979323 -0.31651563642062625
-0.7559182992852183 -0.38310168969454267
-0.7851005949979323 -0.4097361110041093
-0.9018297778487881 -0.4230533216588926
-0.8142828907106463 -0.3431500577301928
-0.7267360035725043 -0.2765640044562764
-0.6975537078597903 -0.2632467938014931
-0.6683714121470764 -0.2632467938014931
-0.7559182992852183 -0.30319842576584294
-0.7559182992852183 -0.2632467938014931
-0.7267360035725043 -0.2366123724919265
-0.7267360035725043 -0.19666074052757662
-0.6683714121470764 -0.2099779511823599
-0.6100068207216484 -0.2099779511823599
-0.6100068207216484 -0.2099779511823599
-0.6683714121470764 -0.2232951618371432
-0.5516422292962204 -0.17002631921801004
-0.4057307507326505 -0.11675747659887688
-0.5224599335835065 -0.13007468725366017
-0.5224599335835065 -0.13007468725366017
-0.5808245250089344 -0.2099779511823599
-0.6975537078597903 -0.2232951618371432
-0.6100068207216484 -0.19666074052757662
-0.6100068207216484 -0.2099779511823599
-0.6391891164343624 -0.2232951618371432
-0.7851005949979323 -0.28988121511105963
-0.8434651864233602 -0.28988121511105963
-0.9018297778487881 -0.2099779511823599
-0.7851005949979323 -0.2099779511823599
-0.6975537078597903 -0.17002631921801004
-0.6975537078597903 -0.17002631921801004
-0.7559182992852183 -0.19666074052757662
-0.8726474821360742 -0.19666074052757662
-0.8434651864233602 -0.19666074052757662
-0.7851005949979323 -0.19666074052757662
-0.6391891164343624 -0.14339189790844345
-0.6100068207216484 -0.17002631921801004
-0.6683714121470764 -0.2366123724919265
-0.7267360035725043 -0.2765640044562764
-0.7851005949979323 -0.30319842576584294
-0.8434651864233602 -0.28988121511105963
-0.9018297778487881 -0.2632467938014931
-1.0185589606996441 -0.2765640044562764
-1.0185589606996441 -0.30319842576584294
-1.076923552125072 -0.3431500577301928
-1.076923552125072 -0.31651563642062625
-1.047741256412358 -0.31651563642062625
-0.9893766649869301 -0.2765640044562764
-0.9601943692742162 -0.28988121511105963
-1.0185589606996441 -0.3431500577301928
-1.164470439263214 -0.38310168969454267
-1.193652734975928 -0.38310168969454267
-1.164470439263214 -0.31651563642062625
-1.1352881435505 -0.28988121511105963
-1.222835030688642 -0.3431500577301928
-1.193652734975928 -0.32983284707540955
-1.2520173264013559 -0.3564672683849761
-1.2520173264013559 -0.3564672683849761
-1.222835030688642 -0.3431500577301928
-1.193652734975928 -0.30319842576584294
-1.1352881435505 -0.30319842576584294
-1.193652734975928 -0.28988121511105963
-1.3687465092522118 -0.2765640044562764
-1.310381917826784 -0.31651563642062625
-1.193652734975928 -0.2499295831467098
-1.106105847837786 -0.2232951618371432
-1.106105847837786 -0.2632467938014931
-1.1352881435505 -0.2499295831467098
-1.222835030688642 -0.2499295831467098
-1.222835030688642 -0.15670910856322676
-1.106105847837786 -0.03685421267017713
-0.9893766649869301 0.056366261913305904
-0.9018297778487881 0.13626952584200563
-0.7267360035725043 0.28275884304462184
-0.7267360035725043 0.42924816024723805
-0.5808245250089344 0.6290063200689874
-0.2890015678817946 0.8687161118550867
-0.1722723850309387 1.1750119569151023
-0.25981927216908063 1.5878454872133843
-0.6391891164343624 2.027313438821233
-0.9601943692742162 2.4135125478099484
-1.1352881435505 2.8263460781082306
-1.1352881435505 3.1992279764421623
-1.310381917826784 3.5721098747760944
-1.6897517620920657 3.9449917731100266
-2.0983039020700613 4.411094146027442
-2.2442153806336314 4.93046536156399
-2.185850789208203 5.356616102517056
-1.6897517620920657 5.556374262338805
-0.8434651864233602 5.343298891862272
-0.11390779360551075 4.597535095194408
0.5864673034996247 3.319082872335212
0.8491079649140506 1.9474101748925332
0.3821912335106269 0.9486193757837864
-0.6391891164343624 0.3892965282828882
-1.9232101277937774 0.09631789387765577
-2.8862258863133388 -0.11675747659887688
-3.2655957305786205 -0.2765640044562764
-3.2364134348659066 -0.3431500577301928
-2.9737727734514805 -0.3431500577301928
-2.594402929186199 -0.31651563642062625
-1.8940278320810635 -0.30319842576584294
-1.3395642135394978 -0.28988121511105963
-1.076923552125072 -0.38310168969454267
-1.047741256412358 -0.43637053231367584
-0.9310120735615022 -0.4763221642780257
-0.9018297778487881 -0.4763221642780257
-0.7267360035725043 -0.489639374932809
-0.6975537078597903 -0.5429082175519422
-0.8434651864233602 -0.5828598495162921
-0.8142828907106463 -0.6094942708258586
-0.7851005949979323 -0.5961770601710753
-0.7559182992852183 -0.5562254282067255
-0.6100068207216484 -0.5562254282067255
-0.5516422292962204 -0.5562254282067255
-0.6100068207216484 -0.6094942708258586
-0.6975537078597903 -0.6361286921354252
-0.5808245250089344 -0.6094942708258586
-0.6391891164343624 -0.5828598495162921
-0.5224599335835065 -0.5429082175519422
-0.4057307507326505 -0.5828598495162921
-0.4932776378707925 -0.5828598495162921
-0.4932776378707925 -0.6361286921354252
-0.5808245250089344 -0.6627631134449918
-0.5224599335835065 -0.6228114814806419
-0.3473661593072226 -0.5961770601710753
-0.3181838635945086 -0.6228114814806419
-0.37654845501993656 -0.6494459027902085
-0.4057307507326505 -0.676080324099775
-0.4349130464453645 -0.6494459027902085
-0.4057307507326505 -0.676080324099775
-0.4057307507326505 -0.6361286921354252
-0.23063697645636666 -0.7027147454093416
-0.2890015678817946 -0.7559835880284749
-0.3181838635945086 -0.7559835880284749
-0.3473661593072226 -0.7293491667189083
-0.3181838635945086 -0.7027147454093416
-0.23063697645636666 -0.6627631134449918
-0.23063697645636666 -0.6494459027902085
-0.25981927216908063 -0.7293491667189083
-0.25981927216908063 -0.7693007986832581
-0.3181838635945086 -0.7559835880284749
-0.25981927216908063 -0.7426663773736916
-0.2014546807436527 -0.6893975347545583
-0.08472549789279676 -0.7293491667189083
-0.2014546807436527 -0.7426663773736916
-0.25981927216908063 -0.7959352199928247
-0.25981927216908063 -0.7826180093380414
-0.2014546807436527 -0.7426663773736916
-0.11390779360551075 -0.6893975347545583
-0.14309008931822473 -0.6893975347545583
-0.14309008931822473 -0.7293491667189083
-0.14309008931822473 -0.7559835880284749
-0.2014546807436527 -0.7959352199928247
-0.11390779360551075 -0.716031956064125
0.0028213892453451675 -0.6627631134449918
0.0903682763834871 -0.676080324099775
0.03200368495805914 -0.716031956064125
0.0028213892453451675 -0.7559835880284749
0.03200368495805914 -0.7293491667189083
0.11955057209620108 -0.6494459027902085
0.20709745923434303 -0.6228114814806419
0.32382664208519896 -0.6228114814806419
0.29464434637248493 -0.6893975347545583
0.26546205065977097 -0.7027147454093416
0.26546205065977097 -0.676080324099775
0.32382664208519896 -0.6361286921354252
0.41137352922334086 -0.5695426388615088
0.4989204163614828 -0.5961770601710753
0.5572850077869108 -0.5961770601710753
0.4989204163614828 -0.6494459027902085
0.46973812064876885 -0.5828598495162921
0.5864673034996247 -0.5295910068971589
0.6740141906377667 -0.4763221642780257
0.7907433734886226 -0.44968774296845915
0.7907433734886226 -0.44968774296845915
0.7031964863504807 -0.4763221642780257
0.6740141906377667 -0.4230533216588926
0.8199256692013366 -0.3431500577301928
1.0533840349030483 -0.2632467938014931
1.1409309220411903 -0.2499295831467098
1.0825663306157625 -0.2232951618371432
1.1117486263284764 -0.2232951618371432
1.0533840349030483 -0.13007468725366017
1.0825663306157625 -0.050171423324960426
1.1992955134666183 0.04304905125852261
1.2868424006047603 0.09631789387765577
1.3160246963174742 0.09631789387765577
1.3160246963174742 0.10963510453243906
1.2868424006047603 0.16290394715157222
1.3452069920301881 0.13626952584200563
1.3743892877429023 0.22949000042548867
1.2576601048920462 0.20285557911592209
1.1409309220411903 0.20285557911592209
1.0242017391903344 0.1895383684611388
0.9366548520521925 0.1895383684611388
0.8491079649140506 0.2161727897707054
0.8782902606267645 0.20285557911592209
0.8199256692013366 0.16290394715157222
0.6448318949250527 0.10963510453243906
0.46973812064876885 0.09631789387765577
0.41137352922334086 0.08300068322287249
0.3530089377979129 0.09631789387765577
0.3530089377979129 0.056366261913305904
0.26546205065977097 0.003097419294172739
0.14873286780891506 -0.03685421267017713
0.0028213892453451675 -0.06348863397974372
-0.11390779360551075 -0.076805844634527
-0.2014546807436527 -0.076805844634527
-0.11390779360551075 -0.06348863397974372
-0.02636090646736881 -0.03685421267017713
-0.14309008931822473 -0.09012305528931029
-0.3181838635945086 -0.11675747659887688
-0.3181838635945086 -0.13007468725366017
-0.25981927216908063 -0.10344026594409358
-0.14309008931822473 -0.076805844634527
-0.14309008931822473 -0.11675747659887688
-0.14309008931822473 -0.11675747659887688
-0.3181838635945086 -0.10344026594409358
-0.37654845501993656 -0.11675747659887688
-0.37654845501993656 -0.10344026594409358
-0.2014546807436527 -0.10344026594409358
-0.23063697645636666 -0.10344026594409358
-0.3181838635945086 -0.14339189790844345
-0.3473661593072226 -0.14339189790844345
-0.3473661593072226 -0.11675747659887688
-0.4057307507326505 -0.06348863397974372
-0.37654845501993656 -0.06348863397974372
-0.3181838635945086 -0.11675747659887688
-0.37654845501993656 -0.19666074052757662
-0.4932776378707925 -0.2499295831467098
-0.4349130464453645 -0.2099779511823599
-0.4349130464453645 -0.17002631921801004
-0.4057307507326505 -0.15670910856322676
-0.3181838635945086 -0.17002631921801004
-0.3473661593072226 -0.2232951618371432
-0.4349130464453645 -0.2366123724919265
-0.5224599335835065 -0.2499295831467098
-0.4640953421580785 -0.17002631921801004
-0.4057307507326505 -0.18334352987279334
-0.2890015678817946 -0.18334352987279334
-0.3181838635945086 -0.2632467938014931
-0.4349130464453645 -0.2765640044562764
-0.4640953421580785 -0.2632467938014931
-0.3473661593072226 -0.2099779511823599
-0.4349130464453645 -0.18334352987279334
-0.25981927216908063 -0.19666074052757662
-0.3473661593072226 -0.2366123724919265
-0.5224599335835065 -0.2366123724919265
-0.5808245250089344 -0.2099779511823599
-0.4932776378707925 -0.18334352987279334
-0.3181838635945086 -0.18334352987279334
-0.4057307507326505 -0.18334352987279334
-0.4349130464453645 -0.2366123724919265
-0.5808245250089344 -0.2765640044562764
-0.5516422292962204 -0.2499295831467098
-0.5516422292962204 -0.2099779511823599
-0.4932776378707925 -0.18334352987279334
-0.4349130464453645 -0.19666074052757662
-0.4349130464453645 -0.2099779511823599
-0.4932776378707925 -0.2499295831467098
-0.5516422292962204 -0.2366123724919265
-0.4057307507326505 -0.19666074052757662
-0.37654845501993656 -0.19666074052757662
-0.3181838635945086 -0.2099779511823599
-0.37654845501993656 -0.2232951618371432
-0.5516422292962204 -0.2632467938014931
-0.5808245250089344 -0.2099779511823599
-0.5808245250089344 -0.19666074052757662
-0.4932776378707925 -0.18334352987279334
-0.4640953421580785 -0.2232951618371432
-0.4640953421580785 -0.2366123724919265
-0.6100068207216484 -0.2366123724919265
-0.6391891164343624 -0.2099779511823599
-0.6391891164343624 -0.2099779511823599
-0.5224599335835065 -0.19666074052757662
-0.5224599335835065 -0.2632467938014931
-0.5808245250089344 -0.2366123724919265
-0.6683714121470764 -0.31651563642062625
-0.6391891164343624 -0.2632467938014931
-0.6391891164343624 -0.2232951618371432
-0.5808245250089344 -0.18334352987279334
-0.5516422292962204 -0.2232951618371432
-0.5224599335835065 -0.2499295831467098
-0.6683714121470764 -0.32983284707540955
-0.7559182992852183 -0.2765640044562764
-0.6975537078597903 -0.2499295831467098
-0.6100068207216484 -0.2099779511823599
-0.5516422292962204 -0.2366123724919265
-0.6100068207216484 -0.2632467938014931
-0.7851005949979323 -0.30319842576584294
-0.7851005949979323 -0.2765640044562764
-0.7267360035725043 -0.2232951618371432
-0.6683714121470764 -0.2099779511823599
-0.6100068207216484 -0.2232951618371432
-0.6683714121470764 -0.2232951618371432
-0.6975537078597903 -0.2632467938014931
-0.6975537078597903 -0.19666074052757662
-0.6100068207216484 -0.2232951618371432
-0.5516422292962204 -0.18334352987279334
-0.6100068207216484 -0.2232951618371432
-0.6100068207216484 -0.2232951618371432
-0.6683714121470764 -0.2632467938014931
-0.7267360035725043 -0.2632467938014931
-0.5808245250089344 -0.2099779511823599
-0.5516422292962204 -0.2099779511823599
-0.5808245250089344 -0.2499295831467098
-0.5808245250089344 -0.2765640044562764
-0.6391891164343624 -0.31651563642062625
-0.6100068207216484 -0.2765640044562764
-0.6100068207216484 -0.2499295831467098
-0.4932776378707925 -0.2099779511823599
-0.4932776378707925 -0.2765640044562764
-0.5224599335835065 -0.28988121511105963
-0.6683714121470764 -0.28988121511105963
-0.6391891164343624 -0.2499295831467098
-0.5224599335835065 -0.19666074052757662
-0.4057307507326505 -0.14339189790844345
-0.4349130464453645 -0.11675747659887688
-0.37654845501993656 -0.15670910856322676
-0.4640953421580785 -0.17002631921801004
-0.4932776378707925 -0.17002631921801004
-0.5224599335835065 -0.10344026594409358
-0.37654845501993656 -0.06348863397974372
-0.37654845501993656 -0.076805844634527
-0.4349130464453645 -0.11675747659887688
-0.4057307507326505 -0.18334352987279334
-0.4057307507326505 -0.13007468725366017
-0.25981927216908063 -0.050171423324960426
-0.2890015678817946 0.003097419294172739
-0.25981927216908063 -0.023537002015393844
-0.3181838635945086 -0.050171423324960426
-0.4349130464453645 -0.09012305528931029
-0.5224599335835065 -0.13007468725366017
-0.4349130464453645 -0.09012305528931029
-0.4057307507326505 -0.06348863397974372
-0.4349130464453645 -0.11675747659887688
-0.5516422292962204 -0.13007468725366017
-0.5808245250089344 -0.13007468725366017
-0.6683714121470764 -0.14339189790844345
-0.6100068207216484 -0.11675747659887688
-0.5224599335835065 -0.076805844634527
-0.4349130464453645 -0.050171423324960426
-0.4932776378707925 -0.076805844634527
-0.6391891164343624 -0.11675747659887688
-0.5808245250089344 -0.076805844634527
-0.4349130464453645 -0.03685421267017713
-0.37654845501993656 -0.03685421267017713
-0.3473661593072226 -0.06348863397974372
-0.3473661593072226 -0.10344026594409358
-0.4057307507326505 -0.19666074052757662
-0.4057307507326505 -0.19666074052757662
-0.4349130464453645 -0.2099779511823599
-0.5224599335835065 -0.15670910856322676
-0.5516422292962204 -0.19666074052757662
-0.6975537078597903 -0.2099779511823599
-0.8434651864233602 -0.2366123724919265
-0.8726474821360742 -0.2632467938014931
-0.8142828907106463 -0.2366123724919265
-0.6683714121470764 -0.18334352987279334
-0.5808245250089344 -0.19666074052757662
-0.6975537078597903 -0.2632467938014931
-0.7559182992852183 -0.2499295831467098
-0.7559182992852183 -0.2366123724919265
-0.7267360035725043 -0.2099779511823599
-0.6975537078597903 -0.18334352987279334
-0.5808245250089344 -0.2232951618371432
-0.6683714121470764 -0.2366123724919265
-0.7267360035725043 -0.30319842576584294
-0.8726474821360742 -0.2232951618371432
-0.7559182992852183 -0.19666074052757662
-0.6683714121470764 -0.19666074052757662
-0.6391891164343624 -0.2499295831467098
-0.6683714121470764 -0.2765640044562764
-0.7267360035725043 -0.30319842576584294
-0.8142828907106463 -0.2765640044562764
-0.7559182992852183 -0.19666074052757662
-0.6975537078597903 -0.17002631921801004
-0.6100068207216484 -0.18334352987279334
-0.6975537078597903 -0.19666074052757662
-0.8142828907106463 -0.2099779511823599
-0.8142828907106463 -0.2099779511823599
-0.7851005949979323 -0.18334352987279334
-0.6683714121470764 -0.11675747659887688
-0.6975537078597903 -0.14339189790844345
-0.7851005949979323 -0.10344026594409358
-0.7559182992852183 -0.050171423324960426
-0.7267360035725043 0.01641462994895603
-0.6100068207216484 0.13626952584200563
-0.4640953421580785 0.2561244217350553
-0.2890015678817946 0.3759793176281049
-0.23063697645636666 0.522468634830721
-0.14309008931822473 0.6290063200689874
0.03200368495805914 0.8154472692359535
0.20709745923434303 1.0817914823316193
0.17791516352162903 1.3747701167368518
-0.02636090646736881 1.7476520150707837
-0.37654845501993656 2.0805822814403663
-0.6391891164343624 2.493415811738648
-0.6975537078597903 2.8796149207273634
-0.6391891164343624 3.265814029716079
-0.8142828907106463 3.6120615067404445
-1.1352881435505 3.905040141145677
-1.4271111006776398 4.264604828824826
-1.6897517620920657 4.770658833706591
-1.7481163535174935 5.303347259897922
-1.4271111006776398 5.662911947577071
-0.8142828907106463 5.782766843470121
0.0028213892453451675 5.476470998410106
0.7907433734886226 4.6641211484683245
1.4035715834556162 3.4256205575734784
1.549483062019186 2.120533913404716
1.1992955134666183 1.1350603249507525
0.11955057209620108 0.6156891094142041
-1.310381917826784 0.2161727897707054
-2.4193091549099153 -0.023537002015393844
-3.002955069164195 -0.15670910856322676
-2.8862258863133388 -0.15670910856322676
-2.652767520611627 -0.11675747659887688
-2.185850789208203 -0.13007468725366017
-1.6897517620920657 -0.18334352987279334
-1.2520173264013559 -0.2499295831467098
-0.9310120735615022 -0.2632467938014931
-0.7559182992852183 -0.2632467938014931
-0.6391891164343624 -0.2632467938014931
-0.4349130464453645 -0.2765640044562764
-0.3473661593072226 -0.3697844790397594
-0.3181838635945086 -0.4230533216588926
-0.4349130464453645 -0.46300495362324245
-0.4640953421580785 -0.4763221642780257
-0.37654845501993656 -0.44968774296845915
-0.25981927216908063 -0.396418900349326
-0.2014546807436527 -0.44968774296845915
-0.2890015678817946 -0.5295910068971589
-0.23063697645636666 -0.5295910068971589
-0.2014546807436527 -0.5162737962423756
-0.23063697645636666 -0.5029565855875923
-0.11390779360551075 -0.43637053231367584
-0.02636090646736881 -0.489639374932809
-0.05554320218008279 -0.5029565855875923
-0.23063697645636666 -0.5295910068971589
-0.14309008931822473 -0.5295910068971589
-0.05554320218008279 -0.5162737962423756
-0.02636090646736881 -0.4763221642780257
0.03200368495805914 -0.5029565855875923
0.061185980670773125 -0.5429082175519422
0.0028213892453451675 -0.5695426388615088
-0.02636090646736881 -0.6094942708258586
0.03200368495805914 -0.5162737962423756
0.0903682763834871 -0.5295910068971589
0.061185980670773125 -0.5562254282067255
0.061185980670773125 -0.6094942708258586
0.03200368495805914 -0.6228114814806419
-0.05554320218008279 -0.6094942708258586
-0.02636090646736881 -0.6094942708258586
0.03200368495805914 -0.5429082175519422
0.0903682763834871 -0.5828598495162921
0.11955057209620108 -0.5828598495162921
0.0903682763834871 -0.6361286921354252
0.0028213892453451675 -0.6494459027902085
0.14873286780891506 -0.6494459027902085
0.20709745923434303 -0.6094942708258586
0.17791516352162903 -0.6228114814806419
0.0903682763834871 -0.6494459027902085
-0.02636090646736881 -0.676080324099775
0.0028213892453451675 -0.6494459027902085
0.14873286780891506 -0.6094942708258586
0.20709745923434303 -0.6094942708258586
0.26546205065977097 -0.6361286921354252
0.20709745923434303 -0.6494459027902085
0.17791516352162903 -0.7027147454093416
0.20709745923434303 -0.6893975347545583
0.26546205065977097 -0.6627631134449918
0.3821912335106269 -0.6228114814806419
0.3530089377979129 -0.6361286921354252
0.3821912335106269 -0.6361286921354252
0.41137352922334086 -0.676080324099775
0.32382664208519896 -0.6228114814806419
0.46973812064876885 -0.6094942708258586
0.4989204163614828 -0.6094942708258586
0.46973812064876885 -0.5961770601710753
0.4989204163614828 -0.6361286921354252
0.46973812064876885 -0.6361286921354252
0.44055582493605483 -0.6228114814806419
0.4989204163614828 -0.5695426388615088
0.6448318949250527 -0.5562254282067255
0.7031964863504807 -0.5695426388615088
0.7031964863504807 -0.6228114814806419
0.5864673034996247 -0.6228114814806419
0.6156495992123387 -0.6494459027902085
0.7323787820631946 -0.5429082175519422
0.8199256692013366 -0.4763221642780257
0.8491079649140506 -0.5029565855875923
0.8782902606267645 -0.489639374932809
0.9074725563394785 -0.4763221642780257
0.9950194434776205 -0.44968774296845915
1.1117486263284764 -0.4097361110041093
1.2576601048920462 -0.32983284707540955
1.2576601048920462 -0.31651563642062625
1.1992955134666183 -0.3431500577301928
1.2576601048920462 -0.31651563642062625
1.2576601048920462 -0.2499295831467098
1.3743892877429023 -0.15670910856322676
1.4619361748810442 -0.076805844634527
1.5786653577319 -0.050171423324960426
1.5786653577319 -0.03685421267017713
1.549483062019186 0.01641462994895603
1.549483062019186 0.09631789387765577
1.7245768362954699 0.17622115780635553
1.695394540582756 0.22949000042548867
1.695394540582756 0.2561244217350553
1.607847653444614 0.24280721108027198
1.4911184705937581 0.2561244217350553
1.520300766306472 0.3227104750089717
1.520300766306472 0.3626621069733216
1.607847653444614 0.40261373893767144
1.607847653444614 0.3759793176281049
1.4619361748810442 0.336027685663755
1.2868424006047603 0.29607605369940515
1.1992955134666183 0.28275884304462184
1.1409309220411903 0.3227104750089717
1.1701132177539044 0.3227104750089717
1.0242017391903344 0.29607605369940515
0.9074725563394785 0.22949000042548867
0.7615610777759086 0.1895383684611388
0.6740141906377667 0.14958673649678894
0.6156495992123387 0.14958673649678894
0.6740141906377667 0.16290394715157222
0.6740141906377667 0.09631789387765577
0.44055582493605483 0.04304905125852261
0.26546205065977097 0.056366261913305904
0.29464434637248493 0.056366261913305904
0.32382664208519896 0.0696834725680892
0.3530089377979129 0.09631789387765577
0.32382664208519896 0.08300068322287249
0.29464434637248493 0.02973184060373932
0.14873286780891506 -0.010219791360610552
0.03200368495805914 -0.023537002015393844
0.061185980670773125 -0.010219791360610552
0.11955057209620108 0.04304905125852261
0.0903682763834871 0.02973184060373932
0.03200368495805914 -0.010219791360610552
-0.11390779360551075 -0.023537002015393844
-0.08472549789279676 0.01641462994895603
0.0028213892453451675 0.02973184060373932
0.061185980670773125 0.0696834725680892
0.11955057209620108 0.02973184060373932
0.03200368495805914 -0.023537002015393844
0.061185980670773125 -0.03685421267017713
-0.11390779360551075 -0.023537002015393844
-0.05554320218008279 0.02973184060373932
-0.02636090646736881 0.02973184060373932
0.0028213892453451675 0.003097419294172739
0.0028213892453451675 -0.06348863397974372
-0.14309008931822473 -0.10344026594409358
-0.11390779360551075 -0.050171423324960426
-0.05554320218008279 -0.03685421267017713
0.061185980670773125 -0.010219791360610552
0.0028213892453451675 -0.050171423324960426
-0.08472549789279676 -0.06348863397974372
-0.11390779360551075 -0.10344026594409358
-0.1722723850309387 -0.06348863397974372
-0.14309008931822473 -0.06348863397974372
-0.08472549789279676 -0.050171423324960426
-0.14309008931822473 -0.076805844634527
-0.11390779360551075 -0.10344026594409358
-0.25981927216908063 -0.11675747659887688
-0.23063697645636666 -0.10344026594409358
-0.25981927216908063 -0.050171423324960426
-0.14309008931822473 -0.06348863397974372
-0.11390779360551075 -0.076805844634527
-0.11390779360551075 -0.09012305528931029
-0.23063697645636666 -0.13007468725366017
-0.3181838635945086 -0.11675747659887688
-0.1722723850309387 -0.06348863397974372
-0.08472549789279676 -0.03685421267017713
-0.08472549789279676 -0.050171423324960426
-0.14309008931822473 -0.10344026594409358
-0.14309008931822473 -0.10344026594409358
-0.23063697645636666 -0.076805844634527
-0.14309008931822473 -0.06348863397974372
-0.05554320218008279 -0.050171423324960426
-0.08472549789279676 -0.06348863397974372
-0.14309008931822473 -0.13007468725366017
-0.14309008931822473 -0.10344026594409358
-0.2014546807436527 -0.076805844634527
-0.05554320218008279 -0.050171423324960426
-0.02636090646736881 -0.010219791360610552
-0.05554320218008279 -0.03685421267017713
-0.08472549789279676 -0.076805844634527
-0.23063697645636666 -0.076805844634527
-0.23063697645636666 -0.06348863397974372
-0.14309008931822473 -0.06348863397974372
-0.02636090646736881 -0.050171423324960426
-0.02636090646736881 -0.050171423324960426
-0.23063697645636666 -0.09012305528931029
-0.2890015678817946 -0.09012305528931029
-0.25981927216908063 -0.050171423324960426
-0.2014546807436527 -0.010219791360610552
-0.05554320218008279 0.003097419294172739
-0.05554320218008279 -0.03685421267017713
-0.11390779360551075 -0.023537002015393844
-0.2890015678817946 -0.050171423324960426
-0.23063697645636666 -0.03685421267017713
-0.1722723850309387 -0.050171423324960426
-0.08472549789279676 -0.06348863397974372
-0.05554320218008279 -0.10344026594409358
-0.1722723850309387 -0.11675747659887688
-0.23063697645636666 -0.15670910856322676
-0.25981927216908063 -0.11675747659887688
-0.2014546807436527 -0.06348863397974372
-0.14309008931822473 -0.023537002015393844
-0.08472549789279676 -0.023537002015393844
-0.2014546807436527 -0.06348863397974372
-0.2014546807436527 -0.13007468725366017
-0.3181838635945086 -0.076805844634527
-0.25981927216908063 -0.076805844634527
-0.2014546807436527 -0.050171423324960426
-0.2890015678817946 -0.09012305528931029
-0.2890015678817946 -0.11675747659887688
-0.37654845501993656 -0.14339189790844345
-0.37654845501993656 -0.14339189790844345
-0.25981927216908063 -0.076805844634527
-0.2014546807436527 -0.050171423324960426
-0.23063697645636666 -0.11675747659887688
-0.2890015678817946 -0.09012305528931029
-0.3473661593072226 -0.13007468725366017
-0.4057307507326505 -0.11675747659887688
-0.2890015678817946 -0.050171423324960426
-0.3181838635945086 -0.03685421267017713
-0.25981927216908063 -0.06348863397974372
-0.3181838635945086 -0.10344026594409358
-0.4057307507326505 -0.11675747659887688
-0.4057307507326505 -0.10344026594409358
-0.37654845501993656 -0.09012305528931029
-0.23063697645636666 -0.06348863397974372
-0.3473661593072226 -0.09012305528931029
-0.25981927216908063 -0.10344026594409358
-0.4057307507326505 -0.14339189790844345
-0.37654845501993656 -0.10344026594409358
-0.3181838635945086 -0.06348863397974372
-0.2890015678817946 -0.050171423324960426
-0.2890015678817946 -0.06348863397974372
-0.4057307507326505 -0.13007468725366017
-0.4640953421580785 -0.14339189790844345
-0.4057307507326505 -0.13007468725366017
-0.4640953421580785 -0.11675747659887688
-0.4349130464453645 -0.11675747659887688
-0.4057307507326505 -0.09012305528931029
-0.4349130464453645 -0.11675747659887688
-0.5224599335835065 -0.13007468725366017
-0.4640953421580785 -0.06348863397974372
-0.4057307507326505 -0.076805844634527
-0.3473661593072226 -0.03685421267017713
-0.23063697645636666 -0.09012305528931029
-0.3473661593072226 -0.11675747659887688
-0.4349130464453645 -0.09012305528931029
-0.4349130464453645 -0.050171423324960426
-0.37654845501993656 -0.023537002015393844
-0.25981927216908063 -0.03685421267017713
-0.2890015678817946 -0.050171423324960426
-0.25981927216908063 -0.11675747659887688
-0.3181838635945086 -0.15670910856322676
-0.25981927216908063 -0.11675747659887688
-0.23063697645636666 -0.076805844634527
-0.1722723850309387 -0.03685421267017713
-0.05554320218008279 -0.010219791360610552
-0.05554320218008279 -0.03685421267017713
0.0028213892453451675 -0.03685421267017713
-0.05554320218008279 -0.03685421267017713
0.061185980670773125 0.003097419294172739
0.0903682763834871 0.04304905125852261
0.061185980670773125 0.02973184060373932
-0.05554320218008279 -0.023537002015393844
-0.05554320218008279 -0.010219791360610552
-0.02636090646736881 0.04304905125852261
0.0028213892453451675 0.09631789387765577
0.20709745923434303 0.13626952584200563
0.17791516352162903 0.13626952584200563
0.20709745923434303 0.08300068322287249
0.0903682763834871 0.08300068322287249
0.0903682763834871 0.10963510453243906
0.11955057209620108 0.12295231518722236
0.0903682763834871 0.12295231518722236
0.11955057209620108 0.09631789387765577
0.11955057209620108 0.056366261913305904
0.0903682763834871 0.04304905125852261
-0.02636090646736881 0.056366261913305904
0.0028213892453451675 0.0696834725680892
-0.02636090646736881 0.0696834725680892
0.0028213892453451675 0.056366261913305904
-0.1722723850309387 0.02973184060373932
-0.2014546807436527 0.003097419294172739
-0.11390779360551075 0.0696834725680892
-0.08472549789279676 0.0696834725680892
0.03200368495805914 0.13626952584200563
-0.02636090646736881 0.12295231518722236
-0.02636090646736881 0.10963510453243906
-0.11390779360551075 0.08300068322287249
-0.08472549789279676 0.0696834725680892
0.0028213892453451675 0.10963510453243906
0.11955057209620108 0.12295231518722236
0.14873286780891506 0.09631789387765577
0.17791516352162903 0.003097419294172739
0.061185980670773125 -0.050171423324960426
0.03200368495805914 -0.050171423324960426
-0.08472549789279676 -0.023537002015393844
-0.11390779360551075 0.01641462994895603
-0.2014546807436527 -0.023537002015393844
-0.37654845501993656 -0.03685421267017713
-0.3473661593072226 -0.050171423324960426
-0.3181838635945086 -0.03685421267017713
-0.25981927216908063 0.01641462994895603
-0.14309008931822473 0.01641462994895603
-0.2014546807436527 0.01641462994895603
-0.25981927216908063 -0.023537002015393844
-0.3181838635945086 -0.023537002015393844
-0.4349130464453645 -0.06348863397974372
-0.25981927216908063 -0.06348863397974372
-0.2014546807436527 -0.03685421267017713
-0.3181838635945086 -0.050171423324960426
-0.3473661593072226 -0.076805844634527
-0.4640953421580785 -0.10344026594409358
-0.4057307507326505 -0.11675747659887688
-0.37654845501993656 -0.076805844634527
-0.25981927216908063 -0.03685421267017713
-0.25981927216908063 -0.06348863397974372
-0.3181838635945086 -0.09012305528931029
-0.4057307507326505 -0.09012305528931029
-0.4057307507326505 -0.076805844634527
-0.3473661593072226 -0.050171423324960426
-0.2890015678817946 -0.023537002015393844
-0.3181838635945086 -0.023537002015393844
-0.3473661593072226 -0.076805844634527
-0.4349130464453645 -0.06348863397974372
-0.4057307507326505 -0.023537002015393844
-0.25981927216908063 0.003097419294172739
-0.25981927216908063 0.056366261913305904
-0.2014546807436527 0.003097419294172739
-0.25981927216908063 0.04304905125852261
-0.3473661593072226 0.0696834725680892
-0.2890015678817946 0.1895383684611388
-0.08472549789279676 0.336027685663755
0.0028213892453451675 0.522468634830721
0.14873286780891506 0.6955923733429038
0.29464434637248493 0.8154472692359535
0.44055582493605483 1.0018882184029196
0.4989204163614828 1.2415980101890187
0.41137352922334086 1.6011626978681677
0.20709745923434303 2.01399622816645
-0.08472549789279676 2.4268297584647316
-0.3473661593072226 2.8263460781082306
-0.4057307507326505 3.185910765787379
-0.5516422292962204 3.532158242811745
-0.8434651864233602 3.905040141145677
-1.1352881435505 4.317873671443959
-1.4562933963903537 4.7440244123970245
-1.5438402835284957 5.196809574659656
-1.310381917826784 5.543057051684022
-0.9310120735615022 5.702863579541421
-0.14309008931822473 5.556374262338805
0.7323787820631946 4.877196518944857
1.3452069920301881 3.718599191978711
1.4619361748810442 2.346926494536032
1.2284778091793322 1.2682324314985853
0.17791516352162903 0.5890546881046376
-1.1352881435505 0.3093932643541884
-2.156668493495489 0.08300068322287249
-2.565220633473485 -0.03685421267017713
-2.536038337760771 -0.11675747659887688
-2.4193091549099153 -0.11675747659887688
-2.0983039020700613 -0.09012305528931029
-1.5146579878157818 -0.09012305528931029
-0.8434651864233602 -0.11675747659887688
-0.4349130464453645 -0.13007468725366017
-0.2890015678817946 -0.18334352987279334
-0.3473661593072226 -0.2632467938014931
-0.2890015678817946 -0.30319842576584294
-0.23063697645636666 -0.28988121511105963
0.0028213892453451675 -0.28988121511105963
0.0028213892453451675 -0.31651563642062625
-0.05554320218008279 -0.3697844790397594
-0.2014546807436527 -0.38310168969454267
-0.11390779360551075 -0.3697844790397594
-0.05554320218008279 -0.3697844790397594
0.14873286780891506 -0.32983284707540955
0.20709745923434303 -0.3697844790397594
0.17791516352162903 -0.4097361110041093
0.0903682763834871 -0.43637053231367584
0.03200368495805914 -0.4097361110041093
0.0903682763834871 -0.396418900349326
0.17791516352162903 -0.3564672683849761
0.17791516352162903 -0.396418900349326
0.17791516352162903 -0.4097361110041093
0.061185980670773125 -0.43637053231367584
0.11955057209620108 -0.44968774296845915
0.14873286780891506 -0.38310168969454267
0.32382664208519896 -0.4230533216588926
0.32382664208519896 -0.4230533216588926
0.29464434637248493 -0.4763221642780257
0.11955057209620108 -0.44968774296845915
0.14873286780891506 -0.46300495362324245
0.20709745923434303 -0.4230533216588926
0.32382664208519896 -0.4097361110041093
0.3530089377979129 -0.4230533216588926
0.32382664208519896 -0.46300495362324245
0.32382664208519896 -0.46300495362324245
0.32382664208519896 -0.5029565855875923
0.41137352922334086 -0.489639374932809
0.44055582493605483 -0.44968774296845915
0.5281027120741968 -0.4763221642780257
0.44055582493605483 -0.489639374932809
0.3530089377979129 -0.5295910068971589
0.3821912335106269 -0.5029565855875923
0.44055582493605483 -0.489639374932809
0.5864673034996247 -0.46300495362324245
0.46973812064876885 -0.489639374932809
0.41137352922334086 -0.5295910068971589
0.3530089377979129 -0.5429082175519422
0.32382664208519896 -0.5029565855875923
0.4989204163614828 -0.5295910068971589
0.4989204163614828 -0.4763221642780257
0.5864673034996247 -0.489639374932809
0.46973812064876885 -0.5162737962423756
0.44055582493605483 -0.5295910068971589
0.3821912335106269 -0.489639374932809
0.44055582493605483 -0.43637053231367584
0.6448318949250527 -0.43637053231367584
0.5864673034996247 -0.44968774296845915
0.5572850077869108 -0.44968774296845915
0.46973812064876885 -0.5162737962423756
0.5281027120741968 -0.46300495362324245
0.6448318949250527 -0.43637053231367584
0.6740141906377667 -0.43637053231367584
0.7031964863504807 -0.43637053231367584
0.6448318949250527 -0.4763221642780257
0.5864673034996247 -0.46300495362324245
0.6448318949250527 -0.4230533216588926
0.6740141906377667 -0.396418900349326
0.8199256692013366 -0.396418900349326
0.8782902606267645 -0.43637053231367584
0.8199256692013366 -0.46300495362324245
0.7615610777759086 -0.43637053231367584
0.7615610777759086 -0.43637053231367584
0.9074725563394785 -0.3564672683849761
0.9950194434776205 -0.3431500577301928
1.0242017391903344 -0.31651563642062625
1.0242017391903344 -0.3431500577301928
0.9950194434776205 -0.3431500577301928
0.9658371477649065 -0.31651563642062625
1.1409309220411903 -0.2499295831467098
1.1992955134666183 -0.19666074052757662
1.1701132177539044 -0.18334352987279334
1.1992955134666183 -0.19666074052757662
1.1992955134666183 -0.18334352987279334
1.2284778091793322 -0.15670910856322676
1.3452069920301881 -0.10344026594409358
1.4619361748810442 -0.050171423324960426
1.520300766306472 -0.010219791360610552
1.4911184705937581 0.01641462994895603
1.520300766306472 0.02973184060373932
1.520300766306472 0.09631789387765577
1.637029949157328 0.17622115780635553
1.8121237234336118 0.24280721108027198
1.8121237234336118 0.26944163238983854
1.7245768362954699 0.3093932643541884
1.695394540582756 0.3093932643541884
1.7245768362954699 0.3626621069733216
1.7245768362954699 0.4425653709020213
1.7245768362954699 0.4691997922115879
1.753759132008184 0.4691997922115879
1.607847653444614 0.41593094959245475
1.549483062019186 0.4425653709020213
1.5786653577319 0.4825170028663712
1.520300766306472 0.522468634830721
1.549483062019186 0.4958342135211545
1.4619361748810442 0.41593094959245475
1.3452069920301881 0.3892965282828882
1.1117486263284764 0.3493448963185383
0.9950194434776205 0.3493448963185383
1.0533840349030483 0.3227104750089717
1.0242017391903344 0.336027685663755
0.9074725563394785 0.29607605369940515
0.7907433734886226 0.26944163238983854
0.6740141906377667 0.24280721108027198
0.5864673034996247 0.2161727897707054
0.6448318949250527 0.22949000042548867
0.6156495992123387 0.24280721108027198
0.5572850077869108 0.2161727897707054
0.41137352922334086 0.17622115780635553
0.26546205065977097 0.12295231518722236
0.26546205065977097 0.16290394715157222
0.20709745923434303 0.14958673649678894
0.236279754947057 0.13626952584200563
0.26546205065977097 0.09631789387765577
0.11955057209620108 0.0696834725680892
0.03200368495805914 0.0696834725680892
0.0903682763834871 0.0696834725680892
0.17791516352162903 0.14958673649678894
0.236279754947057 0.13626952584200563
0.14873286780891506 0.0696834725680892
0.11955057209620108 0.04304905125852261
0.0903682763834871 0.02973184060373932
0.0903682763834871 0.056366261913305904
0.11955057209620108 0.10963510453243906
0.14873286780891506 0.13626952584200563
0.236279754947057 0.0696834725680892
0.11955057209620108 0.0696834725680892
0.061185980670773125 0.01641462994895603
0.03200368495805914 0.056366261913305904
0.0903682763834871 0.10963510453243906
0.20709745923434303 0.10963510453243906
0.14873286780891506 0.09631789387765577
0.0903682763834871 0.056366261913305904
0.03200368495805914 0.01641462994895603
0.03200368495805914 0.04304905125852261
0.061185980670773125 0.0696834725680892
-0.05554320218008279 0.04304905125852261
0.0028213892453451675 0.01641462994895603
-0.05554320218008279 0.003097419294172739
-0.14309008931822473 0.003097419294172739
-0.1722723850309387 0.01641462994895603
-0.14309008931822473 0.02973184060373932
-0.02636090646736881 0.02973184060373932
-0.05554320218008279 0.003097419294172739
-0.1722723850309387 -0.010219791360610552
-0.14309008931822473 -0.03685421267017713
-0.02636090646736881 -0.023537002015393844
0.061185980670773125 0.02973184060373932
0.14873286780891506 0.04304905125852261
0.061185980670773125 0.01641462994895603
0.0028213892453451675 0.01641462994895603
-0.02636090646736881 -0.010219791360610552
-0.02636090646736881 -0.023537002015393844
0.061185980670773125 0.003097419294172739
-0.05554320218008279 0.01641462994895603
0.061185980670773125 0.02973184060373932
-0.05554320218008279 -0.03685421267017713
-0.08472549789279676 -0.010219791360610552
-0.08472549789279676 0.02973184060373932
0.03200368495805914 0.056366261913305904
0.11955057209620108 0.08300068322287249
0.11955057209620108 0.02973184060373932
0.0903682763834871 -0.023537002015393844
0.0028213892453451675 -0.03685421267017713
0.03200368495805914 0.003097419294172739
0.0903682763834871 0.02973184060373932
0.11955057209620108 0.056366261913305904
0.11955057209620108 0.056366261913305904
0.0028213892453451675 -0.010219791360610552
0.03200368495805914 0.01641462994895603
0.03200368495805914 -0.023537002015393844
0.03200368495805914 0.04304905125852261
0.11955057209620108 0.056366261913305904
0.11955057209620108 0.02973184060373932
0.03200368495805914 0.01641462994895603
-0.02636090646736881 0.003097419294172739
-0.02636090646736881 0.02973184060373932
-0.02636090646736881 0.056366261913305904
-0.02636090646736881 0.0696834725680892
-0.08472549789279676 0.01641462994895603
-0.14309008931822473 0.003097419294172739
-0.23063697645636666 0.01641462994895603
-0.14309008931822473 0.01641462994895603
-0.05554320218008279 0.09631789387765577
0.0028213892453451675 0.08300068322287249
0.0903682763834871 0.0696834725680892
0.061185980670773125 0.02973184060373932
-0.05554320218008279 -0.010219791360610552
-0.11390779360551075 0.003097419294172739
-0.14309008931822473 0.02973184060373932
-0.02636090646736881 0.056366261913305904
0.0028213892453451675 0.02973184060373932
-0.02636090646736881 0.01641462994895603
-0.14309008931822473 0.003097419294172739
-0.14309008931822473 0.02973184060373932
-0.02636090646736881 0.08300068322287249
0.0028213892453451675 0.08300068322287249
0.03200368495805914 0.0696834725680892
-0.02636090646736881 0.04304905125852261
-0.2014546807436527 0.02973184060373932
-0.1722723850309387 0.02973184060373932
-0.11390779360551075 0.0696834725680892
-0.08472549789279676 0.0696834725680892
-0.2014546807436527 0.056366261913305904
-0.23063697645636666 -0.010219791360610552
-0.25981927216908063 0.003097419294172739
-0.3181838635945086 0.02973184060373932
-0.2014546807436527 0.056366261913305904
-0.14309008931822473 0.08300068322287249
-0.2014546807436527 0.056366261913305904
-0.23063697645636666 0.01641462994895603
-0.3473661593072226 0.003097419294172739
-0.3473661593072226 0.04304905125852261
-0.37654845501993656 0.10963510453243906
-0.25981927216908063 0.0696834725680892
-0.2014546807436527 0.02973184060373932
-0.23063697645636666 0.003097419294172739
-0.25981927216908063 -0.023537002015393844
-0.4057307507326505 0.003097419294172739
-0.3181838635945086 0.01641462994895603
-0.1722723850309387 0.01641462994895603
-0.25981927216908063 0.01641462994895603
-0.37654845501993656 -0.023537002015393844
-0.3181838635945086 -0.03685421267017713
-0.4057307507326505 0.003097419294172739
-0.25981927216908063 0.02973184060373932
-0.2890015678817946 0.056366261913305904
-0.2890015678817946 0.01641462994895603
-0.3473661593072226 -0.010219791360610552
-0.2890015678817946 -0.010219791360610552
-0.2890015678817946 0.02973184060373932
-0.2890015678817946 0.0696834725680892
-0.1722723850309387 0.04304905125852261
-0.2014546807436527 0.01641462994895603
-0.3181838635945086 -0.03685421267017713
-0.4349130464453645 -0.06348863397974372
-0.3473661593072226 -0.010219791360610552
-0.2890015678817946 0.04304905125852261
-0.25981927216908063 0.0696834725680892
-0.23063697645636666 0.08300068322287249
-0.25981927216908063 0.01641462994895603
-0.25981927216908063 0.003097419294172739
-0.2890015678817946 0.003097419294172739
-0.14309008931822473 0.08300068322287249
-0.08472549789279676 0.09631789387765577
-0.1722723850309387 0.08300068322287249
-0.1722723850309387 0.056366261913305904
-0.11390779360551075 0.0696834725680892
-0.11390779360551075 0.12295231518722236
-0.08472549789279676 0.1895383684611388
0.11955057209620108 0.1895383684611388
0.0903682763834871 0.17622115780635553
0.0903682763834871 0.13626952584200563
0.03200368495805914 0.13626952584200563
0.11955057209620108 0.16290394715157222
0.14873286780891506 0.2161727897707054
0.236279754947057 0.24280721108027198
0.17791516352162903 0.2161727897707054
0.061185980670773125 0.16290394715157222
0.0028213892453451675 0.12295231518722236
-0.05554320218008279 0.17622115780635553
-0.05554320218008279 0.14958673649678894
-0.02636090646736881 0.13626952584200563
-0.02636090646736881 0.14958673649678894
-0.23063697645636666 0.12295231518722236
-0.23063697645636666 0.10963510453243906
-0.2014546807436527 0.13626952584200563
-0.08472549789279676 0.20285557911592209
-0.08472549789279676 0.1895383684611388
-0.1722723850309387 0.17622115780635553
-0.25981927216908063 0.1895383684611388
-0.25981927216908063 0.14958673649678894
-0.23063697645636666 0.20285557911592209
-0.11390779360551075 0.22949000042548867
-0.02636090646736881 0.2161727897707054
0.0903682763834871 0.20285557911592209
0.0028213892453451675 0.13626952584200563
-0.11390779360551075 0.12295231518722236
-0.14309008931822473 0.10963510453243906
-0.11390779360551075 0.056366261913305904
-0.08472549789279676 0.08300068322287249
-0.1722723850309387 0.0696834725680892
-0.4349130464453645 0.056366261913305904
-0.4932776378707925 0.04304905125852261
-0.4057307507326505 0.056366261913305904
-0.3473661593072226 0.09631789387765577
-0.25981927216908063 0.10963510453243906
-0.2890015678817946 0.09631789387765577
-0.3473661593072226 0.04304905125852261
-0.37654845501993656 0.02973184060373932
-0.4057307507326505 0.056366261913305904
-0.4057307507326505 0.08300068322287249
-0.3181838635945086 0.0696834725680892
-0.3473661593072226 0.0696834725680892
-0.4640953421580785 0.04304905125852261
-0.4640953421580785 0.01641462994895603
-0.5224599335835065 0.0696834725680892
-0.4932776378707925 0.0696834725680892
-0.37654845501993656 0.12295231518722236
-0.37654845501993656 0.08300068322287249
-0.37654845501993656 0.02973184060373932
-0.4932776378707925 0.02973184060373932
-0.4640953421580785 0.08300068322287249
-0.4057307507326505 0.12295231518722236
-0.3473661593072226 0.10963510453243906
-0.4057307507326505 0.12295231518722236
-0.4057307507326505 0.04304905125852261
-0.4640953421580785 0.09631789387765577
-0.4932776378707925 0.14958673649678894
-0.3473661593072226 0.2161727897707054
-0.11390779360551075 0.28275884304462184
-0.1722723850309387 0.336027685663755
-0.2014546807436527 0.40261373893767144
-0.2014546807436527 0.5357858454855043
-0.05554320218008279 0.7754956372716036
0.11955057209620108 1.0152054290577028
0.3821912335106269 1.1750119569151023
0.5281027120741968 1.3348184847725018
0.44055582493605483 1.5878454872133843
0.17791516352162903 1.9474101748925332
-0.11390779360551075 2.4135125478099484
-0.3181838635945086 2.8796149207273634
-0.4640953421580785 3.2791312403708623
-0.6683714121470764 3.6386959280500113
-1.047741256412358 4.024895037038727
-1.5438402835284957 4.477680199301358
-1.7481163535174935 5.05032025745704
-1.4854756921030678 5.503105419719672
-0.9601943692742162 5.769449632815338
-0.23063697645636666 5.556374262338805
0.6448318949250527 4.837244886980507
1.3160246963174742 3.6520131387047945
1.607847653444614 2.2803404412621155
1.2284778091793322 1.3081840634629351
0.0903682763834871 0.7888128479263868
-1.4271111006776398 0.4691997922115879
-2.506856042048057 0.3093932643541884
-2.623585224898913 0.22949000042548867
-2.360944563484487 0.2161727897707054
-1.8648455363683496 0.1895383684611388
-1.193652734975928 0.14958673649678894
-0.7267360035725043 0.0696834725680892
-0.4057307507326505 0.003097419294172739
-0.37654845501993656 -0.03685421267017713
-0.4640953421580785 -0.06348863397974372
-0.3181838635945086 -0.10344026594409358
-0.1722723850309387 -0.11675747659887688
-0.05554320218008279 -0.18334352987279334
-0.2014546807436527 -0.2366123724919265
-0.25981927216908063 -0.2632467938014931
-0.25981927216908063 -0.19666074052757662
-0.11390779360551075 -0.2232951618371432
-0.02636090646736881 -0.2366123724919265
0.03200368495805914 -0.2765640044562764
0.0028213892453451675 -0.31651563642062625
-0.08472549789279676 -0.3564672683849761
0.0028213892453451675 -0.31651563642062625
0.03200368495805914 -0.28988121511105963
0.14873286780891506 -0.2765640044562764
0.14873286780891506 -0.3564672683849761
0.0903682763834871 -0.3564672683849761
0.0903682763834871 -0.3564672683849761
0.03200368495805914 -0.32983284707540955
0.0903682763834871 -0.31651563642062625
0.236279754947057 -0.32983284707540955
0.26546205065977097 -0.3431500577301928
0.26546205065977097 -0.396418900349326
0.20709745923434303 -0.4230533216588926
0.17791516352162903 -0.3697844790397594
0.26546205065977097 -0.3564672683849761
0.3821912335106269 -0.3431500577301928
0.3530089377979129 -0.43637053231367584
0.29464434637248493 -0.489639374932809
0.20709745923434303 -0.5162737962423756
0.14873286780891506 -0.5295910068971589
0.14873286780891506 -0.44968774296845915
0.29464434637248493 -0.46300495362324245
0.26546205065977097 -0.489639374932809
0.20709745923434303 -0.5162737962423756
0.17791516352162903 -0.5429082175519422
0.0903682763834871 -0.5295910068971589
0.236279754947057 -0.5029565855875923
0.32382664208519896 -0.5029565855875923
0.26546205065977097 -0.5562254282067255
0.20709745923434303 -0.6228114814806419
0.236279754947057 -0.6228114814806419
0.14873286780891506 -0.5961770601710753
0.236279754947057 -0.5695426388615088
0.41137352922334086 -0.5695426388615088
0.44055582493605483 -0.5828598495162921
0.3530089377979129 -0.6494459027902085
0.236279754947057 -0.6361286921354252
0.29464434637248493 -0.5961770601710753
0.41137352922334086 -0.5562254282067255
0.4989204163614828 -0.5695426388615088
0.5572850077869108 -0.5961770601710753
0.4989204163614828 -0.6228114814806419
0.44055582493605483 -0.6361286921354252
0.32382664208519896 -0.6094942708258586
0.5281027120741968 -0.5828598495162921
0.5864673034996247 -0.5695426388615088
0.5572850077869108 -0.5562254282067255
0.5281027120741968 -0.6494459027902085
0.46973812064876885 -0.6361286921354252
0.3821912335106269 -0.6361286921354252
0.5572850077869108 -0.5562254282067255
0.7031964863504807 -0.5429082175519422
0.7323787820631946 -0.5295910068971589
0.7907433734886226 -0.5695426388615088
0.7031964863504807 -0.5961770601710753
0.7615610777759086 -0.5961770601710753
0.8782902606267645 -0.5429082175519422
0.9366548520521925 -0.5429082175519422
0.9366548520521925 -0.5562254282067255
0.9074725563394785 -0.5828598495162921
0.9074725563394785 -0.5295910068971589
0.9074725563394785 -0.46300495362324245
0.9950194434776205 -0.43637053231367584
1.0533840349030483 -0.4097361110041093
1.1701132177539044 -0.43637053231367584
1.1409309220411903 -0.46300495362324245
1.1409309220411903 -0.43637053231367584
1.1117486263284764 -0.3697844790397594
1.2284778091793322 -0.30319842576584294
1.43275387916833 -0.2366123724919265
1.4035715834556162 -0.19666074052757662
1.3743892877429023 -0.19666074052757662
1.3743892877429023 -0.15670910856322676
1.3743892877429023 -0.11675747659887688
1.4619361748810442 0.003097419294172739
1.520300766306472 0.04304905125852261
1.549483062019186 0.04304905125852261
1.549483062019186 0.09631789387765577
1.43275387916833 0.09631789387765577
1.4619361748810442 0.17622115780635553
1.520300766306472 0.2561244217350553
1.607847653444614 0.29607605369940515
1.549483062019186 0.26944163238983854
1.43275387916833 0.2561244217350553
1.3743892877429023 0.2561244217350553
1.3743892877429023 0.26944163238983854
1.3743892877429023 0.3093932643541884
1.3160246963174742 0.26944163238983854
1.1992955134666183 0.26944163238983854
1.1409309220411903 0.2561244217350553
1.0242017391903344 0.1895383684611388
0.8491079649140506 0.24280721108027198
0.9366548520521925 0.22949000042548867
0.9366548520521925 0.20285557911592209
0.8782902606267645 0.13626952584200563
0.7615610777759086 0.09631789387765577
0.5572850077869108 0.056366261913305904
0.4989204163614828 0.13626952584200563
0.5572850077869108 0.13626952584200563
0.4989204163614828 0.14958673649678894
0.5572850077869108 0.056366261913305904
0.3530089377979129 0.01641462994895603
0.236279754947057 -0.010219791360610552
0.236279754947057 -0.010219791360610552
0.236279754947057 0.02973184060373932
0.26546205065977097 0.02973184060373932
0.20709745923434303 -0.010219791360610552
0.17791516352162903 -0.023537002015393844
0.03200368495805914 -0.09012305528931029
0.061185980670773125 -0.076805844634527
0.11955057209620108 -0.010219791360610552
0.17791516352162903 -0.023537002015393844
0.17791516352162903 -0.023537002015393844
0.0903682763834871 -0.06348863397974372
0.0028213892453451675 -0.06348863397974372
-0.02636090646736881 -0.076805844634527
0.061185980670773125 -0.03685421267017713
0.14873286780891506 -0.050171423324960426
0.0903682763834871 -0.06348863397974372
0.061185980670773125 -0.09012305528931029
0.0028213892453451675 -0.09012305528931029
0.0028213892453451675 -0.09012305528931029
0.11955057209620108 -0.06348863397974372
0.0903682763834871 -0.03685421267017713
0.0028213892453451675 -0.09012305528931029
0.061185980670773125 -0.15670910856322676
-0.05554320218008279 -0.11675747659887688
-0.14309008931822473 -0.10344026594409358
0.0028213892453451675 -0.010219791360610552
0.0903682763834871 -0.023537002015393844
0.03200368495805914 -0.06348863397974372
0.0028213892453451675 -0.11675747659887688
-0.11390779360551075 -0.13007468725366017
-0.1722723850309387 -0.10344026594409358
0.03200368495805914 -0.09012305528931029
0.0903682763834871 -0.06348863397974372
-0.02636090646736881 -0.076805844634527
-0.02636090646736881 -0.11675747659887688
-0.08472549789279676 -0.11675747659887688
-0.05554320218008279 -0.09012305528931029
-0.02636090646736881 -0.09012305528931029
0.0903682763834871 -0.076805844634527
0.0028213892453451675 -0.06348863397974372
-0.05554320218008279 -0.11675747659887688
-0.14309008931822473 -0.14339189790844345
-0.08472549789279676 -0.11675747659887688
0.0028213892453451675 -0.076805844634527
0.061185980670773125 -0.03685421267017713
0.11955057209620108 -0.03685421267017713
0.03200368495805914 -0.050171423324960426
-0.02636090646736881 -0.06348863397974372
-0.02636090646736881 -0.076805844634527
-0.02636090646736881 -0.06348863397974372
0.0903682763834871 -0.09012305528931029
0.03200368495805914 -0.11675747659887688
0.03200368495805914 -0.15670910856322676
-0.05554320218008279 -0.14339189790844345
-0.05554320218008279 -0.09012305528931029
0.03200368495805914 -0.023537002015393844
0.0903682763834871 -0.06348863397974372
0.061185980670773125 -0.09012305528931029
-0.05554320218008279 -0.14339189790844345
-0.14309008931822473 -0.19666074052757662
-0.11390779360551075 -0.11675747659887688
-0.08472549789279676 -0.10344026594409358
0.0028213892453451675 -0.06348863397974372
0.061185980670773125 -0.076805844634527
-0.05554320218008279 -0.14339189790844345
-0.14309008931822473 -0.15670910856322676
-0.1722723850309387 -0.15670910856322676
-0.14309008931822473 -0.11675747659887688
-0.02636090646736881 -0.11675747659887688
-0.02636090646736881 -0.09012305528931029
-0.1722723850309387 -0.15670910856322676
-0.3181838635945086 -0.17002631921801004
-0.23063697645636666 -0.14339189790844345
-0.14309008931822473 -0.10344026594409358
-0.08472549789279676 -0.09012305528931029
-0.2014546807436527 -0.13007468725366017
-0.23063697645636666 -0.15670910856322676
-0.2890015678817946 -0.17002631921801004
-0.2014546807436527 -0.13007468725366017
-0.2014546807436527 -0.09012305528931029
-0.05554320218008279 -0.10344026594409358
-0.2014546807436527 -0.10344026594409358
-0.23063697645636666 -0.14339189790844345
-0.25981927216908063 -0.19666074052757662
-0.23063697645636666 -0.14339189790844345
-0.2890015678817946 -0.11675747659887688
-0.1722723850309387 -0.09012305528931029
-0.23063697645636666 -0.11675747659887688
-0.2890015678817946 -0.14339189790844345
-0.4057307507326505 -0.15670910856322676
-0.3181838635945086 -0.18334352987279334
-0.2890015678817946 -0.14339189790844345
-0.14309008931822473 -0.11675747659887688
-0.23063697645636666 -0.11675747659887688
-0.25981927216908063 -0.15670910856322676
-0.37654845501993656 -0.17002631921801004
-0.3181838635945086 -0.14339189790844345
-0.23063697645636666 -0.18334352987279334
-0.2890015678817946 -0.15670910856322676
-0.23063697645636666 -0.18334352987279334
-0.2890015678817946 -0.2099779511823599
-0.3473661593072226 -0.15670910856322676
-0.3473661593072226 -0.15670910856322676
-0.2890015678817946 -0.09012305528931029
-0.1722723850309387 -0.09012305528931029
-0.14309008931822473 -0.11675747659887688
-0.23063697645636666 -0.19666074052757662
-0.37654845501993656 -0.18334352987279334
-0.3181838635945086 -0.18334352987279334
-0.23063697645636666 -0.13007468725366017
-0.2014546807436527 -0.13007468725366017
-0.2014546807436527 -0.18334352987279334
-0.3181838635945086 -0.2099779511823599
-0.37654845501993656 -0.2232951618371432
-0.37654845501993656 -0.18334352987279334
-0.3181838635945086 -0.13007468725366017
-0.25981927216908063 -0.14339189790844345
-0.23063697645636666 -0.15670910856322676
-0.2890015678817946 -0.18334352987279334
-0.37654845501993656 -0.18334352987279334
-0.37654845501993656 -0.15670910856322676
-0.3473661593072226 -0.09012305528931029
-0.3181838635945086 -0.11675747659887688
-0.1722723850309387 -0.15670910856322676
-0.2014546807436527 -0.17002631921801004
-0.25981927216908063 -0.14339189790844345
-0.25981927216908063 -0.06348863397974372
-0.14309008931822473 0.003097419294172739
0.0028213892453451675 0.003097419294172739
0.11955057209620108 -0.03685421267017713
0.0028213892453451675 -0.10344026594409358
-0.08472549789279676 -0.10344026594409358
-0.05554320218008279 -0.076805844634527
0.03200368495805914 -0.023537002015393844
0.17791516352162903 0.01641462994895603
0.11955057209620108 -0.010219791360610552
0.17791516352162903 0.003097419294172739
0.17791516352162903 0.003097419294172739
0.14873286780891506 0.04304905125852261
0.17791516352162903 0.056366261913305904
0.26546205065977097 0.02973184060373932
0.14873286780891506 -0.023537002015393844
0.061185980670773125 -0.06348863397974372
-0.14309008931822473 -0.09012305528931029
-0.1722723850309387 -0.076805844634527
-0.2014546807436527 -0.010219791360610552
-0.14309008931822473 -0.010219791360610552
-0.1722723850309387 0.01641462994895603
-0.25981927216908063 0.003097419294172739
-0.3181838635945086 0.01641462994895603
-0.25981927216908063 0.02973184060373932
-0.1722723850309387 0.08300068322287249
-0.08472549789279676 0.08300068322287249
-0.08472549789279676 0.056366261913305904
-0.08472549789279676 0.01641462994895603
-0.14309008931822473 -0.03685421267017713
-0.05554320218008279 -0.010219791360610552
0.061185980670773125 0.003097419294172739
0.061185980670773125 -0.06348863397974372
0.0028213892453451675 -0.076805844634527
-0.2014546807436527 -0.14339189790844345
-0.37654845501993656 -0.15670910856322676
-0.4932776378707925 -0.15670910856322676
-0.37654845501993656 -0.09012305528931029
-0.3181838635945086 -0.10344026594409358
-0.25981927216908063 -0.11675747659887688
-0.3473661593072226 -0.14339189790844345
-0.4640953421580785 -0.11675747659887688
-0.4640953421580785 -0.09012305528931029
-0.4057307507326505 -0.06348863397974372
-0.2890015678817946 -0.06348863397974372
-0.3473661593072226 -0.10344026594409358
-0.3473661593072226 -0.14339189790844345
-0.5224599335835065 -0.10344026594409358
-0.4932776378707925 -0.10344026594409358
-0.4932776378707925 -0.10344026594409358
-0.3473661593072226 -0.13007468725366017
-0.3473661593072226 -0.15670910856322676
-0.4932776378707925 -0.18334352987279334
-0.4640953421580785 -0.19666074052757662
-0.5224599335835065 -0.14339189790844345
-0.37654845501993656 -0.09012305528931029
-0.23063697645636666 -0.09012305528931029
-0.23063697645636666 -0.13007468725366017
-0.2890015678817946 -0.13007468725366017
-0.37654845501993656 -0.14339189790844345
-0.25981927216908063 -0.06348863397974372
-0.23063697645636666 0.003097419294172739
-0.11390779360551075 0.08300068322287249
-0.02636090646736881 0.2161727897707054
-0.08472549789279676 0.336027685663755
0.061185980670773125 0.5357858454855043
0.3530089377979129 0.8820333225098699
0.5281027120741968 1.2815496421533688
0.6740141906377667 1.7343348044160005
0.3530089377979129 2.346926494536032
0.061185980670773125 2.892932131382147
-0.1722723850309387 3.412303346918695
-0.2014546807436527 3.891722930490894
-0.4932776378707925 4.371142514063092
-0.7559182992852183 4.903830940254424
-0.7851005949979323 5.463153787755322
-0.5224599335835065 5.782766843470121
0.0028213892453451675 5.742815211505771
0.9366548520521925 5.196809574659656
1.782941427720898 4.11811551162221
2.1623112719861797 2.7464428141795305
1.8704883148590399 1.481307801975118
0.7031964863504807 0.7222267946524704
-0.9601943692742162 0.29607605369940515
-2.185850789208203 0.09631789387765577
-2.594402929186199 0.003097419294172739
-2.448491450622629 -0.023537002015393844
-2.185850789208203 -0.076805844634527
-1.8356632406556355 -0.11675747659887688
-1.3395642135394978 -0.17002631921801004
-0.7851005949979323 -0.15670910856322676
-0.4057307507326505 -0.15670910856322676
-0.23063697645636666 -0.2232951618371432
-0.23063697645636666 -0.30319842576584294
-0.11390779360551075 -0.396418900349326
-0.23063697645636666 -0.4230533216588926
-0.1722723850309387 -0.38310168969454267
-0.1722723850309387 -0.3564672683849761
-0.02636090646736881 -0.3431500577301928
0.03200368495805914 -0.44968774296845915
-0.14309008931822473 -0.4763221642780257
-0.08472549789279676 -0.5562254282067255
0.0028213892453451675 -0.4763221642780257
0.061185980670773125 -0.43637053231367584
0.20709745923434303 -0.43637053231367584
0.20709745923434303 -0.4763221642780257
0.0903682763834871 -0.489639374932809
0.0903682763834871 -0.5029565855875923
0.20709745923434303 -0.46300495362324245
0.26546205065977097 -0.46300495362324245
0.29464434637248493 -0.46300495362324245
0.3530089377979129 -0.5162737962423756
0.236279754947057 -0.5562254282067255
0.17791516352162903 -0.5562254282067255
0.14873286780891506 -0.5295910068971589
0.17791516352162903 -0.5162737962423756
0.32382664208519896 -0.5295910068971589
0.3530089377979129 -0.5429082175519422
0.236279754947057 -0.6094942708258586
0.14873286780891506 -0.6094942708258586
0.29464434637248493 -0.6094942708258586
0.32382664208519896 -0.5562254282067255
0.44055582493605483 -0.5961770601710753
0.46973812064876885 -0.5961770601710753
0.3821912335106269 -0.6361286921354252
0.29464434637248493 -0.6627631134449918
0.32382664208519896 -0.6228114814806419
0.46973812064876885 -0.5695426388615088
0.46973812064876885 -0.6228114814806419
0.5281027120741968 -0.6228114814806419
0.44055582493605483 -0.6361286921354252
0.41137352922334086 -0.6361286921354252
0.44055582493605483 -0.6228114814806419
0.4989204163614828 -0.6228114814806419
0.5864673034996247 -0.6228114814806419
0.6156495992123387 -0.6361286921354252
0.44055582493605483 -0.6494459027902085
0.44055582493605483 -0.6627631134449918
0.41137352922334086 -0.6494459027902085
0.5572850077869108 -0.5828598495162921
0.6740141906377667 -0.5695426388615088
0.6156495992123387 -0.6361286921354252
0.5572850077869108 -0.6361286921354252
0.5281027120741968 -0.676080324099775
0.5572850077869108 -0.6228114814806419
0.6740141906377667 -0.5961770601710753
0.7907433734886226 -0.6228114814806419
0.7031964863504807 -0.6494459027902085
0.6740141906377667 -0.6893975347545583
0.6156495992123387 -0.676080324099775
0.6448318949250527 -0.6361286921354252
0.7031964863504807 -0.6094942708258586
0.9074725563394785 -0.5695426388615088
0.8491079649140506 -0.6094942708258586
0.8782902606267645 -0.6361286921354252
0.7907433734886226 -0.6228114814806419
0.8491079649140506 -0.6094942708258586
0.9950194434776205 -0.5828598495162921
1.1117486263284764 -0.5429082175519422
1.1117486263284764 -0.5429082175519422
1.0825663306157625 -0.5695426388615088
1.0533840349030483 -0.5429082175519422
1.1701132177539044 -0.5162737962423756
1.1992955134666183 -0.44968774296845915
1.3452069920301881 -0.44968774296845915
1.2868424006047603 -0.4763221642780257
1.3743892877429023 -0.4230533216588926
1.3160246963174742 -0.3697844790397594
1.4035715834556162 -0.28988121511105963
1.549483062019186 -0.2499295831467098
1.637029949157328 -0.2366123724919265
1.5786653577319 -0.18334352987279334
1.637029949157328 -0.14339189790844345
1.520300766306472 -0.11675747659887688
1.607847653444614 -0.03685421267017713
1.782941427720898 0.01641462994895603
1.8996706105717538 0.0696834725680892
1.9580352019971818 0.16290394715157222
1.8413060191463257 0.20285557911592209
1.8413060191463257 0.26944163238983854
1.9288529062844677 0.3227104750089717
1.9872174977098958 0.3626621069733216
2.0455820891353236 0.3626621069733216
2.0747643848480375 0.3759793176281049
1.9288529062844677 0.3626621069733216
1.753759132008184 0.336027685663755
1.7245768362954699 0.3892965282828882
1.695394540582756 0.41593094959245475
1.7245768362954699 0.42924816024723805
1.607847653444614 0.3493448963185383
1.5786653577319 0.3227104750089717
1.4035715834556162 0.26944163238983854
1.2576601048920462 0.2561244217350553
1.2576601048920462 0.26944163238983854
1.2284778091793322 0.2161727897707054
1.1117486263284764 0.1895383684611388
0.9366548520521925 0.13626952584200563
0.8491079649140506 0.16290394715157222
0.7615610777759086 0.13626952584200563
0.7907433734886226 0.13626952584200563
0.7907433734886226 0.10963510453243906
0.7323787820631946 0.0696834725680892
0.5572850077869108 0.04304905125852261
0.46973812064876885 0.056366261913305904
0.4989204163614828 0.09631789387765577
0.44055582493605483 0.12295231518722236
0.4989204163614828 0.09631789387765577
0.46973812064876885 0.056366261913305904
0.32382664208519896 -0.023537002015393844
0.20709745923434303 -0.03685421267017713
0.20709745923434303 -0.010219791360610552
0.29464434637248493 0.02973184060373932
0.3530089377979129 0.01641462994895603
0.32382664208519896 -0.010219791360610552
0.26546205065977097 -0.050171423324960426
0.236279754947057 -0.03685421267017713
0.26546205065977097 -0.010219791360610552
0.32382664208519896 0.01641462994895603
0.3821912335106269 0.003097419294172739
0.3530089377979129 -0.010219791360610552
0.20709745923434303 -0.050171423324960426
0.17791516352162903 -0.050171423324960426
0.061185980670773125 -0.076805844634527
0.26546205065977097 -0.050171423324960426
0.17791516352162903 -0.06348863397974372
0.0903682763834871 -0.076805844634527
0.061185980670773125 -0.14339189790844345
0.0028213892453451675 -0.09012305528931029
0.03200368495805914 -0.06348863397974372
0.17791516352162903 -0.010219791360610552
0.236279754947057 -0.050171423324960426
0.236279754947057 -0.076805844634527
0.17791516352162903 -0.09012305528931029
0.11955057209620108 -0.11675747659887688
0.061185980670773125 -0.10344026594409358
0.17791516352162903 -0.076805844634527
0.17791516352162903 -0.10344026594409358
0.03200368495805914 -0.11675747659887688
0.0903682763834871 -0.17002631921801004
0.0028213892453451675 -0.15670910856322676
-0.02636090646736881 -0.11675747659887688
0.03200368495805914 -0.09012305528931029
0.14873286780891506 -0.10344026594409358
0.14873286780891506 -0.11675747659887688
0.0903682763834871 -0.18334352987279334
0.0028213892453451675 -0.18334352987279334
0.061185980670773125 -0.10344026594409358
0.0903682763834871 -0.06348863397974372
0.17791516352162903 -0.06348863397974372
0.11955057209620108 -0.06348863397974372
0.0903682763834871 -0.13007468725366017
0.0028213892453451675 -0.13007468725366017
0.0903682763834871 -0.09012305528931029
0.061185980670773125 -0.050171423324960426
0.11955057209620108 -0.050171423324960426
0.17791516352162903 -0.10344026594409358
0.11955057209620108 -0.11675747659887688
0.03200368495805914 -0.14339189790844345
0.11955057209620108 -0.09012305528931029
0.17791516352162903 -0.03685421267017713
0.20709745923434303 -0.06348863397974372
0.236279754947057 -0.09012305528931029
0.0903682763834871 -0.076805844634527
0.11955057209620108 -0.076805844634527
0.14873286780891506 -0.03685421267017713
0.11955057209620108 -0.023537002015393844
0.29464434637248493 -0.050171423324960426
0.32382664208519896 -0.09012305528931029
0.236279754947057 -0.15670910856322676
0.14873286780891506 -0.14339189790844345
0.17791516352162903 -0.09012305528931029
0.11955057209620108 -0.06348863397974372
0.26546205065977097 -0.03685421267017713
0.236279754947057 -0.06348863397974372
0.0028213892453451675 -0.11675747659887688
-0.02636090646736881 -0.13007468725366017
0.0028213892453451675 -0.10344026594409358
0.0903682763834871 -0.06348863397974372
0.17791516352162903 -0.09012305528931029
0.03200368495805914 -0.076805844634527
-0.02636090646736881 -0.09012305528931029
-0.02636090646736881 -0.076805844634527
-0.11390779360551075 -0.06348863397974372
0.0028213892453451675 -0.023537002015393844
0.0903682763834871 -0.050171423324960426
0.0903682763834871 -0.076805844634527
-0.05554320218008279 -0.09012305528931029
-0.08472549789279676 -0.10344026594409358
-0.08472549789279676 -0.10344026594409358
0.061185980670773125 -0.076805844634527
0.03200368495805914 -0.09012305528931029
0.061185980670773125 -0.06348863397974372
-0.02636090646736881 -0.10344026594409358
-0.23063697645636666 -0.076805844634527
-0.14309008931822473 -0.06348863397974372
-0.08472549789279676 -0.03685421267017713
-0.02636090646736881 -0.050171423324960426
0.061185980670773125 -0.09012305528931029
-0.11390779360551075 -0.10344026594409358
-0.2014546807436527 -0.11675747659887688
-0.14309008931822473 -0.11675747659887688
0.0028213892453451675 -0.050171423324960426
-0.02636090646736881 -0.06348863397974372
-0.08472549789279676 -0.10344026594409358
-0.14309008931822473 -0.14339189790844345
-0.2014546807436527 -0.18334352987279334
-0.3181838635945086 -0.14339189790844345
-0.2014546807436527 -0.10344026594409358
-0.14309008931822473 -0.09012305528931029
-0.1722723850309387 -0.13007468725366017
-0.1722723850309387 -0.13007468725366017
-0.1722723850309387 -0.14339189790844345
-0.2014546807436527 -0.09012305528931029
-0.02636090646736881 -0.06348863397974372
-0.02636090646736881 -0.03685421267017713
-0.08472549789279676 -0.06348863397974372
-0.08472549789279676 -0.15670910856322676
-0.2014546807436527 -0.15670910856322676
-0.23063697645636666 -0.11675747659887688
-0.2014546807436527 -0.076805844634527
-0.1722723850309387 -0.06348863397974372
-0.14309008931822473 -0.11675747659887688
-0.23063697645636666 -0.13007468725366017
-0.2014546807436527 -0.11675747659887688
-0.2014546807436527 -0.06348863397974372
-0.11390779360551075 -0.010219791360610552
-0.02636090646736881 -0.03685421267017713
-0.11390779360551075 -0.06348863397974372
-0.14309008931822473 -0.14339189790844345
-0.2890015678817946 -0.14339189790844345
-0.14309008931822473 -0.10344026594409358
-0.11390779360551075 -0.023537002015393844
0.0028213892453451675 0.003097419294172739
0.03200368495805914 0.003097419294172739
-0.02636090646736881 -0.023537002015393844
-0.02636090646736881 -0.050171423324960426
0.0028213892453451675 -0.050171423324960426
0.061185980670773125 -0.03685421267017713
0.20709745923434303 -0.010219791360610552
0.061185980670773125 -0.03685421267017713
0.03200368495805914 -0.03685421267017713
0.0903682763834871 0.056366261913305904
0.03200368495805914 0.09631789387765577
0.0903682763834871 0.09631789387765577
0.26546205065977097 0.13626952584200563
0.3530089377979129 0.10963510453243906
0.29464434637248493 0.056366261913305904
0.17791516352162903 0.04304905125852261
0.17791516352162903 0.056366261913305904
0.26546205065977097 0.0696834725680892
0.29464434637248493 0.04304905125852261
0.17791516352162903 0.003097419294172739
-0.02636090646736881 -0.03685421267017713
-0.08472549789279676 -0.023537002015393844
-0.08472549789279676 0.02973184060373932
-0.02636090646736881 0.04304905125852261
0.0028213892453451675 0.056366261913305904
0.03200368495805914 0.056366261913305904
-0.11390779360551075 0.056366261913305904
-0.1722723850309387 0.04304905125852261
-0.23063697645636666 0.056366261913305904
-0.11390779360551075 0.08300068322287249
0.03200368495805914 0.0696834725680892
-0.02636090646736881 0.0696834725680892
-0.02636090646736881 0.02973184060373932
-0.1722723850309387 0.02973184060373932
-0.05554320218008279 0.02973184060373932
-0.08472549789279676 0.01641462994895603
-0.08472549789279676 0.003097419294172739
-0.08472549789279676 -0.076805844634527
-0.23063697645636666 -0.10344026594409358
-0.4349130464453645 -0.076805844634527
-0.3473661593072226 -0.010219791360610552
-0.3181838635945086 0.003097419294172739
-0.2014546807436527 -0.023537002015393844
-0.2890015678817946 -0.06348863397974372
-0.3181838635945086 -0.10344026594409358
-0.4057307507326505 -0.13007468725366017
-0.3473661593072226 -0.10344026594409358
-0.3473661593072226 -0.076805844634527
-0.3181838635945086 -0.076805844634527
-0.3473661593072226 -0.10344026594409358
-0.4057307507326505 -0.13007468725366017
-0.4640953421580785 -0.13007468725366017
-0.4057307507326505 -0.076805844634527
-0.3473661593072226 -0.03685421267017713
-0.3473661593072226 -0.03685421267017713
-0.3181838635945086 -0.03685421267017713
-0.4057307507326505 -0.09012305528931029
-0.4349130464453645 -0.10344026594409358
-0.4057307507326505 -0.09012305528931029
-0.3473661593072226 -0.06348863397974372
-0.2890015678817946 -0.076805844634527
-0.3473661593072226 -0.03685421267017713
-0.4349130464453645 -0.06348863397974372
-0.4932776378707925 -0.023537002015393844
-0.37654845501993656 -0.03685421267017713
-0.25981927216908063 0.01641462994895603
-0.25981927216908063 -0.023537002015393844
-0.25981927216908063 -0.023537002015393844
-0.37654845501993656 -0.03685421267017713
-0.4932776378707925 0.02973184060373932
-0.4057307507326505 0.12295231518722236
-0.2890015678817946 0.22949000042548867
-0.08472549789279676 0.28275884304462184
-0.02636090646736881 0.336027685663755
-0.02636090646736881 0.4825170028663712
0.061185980670773125 0.6423235307237707
0.26546205065977097 0.8420816905455201
0.5281027120741968 1.0418398503672694
0.6448318949250527 1.2682324314985853
0.46973812064876885 1.574528276558601
0.236279754947057 1.9340929642377498
-0.08472549789279676 2.3868781265003816
-0.25981927216908063 2.7597600248343137
-0.37654845501993656 3.1592763444778127
-0.5516422292962204 3.545475453466528
-0.8142828907106463 3.8251368772169774
-1.2520173264013559 4.131432722276993
-1.6022048749539237 4.624169516503975
-1.6313871706666376 5.183492364004873
-1.3395642135394978 5.556374262338805
-0.7267360035725043 5.583008683648371
-0.14309008931822473 5.210126785314439
0.6448318949250527 4.344508092753525
1.1701132177539044 3.0926902912038963
1.3743892877429023 1.9207757535829666
0.9074725563394785 1.0551570610220526
-0.3181838635945086 0.562420266795071
-1.5438402835284957 0.22949000042548867
-2.331762267771773 0.056366261913305904
-2.536038337760771 0.003097419294172739
-2.302579972059059 0.01641462994895603
-1.8940278320810635 0.01641462994895603
-1.310381917826784 -0.06348863397974372
-0.7851005949979323 -0.10344026594409358
-0.5516422292962204 -0.18334352987279334
-0.3181838635945086 -0.17002631921801004
-0.3181838635945086 -0.2499295831467098
-0.23063697645636666 -0.2366123724919265
-0.02636090646736881 -0.30319842576584294
-0.08472549789279676 -0.31651563642062625
-0.2014546807436527 -0.3564672683849761
-0.25981927216908063 -0.3564672683849761
-0.2890015678817946 -0.3431500577301928
-0.05554320218008279 -0.2765640044562764
0.03200368495805914 -0.31651563642062625
0.11955057209620108 -0.38310168969454267
0.0028213892453451675 -0.46300495362324245
-0.02636090646736881 -0.43637053231367584
0.0903682763834871 -0.4230533216588926
0.236279754947057 -0.38310168969454267
0.29464434637248493 -0.4097361110041093
0.236279754947057 -0.38310168969454267
0.061185980670773125 -0.38310168969454267
0.061185980670773125 -0.396418900349326
0.14873286780891506 -0.3431500577301928
0.26546205065977097 -0.31651563642062625
0.3530089377979129 -0.38310168969454267
0.32382664208519896 -0.489639374932809
0.236279754947057 -0.5562254282067255
0.17791516352162903 -0.5429082175519422
0.17791516352162903 -0.4763221642780257
0.29464434637248493 -0.43637053231367584
0.32382664208519896 -0.43637053231367584
0.3530089377979129 -0.4763221642780257
0.26546205065977097 -0.489639374932809
0.26546205065977097 -0.44968774296845915
0.32382664208519896 -0.4763221642780257
0.41137352922334086 -0.46300495362324245
0.4989204163614828 -0.46300495362324245
0.5281027120741968 -0.5429082175519422
0.4989204163614828 -0.6228114814806419
0.3821912335106269 -0.5828598495162921
0.3821912335106269 -0.5429082175519422
0.46973812064876885 -0.5162737962423756
0.4989204163614828 -0.5562254282067255
0.46973812064876885 -0.5562254282067255
0.46973812064876885 -0.5961770601710753
0.3821912335106269 -0.5828598495162921
0.46973812064876885 -0.5295910068971589
0.5281027120741968 -0.5162737962423756
0.5281027120741968 -0.5295910068971589
0.5281027120741968 -0.5562254282067255
0.4989204163614828 -0.5961770601710753
0.44055582493605483 -0.5961770601710753
0.46973812064876885 -0.5695426388615088
0.5864673034996247 -0.5562254282067255
0.6740141906377667 -0.5828598495162921
0.7031964863504807 -0.6228114814806419
0.6156495992123387 -0.6361286921354252
0.6156495992123387 -0.5961770601710753
0.6740141906377667 -0.5162737962423756
0.7615610777759086 -0.46300495362324245
0.8199256692013366 -0.489639374932809
0.8199256692013366 -0.5162737962423756
0.8199256692013366 -0.5695426388615088
0.8199256692013366 -0.5695426388615088
0.8199256692013366 -0.5162737962423756
0.9658371477649065 -0.46300495362324245
1.0533840349030483 -0.4763221642780257
0.9658371477649065 -0.5029565855875923
0.9366548520521925 -0.5695426388615088
0.9366548520521925 -0.5562254282067255
0.9366548520521925 -0.4763221642780257
1.0825663306157625 -0.44968774296845915
1.1992955134666183 -0.43637053231367584
1.1992955134666183 -0.46300495362324245
1.1409309220411903 -0.5029565855875923
1.1409309220411903 -0.5162737962423756
1.1117486263284764 -0.44968774296845915
1.1992955134666183 -0.4230533216588926
1.2576601048920462 -0.38310168969454267
1.2868424006047603 -0.3697844790397594
1.1992955134666183 -0.28988121511105963
1.2868424006047603 -0.2632467938014931
1.3452069920301881 -0.2232951618371432
1.520300766306472 -0.17002631921801004
1.637029949157328 -0.18334352987279334
1.5786653577319 -0.18334352987279334
1.4911184705937581 -0.18334352987279334
1.4911184705937581 -0.09012305528931029
1.520300766306472 0.02973184060373932
1.637029949157328 0.13626952584200563
1.666212244870042 0.14958673649678894
1.607847653444614 0.17622115780635553
1.637029949157328 0.1895383684611388
1.607847653444614 0.2161727897707054
1.549483062019186 0.3093932643541884
1.695394540582756 0.3093932643541884
1.549483062019186 0.29607605369940515
1.4911184705937581 0.24280721108027198
1.4035715834556162 0.20285557911592209
1.3452069920301881 0.20285557911592209
1.2868424006047603 0.2561244217350553
1.2576601048920462 0.26944163238983854
1.2576601048920462 0.2561244217350553
1.1117486263284764 0.20285557911592209
0.9950194434776205 0.14958673649678894
0.8491079649140506 0.10963510453243906
0.8782902606267645 0.10963510453243906
0.8199256692013366 0.12295231518722236
0.6740141906377667 0.08300068322287249
0.6448318949250527 0.056366261913305904
0.5864673034996247 -0.010219791360610552
0.5281027120741968 0.02973184060373932
0.4989204163614828 0.04304905125852261
0.5572850077869108 0.056366261913305904
0.6156495992123387 0.04304905125852261
0.5572850077869108 0.01641462994895603
0.44055582493605483 -0.010219791360610552
0.29464434637248493 -0.03685421267017713
0.3821912335106269 -0.06348863397974372
0.41137352922334086 -0.023537002015393844
0.44055582493605483 -0.010219791360610552
0.3821912335106269 -0.03685421267017713
0.32382664208519896 -0.13007468725366017
0.26546205065977097 -0.13007468725366017
0.236279754947057 -0.13007468725366017
0.236279754947057 -0.09012305528931029
0.32382664208519896 -0.09012305528931029
0.26546205065977097 -0.10344026594409358
0.17791516352162903 -0.10344026594409358
0.17791516352162903 -0.10344026594409358
0.17791516352162903 -0.09012305528931029
0.14873286780891506 -0.050171423324960426
0.26546205065977097 -0.10344026594409358
0.20709745923434303 -0.14339189790844345
0.0903682763834871 -0.15670910856322676
0.03200368495805914 -0.14339189790844345
0.061185980670773125 -0.10344026594409358
0.17791516352162903 -0.06348863397974372
0.236279754947057 -0.076805844634527
0.20709745923434303 -0.13007468725366017
0.11955057209620108 -0.15670910856322676
0.0903682763834871 -0.17002631921801004
0.11955057209620108 -0.13007468725366017
0.17791516352162903 -0.14339189790844345
0.26546205065977097 -0.15670910856322676
0.236279754947057 -0.17002631921801004
0.14873286780891506 -0.2232951618371432
0.061185980670773125 -0.2232951618371432
0.03200368495805914 -0.18334352987279334
0.26546205065977097 -0.15670910856322676
0.32382664208519896 -0.17002631921801004
0.26546205065977097 -0.19666074052757662
0.17791516352162903 -0.2099779511823599
0.11955057209620108 -0.2099779511823599
0.20709745923434303 -0.17002631921801004
0.26546205065977097 -0.14339189790844345
0.29464434637248493 -0.14339189790844345
0.26546205065977097 -0.18334352987279334
0.17791516352162903 -0.19666074052757662
0.14873286780891506 -0.14339189790844345
0.17791516352162903 -0.13007468725366017
0.236279754947057 -0.10344026594409358
0.236279754947057 -0.14339189790844345
0.17791516352162903 -0.2366123724919265
0.0903682763834871 -0.2632467938014931
0.03200368495805914 -0.18334352987279334
0.061185980670773125 -0.076805844634527
0.17791516352162903 -0.03685421267017713
0.11955057209620108 -0.10344026594409358
0.236279754947057 -0.2099779511823599
0.14873286780891506 -0.28988121511105963
0.0028213892453451675 -0.32983284707540955
-0.08472549789279676 -0.2765640044562764
0.0028213892453451675 -0.19666074052757662
0.11955057209620108 -0.18334352987279334
0.14873286780891506 -0.19666074052757662
0.0903682763834871 -0.19666074052757662
-0.02636090646736881 -0.19666074052757662
0.03200368495805914 -0.19666074052757662
0.11955057209620108 -0.18334352987279334
0.20709745923434303 -0.19666074052757662
0.061185980670773125 -0.2232951618371432
0.0028213892453451675 -0.2499295831467098
0.0028213892453451675 -0.2099779511823599
0.03200368495805914 -0.2099779511823599
0.0903682763834871 -0.2099779511823599
0.17791516352162903 -0.2632467938014931
0.0903682763834871 -0.32983284707540955
-0.05554320218008279 -0.3431500577301928
-0.2014546807436527 -0.32983284707540955
-0.14309008931822473 -0.2765640044562764
-0.08472549789279676 -0.2099779511823599
0.03200368495805914 -0.2499295831467098
-0.08472549789279676 -0.2632467938014931
-0.14309008931822473 -0.2499295831467098
-0.11390779360551075 -0.2499295831467098
-0.2014546807436527 -0.2232951618371432
-0.14309008931822473 -0.14339189790844345
-0.05554320218008279 -0.18334352987279334
0.03200368495805914 -0.19666074052757662
-0.14309008931822473 -0.2499295831467098
-0.1722723850309387 -0.2366123724919265
-0.11390779360551075 -0.2366123724919265
-0.02636090646736881 -0.2232951618371432
0.03200368495805914 -0.2499295831467098
0.03200368495805914 -0.2632467938014931
-0.2014546807436527 -0.2632467938014931
-0.3181838635945086 -0.2232951618371432
-0.11390779360551075 -0.2232951618371432
0.0028213892453451675 -0.2366123724919265
-0.02636090646736881 -0.2632467938014931
-0.05554320218008279 -0.31651563642062625
-0.2014546807436527 -0.3697844790397594
-0.14309008931822473 -0.3431500577301928
-0.23063697645636666 -0.2765640044562764
-0.11390779360551075 -0.2366123724919265
-0.11390779360551075 -0.2232951618371432
-0.14309008931822473 -0.2632467938014931
-0.23063697645636666 -0.30319842576584294
-0.2890015678817946 -0.30319842576584294
-0.23063697645636666 -0.2765640044562764
-0.14309008931822473 -0.2099779511823599
-0.08472549789279676 -0.18334352987279334
-0.1722723850309387 -0.2366123724919265
-0.23063697645636666 -0.2765640044562764
-0.2014546807436527 -0.2632467938014931
-0.2014546807436527 -0.2632467938014931
-0.08472549789279676 -0.2099779511823599
-0.14309008931822473 -0.17002631921801004
-0.2014546807436527 -0.19666074052757662
-0.25981927216908063 -0.2499295831467098
-0.2014546807436527 -0.2232951618371432
-0.11390779360551075 -0.2366123724919265
0.0028213892453451675 -0.2099779511823599
0.0903682763834871 -0.2099779511823599
0.03200368495805914 -0.2366123724919265
0.0028213892453451675 -0.2499295831467098
-0.02636090646736881 -0.2232951618371432
0.0028213892453451675 -0.13007468725366017
0.11955057209620108 -0.11675747659887688
0.20709745923434303 -0.10344026594409358
0.236279754947057 -0.17002631921801004
0.14873286780891506 -0.2099779511823599
0.061185980670773125 -0.17002631921801004
0.03200368495805914 -0.15670910856322676
0.20709745923434303 -0.09012305528931029
0.3530089377979129 -0.06348863397974372
0.29464434637248493 -0.03685421267017713
0.236279754947057 -0.03685421267017713
0.14873286780891506 -0.010219791360610552
0.17791516352162903 0.01641462994895603
0.26546205065977097 -0.03685421267017713
0.29464434637248493 -0.10344026594409358
0.11955057209620108 -0.14339189790844345
-0.02636090646736881 -0.17002631921801004
-0.14309008931822473 -0.11675747659887688
-0.1722723850309387 -0.076805844634527
-0.05554320218008279 -0.023537002015393844
-0.02636090646736881 -0.13007468725366017
-0.11390779360551075 -0.13007468725366017
-0.08472549789279676 -0.13007468725366017
-0.2014546807436527 -0.10344026594409358
-0.2014546807436527 -0.03685421267017713
-0.02636090646736881 -0.050171423324960426
0.061185980670773125 -0.050171423324960426
0.0903682763834871 -0.03685421267017713
0.061185980670773125 -0.11675747659887688
-0.02636090646736881 -0.15670910856322676
0.0028213892453451675 -0.18334352987279334
0.061185980670773125 -0.18334352987279334
-0.02636090646736881 -0.2099779511823599
-0.1722723850309387 -0.2232951618371432
-0.23063697645636666 -0.2366123724919265
-0.37654845501993656 -0.2232951618371432
-0.3473661593072226 -0.19666074052757662
-0.23063697645636666 -0.17002631921801004
-0.14309008931822473 -0.15670910856322676
-0.2014546807436527 -0.14339189790844345
-0.2890015678817946 -0.17002631921801004
-0.3473661593072226 -0.19666074052757662
-0.2014546807436527 -0.17002631921801004
-0.1722723850309387 -0.13007468725366017
-0.2014546807436527 -0.17002631921801004
-0.3181838635945086 -0.18334352987279334
-0.3181838635945086 -0.2366123724919265
-0.4932776378707925 -0.2765640044562764
-0.37654845501993656 -0.2366123724919265
-0.37654845501993656 -0.2099779511823599
-0.3181838635945086 -0.2232951618371432
-0.2890015678817946 -0.2232951618371432
-0.4932776378707925 -0.2366123724919265
-0.4640953421580785 -0.2366123724919265
-0.4349130464453645 -0.19666074052757662
-0.3181838635945086 -0.17002631921801004
-0.23063697645636666 -0.18334352987279334
-0.2890015678817946 -0.2232951618371432
-0.3473661593072226 -0.2366123724919265
-0.37654845501993656 -0.2366123724919265
-0.4057307507326505 -0.19666074052757662
-0.25981927216908063 -0.15670910856322676
-0.3181838635945086 -0.13007468725366017
-0.25981927216908063 -0.18334352987279334
-0.25981927216908063 -0.15670910856322676
-0.25981927216908063 -0.11675747659887688
-0.14309008931822473 -0.010219791360610552
0.0028213892453451675 0.10963510453243906
0.03200368495805914 0.2161727897707054
0.0903682763834871 0.3892965282828882
0.11955057209620108 0.5491030561402876
0.32382664208519896 0.7621784266168203
0.44055582493605483 0.9885710077481362
0.6740141906377667 1.3081840634629351
0.4989204163614828 1.6411143298325175
0.0903682763834871 2.120533913404716
-0.23063697645636666 2.5866362863221313
-0.3181838635945086 3.0660558698943294
-0.37654845501993656 3.492206610847395
-0.4932776378707925 3.91835735180046
-0.8142828907106463 4.291239250134392
-1.076923552125072 4.783976044361374
-1.1352881435505 5.290030049243139
-0.9893766649869301 5.702863579541421
-0.4057307507326505 5.809401264779687
0.44055582493605483 5.596325894303154
1.0533840349030483 4.797293255016157
1.637029949157328 3.5587926641213112
1.666212244870042 2.173802756023849
1.1117486263284764 1.121743114295969
-0.02636090646736881 0.522468634830721
-1.310381917826784 0.1895383684611388
-2.156668493495489 -0.050171423324960426
-2.536038337760771 -0.15670910856322676
-2.448491450622629 -0.2232951618371432
-2.2150330849209174 -0.19666074052757662
-1.8064809449429216 -0.17002631921801004
-1.164470439263214 -0.18334352987279334
-0.6683714121470764 -0.2366123724919265
-0.3473661593072226 -0.3697844790397594
-0.2890015678817946 -0.396418900349326
-0.2890015678817946 -0.43637053231367584
-0.25981927216908063 -0.4097361110041093
-0.08472549789279676 -0.44968774296845915
-0.05554320218008279 -0.46300495362324245
-0.02636090646736881 -0.5162737962423756
-0.1722723850309387 -0.5695426388615088
-0.14309008931822473 -0.5828598495162921
-0.08472549789279676 -0.5695426388615088
0.0028213892453451675 -0.5429082175519422
0.11955057209620108 -0.5562254282067255
0.11955057209620108 -0.5695426388615088
0.0903682763834871 -0.5828598495162921
0.14873286780891506 -0.5961770601710753
0.0903682763834871 -0.5828598495162921
0.17791516352162903 -0.5429082175519422
0.3821912335106269 -0.5562254282067255
0.3530089377979129 -0.5695426388615088
0.20709745923434303 -0.5961770601710753
0.26546205065977097 -0.5961770601710753
0.3530089377979129 -0.5562254282067255
0.3821912335106269 -0.5828598495162921
0.3821912335106269 -0.5961770601710753
0.3530089377979129 -0.6361286921354252
0.236279754947057 -0.676080324099775
0.26546205065977097 -0.6494459027902085
0.32382664208519896 -0.6494459027902085
0.32382664208519896 -0.6094942708258586
0.3821912335106269 -0.6494459027902085
0.41137352922334086 -0.6627631134449918
0.29464434637248493 -0.716031956064125
0.26546205065977097 -0.716031956064125
0.29464434637248493 -0.6893975347545583
0.3530089377979129 -0.676080324099775
0.5572850077869108 -0.6627631134449918
0.4989204163614828 -0.676080324099775
0.3821912335106269 -0.7293491667189083
0.44055582493605483 -0.716031956064125
0.46973812064876885 -0.7027147454093416
0.5572850077869108 -0.6627631134449918
0.6156495992123387 -0.716031956064125
0.5864673034996247 -0.7559835880284749
0.46973812064876885 -0.7559835880284749
0.4989204163614828 -0.7426663773736916
0.5572850077869108 -0.7027147454093416
0.7031964863504807 -0.6627631134449918
0.7323787820631946 -0.6893975347545583
0.7031964863504807 -0.716031956064125
0.6156495992123387 -0.7027147454093416
0.5572850077869108 -0.6893975347545583
0.6740141906377667 -0.6893975347545583
0.7907433734886226 -0.716031956064125
0.7615610777759086 -0.7693007986832581
0.8491079649140506 -0.7959352199928247
0.6740141906377667 -0.7693007986832581
0.5864673034996247 -0.6893975347545583
0.7031964863504807 -0.6494459027902085
0.9074725563394785 -0.5961770601710753
0.9366548520521925 -0.5961770601710753
0.9950194434776205 -0.6627631134449918
0.8782902606267645 -0.7027147454093416
0.9074725563394785 -0.716031956064125
0.9658371477649065 -0.6893975347545583
1.0242017391903344 -0.5961770601710753
1.1409309220411903 -0.6228114814806419
1.1701132177539044 -0.6228114814806419
1.1701132177539044 -0.6094942708258586
1.1992955134666183 -0.5429082175519422
1.1992955134666183 -0.489639374932809
1.4035715834556162 -0.46300495362324245
1.520300766306472 -0.44968774296845915
1.43275387916833 -0.4230533216588926
1.4619361748810442 -0.4097361110041093
1.4911184705937581 -0.32983284707540955
1.637029949157328 -0.2232951618371432
1.8121237234336118 -0.14339189790844345
1.8704883148590399 -0.13007468725366017
1.8704883148590399 -0.14339189790844345
1.8121237234336118 -0.13007468725366017
1.8704883148590399 -0.076805844634527
1.8996706105717538 0.02973184060373932
1.9872174977098958 0.13626952584200563
1.9872174977098958 0.16290394715157222
2.0455820891353236 0.16290394715157222
1.9872174977098958 0.16290394715157222
1.8996706105717538 0.20285557911592209
1.8996706105717538 0.26944163238983854
1.9580352019971818 0.29607605369940515
1.9580352019971818 0.28275884304462184
1.8413060191463257 0.2561244217350553
1.666212244870042 0.22949000042548867
1.5786653577319 0.20285557911592209
1.4035715834556162 0.22949000042548867
1.4035715834556162 0.1895383684611388
1.3160246963174742 0.13626952584200563
1.1701132177539044 0.04304905125852261
0.9950194434776205 -0.03685421267017713
0.8782902606267645 -0.03685421267017713
0.8491079649140506 -0.03685421267017713
0.8199256692013366 -0.010219791360610552
0.8491079649140506 -0.03685421267017713
0.5864673034996247 -0.09012305528931029
0.6156495992123387 -0.10344026594409358
0.4989204163614828 -0.14339189790844345
0.46973812064876885 -0.09012305528931029
0.46973812064876885 -0.076805844634527
0.41137352922334086 -0.13007468725366017
0.3821912335106269 -0.14339189790844345
0.26546205065977097 -0.2232951618371432
0.236279754947057 -0.2232951618371432
0.29464434637248493 -0.14339189790844345
0.3821912335106269 -0.076805844634527
0.3821912335106269 -0.09012305528931029
0.32382664208519896 -0.14339189790844345
0.26546205065977097 -0.17002631921801004
0.17791516352162903 -0.17002631921801004
0.236279754947057 -0.18334352987279334
0.236279754947057 -0.15670910856322676
0.236279754947057 -0.2232951618371432
0.20709745923434303 -0.2366123724919265
0.0903682763834871 -0.2632467938014931
0.03200368495805914 -0.18334352987279334
0.0903682763834871 -0.10344026594409358
0.14873286780891506 -0.13007468725366017
0.236279754947057 -0.19666074052757662
0.11955057209620108 -0.32983284707540955
0.03200368495805914 -0.3697844790397594
-0.05554320218008279 -0.30319842576584294
-0.05554320218008279 -0.2366123724919265
0.03200368495805914 -0.15670910856322676
0.14873286780891506 -0.19666074052757662
0.14873286780891506 -0.2499295831467098
0.061185980670773125 -0.28988121511105963
0.03200368495805914 -0.2765640044562764
0.03200368495805914 -0.2632467938014931
0.11955057209620108 -0.2366123724919265
0.17791516352162903 -0.2499295831467098
0.11955057209620108 -0.2765640044562764
0.0028213892453451675 -0.28988121511105963
-0.05554320218008279 -0.2765640044562764
-0.05554320218008279 -0.2765640044562764
0.03200368495805914 -0.2632467938014931
0.0903682763834871 -0.2765640044562764
0.0028213892453451675 -0.2632467938014931
-0.05554320218008279 -0.2765640044562764
-0.11390779360551075 -0.2366123724919265
-0.08472549789279676 -0.2232951618371432
0.0028213892453451675 -0.2099779511823599
-0.02636090646736881 -0.2499295831467098
0.03200368495805914 -0.2366123724919265
0.0028213892453451675 -0.31651563642062625
-0.2014546807436527 -0.28988121511105963
-0.14309008931822473 -0.2366123724919265
0.0028213892453451675 -0.14339189790844345
0.0028213892453451675 -0.15670910856322676
0.03200368495805914 -0.18334352987279334
0.03200368495805914 -0.2499295831467098
-0.02636090646736881 -0.2366123724919265
-0.05554320218008279 -0.17002631921801004
0.061185980670773125 -0.13007468725366017
0.0903682763834871 -0.14339189790844345
0.0028213892453451675 -0.19666074052757662
-0.05554320218008279 -0.18334352987279334
-0.11390779360551075 -0.19666074052757662
-0.05554320218008279 -0.2232951618371432
-0.08472549789279676 -0.19666074052757662
-0.14309008931822473 -0.2232951618371432
-0.14309008931822473 -0.2366123724919265
-0.25981927216908063 -0.2499295831467098
-0.25981927216908063 -0.2232951618371432
-0.1722723850309387 -0.2099779511823599
-0.11390779360551075 -0.17002631921801004
