-0.2890015678817946 -0.03685421267017713
-0.2890015678817946 0.02973184060373932
-0.2014546807436527 0.04304905125852261
-0.2014546807436527 -0.023537002015393844
-0.23063697645636666 -0.06348863397974372
-0.37654845501993656 -0.06348863397974372
-0.2890015678817946 -0.050171423324960426
-0.25981927216908063 -0.03685421267017713
-0.23063697645636666 -0.076805844634527
-0.25981927216908063 -0.03685421267017713
-0.3473661593072226 -0.050171423324960426
-0.3473661593072226 -0.03685421267017713
-0.23063697645636666 0.003097419294172739
-0.1722723850309387 -0.023537002015393844
-0.11390779360551075 -0.010219791360610552
-0.14309008931822473 -0.050171423324960426
-0.3181838635945086 -0.10344026594409358
-0.2890015678817946 -0.050171423324960426
-0.3473661593072226 0.04304905125852261
-0.2890015678817946 0.13626952584200563
-0.1722723850309387 0.14958673649678894
-0.05554320218008279 0.20285557911592209
-0.02636090646736881 0.24280721108027198
0.0028213892453451675 0.3759793176281049
0.236279754947057 0.5890546881046376
0.5864673034996247 0.8687161118550867
0.9366548520521925 1.0551570610220526
1.1409309220411903 1.2815496421533688
1.0825663306157625 1.574528276558601
0.8782902606267645 2.027313438821233
0.8491079649140506 2.5999534969769145
1.0533840349030483 3.1060075018586795
1.2868424006047603 3.585427085430878
1.3743892877429023 4.024895037038727
1.1409309220411903 4.437728567337008
0.9950194434776205 4.903830940254424
1.1117486263284764 5.489788209064889
1.43275387916833 5.94257337132752
2.0747643848480375 6.1156971098397035
2.7459571862404593 5.969207792637087
3.4171499876328806 5.369933313171839
3.7089729447600206 4.2246531968604755
3.3879676919201667 2.86629771007258
2.4249519334006053 1.7609692257255671
0.7323787820631946 1.0551570610220526
-1.106105847837786 0.655640741378554
-2.2733976763463453 0.26944163238983854
-2.536038337760771 0.12295231518722236
-2.2733976763463453 0.04304905125852261
-1.8940278320810635 0.0696834725680892
-1.3687465092522118 0.01641462994895603
-0.9018297778487881 -0.050171423324960426
-0.5224599335835065 -0.09012305528931029
-0.5224599335835065 -0.13007468725366017
-0.3181838635945086 -0.11675747659887688
-0.23063697645636666 -0.14339189790844345
-0.11390779360551075 -0.2099779511823599
-0.08472549789279676 -0.31651563642062625
-0.14309008931822473 -0.3431500577301928
-0.1722723850309387 -0.32983284707540955
-0.2014546807436527 -0.30319842576584294
-0.08472549789279676 -0.30319842576584294
0.061185980670773125 -0.396418900349326
0.03200368495805914 -0.4230533216588926
0.0028213892453451675 -0.43637053231367584
-0.05554320218008279 -0.3697844790397594
-0.02636090646736881 -0.31651563642062625
0.0903682763834871 -0.31651563642062625
0.236279754947057 -0.396418900349326
0.20709745923434303 -0.489639374932809
0.14873286780891506 -0.4763221642780257
0.061185980670773125 -0.5162737962423756
0.14873286780891506 -0.43637053231367584
0.14873286780891506 -0.43637053231367584
0.14873286780891506 -0.46300495362324245
0.17791516352162903 -0.5429082175519422
0.11955057209620108 -0.5295910068971589
0.0028213892453451675 -0.5029565855875923
0.061185980670773125 -0.46300495362324245
0.20709745923434303 -0.4763221642780257
0.26546205065977097 -0.5429082175519422
0.236279754947057 -0.5695426388615088
0.11955057209620108 -0.5695426388615088
0.0903682763834871 -0.5695426388615088
0.14873286780891506 -0.5295910068971589
0.236279754947057 -0.5029565855875923
0.26546205065977097 -0.5429082175519422
0.29464434637248493 -0.5695426388615088
0.29464434637248493 -0.6228114814806419
0.29464434637248493 -0.6228114814806419
0.26546205065977097 -0.5828598495162921
0.26546205065977097 -0.5562254282067255
0.32382664208519896 -0.5828598495162921
0.3530089377979129 -0.6361286921354252
0.29464434637248493 -0.6627631134449918
0.29464434637248493 -0.6627631134449918
0.3530089377979129 -0.6627631134449918
0.46973812064876885 -0.6094942708258586
0.4989204163614828 -0.6893975347545583
0.29464434637248493 -0.7426663773736916
0.26546205065977097 -0.7426663773736916
0.236279754947057 -0.6893975347545583
0.32382664208519896 -0.6494459027902085
0.44055582493605483 -0.6361286921354252
0.46973812064876885 -0.6494459027902085
0.41137352922334086 -0.676080324099775
0.3530089377979129 -0.7293491667189083
0.3821912335106269 -0.6893975347545583
0.44055582493605483 -0.716031956064125
0.4989204163614828 -0.7027147454093416
0.5572850077869108 -0.7293491667189083
0.5572850077869108 -0.7293491667189083
0.41137352922334086 -0.7426663773736916
0.46973812064876885 -0.7293491667189083
0.5281027120741968 -0.6494459027902085
0.6448318949250527 -0.6494459027902085
0.6740141906377667 -0.676080324099775
0.7031964863504807 -0.7426663773736916
0.5864673034996247 -0.7826180093380414
0.4989204163614828 -0.7693007986832581
0.6740141906377667 -0.7293491667189083
0.8199256692013366 -0.676080324099775
0.8782902606267645 -0.676080324099775
0.7907433734886226 -0.676080324099775
0.6740141906377667 -0.6627631134449918
0.7323787820631946 -0.6228114814806419
0.9366548520521925 -0.5695426388615088
1.0825663306157625 -0.5562254282067255
1.1409309220411903 -0.5295910068971589
1.1117486263284764 -0.5562254282067255
1.0533840349030483 -0.5695426388615088
1.1409309220411903 -0.5162737962423756
1.2576601048920462 -0.4097361110041093
1.43275387916833 -0.32983284707540955
1.520300766306472 -0.3431500577301928
1.549483062019186 -0.31651563642062625
1.4911184705937581 -0.2765640044562764
1.549483062019186 -0.17002631921801004
1.637029949157328 -0.09012305528931029
1.782941427720898 0.04304905125852261
1.8996706105717538 0.08300068322287249
1.8704883148590399 0.0696834725680892
1.9288529062844677 0.0696834725680892
1.8121237234336118 0.09631789387765577
1.9288529062844677 0.20285557911592209
1.9288529062844677 0.26944163238983854
1.8704883148590399 0.3227104750089717
1.782941427720898 0.28275884304462184
1.753759132008184 0.26944163238983854
1.666212244870042 0.2561244217350553
1.607847653444614 0.3227104750089717
1.607847653444614 0.3626621069733216
1.4619361748810442 0.29607605369940515
1.3160246963174742 0.28275884304462184
1.1992955134666183 0.2161727897707054
1.0825663306157625 0.2161727897707054
1.0825663306157625 0.24280721108027198
1.0825663306157625 0.28275884304462184
0.9950194434776205 0.22949000042548867
0.8782902606267645 0.14958673649678894
0.7323787820631946 0.10963510453243906
0.6740141906377667 0.09631789387765577
0.7031964863504807 0.16290394715157222
0.7615610777759086 0.16290394715157222
0.6448318949250527 0.12295231518722236
0.5864673034996247 0.0696834725680892
0.41137352922334086 -0.03685421267017713
0.41137352922334086 0.01641462994895603
0.41137352922334086 0.0696834725680892
0.3821912335106269 0.12295231518722236
0.44055582493605483 0.12295231518722236
0.44055582493605483 0.01641462994895603
0.3530089377979129 -0.023537002015393844
0.32382664208519896 -0.023537002015393844
0.32382664208519896 0.056366261913305904
0.32382664208519896 0.0696834725680892
0.3530089377979129 0.04304905125852261
0.3530089377979129 0.02973184060373932
0.17791516352162903 -0.010219791360610552
0.0903682763834871 -0.03685421267017713
0.14873286780891506 -0.023537002015393844
0.29464434637248493 0.02973184060373932
0.236279754947057 0.003097419294172739
0.14873286780891506 0.003097419294172739
0.03200368495805914 -0.050171423324960426
-0.02636090646736881 -0.050171423324960426
0.061185980670773125 -0.023537002015393844
0.14873286780891506 -0.03685421267017713
0.17791516352162903 -0.06348863397974372
0.061185980670773125 -0.10344026594409358
-0.05554320218008279 -0.11675747659887688
-0.08472549789279676 -0.10344026594409358
0.061185980670773125 -0.076805844634527
0.17791516352162903 -0.050171423324960426
0.11955057209620108 -0.17002631921801004
0.0028213892453451675 -0.2099779511823599
-0.11390779360551075 -0.18334352987279334
-0.14309008931822473 -0.14339189790844345
0.0028213892453451675 -0.11675747659887688
0.061185980670773125 -0.06348863397974372
0.11955057209620108 -0.10344026594409358
0.14873286780891506 -0.14339189790844345
0.061185980670773125 -0.17002631921801004
0.0028213892453451675 -0.17002631921801004
-0.02636090646736881 -0.11675747659887688
0.061185980670773125 -0.09012305528931029
0.14873286780891506 -0.14339189790844345
0.11955057209620108 -0.18334352987279334
0.061185980670773125 -0.18334352987279334
-0.05554320218008279 -0.14339189790844345
-0.08472549789279676 -0.11675747659887688
0.03200368495805914 -0.11675747659887688
0.061185980670773125 -0.13007468725366017
0.061185980670773125 -0.15670910856322676
0.0028213892453451675 -0.2232951618371432
-0.02636090646736881 -0.17002631921801004
-0.02636090646736881 -0.14339189790844345
0.061185980670773125 -0.06348863397974372
0.14873286780891506 -0.09012305528931029
0.0903682763834871 -0.15670910856322676
-0.02636090646736881 -0.18334352987279334
0.11955057209620108 -0.14339189790844345
0.11955057209620108 -0.13007468725366017
0.17791516352162903 -0.09012305528931029
0.17791516352162903 -0.15670910856322676
0.0903682763834871 -0.18334352987279334
-0.05554320218008279 -0.2366123724919265
-0.02636090646736881 -0.2366123724919265
0.061185980670773125 -0.19666074052757662
0.20709745923434303 -0.10344026594409358
0.14873286780891506 -0.11675747659887688
0.11955057209620108 -0.14339189790844345
0.061185980670773125 -0.17002631921801004
0.03200368495805914 -0.2099779511823599
0.0028213892453451675 -0.19666074052757662
0.0028213892453451675 -0.15670910856322676
0.03200368495805914 -0.17002631921801004
0.03200368495805914 -0.19666074052757662
-0.11390779360551075 -0.2099779511823599
-0.11390779360551075 -0.2099779511823599
-0.05554320218008279 -0.15670910856322676
0.0028213892453451675 -0.11675747659887688
-0.14309008931822473 -0.17002631921801004
-0.14309008931822473 -0.18334352987279334
-0.14309008931822473 -0.2099779511823599
-0.2014546807436527 -0.2099779511823599
-0.2014546807436527 -0.2232951618371432
-0.11390779360551075 -0.19666074052757662
-0.08472549789279676 -0.19666074052757662
-0.11390779360551075 -0.2232951618371432
-0.23063697645636666 -0.2366123724919265
-0.2890015678817946 -0.2232951618371432
-0.1722723850309387 -0.2232951618371432
-0.08472549789279676 -0.2099779511823599
-0.11390779360551075 -0.2232951618371432
-0.2014546807436527 -0.2366123724919265
-0.3181838635945086 -0.28988121511105963
-0.25981927216908063 -0.28988121511105963
-0.23063697645636666 -0.2366123724919265
-0.08472549789279676 -0.2232951618371432
-0.14309008931822473 -0.18334352987279334
-0.23063697645636666 -0.2232951618371432
-0.2890015678817946 -0.2499295831467098
-0.3181838635945086 -0.2765640044562764
-0.25981927216908063 -0.2499295831467098
-0.2014546807436527 -0.2232951618371432
-0.2014546807436527 -0.2366123724919265
-0.23063697645636666 -0.28988121511105963
-0.37654845501993656 -0.28988121511105963
-0.4349130464453645 -0.28988121511105963
-0.37654845501993656 -0.2099779511823599
-0.25981927216908063 -0.18334352987279334
-0.23063697645636666 -0.2366123724919265
-0.25981927216908063 -0.2499295831467098
-0.3473661593072226 -0.2632467938014931
-0.37654845501993656 -0.2499295831467098
-0.2890015678817946 -0.19666074052757662
-0.23063697645636666 -0.17002631921801004
-0.23063697645636666 -0.19666074052757662
-0.3181838635945086 -0.2366123724919265
-0.37654845501993656 -0.28988121511105963
-0.37654845501993656 -0.2765640044562764
-0.37654845501993656 -0.19666074052757662
-0.23063697645636666 -0.18334352987279334
-0.25981927216908063 -0.19666074052757662
-0.25981927216908063 -0.2099779511823599
-0.25981927216908063 -0.2499295831467098
-0.3473661593072226 -0.19666074052757662
-0.25981927216908063 -0.15670910856322676
-0.1722723850309387 -0.14339189790844345
-0.25981927216908063 -0.2232951618371432
-0.2014546807436527 -0.28988121511105963
-0.3181838635945086 -0.30319842576584294
-0.5224599335835065 -0.2232951618371432
-0.4057307507326505 -0.17002631921801004
-0.25981927216908063 -0.2099779511823599
-0.1722723850309387 -0.2499295831467098
-0.2014546807436527 -0.28988121511105963
-0.3181838635945086 -0.31651563642062625
-0.25981927216908063 -0.2499295831467098
-0.25981927216908063 -0.2099779511823599
-0.23063697645636666 -0.17002631921801004
-0.05554320218008279 -0.11675747659887688
-0.02636090646736881 -0.11675747659887688
-0.08472549789279676 -0.19666074052757662
-0.08472549789279676 -0.18334352987279334
-0.02636090646736881 -0.14339189790844345
0.03200368495805914 -0.10344026594409358
0.17791516352162903 -0.050171423324960426
0.061185980670773125 -0.076805844634527
0.11955057209620108 -0.09012305528931029
0.061185980670773125 -0.023537002015393844
0.11955057209620108 0.003097419294172739
0.236279754947057 0.04304905125852261
0.20709745923434303 0.01641462994895603
0.11955057209620108 -0.076805844634527
-0.02636090646736881 -0.13007468725366017
-0.14309008931822473 -0.11675747659887688
-0.2014546807436527 -0.13007468725366017
-0.23063697645636666 -0.06348863397974372
-0.1722723850309387 -0.076805844634527
-0.23063697645636666 -0.13007468725366017
-0.2014546807436527 -0.17002631921801004
-0.2014546807436527 -0.050171423324960426
-0.1722723850309387 0.056366261913305904
-0.11390779360551075 0.10963510453243906
-0.02636090646736881 0.04304905125852261
0.0028213892453451675 -0.09012305528931029
-0.14309008931822473 -0.13007468725366017
-0.1722723850309387 -0.13007468725366017
-0.1722723850309387 -0.14339189790844345
-0.14309008931822473 -0.11675747659887688
-0.14309008931822473 -0.18334352987279334
-0.23063697645636666 -0.2499295831467098
-0.4640953421580785 -0.2499295831467098
-0.5224599335835065 -0.2099779511823599
-0.5516422292962204 -0.15670910856322676
-0.3473661593072226 -0.15670910856322676
-0.3181838635945086 -0.19666074052757662
-0.3473661593072226 -0.2099779511823599
-0.4640953421580785 -0.2632467938014931
-0.4640953421580785 -0.2499295831467098
-0.4932776378707925 -0.2232951618371432
-0.37654845501993656 -0.17002631921801004
-0.4057307507326505 -0.19666074052757662
-0.4349130464453645 -0.2099779511823599
-0.5224599335835065 -0.2366123724919265
-0.5808245250089344 -0.2099779511823599
-0.4932776378707925 -0.13007468725366017
-0.4349130464453645 -0.19666074052757662
-0.4057307507326505 -0.2232951618371432
-0.3473661593072226 -0.2632467938014931
-0.4640953421580785 -0.2366123724919265
-0.5224599335835065 -0.2366123724919265
-0.4349130464453645 -0.17002631921801004
-0.37654845501993656 -0.18334352987279334
-0.2890015678817946 -0.2099779511823599
-0.4057307507326505 -0.2366123724919265
-0.4932776378707925 -0.2499295831467098
-0.5516422292962204 -0.2099779511823599
-0.4349130464453645 -0.18334352987279334
-0.3181838635945086 -0.17002631921801004
-0.2014546807436527 -0.17002631921801004
-0.23063697645636666 -0.09012305528931029
-0.3181838635945086 0.01641462994895603
-0.23063697645636666 0.10963510453243906
-0.02636090646736881 0.2561244217350553
0.17791516352162903 0.4425653709020213
0.46973812064876885 0.6290063200689874
0.6156495992123387 0.8553989012003034
0.7323787820631946 1.0817914823316193
0.7907433734886226 1.5212594339394678
0.5864673034996247 2.0539478601307994
0.7323787820631946 2.5866362863221313
0.7907433734886226 3.0926902912038963
0.8782902606267645 3.505523821502178
0.8782902606267645 3.87840571983611
0.7323787820631946 4.3045564607891755
0.6740141906377667 4.797293255016157
0.7615610777759086 5.263395627933573
1.0242017391903344 5.689546368886638
1.5786653577319 5.742815211505771
2.3374050462624636 5.423202155790972
2.8918686648040293 4.610852305849192
3.096144734793027 3.3856689256091284
2.775139481953173 2.0938994920951495
1.5786653577319 1.0951086929864027
-0.25981927216908063 0.5091514241759378
-1.8648455363683496 0.14958673649678894
-2.448491450622629 -0.010219791360610552
-2.4193091549099153 -0.10344026594409358
-2.2442153806336314 -0.10344026594409358
-1.8648455363683496 -0.11675747659887688
-1.4562933963903537 -0.18334352987279334
-0.9018297778487881 -0.2499295831467098
-0.5808245250089344 -0.30319842576584294
-0.3473661593072226 -0.3431500577301928
-0.2890015678817946 -0.396418900349326
-0.25981927216908063 -0.43637053231367584
-0.23063697645636666 -0.4763221642780257
-0.4057307507326505 -0.5429082175519422
-0.3181838635945086 -0.5695426388615088
-0.25981927216908063 -0.6094942708258586
-0.11390779360551075 -0.6094942708258586
-0.1722723850309387 -0.5961770601710753
-0.2014546807436527 -0.5961770601710753
-0.2014546807436527 -0.6094942708258586
-0.14309008931822473 -0.6361286921354252
-0.05554320218008279 -0.6494459027902085
0.061185980670773125 -0.6893975347545583
0.03200368495805914 -0.6893975347545583
-0.08472549789279676 -0.676080324099775
-0.14309008931822473 -0.716031956064125
-0.11390779360551075 -0.676080324099775
-0.08472549789279676 -0.5961770601710753
0.03200368495805914 -0.5695426388615088
0.03200368495805914 -0.6361286921354252
-0.05554320218008279 -0.716031956064125
-0.08472549789279676 -0.7293491667189083
-0.1722723850309387 -0.6893975347545583
-0.11390779360551075 -0.6494459027902085
0.0903682763834871 -0.6361286921354252
0.0903682763834871 -0.6627631134449918
0.061185980670773125 -0.7027147454093416
0.061185980670773125 -0.716031956064125
-0.02636090646736881 -0.7293491667189083
0.03200368495805914 -0.716031956064125
0.0903682763834871 -0.6627631134449918
0.11955057209620108 -0.7027147454093416
0.17791516352162903 -0.7027147454093416
0.0903682763834871 -0.7559835880284749
0.061185980670773125 -0.716031956064125
0.0903682763834871 -0.6893975347545583
0.11955057209620108 -0.716031956064125
0.32382664208519896 -0.716031956064125
0.26546205065977097 -0.7293491667189083
0.20709745923434303 -0.7559835880284749
0.11955057209620108 -0.7959352199928247
0.20709745923434303 -0.8358868519571746
0.29464434637248493 -0.8358868519571746
0.236279754947057 -0.8358868519571746
0.17791516352162903 -0.8492040626119579
0.0903682763834871 -0.8625212732667411
0.061185980670773125 -0.8492040626119579
0.14873286780891506 -0.8358868519571746
0.20709745923434303 -0.7693007986832581
0.20709745923434303 -0.7693007986832581
0.20709745923434303 -0.8225696413023913
0.20709745923434303 -0.8758384839215244
0.17791516352162903 -0.8625212732667411
0.20709745923434303 -0.8625212732667411
0.32382664208519896 -0.809252430647608
0.32382664208519896 -0.902472905231091
0.3530089377979129 -0.8891556945763077
0.14873286780891506 -0.902472905231091
0.26546205065977097 -0.8758384839215244
0.29464434637248493 -0.8358868519571746
0.44055582493605483 -0.809252430647608
0.44055582493605483 -0.8492040626119579
0.41137352922334086 -0.8758384839215244
0.44055582493605483 -0.902472905231091
0.44055582493605483 -0.8225696413023913
0.41137352922334086 -0.8492040626119579
0.5864673034996247 -0.7959352199928247
0.6156495992123387 -0.809252430647608
0.5572850077869108 -0.8225696413023913
0.4989204163614828 -0.8358868519571746
0.5572850077869108 -0.7693007986832581
0.6740141906377667 -0.7426663773736916
0.8491079649140506 -0.7426663773736916
0.8782902606267645 -0.7426663773736916
0.8491079649140506 -0.7559835880284749
0.7615610777759086 -0.7693007986832581
0.7615610777759086 -0.716031956064125
0.9074725563394785 -0.6094942708258586
1.1117486263284764 -0.489639374932809
1.1992955134666183 -0.489639374932809
1.1992955134666183 -0.5029565855875923
1.2284778091793322 -0.4763221642780257
1.1701132177539044 -0.43637053231367584
1.3743892877429023 -0.3431500577301928
1.4911184705937581 -0.2765640044562764
1.607847653444614 -0.2499295831467098
1.4035715834556162 -0.2366123724919265
1.4619361748810442 -0.18334352987279334
1.4619361748810442 -0.09012305528931029
1.520300766306472 0.01641462994895603
1.5786653577319 0.04304905125852261
1.607847653444614 0.09631789387765577
1.549483062019186 0.0696834725680892
1.43275387916833 0.056366261913305904
1.3452069920301881 0.04304905125852261
1.3160246963174742 0.01641462994895603
1.2576601048920462 0.01641462994895603
1.1701132177539044 0.003097419294172739
0.9950194434776205 -0.010219791360610552
0.8782902606267645 -0.03685421267017713
0.7907433734886226 -0.050171423324960426
0.7323787820631946 0.01641462994895603
0.7031964863504807 0.02973184060373932
0.6740141906377667 -0.010219791360610552
0.5864673034996247 -0.06348863397974372
0.41137352922334086 -0.10344026594409358
0.29464434637248493 -0.13007468725366017
0.3530089377979129 -0.14339189790844345
0.3821912335106269 -0.13007468725366017
0.32382664208519896 -0.17002631921801004
0.11955057209620108 -0.19666074052757662
0.11955057209620108 -0.2099779511823599
0.03200368495805914 -0.18334352987279334
0.061185980670773125 -0.18334352987279334
0.14873286780891506 -0.19666074052757662
0.0903682763834871 -0.19666074052757662
0.061185980670773125 -0.2632467938014931
-0.02636090646736881 -0.31651563642062625
-0.02636090646736881 -0.32983284707540955
-0.08472549789279676 -0.30319842576584294
-0.02636090646736881 -0.2232951618371432
-0.08472549789279676 -0.19666074052757662
-0.08472549789279676 -0.2366123724919265
-0.14309008931822473 -0.28988121511105963
-0.05554320218008279 -0.32983284707540955
-0.02636090646736881 -0.31651563642062625
0.061185980670773125 -0.2765640044562764
-0.05554320218008279 -0.3431500577301928
-0.08472549789279676 -0.3564672683849761
-0.1722723850309387 -0.4097361110041093
-0.2014546807436527 -0.396418900349326
-0.23063697645636666 -0.3564672683849761
-0.14309008931822473 -0.28988121511105963
-0.1722723850309387 -0.31651563642062625
-0.2014546807436527 -0.32983284707540955
-0.23063697645636666 -0.396418900349326
-0.23063697645636666 -0.396418900349326
-0.1722723850309387 -0.38310168969454267
-0.1722723850309387 -0.30319842576584294
-0.23063697645636666 -0.30319842576584294
-0.23063697645636666 -0.31651563642062625
-0.3181838635945086 -0.3697844790397594
-0.2890015678817946 -0.38310168969454267
-0.23063697645636666 -0.43637053231367584
-0.14309008931822473 -0.43637053231367584
-0.1722723850309387 -0.43637053231367584
-0.23063697645636666 -0.4763221642780257
-0.3181838635945086 -0.44968774296845915
-0.3473661593072226 -0.38310168969454267
-0.2890015678817946 -0.3564672683849761
-0.1722723850309387 -0.32983284707540955
-0.14309008931822473 -0.3564672683849761
-0.11390779360551075 -0.3697844790397594
-0.23063697645636666 -0.396418900349326
-0.1722723850309387 -0.3697844790397594
-0.11390779360551075 -0.3431500577301928
-0.05554320218008279 -0.32983284707540955
0.0028213892453451675 -0.3697844790397594
-0.02636090646736881 -0.38310168969454267
-0.14309008931822473 -0.396418900349326
-0.23063697645636666 -0.38310168969454267
-0.08472549789279676 -0.38310168969454267
-0.02636090646736881 -0.32983284707540955
-0.08472549789279676 -0.3697844790397594
-0.14309008931822473 -0.38310168969454267
-0.1722723850309387 -0.4230533216588926
-0.2014546807436527 -0.38310168969454267
-0.14309008931822473 -0.3697844790397594
-0.11390779360551075 -0.3431500577301928
-0.1722723850309387 -0.396418900349326
-0.1722723850309387 -0.46300495362324245
-0.23063697645636666 -0.489639374932809
-0.2890015678817946 -0.4230533216588926
-0.23063697645636666 -0.396418900349326
-0.14309008931822473 -0.32983284707540955
-0.08472549789279676 -0.3697844790397594
-0.11390779360551075 -0.38310168969454267
-0.25981927216908063 -0.4230533216588926
-0.25981927216908063 -0.38310168969454267
-0.25981927216908063 -0.2765640044562764
-0.11390779360551075 -0.2632467938014931
-0.14309008931822473 -0.32983284707540955
-0.23063697645636666 -0.44968774296845915
-0.2014546807436527 -0.4763221642780257
-0.25981927216908063 -0.46300495362324245
-0.3181838635945086 -0.38310168969454267
-0.2890015678817946 -0.32983284707540955
-0.3181838635945086 -0.3564672683849761
-0.3473661593072226 -0.396418900349326
-0.4349130464453645 -0.4230533216588926
-0.4057307507326505 -0.38310168969454267
-0.4057307507326505 -0.3564672683849761
-0.3473661593072226 -0.3564672683849761
-0.23063697645636666 -0.4230533216588926
-0.3181838635945086 -0.4763221642780257
-0.4640953421580785 -0.46300495362324245
-0.4640953421580785 -0.46300495362324245
-0.4349130464453645 -0.396418900349326
-0.3473661593072226 -0.3431500577301928
-0.4057307507326505 -0.3564672683849761
-0.4057307507326505 -0.396418900349326
-0.4349130464453645 -0.396418900349326
-0.5224599335835065 -0.38310168969454267
-0.4057307507326505 -0.3564672683849761
-0.37654845501993656 -0.32983284707540955
-0.3181838635945086 -0.38310168969454267
-0.4349130464453645 -0.4097361110041093
-0.4640953421580785 -0.4230533216588926
-0.5224599335835065 -0.4230533216588926
-0.4932776378707925 -0.32983284707540955
-0.4349130464453645 -0.2632467938014931
-0.4057307507326505 -0.28988121511105963
-0.4349130464453645 -0.28988121511105963
-0.5224599335835065 -0.3564672683849761
-0.4932776378707925 -0.4230533216588926
-0.4932776378707925 -0.4230533216588926
-0.5224599335835065 -0.4230533216588926
-0.4932776378707925 -0.46300495362324245
-0.5224599335835065 -0.4097361110041093
-0.5808245250089344 -0.396418900349326
-0.5808245250089344 -0.3564672683849761
-0.5516422292962204 -0.32983284707540955
-0.4057307507326505 -0.31651563642062625
-0.4057307507326505 -0.32983284707540955
-0.4349130464453645 -0.396418900349326
-0.5516422292962204 -0.4230533216588926
-0.6391891164343624 -0.3697844790397594
-0.4640953421580785 -0.32983284707540955
-0.4057307507326505 -0.28988121511105963
-0.3473661593072226 -0.2765640044562764
-0.5224599335835065 -0.32983284707540955
-0.5808245250089344 -0.3564672683849761
-0.5516422292962204 -0.3431500577301928
-0.4349130464453645 -0.31651563642062625
-0.37654845501993656 -0.32983284707540955
-0.4057307507326505 -0.3431500577301928
-0.4640953421580785 -0.38310168969454267
-0.5224599335835065 -0.396418900349326
-0.4057307507326505 -0.3431500577301928
-0.3181838635945086 -0.32983284707540955
-0.2890015678817946 -0.2765640044562764
-0.25981927216908063 -0.2632467938014931
-0.2890015678817946 -0.2632467938014931
-0.37654845501993656 -0.30319842576584294
-0.37654845501993656 -0.2366123724919265
-0.2890015678817946 -0.17002631921801004
-0.25981927216908063 -0.15670910856322676
-0.23063697645636666 -0.14339189790844345
-0.14309008931822473 -0.11675747659887688
-0.14309008931822473 -0.11675747659887688
-0.08472549789279676 -0.06348863397974372
-0.05554320218008279 -0.050171423324960426
0.0028213892453451675 -0.076805844634527
0.0028213892453451675 -0.10344026594409358
-0.11390779360551075 -0.13007468725366017
-0.2014546807436527 -0.14339189790844345
-0.23063697645636666 -0.17002631921801004
-0.23063697645636666 -0.18334352987279334
-0.2014546807436527 -0.11675747659887688
-0.25981927216908063 -0.10344026594409358
-0.3473661593072226 -0.13007468725366017
-0.4349130464453645 -0.17002631921801004
-0.4349130464453645 -0.18334352987279334
-0.4057307507326505 -0.17002631921801004
-0.3473661593072226 -0.010219791360610552
-0.2890015678817946 0.04304905125852261
-0.37654845501993656 0.01641462994895603
-0.3473661593072226 -0.03685421267017713
-0.2890015678817946 -0.09012305528931029
-0.25981927216908063 -0.11675747659887688
-0.2014546807436527 -0.11675747659887688
-0.2014546807436527 -0.13007468725366017
-0.3181838635945086 -0.19666074052757662
-0.4057307507326505 -0.19666074052757662
-0.4932776378707925 -0.2099779511823599
-0.5808245250089344 -0.17002631921801004
-0.5224599335835065 -0.15670910856322676
-0.5224599335835065 -0.19666074052757662
-0.6391891164343624 -0.2632467938014931
-0.7267360035725043 -0.30319842576584294
-0.9018297778487881 -0.28988121511105963
-0.8142828907106463 -0.2232951618371432
-0.5808245250089344 -0.17002631921801004
-0.4932776378707925 -0.11675747659887688
-0.5808245250089344 -0.18334352987279334
-0.7559182992852183 -0.2099779511823599
-0.7851005949979323 -0.2632467938014931
-0.6975537078597903 -0.28988121511105963
-0.6975537078597903 -0.30319842576584294
-0.6391891164343624 -0.2632467938014931
-0.7267360035725043 -0.28988121511105963
-0.8434651864233602 -0.28988121511105963
-0.7851005949979323 -0.2499295831467098
-0.7559182992852183 -0.2232951618371432
-0.6683714121470764 -0.19666074052757662
-0.6391891164343624 -0.19666074052757662
-0.7559182992852183 -0.2765640044562764
-0.8434651864233602 -0.28988121511105963
-0.8434651864233602 -0.2366123724919265
-0.7267360035725043 -0.2366123724919265
-0.7267360035725043 -0.2099779511823599
-0.6975537078597903 -0.2366123724919265
-0.6683714121470764 -0.28988121511105963
-0.7267360035725043 -0.2632467938014931
-0.7851005949979323 -0.2099779511823599
-0.6683714121470764 -0.10344026594409358
-0.5224599335835065 -0.023537002015393844
-0.4349130464453645 0.01641462994895603
-0.4349130464453645 0.04304905125852261
-0.4349130464453645 0.14958673649678894
-0.3181838635945086 0.3093932643541884
-0.14309008931822473 0.5357858454855043
0.17791516352162903 0.7355440053072537
0.46973812064876885 0.8820333225098699
0.5864673034996247 1.028522639712486
0.5864673034996247 1.3081840634629351
0.3530089377979129 1.7609692257255671
0.29464434637248493 2.2803404412621155
0.41137352922334086 2.813028867453447
0.41137352922334086 3.265814029716079
0.3530089377979129 3.691964770669144
0.11955057209620108 4.11811551162221
-0.02636090646736881 4.557583463230058
-0.02636090646736881 5.116906310730957
0.29464434637248493 5.596325894303154
0.8782902606267645 5.915938950017954
1.520300766306472 5.94257337132752
2.2498581591243214 5.583008683648371
2.8918686648040293 4.7440244123970245
3.2128739176438827 3.4655721895378284
2.7459571862404593 2.2004371773334155
1.3743892877429023 1.2282807995342355
-0.6391891164343624 0.6689579520333373
-2.2442153806336314 0.3493448963185383
-2.798678999175197 0.17622115780635553
-2.681949816324341 0.08300068322287249
-2.1274861977827753 0.04304905125852261
-1.6022048749539237 -0.03685421267017713
-1.047741256412358 -0.13007468725366017
-0.8142828907106463 -0.2099779511823599
-0.6391891164343624 -0.2099779511823599
-0.7267360035725043 -0.2765640044562764
-0.5516422292962204 -0.30319842576584294
-0.5516422292962204 -0.3431500577301928
-0.5808245250089344 -0.4230533216588926
-0.6391891164343624 -0.5029565855875923
-0.6975537078597903 -0.5429082175519422
-0.6391891164343624 -0.5429082175519422
-0.5224599335835065 -0.5162737962423756
-0.5808245250089344 -0.5295910068971589
-0.6100068207216484 -0.5295910068971589
-0.5516422292962204 -0.5429082175519422
-0.5516422292962204 -0.5429082175519422
-0.4640953421580785 -0.5429082175519422
-0.4057307507326505 -0.5562254282067255
-0.3473661593072226 -0.6228114814806419
-0.5224599335835065 -0.6627631134449918
-0.5516422292962204 -0.6627631134449918
-0.5516422292962204 -0.6627631134449918
-0.4057307507326505 -0.6094942708258586
-0.4057307507326505 -0.5562254282067255
-0.37654845501993656 -0.5695426388615088
-0.3181838635945086 -0.6094942708258586
-0.37654845501993656 -0.6893975347545583
-0.37654845501993656 -0.6627631134449918
-0.25981927216908063 -0.6627631134449918
-0.2014546807436527 -0.6228114814806419
-0.2014546807436527 -0.6627631134449918
-0.23063697645636666 -0.716031956064125
-0.37654845501993656 -0.7693007986832581
-0.4057307507326505 -0.7693007986832581
-0.37654845501993656 -0.716031956064125
-0.23063697645636666 -0.6361286921354252
-0.25981927216908063 -0.6361286921354252
-0.2890015678817946 -0.6893975347545583
-0.2890015678817946 -0.7293491667189083
-0.4057307507326505 -0.716031956064125
-0.3473661593072226 -0.7426663773736916
-0.2890015678817946 -0.7693007986832581
-0.37654845501993656 -0.676080324099775
-0.3181838635945086 -0.7027147454093416
-0.37654845501993656 -0.7426663773736916
-0.37654845501993656 -0.809252430647608
-0.25981927216908063 -0.8625212732667411
-0.1722723850309387 -0.8358868519571746
-0.2014546807436527 -0.7959352199928247
-0.2890015678817946 -0.7959352199928247
-0.3181838635945086 -0.8358868519571746
-0.2890015678817946 -0.8758384839215244
-0.2014546807436527 -0.8492040626119579
-0.14309008931822473 -0.8358868519571746
-0.14309008931822473 -0.7826180093380414
-0.2014546807436527 -0.8358868519571746
-0.23063697645636666 -0.8225696413023913
-0.25981927216908063 -0.8492040626119579
-0.11390779360551075 -0.809252430647608
0.03200368495805914 -0.7693007986832581
0.03200368495805914 -0.809252430647608
0.061185980670773125 -0.8225696413023913
-0.11390779360551075 -0.8758384839215244
-0.05554320218008279 -0.8891556945763077
0.0903682763834871 -0.8492040626119579
0.17791516352162903 -0.8225696413023913
0.14873286780891506 -0.809252430647608
0.17791516352162903 -0.8625212732667411
0.03200368495805914 -0.902472905231091
0.03200368495805914 -0.9557417478502241
0.11955057209620108 -0.9291073265406576
0.29464434637248493 -0.8758384839215244
0.236279754947057 -0.8891556945763077
0.11955057209620108 -0.9157901158858743
0.17791516352162903 -0.9291073265406576
0.236279754947057 -0.902472905231091
0.41137352922334086 -0.8758384839215244
0.46973812064876885 -0.7959352199928247
0.5281027120741968 -0.7559835880284749
0.5281027120741968 -0.7426663773736916
0.5572850077869108 -0.6893975347545583
0.6740141906377667 -0.6627631134449918
0.7907433734886226 -0.5828598495162921
0.8491079649140506 -0.4763221642780257
0.9074725563394785 -0.38310168969454267
0.9658371477649065 -0.28988121511105963
1.0242017391903344 -0.17002631921801004
1.1409309220411903 -0.10344026594409358
1.1701132177539044 -0.010219791360610552
1.1701132177539044 0.056366261913305904
1.2576601048920462 0.09631789387765577
1.1117486263284764 0.13626952584200563
0.9950194434776205 0.0696834725680892
1.0533840349030483 -0.010219791360610552
0.9658371477649065 0.01641462994895603
0.9366548520521925 0.10963510453243906
0.7907433734886226 0.12295231518722236
0.7907433734886226 0.056366261913305904
0.7323787820631946 0.003097419294172739
0.5864673034996247 -0.06348863397974372
0.44055582493605483 -0.03685421267017713
0.46973812064876885 0.01641462994895603
0.44055582493605483 0.01641462994895603
0.3530089377979129 0.01641462994895603
0.29464434637248493 0.01641462994895603
0.17791516352162903 -0.010219791360610552
0.20709745923434303 -0.023537002015393844
0.236279754947057 -0.076805844634527
0.236279754947057 -0.09012305528931029
0.061185980670773125 -0.14339189790844345
-0.05554320218008279 -0.14339189790844345
0.0028213892453451675 -0.13007468725366017
0.0028213892453451675 -0.10344026594409358
0.0028213892453451675 -0.11675747659887688
0.0028213892453451675 -0.15670910856322676
-0.02636090646736881 -0.18334352987279334
-0.14309008931822473 -0.18334352987279334
-0.08472549789279676 -0.14339189790844345
-0.11390779360551075 -0.09012305528931029
0.0028213892453451675 -0.10344026594409358
0.0028213892453451675 -0.17002631921801004
0.0028213892453451675 -0.18334352987279334
-0.08472549789279676 -0.2232951618371432
-0.11390779360551075 -0.18334352987279334
-0.08472549789279676 -0.09012305528931029
0.03200368495805914 -0.050171423324960426
0.0903682763834871 -0.06348863397974372
0.061185980670773125 -0.13007468725366017
-0.05554320218008279 -0.2366123724919265
-0.08472549789279676 -0.2765640044562764
-0.02636090646736881 -0.28988121511105963
0.0903682763834871 -0.2232951618371432
-0.08472549789279676 -0.18334352987279334
-0.11390779360551075 -0.2366123724919265
-0.11390779360551075 -0.2499295831467098
-0.05554320218008279 -0.2632467938014931
-0.05554320218008279 -0.2366123724919265
-0.08472549789279676 -0.2366123724919265
-0.05554320218008279 -0.2366123724919265
-0.05554320218008279 -0.2632467938014931
-0.14309008931822473 -0.2499295831467098
-0.23063697645636666 -0.2099779511823599
-0.14309008931822473 -0.2232951618371432
0.0028213892453451675 -0.2499295831467098
-0.08472549789279676 -0.31651563642062625
-0.05554320218008279 -0.32983284707540955
-0.11390779360551075 -0.3431500577301928
-0.11390779360551075 -0.2632467938014931
-0.02636090646736881 -0.2099779511823599
0.0903682763834871 -0.14339189790844345
0.0903682763834871 -0.2232951618371432
0.11955057209620108 -0.19666074052757662
0.0028213892453451675 -0.2232951618371432
0.03200368495805914 -0.2099779511823599
0.11955057209620108 -0.18334352987279334
0.14873286780891506 -0.17002631921801004
0.03200368495805914 -0.2632467938014931
0.03200368495805914 -0.32983284707540955
-0.05554320218008279 -0.3564672683849761
-0.11390779360551075 -0.30319842576584294
-0.11390779360551075 -0.2765640044562764
-0.02636090646736881 -0.2632467938014931
0.03200368495805914 -0.30319842576584294
-0.08472549789279676 -0.28988121511105963
-0.14309008931822473 -0.28988121511105963
-0.2014546807436527 -0.2765640044562764
-0.1722723850309387 -0.31651563642062625
-0.14309008931822473 -0.3564672683849761
-0.11390779360551075 -0.38310168969454267
-0.08472549789279676 -0.30319842576584294
-0.25981927216908063 -0.28988121511105963
-0.25981927216908063 -0.2765640044562764
-0.1722723850309387 -0.2632467938014931
-0.08472549789279676 -0.2632467938014931
-0.02636090646736881 -0.2632467938014931
-0.14309008931822473 -0.38310168969454267
-0.2890015678817946 -0.38310168969454267
-0.2890015678817946 -0.30319842576584294
-0.25981927216908063 -0.19666074052757662
-0.14309008931822473 -0.2099779511823599
-0.14309008931822473 -0.2499295831467098
-0.2014546807436527 -0.3431500577301928
-0.2014546807436527 -0.4230533216588926
-0.2890015678817946 -0.38310168969454267
-0.3181838635945086 -0.30319842576584294
-0.2014546807436527 -0.2366123724919265
-0.2014546807436527 -0.31651563642062625
-0.2014546807436527 -0.38310168969454267
-0.4057307507326505 -0.4230533216588926
-0.4057307507326505 -0.3697844790397594
-0.3181838635945086 -0.28988121511105963
-0.3473661593072226 -0.28988121511105963
-0.2014546807436527 -0.31651563642062625
-0.3181838635945086 -0.3697844790397594
-0.4057307507326505 -0.4097361110041093
-0.4349130464453645 -0.3697844790397594
-0.37654845501993656 -0.31651563642062625
-0.2014546807436527 -0.2765640044562764
-0.23063697645636666 -0.2366123724919265
-0.3181838635945086 -0.2499295831467098
-0.4640953421580785 -0.2632467938014931
-0.4349130464453645 -0.28988121511105963
-0.3473661593072226 -0.2632467938014931
-0.2014546807436527 -0.2632467938014931
-0.14309008931822473 -0.2632467938014931
-0.2014546807436527 -0.2765640044562764
-0.2890015678817946 -0.3564672683849761
-0.23063697645636666 -0.396418900349326
-0.25981927216908063 -0.3697844790397594
-0.1722723850309387 -0.31651563642062625
-0.2014546807436527 -0.31651563642062625
-0.2890015678817946 -0.38310168969454267
-0.37654845501993656 -0.43637053231367584
-0.3473661593072226 -0.38310168969454267
-0.2890015678817946 -0.31651563642062625
-0.2014546807436527 -0.30319842576584294
-0.25981927216908063 -0.3564672683849761
-0.25981927216908063 -0.396418900349326
-0.3473661593072226 -0.396418900349326
-0.4349130464453645 -0.3564672683849761
-0.2890015678817946 -0.28988121511105963
-0.1722723850309387 -0.30319842576584294
-0.2014546807436527 -0.28988121511105963
-0.1722723850309387 -0.28988121511105963
-0.25981927216908063 -0.2765640044562764
-0.25981927216908063 -0.28988121511105963
-0.25981927216908063 -0.2499295831467098
-0.08472549789279676 -0.31651563642062625
-0.25981927216908063 -0.3564672683849761
-0.2890015678817946 -0.396418900349326
-0.3473661593072226 -0.3697844790397594
-0.37654845501993656 -0.30319842576584294
-0.3473661593072226 -0.2499295831467098
-0.25981927216908063 -0.2632467938014931
-0.1722723850309387 -0.30319842576584294
-0.2014546807436527 -0.3431500577301928
-0.23063697645636666 -0.3697844790397594
-0.23063697645636666 -0.30319842576584294
-0.1722723850309387 -0.31651563642062625
-0.05554320218008279 -0.30319842576584294
0.03200368495805914 -0.32983284707540955
-0.02636090646736881 -0.31651563642062625
-0.11390779360551075 -0.32983284707540955
-0.11390779360551075 -0.2499295831467098
0.03200368495805914 -0.19666074052757662
0.14873286780891506 -0.18334352987279334
0.14873286780891506 -0.19666074052757662
0.11955057209620108 -0.2099779511823599
0.0903682763834871 -0.19666074052757662
0.11955057209620108 -0.15670910856322676
0.20709745923434303 -0.09012305528931029
0.236279754947057 -0.06348863397974372
0.29464434637248493 -0.076805844634527
0.26546205065977097 -0.13007468725366017
0.14873286780891506 -0.2099779511823599
0.17791516352162903 -0.2499295831467098
0.236279754947057 -0.2232951618371432
0.20709745923434303 -0.2099779511823599
0.236279754947057 -0.2099779511823599
0.0903682763834871 -0.2099779511823599
-0.14309008931822473 -0.2366123724919265
-0.14309008931822473 -0.2632467938014931
-0.14309008931822473 -0.2499295831467098
-0.11390779360551075 -0.18334352987279334
-0.08472549789279676 -0.17002631921801004
-0.05554320218008279 -0.18334352987279334
-0.11390779360551075 -0.2232951618371432
-0.11390779360551075 -0.17002631921801004
-0.05554320218008279 -0.13007468725366017
0.061185980670773125 -0.11675747659887688
0.0903682763834871 -0.17002631921801004
0.03200368495805914 -0.14339189790844345
0.03200368495805914 -0.15670910856322676
0.0028213892453451675 -0.14339189790844345
0.0903682763834871 -0.19666074052757662
0.17791516352162903 -0.2499295831467098
0.14873286780891506 -0.32983284707540955
-0.05554320218008279 -0.3697844790397594
-0.25981927216908063 -0.3697844790397594
-0.3181838635945086 -0.32983284707540955
-0.3181838635945086 -0.31651563642062625
-0.1722723850309387 -0.30319842576584294
-0.1722723850309387 -0.2765640044562764
-0.2014546807436527 -0.2765640044562764
-0.2890015678817946 -0.2765640044562764
-0.3181838635945086 -0.2366123724919265
-0.25981927216908063 -0.2765640044562764
-0.08472549789279676 -0.31651563642062625
-0.11390779360551075 -0.3564672683849761
-0.23063697645636666 -0.3431500577301928
-0.37654845501993656 -0.38310168969454267
-0.4349130464453645 -0.3697844790397594
-0.2890015678817946 -0.3697844790397594
-0.2014546807436527 -0.31651563642062625
-0.2890015678817946 -0.31651563642062625
-0.2890015678817946 -0.30319842576584294
-0.37654845501993656 -0.30319842576584294
-0.3181838635945086 -0.2499295831467098
-0.25981927216908063 -0.2099779511823599
-0.25981927216908063 -0.2232951618371432
-0.25981927216908063 -0.3431500577301928
-0.25981927216908063 -0.396418900349326
-0.3181838635945086 -0.46300495362324245
-0.3473661593072226 -0.396418900349326
-0.3181838635945086 -0.28988121511105963
-0.25981927216908063 -0.2232951618371432
-0.25981927216908063 -0.2366123724919265
-0.23063697645636666 -0.2232951618371432
-0.23063697645636666 -0.2499295831467098
-0.25981927216908063 -0.2366123724919265
-0.23063697645636666 -0.19666074052757662
-0.08472549789279676 -0.11675747659887688
-0.05554320218008279 -0.050171423324960426
0.0028213892453451675 -0.010219791360610552
-0.02636090646736881 0.04304905125852261
0.11955057209620108 0.17622115780635553
0.3530089377979129 0.41593094959245475
0.6156495992123387 0.6689579520333373
0.8782902606267645 0.9086677438194365
1.0242017391903344 1.161694746260319
0.9658371477649065 1.5478938552490344
0.8199256692013366 2.0406306494760162
0.9366548520521925 2.520050233048215
1.2576601048920462 2.98615260596563
1.549483062019186 3.4788894001926116
1.695394540582756 3.87840571983611
1.4911184705937581 4.291239250134392
1.3743892877429023 4.7440244123970245
1.43275387916833 5.196809574659656
1.666212244870042 5.702863579541421
1.9288529062844677 6.049111056565787
2.5708634119641753 6.155648741804053
3.183691621931169 6.009159424601437
3.8548844233235906 5.622960315612722
4.2926188590143 4.837244886980507
4.2926188590143 3.6120615067404445
3.7089729447600206 2.3735609158455984
2.103946680560752 1.4546733806655514
0.29464434637248493 0.8553989012003034
-1.222835030688642 0.4558825815568046
-2.0399393106446335 0.22949000042548867
-2.0691216063573474 0.0696834725680892
-1.9232101277937774 -0.06348863397974372
-1.7481163535174935 -0.17002631921801004
-1.4562933963903537 -0.2366123724919265
-1.076923552125072 -0.2366123724919265
-0.6683714121470764 -0.2632467938014931
-0.25981927216908063 -0.3431500577301928
-0.1722723850309387 -0.46300495362324245
-0.2014546807436527 -0.5295910068971589
-0.25981927216908063 -0.5562254282067255
-0.2890015678817946 -0.5695426388615088
-0.2014546807436527 -0.6228114814806419
-0.14309008931822473 -0.6627631134449918
-0.11390779360551075 -0.6494459027902085
-0.1722723850309387 -0.676080324099775
-0.25981927216908063 -0.6494459027902085
-0.25981927216908063 -0.6627631134449918
-0.14309008931822473 -0.676080324099775
0.03200368495805914 -0.6893975347545583
0.0028213892453451675 -0.716031956064125
0.03200368495805914 -0.716031956064125
-0.05554320218008279 -0.716031956064125
0.0028213892453451675 -0.7559835880284749
0.061185980670773125 -0.7293491667189083
0.20709745923434303 -0.7027147454093416
0.17791516352162903 -0.7426663773736916
0.061185980670773125 -0.7959352199928247
-0.02636090646736881 -0.8358868519571746
-0.08472549789279676 -0.8225696413023913
-0.02636090646736881 -0.7959352199928247
0.14873286780891506 -0.7693007986832581
0.11955057209620108 -0.7826180093380414
0.03200368495805914 -0.8225696413023913
-0.02636090646736881 -0.8492040626119579
0.03200368495805914 -0.7559835880284749
0.11955057209620108 -0.7559835880284749
0.26546205065977097 -0.7426663773736916
0.20709745923434303 -0.8358868519571746
0.17791516352162903 -0.8891556945763077
-0.02636090646736881 -0.902472905231091
0.0903682763834871 -0.8891556945763077
0.17791516352162903 -0.8225696413023913
0.236279754947057 -0.8225696413023913
0.236279754947057 -0.809252430647608
0.17791516352162903 -0.8625212732667411
0.20709745923434303 -0.902472905231091
0.32382664208519896 -0.9291073265406576
0.29464434637248493 -0.8758384839215244
0.3530089377979129 -0.8758384839215244
0.29464434637248493 -0.8891556945763077
0.20709745923434303 -0.9823761691597908
0.14873286780891506 -1.035645011778924
0.20709745923434303 -1.0489622224337072
0.17791516352162903 -0.9823761691597908
0.29464434637248493 -0.942424537195441
0.32382664208519896 -0.9291073265406576
0.20709745923434303 -0.9690589585050075
0.236279754947057 -0.9823761691597908
0.20709745923434303 -0.9557417478502241
0.32382664208519896 -0.9557417478502241
0.3530089377979129 -0.9956933798145741
0.3530089377979129 -0.9956933798145741
0.236279754947057 -1.0090105904693574
0.236279754947057 -0.9690589585050075
0.26546205065977097 -0.9823761691597908
0.3530089377979129 -0.942424537195441
0.5281027120741968 -0.942424537195441
0.46973812064876885 -0.9690589585050075
0.4989204163614828 -1.0489622224337072
0.41137352922334086 -1.0223278011241406
0.3530089377979129 -1.0090105904693574
0.4989204163614828 -0.9823761691597908
0.6156495992123387 -0.9956933798145741
0.5864673034996247 -0.9956933798145741
0.5864673034996247 -1.0090105904693574
0.46973812064876885 -0.9690589585050075
0.5281027120741968 -0.942424537195441
0.7615610777759086 -0.8758384839215244
0.8199256692013366 -0.7959352199928247
0.9366548520521925 -0.7426663773736916
0.8782902606267645 -0.7826180093380414
0.8491079649140506 -0.7959352199928247
0.9366548520521925 -0.8492040626119579
1.0242017391903344 -0.8358868519571746
1.1117486263284764 -0.7293491667189083
1.1701132177539044 -0.6228114814806419
1.1701132177539044 -0.5695426388615088
1.1409309220411903 -0.5828598495162921
1.1992955134666183 -0.5162737962423756
1.3452069920301881 -0.46300495362324245
1.520300766306472 -0.3431500577301928
1.5786653577319 -0.2765640044562764
1.5786653577319 -0.2099779511823599
1.520300766306472 -0.14339189790844345
1.5786653577319 -0.06348863397974372
1.7245768362954699 0.056366261913305904
1.8413060191463257 0.0696834725680892
1.8413060191463257 0.09631789387765577
1.8121237234336118 0.13626952584200563
1.666212244870042 0.14958673649678894
1.753759132008184 0.20285557911592209
1.7245768362954699 0.20285557911592209
1.7245768362954699 0.20285557911592209
1.637029949157328 0.1895383684611388
1.4911184705937581 0.13626952584200563
1.2284778091793322 0.16290394715157222
1.2576601048920462 0.16290394715157222
1.2284778091793322 0.16290394715157222
1.1701132177539044 0.17622115780635553
1.0533840349030483 0.13626952584200563
1.0242017391903344 0.04304905125852261
0.7907433734886226 -0.06348863397974372
0.6448318949250527 -0.010219791360610552
0.6448318949250527 0.003097419294172739
0.6156495992123387 0.01641462994895603
0.6448318949250527 0.003097419294172739
0.46973812064876885 -0.050171423324960426
0.44055582493605483 -0.076805844634527
0.41137352922334086 -0.03685421267017713
0.3821912335106269 -0.010219791360610552
0.4989204163614828 -0.023537002015393844
0.4989204163614828 -0.06348863397974372
0.26546205065977097 -0.10344026594409358
0.20709745923434303 -0.14339189790844345
0.17791516352162903 -0.15670910856322676
0.29464434637248493 -0.14339189790844345
0.32382664208519896 -0.09012305528931029
0.29464434637248493 -0.06348863397974372
0.17791516352162903 -0.09012305528931029
0.11955057209620108 -0.09012305528931029
0.03200368495805914 -0.14339189790844345
0.14873286780891506 -0.10344026594409358
0.26546205065977097 -0.11675747659887688
0.11955057209620108 -0.15670910856322676
0.0903682763834871 -0.14339189790844345
0.03200368495805914 -0.18334352987279334
-0.05554320218008279 -0.15670910856322676
0.061185980670773125 -0.10344026594409358
0.17791516352162903 -0.14339189790844345
0.11955057209620108 -0.14339189790844345
0.0028213892453451675 -0.18334352987279334
0.03200368495805914 -0.19666074052757662
0.061185980670773125 -0.18334352987279334
0.0903682763834871 -0.13007468725366017
0.11955057209620108 -0.10344026594409358
0.061185980670773125 -0.19666074052757662
0.061185980670773125 -0.2499295831467098
-0.05554320218008279 -0.2765640044562764
-0.11390779360551075 -0.2232951618371432
0.0028213892453451675 -0.19666074052757662
0.061185980670773125 -0.19666074052757662
0.14873286780891506 -0.19666074052757662
0.0028213892453451675 -0.2499295831467098
-0.02636090646736881 -0.2366123724919265
-0.02636090646736881 -0.2232951618371432
0.03200368495805914 -0.2366123724919265
0.0903682763834871 -0.2232951618371432
0.11955057209620108 -0.2499295831467098
-0.05554320218008279 -0.28988121511105963
-0.2014546807436527 -0.2632467938014931
-0.2014546807436527 -0.2499295831467098
-0.05554320218008279 -0.2499295831467098
0.03200368495805914 -0.2765640044562764
0.03200368495805914 -0.2765640044562764
-0.08472549789279676 -0.2765640044562764
-0.11390779360551075 -0.2765640044562764
-0.23063697645636666 -0.2765640044562764
-0.08472549789279676 -0.2499295831467098
0.061185980670773125 -0.2366123724919265
0.03200368495805914 -0.2232951618371432
-0.08472549789279676 -0.19666074052757662
-0.11390779360551075 -0.18334352987279334
-0.08472549789279676 -0.17002631921801004
0.03200368495805914 -0.17002631921801004
0.0903682763834871 -0.19666074052757662
-0.02636090646736881 -0.2765640044562764
0.061185980670773125 -0.31651563642062625
-0.05554320218008279 -0.30319842576584294
-0.11390779360551075 -0.2232951618371432
0.03200368495805914 -0.18334352987279334
0.0903682763834871 -0.18334352987279334
0.0903682763834871 -0.19666074052757662
0.03200368495805914 -0.2366123724919265
-0.05554320218008279 -0.2499295831467098
-0.08472549789279676 -0.2499295831467098
0.0903682763834871 -0.2099779511823599
0.11955057209620108 -0.2366123724919265
0.14873286780891506 -0.2499295831467098
0.03200368495805914 -0.2632467938014931
-0.11390779360551075 -0.2632467938014931
-0.11390779360551075 -0.2232951618371432
-0.02636090646736881 -0.2232951618371432
-0.02636090646736881 -0.17002631921801004
-0.02636090646736881 -0.18334352987279334
-0.14309008931822473 -0.2632467938014931
-0.1722723850309387 -0.2765640044562764
-0.2014546807436527 -0.2232951618371432
-0.02636090646736881 -0.19666074052757662
-0.05554320218008279 -0.18334352987279334
-0.02636090646736881 -0.2232951618371432
-0.08472549789279676 -0.28988121511105963
-0.14309008931822473 -0.2765640044562764
-0.23063697645636666 -0.2366123724919265
-0.2014546807436527 -0.19666074052757662
-0.14309008931822473 -0.18334352987279334
-0.14309008931822473 -0.18334352987279334
-0.25981927216908063 -0.2232951618371432
-0.23063697645636666 -0.19666074052757662
-0.2890015678817946 -0.14339189790844345
-0.25981927216908063 -0.11675747659887688
-0.05554320218008279 -0.13007468725366017
-0.08472549789279676 -0.18334352987279334
-0.05554320218008279 -0.28988121511105963
-0.25981927216908063 -0.30319842576584294
-0.2890015678817946 -0.2765640044562764
-0.2014546807436527 -0.2366123724919265
-0.1722723850309387 -0.18334352987279334
-0.2890015678817946 -0.2232951618371432
-0.37654845501993656 -0.2765640044562764
-0.4349130464453645 -0.2499295831467098
-0.4057307507326505 -0.30319842576584294
-0.3181838635945086 -0.2632467938014931
-0.2014546807436527 -0.2232951618371432
-0.25981927216908063 -0.2232951618371432
-0.3181838635945086 -0.2232951618371432
-0.3473661593072226 -0.2232951618371432
-0.3473661593072226 -0.2366123724919265
-0.2890015678817946 -0.2765640044562764
-0.2014546807436527 -0.28988121511105963
-0.25981927216908063 -0.30319842576584294
-0.3473661593072226 -0.30319842576584294
-0.3473661593072226 -0.30319842576584294
-0.4057307507326505 -0.2499295831467098
-0.3181838635945086 -0.18334352987279334
-0.23063697645636666 -0.18334352987279334
-0.25981927216908063 -0.19666074052757662
-0.25981927216908063 -0.28988121511105963
-0.4057307507326505 -0.2632467938014931
-0.4349130464453645 -0.2366123724919265
-0.3473661593072226 -0.2366123724919265
-0.23063697645636666 -0.19666074052757662
-0.25981927216908063 -0.2099779511823599
-0.3473661593072226 -0.2499295831467098
-0.4640953421580785 -0.2366123724919265
-0.4349130464453645 -0.2232951618371432
-0.3473661593072226 -0.18334352987279334
-0.2890015678817946 -0.2232951618371432
-0.25981927216908063 -0.2765640044562764
-0.37654845501993656 -0.28988121511105963
-0.4349130464453645 -0.2632467938014931
-0.4932776378707925 -0.18334352987279334
-0.37654845501993656 -0.14339189790844345
-0.3181838635945086 -0.18334352987279334
-0.25981927216908063 -0.2499295831467098
-0.3181838635945086 -0.2765640044562764
-0.2890015678817946 -0.2765640044562764
-0.3181838635945086 -0.2499295831467098
-0.23063697645636666 -0.19666074052757662
-0.14309008931822473 -0.19666074052757662
-0.11390779360551075 -0.18334352987279334
-0.02636090646736881 -0.2366123724919265
-0.02636090646736881 -0.2366123724919265
-0.05554320218008279 -0.2099779511823599
-0.05554320218008279 -0.11675747659887688
-0.05554320218008279 -0.14339189790844345
-0.05554320218008279 -0.11675747659887688
-0.05554320218008279 -0.13007468725366017
-0.02636090646736881 -0.13007468725366017
-0.02636090646736881 -0.076805844634527
-0.02636090646736881 0.003097419294172739
0.03200368495805914 0.01641462994895603
0.061185980670773125 -0.03685421267017713
0.0028213892453451675 -0.10344026594409358
-0.02636090646736881 -0.14339189790844345
-0.14309008931822473 -0.09012305528931029
-0.11390779360551075 -0.10344026594409358
-0.1722723850309387 -0.076805844634527
-0.1722723850309387 -0.09012305528931029
-0.2014546807436527 -0.10344026594409358
-0.25981927216908063 -0.11675747659887688
-0.3181838635945086 -0.10344026594409358
-0.2014546807436527 -0.09012305528931029
-0.1722723850309387 -0.06348863397974372
-0.23063697645636666 -0.076805844634527
-0.2890015678817946 -0.13007468725366017
-0.25981927216908063 -0.11675747659887688
-0.25981927216908063 -0.06348863397974372
-0.08472549789279676 -0.076805844634527
0.061185980670773125 -0.06348863397974372
0.061185980670773125 -0.14339189790844345
-0.05554320218008279 -0.2099779511823599
-0.2014546807436527 -0.2099779511823599
-0.2014546807436527 -0.19666074052757662
-0.25981927216908063 -0.17002631921801004
-0.25981927216908063 -0.2232951618371432
-0.3181838635945086 -0.2499295831467098
-0.4640953421580785 -0.2632467938014931
-0.5224599335835065 -0.2499295831467098
-0.5516422292962204 -0.2232951618371432
-0.4932776378707925 -0.2232951618371432
-0.5224599335835065 -0.2232951618371432
-0.37654845501993656 -0.19666074052757662
-0.4932776378707925 -0.2366123724919265
-0.5808245250089344 -0.2632467938014931
-0.6100068207216484 -0.2366123724919265
-0.4932776378707925 -0.2232951618371432
-0.4057307507326505 -0.19666074052757662
-0.4349130464453645 -0.2366123724919265
-0.4640953421580785 -0.2499295831467098
-0.5808245250089344 -0.2632467938014931
-0.6391891164343624 -0.2499295831467098
-0.4932776378707925 -0.2232951618371432
-0.4349130464453645 -0.2099779511823599
-0.37654845501993656 -0.2366123724919265
-0.5224599335835065 -0.2632467938014931
-0.5516422292962204 -0.2632467938014931
-0.5808245250089344 -0.2632467938014931
-0.5516422292962204 -0.2366123724919265
-0.4932776378707925 -0.19666074052757662
-0.4349130464453645 -0.2499295831467098
-0.5516422292962204 -0.2632467938014931
-0.6391891164343624 -0.2499295831467098
-0.6391891164343624 -0.18334352987279334
-0.5808245250089344 -0.11675747659887688
-0.4349130464453645 -0.13007468725366017
-0.4057307507326505 -0.09012305528931029
-0.4932776378707925 -0.076805844634527
-0.5224599335835065 -0.023537002015393844
-0.3181838635945086 0.056366261913305904
-0.23063697645636666 0.13626952584200563
0.061185980670773125 0.26944163238983854
0.11955057209620108 0.4425653709020213
0.26546205065977097 0.655640741378554
0.46973812064876885 0.8953505331646532
0.7323787820631946 1.161694746260319
0.9658371477649065 1.4679905913203346
0.8782902606267645 1.8808241216186168
0.8199256692013366 2.3336092838812488
0.7615610777759086 2.7863944461438805
0.9366548520521925 3.225862397751729
1.1992955134666183 3.7052819813239277
1.3160246963174742 4.131432722276993
1.1992955134666183 4.490997409956142
1.1992955134666183 4.863879308290074
1.1701132177539044 5.303347259897922
1.2576601048920462 5.742815211505771
1.520300766306472 6.02247663525622
2.2498581591243214 6.089062688530136
3.096144734793027 5.7561324221605545
3.6506083533345928 5.063637468111823
3.7673375361854484 3.8517712985265438
3.2420562133565967 2.5733190756673476
2.0455820891353236 1.6011626978681677
0.4989204163614828 0.9885710077481362
-1.106105847837786 0.6023718987594208
-2.156668493495489 0.24280721108027198
-2.623585224898913 0.01641462994895603
-2.623585224898913 -0.06348863397974372
-2.390126859197201 -0.11675747659887688
-2.0107570149319196 -0.13007468725366017
-1.5146579878157818 -0.17002631921801004
-1.0185589606996441 -0.2366123724919265
-0.7559182992852183 -0.31651563642062625
-0.6683714121470764 -0.4230533216588926
-0.5808245250089344 -0.4097361110041093
-0.4057307507326505 -0.4230533216588926
-0.3181838635945086 -0.46300495362324245
-0.3181838635945086 -0.5029565855875923
-0.37654845501993656 -0.5295910068971589
-0.4932776378707925 -0.5828598495162921
-0.4349130464453645 -0.5295910068971589
-0.4932776378707925 -0.5295910068971589
-0.2014546807436527 -0.5162737962423756
-0.23063697645636666 -0.5695426388615088
-0.2014546807436527 -0.6094942708258586
-0.2890015678817946 -0.6361286921354252
-0.3473661593072226 -0.6094942708258586
-0.25981927216908063 -0.5961770601710753
-0.14309008931822473 -0.5961770601710753
-0.08472549789279676 -0.5828598495162921
-0.14309008931822473 -0.6361286921354252
-0.2014546807436527 -0.676080324099775
-0.1722723850309387 -0.716031956064125
-0.05554320218008279 -0.7027147454093416
-0.02636090646736881 -0.716031956064125
-0.05554320218008279 -0.809252430647608
-0.1722723850309387 -0.809252430647608
-0.25981927216908063 -0.7959352199928247
-0.25981927216908063 -0.7959352199928247
-0.14309008931822473 -0.7293491667189083
-0.11390779360551075 -0.7293491667189083
-0.1722723850309387 -0.7959352199928247
-0.25981927216908063 -0.8492040626119579
-0.25981927216908063 -0.8492040626119579
-0.1722723850309387 -0.809252430647608
-0.14309008931822473 -0.7826180093380414
-0.05554320218008279 -0.7959352199928247
-0.11390779360551075 -0.8492040626119579
-0.23063697645636666 -0.902472905231091
-0.2014546807436527 -0.9157901158858743
-0.14309008931822473 -0.8758384839215244
-0.05554320218008279 -0.8492040626119579
0.03200368495805914 -0.8358868519571746
0.0028213892453451675 -0.8225696413023913
-0.05554320218008279 -0.902472905231091
-0.08472549789279676 -0.902472905231091
-0.05554320218008279 -0.902472905231091
0.061185980670773125 -0.8358868519571746
0.14873286780891506 -0.8358868519571746
0.03200368495805914 -0.8891556945763077
0.0028213892453451675 -0.9823761691597908
-0.02636090646736881 -0.942424537195441
0.0028213892453451675 -0.9157901158858743
0.0903682763834871 -0.902472905231091
0.17791516352162903 -0.902472905231091
0.0903682763834871 -0.902472905231091
0.0903682763834871 -0.942424537195441
0.0028213892453451675 -0.9157901158858743
0.061185980670773125 -0.902472905231091
0.11955057209620108 -0.8758384839215244
0.20709745923434303 -0.8625212732667411
0.17791516352162903 -0.902472905231091
0.11955057209620108 -0.9557417478502241
0.11955057209620108 -0.9557417478502241
0.14873286780891506 -0.9557417478502241
0.20709745923434303 -0.942424537195441
0.236279754947057 -0.902472905231091
0.17791516352162903 -0.9157901158858743
0.236279754947057 -0.9690589585050075
0.20709745923434303 -0.9956933798145741
0.26546205065977097 -0.942424537195441
0.29464434637248493 -0.8891556945763077
0.46973812064876885 -0.902472905231091
0.4989204163614828 -0.902472905231091
0.44055582493605483 -0.9557417478502241
0.44055582493605483 -0.9823761691597908
0.46973812064876885 -0.8758384839215244
0.5281027120741968 -0.8225696413023913
0.6448318949250527 -0.8225696413023913
0.7323787820631946 -0.8625212732667411
0.7323787820631946 -0.8358868519571746
0.6448318949250527 -0.8358868519571746
0.7323787820631946 -0.7426663773736916
0.8491079649140506 -0.6893975347545583
0.9366548520521925 -0.6494459027902085
0.9366548520521925 -0.6627631134449918
0.9658371477649065 -0.6627631134449918
0.9658371477649065 -0.6228114814806419
1.0242017391903344 -0.5162737962423756
1.1992955134666183 -0.43637053231367584
1.2868424006047603 -0.38310168969454267
1.3743892877429023 -0.3431500577301928
1.3452069920301881 -0.30319842576584294
1.3743892877429023 -0.2232951618371432
1.3743892877429023 -0.13007468725366017
1.5786653577319 -0.06348863397974372
1.666212244870042 0.01641462994895603
1.7245768362954699 0.04304905125852261
1.637029949157328 0.04304905125852261
1.520300766306472 0.08300068322287249
1.549483062019186 0.14958673649678894
1.637029949157328 0.16290394715157222
1.7245768362954699 0.20285557911592209
1.666212244870042 0.17622115780635553
1.4619361748810442 0.16290394715157222
1.3452069920301881 0.17622115780635553
1.1992955134666183 0.20285557911592209
1.2576601048920462 0.24280721108027198
1.2284778091793322 0.24280721108027198
1.1409309220411903 0.1895383684611388
0.9366548520521925 0.08300068322287249
0.8199256692013366 0.0696834725680892
0.7323787820631946 0.056366261913305904
0.7031964863504807 0.056366261913305904
0.7615610777759086 0.003097419294172739
0.4989204163614828 0.003097419294172739
0.46973812064876885 -0.050171423324960426
0.32382664208519896 -0.03685421267017713
0.26546205065977097 -0.09012305528931029
0.26546205065977097 -0.050171423324960426
0.32382664208519896 -0.076805844634527
0.26546205065977097 -0.10344026594409358
0.11955057209620108 -0.14339189790844345
0.0028213892453451675 -0.13007468725366017
0.0028213892453451675 -0.10344026594409358
0.0903682763834871 -0.076805844634527
0.14873286780891506 -0.09012305528931029
0.11955057209620108 -0.10344026594409358
0.0028213892453451675 -0.17002631921801004
-0.1722723850309387 -0.19666074052757662
-0.11390779360551075 -0.15670910856322676
0.03200368495805914 -0.13007468725366017
0.11955057209620108 -0.14339189790844345
0.061185980670773125 -0.15670910856322676
-0.05554320218008279 -0.19666074052757662
-0.1722723850309387 -0.18334352987279334
-0.11390779360551075 -0.11675747659887688
-0.14309008931822473 -0.076805844634527
-0.05554320218008279 -0.076805844634527
-0.05554320218008279 -0.13007468725366017
-0.25981927216908063 -0.18334352987279334
-0.23063697645636666 -0.15670910856322676
-0.3473661593072226 -0.19666074052757662
-0.25981927216908063 -0.14339189790844345
-0.1722723850309387 -0.18334352987279334
-0.2014546807436527 -0.2232951618371432
-0.3181838635945086 -0.2765640044562764
-0.37654845501993656 -0.28988121511105963
-0.3473661593072226 -0.2765640044562764
-0.25981927216908063 -0.2366123724919265
-0.2014546807436527 -0.19666074052757662
-0.3181838635945086 -0.2366123724919265
-0.2890015678817946 -0.2632467938014931
-0.37654845501993656 -0.2632467938014931
-0.3473661593072226 -0.2632467938014931
-0.3181838635945086 -0.2632467938014931
-0.2014546807436527 -0.2632467938014931
-0.25981927216908063 -0.2499295831467098
-0.3473661593072226 -0.30319842576584294
-0.4057307507326505 -0.30319842576584294
-0.4640953421580785 -0.28988121511105963
-0.25981927216908063 -0.2366123724919265
-0.3181838635945086 -0.2632467938014931
-0.23063697645636666 -0.2765640044562764
-0.3181838635945086 -0.28988121511105963
-0.3473661593072226 -0.30319842576584294
-0.3473661593072226 -0.32983284707540955
-0.3473661593072226 -0.2499295831467098
-0.25981927216908063 -0.2632467938014931
-0.3181838635945086 -0.28988121511105963
-0.37654845501993656 -0.32983284707540955
-0.4057307507326505 -0.30319842576584294
-0.37654845501993656 -0.2499295831467098
-0.37654845501993656 -0.19666074052757662
-0.2890015678817946 -0.2099779511823599
-0.23063697645636666 -0.2099779511823599
-0.2890015678817946 -0.2632467938014931
-0.4349130464453645 -0.2765640044562764
-0.3473661593072226 -0.2232951618371432
-0.2890015678817946 -0.2366123724919265
-0.14309008931822473 -0.2366123724919265
-0.1722723850309387 -0.28988121511105963
-0.3181838635945086 -0.3564672683849761
-0.3181838635945086 -0.3697844790397594
-0.3181838635945086 -0.2765640044562764
-0.25981927216908063 -0.2232951618371432
-0.25981927216908063 -0.2232951618371432
-0.23063697645636666 -0.2232951618371432
-0.3181838635945086 -0.2632467938014931
-0.3473661593072226 -0.2632467938014931
-0.3181838635945086 -0.19666074052757662
-0.2014546807436527 -0.17002631921801004
-0.11390779360551075 -0.19666074052757662
-0.2014546807436527 -0.2499295831467098
-0.3473661593072226 -0.30319842576584294
-0.4349130464453645 -0.31651563642062625
-0.4932776378707925 -0.2765640044562764
-0.4057307507326505 -0.2232951618371432
-0.3473661593072226 -0.2232951618371432
-0.4349130464453645 -0.2232951618371432
-0.4640953421580785 -0.28988121511105963
-0.5808245250089344 -0.2765640044562764
-0.4057307507326505 -0.2632467938014931
-0.3181838635945086 -0.2099779511823599
-0.3181838635945086 -0.2499295831467098
-0.2890015678817946 -0.28988121511105963
-0.4057307507326505 -0.30319842576584294
-0.4640953421580785 -0.30319842576584294
-0.4932776378707925 -0.28988121511105963
-0.4057307507326505 -0.2366123724919265
-0.3181838635945086 -0.2499295831467098
-0.23063697645636666 -0.2499295831467098
-0.3473661593072226 -0.32983284707540955
-0.4640953421580785 -0.2765640044562764
-0.4640953421580785 -0.2366123724919265
-0.4057307507326505 -0.2232951618371432
-0.3181838635945086 -0.2099779511823599
-0.3473661593072226 -0.2099779511823599
-0.4349130464453645 -0.28988121511105963
-0.4932776378707925 -0.2632467938014931
-0.4640953421580785 -0.2632467938014931
-0.4932776378707925 -0.19666074052757662
-0.4349130464453645 -0.18334352987279334
-0.4640953421580785 -0.2632467938014931
-0.4057307507326505 -0.31651563642062625
-0.5516422292962204 -0.31651563642062625
-0.5808245250089344 -0.2765640044562764
-0.5224599335835065 -0.2099779511823599
-0.5224599335835065 -0.18334352987279334
-0.5516422292962204 -0.15670910856322676
-0.5808245250089344 -0.2232951618371432
-0.6100068207216484 -0.2765640044562764
-0.6683714121470764 -0.32983284707540955
-0.5516422292962204 -0.2632467938014931
-0.6100068207216484 -0.2499295831467098
-0.6100068207216484 -0.2499295831467098
-0.5224599335835065 -0.2499295831467098
-0.6683714121470764 -0.2765640044562764
-0.5808245250089344 -0.28988121511105963
-0.4932776378707925 -0.2499295831467098
-0.5516422292962204 -0.2632467938014931
-0.4932776378707925 -0.28988121511105963
-0.5808245250089344 -0.31651563642062625
-0.6100068207216484 -0.30319842576584294
-0.6683714121470764 -0.2499295831467098
-0.6100068207216484 -0.2232951618371432
-0.5224599335835065 -0.2499295831467098
-0.4349130464453645 -0.30319842576584294
-0.5516422292962204 -0.31651563642062625
-0.5808245250089344 -0.32983284707540955
-0.6100068207216484 -0.2632467938014931
-0.5224599335835065 -0.17002631921801004
-0.4057307507326505 -0.17002631921801004
-0.4640953421580785 -0.18334352987279334
-0.5808245250089344 -0.2632467938014931
-0.6100068207216484 -0.28988121511105963
-0.6100068207216484 -0.2499295831467098
-0.5224599335835065 -0.2099779511823599
-0.4349130464453645 -0.19666074052757662
-0.4057307507326505 -0.2499295831467098
-0.5516422292962204 -0.2632467938014931
-0.6975537078597903 -0.2765640044562764
-0.6391891164343624 -0.2499295831467098
-0.4349130464453645 -0.2366123724919265
-0.4349130464453645 -0.2366123724919265
-0.4349130464453645 -0.28988121511105963
-0.4057307507326505 -0.28988121511105963
-0.5224599335835065 -0.2232951618371432
-0.4932776378707925 -0.15670910856322676
-0.37654845501993656 -0.14339189790844345
-0.1722723850309387 -0.13007468725366017
-0.14309008931822473 -0.11675747659887688
-0.2890015678817946 -0.15670910856322676
-0.2890015678817946 -0.17002631921801004
-0.2014546807436527 -0.11675747659887688
-0.11390779360551075 -0.06348863397974372
-0.02636090646736881 -0.03685421267017713
0.03200368495805914 -0.10344026594409358
0.0028213892453451675 -0.11675747659887688
-0.11390779360551075 -0.11675747659887688
-0.11390779360551075 -0.09012305528931029
-0.02636090646736881 -0.06348863397974372
0.061185980670773125 -0.076805844634527
-0.05554320218008279 -0.14339189790844345
-0.1722723850309387 -0.15670910856322676
-0.3181838635945086 -0.18334352987279334
-0.4057307507326505 -0.10344026594409358
-0.3181838635945086 -0.11675747659887688
-0.23063697645636666 -0.10344026594409358
-0.23063697645636666 -0.11675747659887688
-0.4057307507326505 -0.14339189790844345
-0.4349130464453645 -0.10344026594409358
-0.4349130464453645 -0.03685421267017713
-0.3473661593072226 0.01641462994895603
-0.1722723850309387 -0.050171423324960426
-0.23063697645636666 -0.076805844634527
-0.2014546807436527 -0.09012305528931029
-0.2890015678817946 -0.076805844634527
-0.2014546807436527 -0.06348863397974372
-0.02636090646736881 -0.06348863397974372
-0.08472549789279676 -0.10344026594409358
-0.11390779360551075 -0.2232951618371432
-0.23063697645636666 -0.2632467938014931
-0.4349130464453645 -0.2499295831467098
-0.4932776378707925 -0.19666074052757662
-0.5224599335835065 -0.14339189790844345
-0.4932776378707925 -0.19666074052757662
-0.4640953421580785 -0.2499295831467098
-0.6100068207216484 -0.28988121511105963
-0.6391891164343624 -0.2632467938014931
-0.5808245250089344 -0.2366123724919265
-0.4932776378707925 -0.2499295831467098
-0.5224599335835065 -0.28988121511105963
-0.5516422292962204 -0.31651563642062625
-0.7267360035725043 -0.31651563642062625
-0.7851005949979323 -0.31651563642062625
-0.6391891164343624 -0.28988121511105963
-0.5808245250089344 -0.2232951618371432
-0.5224599335835065 -0.2232951618371432
-0.5224599335835065 -0.2632467938014931
-0.5808245250089344 -0.30319842576584294
-0.6391891164343624 -0.2632467938014931
-0.6100068207216484 -0.2366123724919265
-0.5224599335835065 -0.2366123724919265
-0.4932776378707925 -0.2499295831467098
-0.5516422292962204 -0.2499295831467098
-0.5516422292962204 -0.28988121511105963
-0.6100068207216484 -0.30319842576584294
-0.5808245250089344 -0.2632467938014931
-0.5224599335835065 -0.2366123724919265
-0.4349130464453645 -0.2099779511823599
-0.4349130464453645 -0.2366123724919265
-0.5516422292962204 -0.2099779511823599
-0.4932776378707925 -0.18334352987279334
-0.4349130464453645 -0.13007468725366017
-0.37654845501993656 -0.050171423324960426
-0.3473661593072226 -0.023537002015393844
-0.23063697645636666 0.01641462994895603
-0.3181838635945086 0.01641462994895603
-0.2014546807436527 0.14958673649678894
-0.05554320218008279 0.3892965282828882
0.14873286780891506 0.655640741378554
0.4989204163614828 0.8820333225098699
0.7907433734886226 1.0817914823316193
0.8491079649140506 1.3481356954272852
0.6740141906377667 1.8142380683447004
0.5572850077869108 2.346926494536032
0.7323787820631946 2.8396632887630138
0.9658371477649065 3.3324000829899956
1.1117486263284764 3.771868034597844
0.9658371477649065 4.144749932931776
0.8782902606267645 4.557583463230058
0.8491079649140506 5.023685836147473
0.9950194434776205 5.556374262338805
1.4035715834556162 5.982525003291871
1.9872174977098958 6.075745477875353
2.7167748905277453 5.915938950017954
3.300420804782025 5.303347259897922
3.7673375361854484 4.251287618170043
3.6214260576218784 2.892932131382147
2.804321777665887 1.7210175937612173
1.0825663306157625 0.9353021651290031
-0.9018297778487881 0.4425653709020213
-2.2733976763463453 0.17622115780635553
-2.7694967034624827 0.04304905125852261
-2.623585224898913 0.01641462994895603
-2.2733976763463453 -0.06348863397974372
-1.8648455363683496 -0.19666074052757662
-1.4854756921030678 -0.28988121511105963
-1.047741256412358 -0.30319842576584294
-0.7851005949979323 -0.2765640044562764
-0.4932776378707925 -0.2765640044562764
-0.4349130464453645 -0.38310168969454267
-0.5516422292962204 -0.4763221642780257
-0.4640953421580785 -0.5429082175519422
-0.4932776378707925 -0.5429082175519422
-0.5224599335835065 -0.5295910068971589
-0.4640953421580785 -0.5429082175519422
-0.3181838635945086 -0.5828598495162921
-0.2890015678817946 -0.6494459027902085
-0.3473661593072226 -0.6627631134449918
-0.4057307507326505 -0.6228114814806419
-0.4057307507326505 -0.5828598495162921
-0.23063697645636666 -0.5828598495162921
-0.08472549789279676 -0.6094942708258586
-0.08472549789279676 -0.6094942708258586
-0.14309008931822473 -0.6361286921354252
-0.23063697645636666 -0.676080324099775
-0.1722723850309387 -0.6627631134449918
-0.23063697645636666 -0.6494459027902085
-0.05554320218008279 -0.676080324099775
-0.11390779360551075 -0.6627631134449918
-0.2014546807436527 -0.7027147454093416
-0.23063697645636666 -0.7027147454093416
-0.23063697645636666 -0.716031956064125
-0.14309008931822473 -0.6893975347545583
-0.08472549789279676 -0.7293491667189083
-0.02636090646736881 -0.7559835880284749
-0.14309008931822473 -0.7959352199928247
-0.2890015678817946 -0.7959352199928247
-0.23063697645636666 -0.7826180093380414
-0.23063697645636666 -0.7426663773736916
-0.02636090646736881 -0.7959352199928247
-0.05554320218008279 -0.8358868519571746
-0.11390779360551075 -0.8891556945763077
-0.14309008931822473 -0.8492040626119579
-0.1722723850309387 -0.7959352199928247
-0.05554320218008279 -0.7826180093380414
0.11955057209620108 -0.7959352199928247
0.03200368495805914 -0.8358868519571746
-0.02636090646736881 -0.8891556945763077
-0.02636090646736881 -0.8625212732667411
-0.08472549789279676 -0.8625212732667411
-0.02636090646736881 -0.8358868519571746
0.11955057209620108 -0.8358868519571746
0.14873286780891506 -0.8492040626119579
0.03200368495805914 -0.902472905231091
-0.05554320218008279 -0.8625212732667411
-0.05554320218008279 -0.8358868519571746
-0.05554320218008279 -0.7959352199928247
0.061185980670773125 -0.7693007986832581
0.061185980670773125 -0.8625212732667411
0.061185980670773125 -0.9157901158858743
0.0028213892453451675 -0.902472905231091
0.0028213892453451675 -0.902472905231091
0.061185980670773125 -0.8492040626119579
0.11955057209620108 -0.8891556945763077
0.17791516352162903 -0.8891556945763077
0.14873286780891506 -0.9157901158858743
0.061185980670773125 -0.902472905231091
0.0028213892453451675 -0.8891556945763077
0.17791516352162903 -0.8492040626119579
0.26546205065977097 -0.8625212732667411
0.29464434637248493 -0.8891556945763077
0.17791516352162903 -0.9291073265406576
0.17791516352162903 -0.902472905231091
0.32382664208519896 -0.8891556945763077
0.3821912335106269 -0.8625212732667411
0.41137352922334086 -0.8225696413023913
0.44055582493605483 -0.8358868519571746
0.44055582493605483 -0.8625212732667411
0.3821912335106269 -0.8625212732667411
0.41137352922334086 -0.8358868519571746
0.4989204163614828 -0.809252430647608
0.6156495992123387 -0.7693007986832581
0.6156495992123387 -0.716031956064125
0.5281027120741968 -0.716031956064125
0.4989204163614828 -0.676080324099775
0.5864673034996247 -0.6494459027902085
0.8782902606267645 -0.6627631134449918
0.9658371477649065 -0.676080324099775
0.9950194434776205 -0.6627631134449918
0.8782902606267645 -0.6094942708258586
0.8491079649140506 -0.5295910068971589
0.9658371477649065 -0.44968774296845915
1.1701132177539044 -0.4230533216588926
1.3452069920301881 -0.4097361110041093
1.2576601048920462 -0.3431500577301928
1.2576601048920462 -0.28988121511105963
1.2284778091793322 -0.17002631921801004
1.2868424006047603 -0.09012305528931029
1.4619361748810442 0.003097419294172739
1.5786653577319 0.01641462994895603
1.5786653577319 0.04304905125852261
1.4911184705937581 0.056366261913305904
1.43275387916833 0.09631789387765577
1.549483062019186 0.17622115780635553
1.43275387916833 0.2161727897707054
1.4911184705937581 0.2561244217350553
1.3452069920301881 0.1895383684611388
1.2284778091793322 0.12295231518722236
1.1117486263284764 0.10963510453243906
1.0242017391903344 0.13626952584200563
0.9950194434776205 0.2161727897707054
0.9658371477649065 0.20285557911592209
0.8491079649140506 0.13626952584200563
0.7031964863504807 0.0696834725680892
0.6156495992123387 0.056366261913305904
0.5864673034996247 0.09631789387765577
0.5281027120741968 0.12295231518722236
0.5281027120741968 0.12295231518722236
0.46973812064876885 0.0696834725680892
0.3530089377979129 0.056366261913305904
0.236279754947057 0.003097419294172739
0.20709745923434303 0.003097419294172739
0.20709745923434303 0.01641462994895603
0.17791516352162903 -0.023537002015393844
0.14873286780891506 -0.09012305528931029
0.03200368495805914 -0.18334352987279334
-0.11390779360551075 -0.19666074052757662
-0.02636090646736881 -0.15670910856322676
0.061185980670773125 -0.03685421267017713
0.0028213892453451675 -0.050171423324960426
-0.05554320218008279 -0.050171423324960426
-0.08472549789279676 -0.10344026594409358
-0.14309008931822473 -0.10344026594409358
-0.05554320218008279 -0.06348863397974372
0.0028213892453451675 -0.03685421267017713
0.11955057209620108 -0.03685421267017713
-0.02636090646736881 -0.076805844634527
0.03200368495805914 -0.10344026594409358
-0.1722723850309387 -0.06348863397974372
-0.05554320218008279 -0.050171423324960426
0.061185980670773125 -0.06348863397974372
-0.02636090646736881 -0.076805844634527
-0.02636090646736881 -0.050171423324960426
-0.11390779360551075 -0.076805844634527
-0.23063697645636666 -0.06348863397974372
-0.1722723850309387 -0.03685421267017713
-0.08472549789279676 -0.023537002015393844
0.0028213892453451675 -0.09012305528931029
-0.14309008931822473 -0.14339189790844345
-0.1722723850309387 -0.15670910856322676
-0.2890015678817946 -0.15670910856322676
-0.2014546807436527 -0.14339189790844345
-0.23063697645636666 -0.19666074052757662
-0.11390779360551075 -0.2632467938014931
-0.14309008931822473 -0.2765640044562764
-0.3181838635945086 -0.2232951618371432
-0.37654845501993656 -0.15670910856322676
-0.4057307507326505 -0.14339189790844345
-0.23063697645636666 -0.13007468725366017
-0.14309008931822473 -0.11675747659887688
-0.1722723850309387 -0.15670910856322676
-0.23063697645636666 -0.19666074052757662
-0.25981927216908063 -0.2099779511823599
-0.23063697645636666 -0.17002631921801004
-0.11390779360551075 -0.14339189790844345
-0.08472549789279676 -0.14339189790844345
-0.11390779360551075 -0.14339189790844345
-0.11390779360551075 -0.15670910856322676
-0.2890015678817946 -0.19666074052757662
-0.2014546807436527 -0.15670910856322676
-0.14309008931822473 -0.13007468725366017
-0.08472549789279676 -0.06348863397974372
-0.08472549789279676 -0.11675747659887688
-0.05554320218008279 -0.10344026594409358
-0.11390779360551075 -0.06348863397974372
-0.05554320218008279 -0.11675747659887688
0.061185980670773125 -0.15670910856322676
0.0903682763834871 -0.19666074052757662
-0.02636090646736881 -0.2366123724919265
-0.2014546807436527 -0.17002631921801004
-0.3181838635945086 -0.13007468725366017
-0.1722723850309387 -0.11675747659887688
-0.11390779360551075 -0.09012305528931029
0.03200368495805914 -0.13007468725366017
0.03200368495805914 -0.14339189790844345
-0.1722723850309387 -0.18334352987279334
-0.25981927216908063 -0.2099779511823599
-0.25981927216908063 -0.18334352987279334
-0.08472549789279676 -0.13007468725366017
-0.08472549789279676 -0.14339189790844345
-0.05554320218008279 -0.19666074052757662
-0.2014546807436527 -0.2366123724919265
-0.25981927216908063 -0.18334352987279334
-0.2890015678817946 -0.15670910856322676
-0.2014546807436527 -0.14339189790844345
-0.1722723850309387 -0.15670910856322676
-0.1722723850309387 -0.15670910856322676
-0.23063697645636666 -0.2232951618371432
-0.23063697645636666 -0.2099779511823599
-0.2014546807436527 -0.15670910856322676
-0.14309008931822473 -0.15670910856322676
-0.14309008931822473 -0.15670910856322676
-0.1722723850309387 -0.14339189790844345
-0.2890015678817946 -0.14339189790844345
-0.4057307507326505 -0.14339189790844345
-0.37654845501993656 -0.14339189790844345
-0.25981927216908063 -0.10344026594409358
-0.2890015678817946 -0.15670910856322676
-0.3181838635945086 -0.17002631921801004
-0.4349130464453645 -0.2499295831467098
-0.5224599335835065 -0.2632467938014931
-0.4057307507326505 -0.2632467938014931
-0.37654845501993656 -0.2099779511823599
-0.3181838635945086 -0.18334352987279334
-0.3473661593072226 -0.17002631921801004
-0.4349130464453645 -0.18334352987279334
-0.4640953421580785 -0.19666074052757662
-0.37654845501993656 -0.18334352987279334
-0.3181838635945086 -0.14339189790844345
-0.25981927216908063 -0.18334352987279334
-0.4057307507326505 -0.19666074052757662
-0.4349130464453645 -0.2366123724919265
-0.5224599335835065 -0.18334352987279334
-0.4932776378707925 -0.2099779511823599
-0.37654845501993656 -0.19666074052757662
-0.3181838635945086 -0.19666074052757662
-0.37654845501993656 -0.2099779511823599
-0.4349130464453645 -0.2499295831467098
-0.5224599335835065 -0.28988121511105963
-0.4932776378707925 -0.2632467938014931
-0.4640953421580785 -0.2232951618371432
-0.3473661593072226 -0.2099779511823599
-0.4057307507326505 -0.18334352987279334
-0.4349130464453645 -0.17002631921801004
-0.4057307507326505 -0.19666074052757662
-0.4640953421580785 -0.2232951618371432
-0.3181838635945086 -0.18334352987279334
-0.3181838635945086 -0.17002631921801004
-0.2890015678817946 -0.14339189790844345
-0.4349130464453645 -0.18334352987279334
-0.4640953421580785 -0.2099779511823599
-0.4932776378707925 -0.2232951618371432
-0.4932776378707925 -0.2499295831467098
-0.4349130464453645 -0.2366123724919265
-0.4349130464453645 -0.2232951618371432
-0.4640953421580785 -0.2632467938014931
-0.5224599335835065 -0.2632467938014931
-0.5224599335835065 -0.2099779511823599
-0.3181838635945086 -0.18334352987279334
-0.14309008931822473 -0.14339189790844345
-0.2014546807436527 -0.15670910856322676
-0.2890015678817946 -0.19666074052757662
-0.2890015678817946 -0.2099779511823599
-0.3181838635945086 -0.17002631921801004
-0.25981927216908063 -0.10344026594409358
-0.14309008931822473 -0.11675747659887688
-0.11390779360551075 -0.09012305528931029
-0.11390779360551075 -0.11675747659887688
-0.2014546807436527 -0.06348863397974372
-0.08472549789279676 -0.023537002015393844
0.03200368495805914 -0.023537002015393844
0.0028213892453451675 -0.023537002015393844
0.0903682763834871 -0.010219791360610552
0.0028213892453451675 -0.010219791360610552
-0.02636090646736881 -0.03685421267017713
-0.05554320218008279 -0.050171423324960426
-0.05554320218008279 -0.03685421267017713
-0.11390779360551075 -0.076805844634527
-0.1722723850309387 -0.10344026594409358
-0.3181838635945086 -0.09012305528931029
-0.4349130464453645 -0.076805844634527
-0.4057307507326505 -0.050171423324960426
-0.3181838635945086 -0.03685421267017713
-0.25981927216908063 -0.03685421267017713
-0.25981927216908063 -0.050171423324960426
-0.3181838635945086 -0.050171423324960426
-0.37654845501993656 -0.076805844634527
-0.3181838635945086 -0.023537002015393844
-0.1722723850309387 0.003097419294172739
-0.08472549789279676 0.01641462994895603
-0.05554320218008279 -0.076805844634527
-0.1722723850309387 -0.11675747659887688
-0.25981927216908063 -0.17002631921801004
-0.3181838635945086 -0.13007468725366017
-0.37654845501993656 -0.10344026594409358
-0.4057307507326505 -0.076805844634527
-0.5808245250089344 -0.14339189790844345
-0.5808245250089344 -0.2499295831467098
-0.6391891164343624 -0.2765640044562764
-0.6391891164343624 -0.2232951618371432
-0.6100068207216484 -0.18334352987279334
-0.5516422292962204 -0.2232951618371432
-0.5516422292962204 -0.2232951618371432
-0.5516422292962204 -0.2366123724919265
-0.6975537078597903 -0.2232951618371432
-0.5516422292962204 -0.17002631921801004
-0.5224599335835065 -0.15670910856322676
-0.4640953421580785 -0.17002631921801004
-0.5224599335835065 -0.18334352987279334
-0.6683714121470764 -0.2366123724919265
-0.7267360035725043 -0.2632467938014931
-0.6100068207216484 -0.19666074052757662
-0.5224599335835065 -0.17002631921801004
-0.5224599335835065 -0.18334352987279334
-0.5224599335835065 -0.2099779511823599
-0.5808245250089344 -0.2232951618371432
-0.5808245250089344 -0.2099779511823599
-0.5808245250089344 -0.18334352987279334
-0.5808245250089344 -0.13007468725366017
-0.5224599335835065 -0.15670910856322676
-0.5808245250089344 -0.15670910856322676
-0.6391891164343624 -0.14339189790844345
-0.6100068207216484 -0.09012305528931029
-0.5808245250089344 -0.023537002015393844
-0.4057307507326505 0.01641462994895603
-0.3181838635945086 0.04304905125852261
-0.23063697645636666 0.0696834725680892
-0.14309008931822473 0.1895383684611388
-0.11390779360551075 0.40261373893767144
0.11955057209620108 0.6689579520333373
0.44055582493605483 0.8953505331646532
0.7907433734886226 1.1750119569151023
0.8491079649140506 1.5478938552490344
0.6156495992123387 1.987361806856883
0.46973812064876885 2.506733022393431
0.46973812064876885 3.039421448584763
0.8491079649140506 3.5721098747760944
0.9950194434776205 3.99826061572916
0.8491079649140506 4.451045777991792
0.6740141906377667 4.8106104656709405
0.6448318949250527 5.290030049243139
0.9074725563394785 5.7561324221605545
1.3452069920301881 5.982525003291871
2.1623112719861797 5.902621739363171
2.833504073378601 5.409884945136189
3.2420562133565967 4.451045777991792
3.2420562133565967 3.1592763444778127
2.775139481953173 1.9607273855473164
1.753759132008184 1.1750119569151023
0.061185980670773125 0.655640741378554
-1.5730225792412098 0.3227104750089717
-2.477673746335343 0.0696834725680892
-2.681949816324341 -0.050171423324960426
-2.477673746335343 -0.09012305528931029
-2.0691216063573474 -0.06348863397974372
-1.7189340578047796 -0.09012305528931029
-1.2520173264013559 -0.10344026594409358
-0.8142828907106463 -0.15670910856322676
-0.5808245250089344 -0.2232951618371432
-0.4932776378707925 -0.2632467938014931
-0.3473661593072226 -0.30319842576584294
-0.2890015678817946 -0.43637053231367584
-0.2890015678817946 -0.46300495362324245
-0.4932776378707925 -0.489639374932809
-0.6391891164343624 -0.5029565855875923
-0.6100068207216484 -0.489639374932809
-0.4349130464453645 -0.46300495362324245
-0.3181838635945086 -0.44968774296845915
-0.37654845501993656 -0.5029565855875923
-0.3473661593072226 -0.5429082175519422
-0.37654845501993656 -0.5429082175519422
-0.25981927216908063 -0.5429082175519422
-0.1722723850309387 -0.5029565855875923
-0.11390779360551075 -0.5162737962423756
-0.11390779360551075 -0.5429082175519422
-0.23063697645636666 -0.5562254282067255
-0.2014546807436527 -0.5695426388615088
-0.2890015678817946 -0.6228114814806419
-0.05554320218008279 -0.5961770601710753
0.0028213892453451675 -0.5961770601710753
-0.11390779360551075 -0.6228114814806419
-0.1722723850309387 -0.676080324099775
-0.14309008931822473 -0.6228114814806419
-0.14309008931822473 -0.5562254282067255
-0.08472549789279676 -0.5828598495162921
0.0028213892453451675 -0.6094942708258586
-0.02636090646736881 -0.6494459027902085
-0.11390779360551075 -0.7027147454093416
-0.2014546807436527 -0.6627631134449918
-0.1722723850309387 -0.676080324099775
-0.05554320218008279 -0.6627631134449918
0.03200368495805914 -0.676080324099775
-0.08472549789279676 -0.7293491667189083
-0.08472549789279676 -0.7426663773736916
-0.14309008931822473 -0.7426663773736916
-0.11390779360551075 -0.7693007986832581
0.03200368495805914 -0.716031956064125
0.03200368495805914 -0.7293491667189083
-0.05554320218008279 -0.7559835880284749
-0.05554320218008279 -0.7826180093380414
-0.05554320218008279 -0.7826180093380414
-0.05554320218008279 -0.7293491667189083
0.0028213892453451675 -0.716031956064125
0.0903682763834871 -0.7293491667189083
0.061185980670773125 -0.7559835880284749
-0.08472549789279676 -0.7959352199928247
-0.14309008931822473 -0.7559835880284749
-0.05554320218008279 -0.6893975347545583
0.11955057209620108 -0.6627631134449918
0.20709745923434303 -0.676080324099775
0.11955057209620108 -0.7426663773736916
0.0903682763834871 -0.8225696413023913
0.0903682763834871 -0.8758384839215244
0.0903682763834871 -0.8225696413023913
0.11955057209620108 -0.7426663773736916
0.14873286780891506 -0.7293491667189083
0.11955057209620108 -0.7426663773736916
0.061185980670773125 -0.7693007986832581
0.061185980670773125 -0.8225696413023913
0.11955057209620108 -0.8492040626119579
0.20709745923434303 -0.8492040626119579
0.236279754947057 -0.8891556945763077
0.17791516352162903 -0.8891556945763077
0.14873286780891506 -0.8758384839215244
-0.02636090646736881 -0.8358868519571746
0.20709745923434303 -0.8225696413023913
0.32382664208519896 -0.7959352199928247
0.44055582493605483 -0.8225696413023913
0.3530089377979129 -0.7959352199928247
0.26546205065977097 -0.7559835880284749
0.26546205065977097 -0.7293491667189083
0.41137352922334086 -0.716031956064125
0.5864673034996247 -0.6494459027902085
0.7031964863504807 -0.6228114814806419
0.7615610777759086 -0.6494459027902085
0.7031964863504807 -0.7293491667189083
0.7031964863504807 -0.6893975347545583
0.7907433734886226 -0.5828598495162921
0.7615610777759086 -0.489639374932809
0.8782902606267645 -0.44968774296845915
1.0242017391903344 -0.43637053231367584
1.0242017391903344 -0.396418900349326
1.0825663306157625 -0.3431500577301928
1.1701132177539044 -0.2499295831467098
1.3160246963174742 -0.15670910856322676
1.4619361748810442 -0.076805844634527
1.4619361748810442 -0.050171423324960426
1.3452069920301881 -0.076805844634527
1.43275387916833 0.04304905125852261
1.4035715834556162 0.10963510453243906
1.4911184705937581 0.20285557911592209
1.43275387916833 0.20285557911592209
1.4035715834556162 0.24280721108027198
1.2868424006047603 0.20285557911592209
1.1701132177539044 0.2561244217350553
1.1701132177539044 0.3227104750089717
1.2576601048920462 0.3227104750089717
1.1117486263284764 0.3093932643541884
1.0242017391903344 0.26944163238983854
0.9074725563394785 0.20285557911592209
0.8199256692013366 0.2161727897707054
0.6740141906377667 0.20285557911592209
0.7031964863504807 0.26944163238983854
0.6156495992123387 0.1895383684611388
0.5281027120741968 0.1895383684611388
0.44055582493605483 0.13626952584200563
0.32382664208519896 0.13626952584200563
0.32382664208519896 0.13626952584200563
0.32382664208519896 0.10963510453243906
0.26546205065977097 0.08300068322287249
0.17791516352162903 0.02973184060373932
0.0903682763834871 0.02973184060373932
0.0028213892453451675 0.08300068322287249
-0.05554320218008279 0.10963510453243906
-0.02636090646736881 0.12295231518722236
0.0903682763834871 0.0696834725680892
-0.02636090646736881 0.04304905125852261
-0.05554320218008279 -0.010219791360610552
-0.2014546807436527 0.04304905125852261
-0.1722723850309387 0.04304905125852261
-0.08472549789279676 0.0696834725680892
0.03200368495805914 0.0696834725680892
-0.02636090646736881 0.01641462994895603
-0.11390779360551075 -0.03685421267017713
-0.2890015678817946 -0.050171423324960426
-0.23063697645636666 -0.010219791360610552
-0.2890015678817946 0.02973184060373932
-0.1722723850309387 0.003097419294172739
-0.2014546807436527 -0.010219791360610552
-0.3473661593072226 -0.050171423324960426
-0.2014546807436527 -0.03685421267017713
-0.23063697645636666 -0.010219791360610552
-0.23063697645636666 0.01641462994895603
-0.2014546807436527 0.003097419294172739
-0.14309008931822473 -0.050171423324960426
-0.37654845501993656 -0.09012305528931029
-0.3473661593072226 -0.09012305528931029
-0.2890015678817946 -0.050171423324960426
-0.2014546807436527 -0.010219791360610552
-0.1722723850309387 -0.050171423324960426
-0.25981927216908063 -0.09012305528931029
-0.23063697645636666 -0.15670910856322676
-0.37654845501993656 -0.19666074052757662
-0.4057307507326505 -0.19666074052757662
-0.4057307507326505 -0.14339189790844345
-0.23063697645636666 -0.14339189790844345
-0.23063697645636666 -0.18334352987279334
-0.3473661593072226 -0.19666074052757662
-0.3181838635945086 -0.18334352987279334
-0.25981927216908063 -0.13007468725366017
-0.2014546807436527 -0.11675747659887688
-0.23063697645636666 -0.13007468725366017
-0.2014546807436527 -0.15670910856322676
-0.25981927216908063 -0.14339189790844345
-0.3473661593072226 -0.18334352987279334
-0.2890015678817946 -0.15670910856322676
-0.23063697645636666 -0.17002631921801004
-0.2014546807436527 -0.17002631921801004
-0.25981927216908063 -0.17002631921801004
-0.23063697645636666 -0.14339189790844345
-0.2890015678817946 -0.076805844634527
-0.2890015678817946 0.01641462994895603
-0.08472549789279676 0.04304905125852261
-0.11390779360551075 -0.023537002015393844
-0.05554320218008279 -0.10344026594409358
-0.11390779360551075 -0.18334352987279334
-0.14309008931822473 -0.14339189790844345
-0.14309008931822473 -0.11675747659887688
-0.14309008931822473 -0.076805844634527
-0.08472549789279676 -0.09012305528931029
-0.11390779360551075 -0.09012305528931029
-0.1722723850309387 -0.10344026594409358
-0.11390779360551075 -0.10344026594409358
-0.11390779360551075 -0.10344026594409358
-0.11390779360551075 -0.050171423324960426
-0.08472549789279676 -0.06348863397974372
-0.11390779360551075 -0.09012305528931029
-0.23063697645636666 -0.10344026594409358
-0.23063697645636666 -0.076805844634527
-0.25981927216908063 0.01641462994895603
-0.11390779360551075 0.04304905125852261
-0.02636090646736881 -0.023537002015393844
-0.02636090646736881 -0.11675747659887688
-0.2014546807436527 -0.14339189790844345
-0.25981927216908063 -0.14339189790844345
-0.25981927216908063 -0.10344026594409358
-0.23063697645636666 -0.076805844634527
-0.23063697645636666 -0.03685421267017713
-0.23063697645636666 -0.050171423324960426
-0.3473661593072226 -0.06348863397974372
-0.3473661593072226 -0.09012305528931029
-0.3181838635945086 -0.14339189790844345
-0.25981927216908063 -0.17002631921801004
-0.2890015678817946 -0.15670910856322676
-0.37654845501993656 -0.14339189790844345
-0.5224599335835065 -0.13007468725366017
-0.5224599335835065 -0.10344026594409358
-0.4349130464453645 -0.09012305528931029
-0.37654845501993656 -0.050171423324960426
-0.3181838635945086 -0.050171423324960426
-0.3181838635945086 -0.076805844634527
-0.3473661593072226 -0.13007468725366017
-0.4640953421580785 -0.17002631921801004
-0.4057307507326505 -0.14339189790844345
-0.3473661593072226 -0.076805844634527
-0.25981927216908063 -0.10344026594409358
-0.3181838635945086 -0.11675747659887688
-0.37654845501993656 -0.14339189790844345
-0.4057307507326505 -0.11675747659887688
-0.4640953421580785 -0.10344026594409358
-0.3473661593072226 -0.06348863397974372
-0.3181838635945086 -0.076805844634527
-0.3473661593072226 -0.09012305528931029
-0.4640953421580785 -0.13007468725366017
-0.4932776378707925 -0.13007468725366017
-0.5516422292962204 -0.076805844634527
-0.4349130464453645 -0.050171423324960426
-0.4932776378707925 -0.03685421267017713
-0.5516422292962204 -0.10344026594409358
-0.6100068207216484 -0.14339189790844345
-0.5808245250089344 -0.18334352987279334
-0.4932776378707925 -0.17002631921801004
-0.4057307507326505 -0.17002631921801004
-0.4349130464453645 -0.076805844634527
-0.4932776378707925 -0.06348863397974372
-0.4932776378707925 -0.09012305528931029
-0.4349130464453645 -0.13007468725366017
-0.4057307507326505 -0.09012305528931029
-0.3473661593072226 -0.076805844634527
-0.25981927216908063 -0.13007468725366017
-0.3181838635945086 -0.17002631921801004
-0.4640953421580785 -0.19666074052757662
-0.5224599335835065 -0.13007468725366017
-0.4932776378707925 -0.050171423324960426
-0.4640953421580785 -0.03685421267017713
-0.3181838635945086 -0.050171423324960426
-0.4057307507326505 -0.09012305528931029
-0.4640953421580785 -0.17002631921801004
-0.5516422292962204 -0.18334352987279334
-0.5224599335835065 -0.15670910856322676
-0.3473661593072226 -0.13007468725366017
-0.3181838635945086 -0.076805844634527
-0.37654845501993656 -0.03685421267017713
-0.3181838635945086 -0.10344026594409358
-0.37654845501993656 -0.09012305528931029
-0.3181838635945086 -0.03685421267017713
-0.1722723850309387 0.02973184060373932
-0.2014546807436527 0.02973184060373932
-0.1722723850309387 0.04304905125852261
-0.1722723850309387 0.02973184060373932
-0.11390779360551075 0.056366261913305904
-0.08472549789279676 0.0696834725680892
-0.14309008931822473 0.04304905125852261
0.061185980670773125 0.02973184060373932
0.03200368495805914 0.003097419294172739
-0.1722723850309387 -0.023537002015393844
-0.23063697645636666 -0.03685421267017713
-0.2014546807436527 -0.010219791360610552
-0.1722723850309387 0.01641462994895603
-0.2014546807436527 0.04304905125852261
-0.25981927216908063 0.003097419294172739
-0.4640953421580785 -0.050171423324960426
-0.4640953421580785 -0.023537002015393844
-0.4349130464453645 -0.010219791360610552
-0.3181838635945086 0.003097419294172739
-0.3473661593072226 0.04304905125852261
-0.2890015678817946 0.0696834725680892
-0.3181838635945086 0.08300068322287249
-0.3181838635945086 0.09631789387765577
-0.23063697645636666 0.09631789387765577
-0.1722723850309387 0.0696834725680892
-0.08472549789279676 0.003097419294172739
-0.05554320218008279 -0.03685421267017713
-0.1722723850309387 -0.076805844634527
-0.3473661593072226 -0.11675747659887688
-0.37654845501993656 -0.09012305528931029
-0.4349130464453645 -0.03685421267017713
-0.4932776378707925 -0.06348863397974372
-0.5516422292962204 -0.076805844634527
-0.6391891164343624 -0.14339189790844345
-0.6391891164343624 -0.14339189790844345
-0.6391891164343624 -0.15670910856322676
-0.5516422292962204 -0.076805844634527
-0.5224599335835065 -0.10344026594409358
-0.5516422292962204 -0.10344026594409358
-0.6683714121470764 -0.13007468725366017
-0.6683714121470764 -0.15670910856322676
-0.6100068207216484 -0.09012305528931029
-0.4349130464453645 -0.076805844634527
-0.4640953421580785 -0.09012305528931029
-0.4640953421580785 -0.17002631921801004
-0.4932776378707925 -0.18334352987279334
-0.6391891164343624 -0.18334352987279334
-0.6100068207216484 -0.15670910856322676
-0.6100068207216484 -0.076805844634527
-0.4932776378707925 -0.11675747659887688
-0.5224599335835065 -0.13007468725366017
-0.6100068207216484 -0.17002631921801004
-0.5224599335835065 -0.11675747659887688
-0.5224599335835065 -0.06348863397974372
-0.4349130464453645 -0.06348863397974372
-0.4349130464453645 -0.076805844634527
-0.4640953421580785 -0.10344026594409358
-0.5516422292962204 -0.076805844634527
-0.5808245250089344 -0.10344026594409358
-0.5516422292962204 -0.06348863397974372
-0.4932776378707925 0.003097419294172739
-0.4057307507326505 0.01641462994895603
-0.3181838635945086 0.02973184060373932
-0.37654845501993656 0.14958673649678894
-0.37654845501993656 0.2561244217350553
-0.25981927216908063 0.42924816024723805
-0.02636090646736881 0.6423235307237707
0.29464434637248493 0.8287644798907368
0.5864673034996247 0.8953505331646532
0.8199256692013366 1.0951086929864027
0.7323787820631946 1.4546733806655514
0.6740141906377667 1.8941413322734
0.4989204163614828 2.3868781265003816
0.5281027120741968 2.86629771007258
0.7323787820631946 3.3856689256091284
0.8782902606267645 3.7851852452526273
0.8199256692013366 4.2246531968604755
0.7031964863504807 4.6641211484683245
0.7323787820631946 5.183492364004873
0.9074725563394785 5.662911947577071
1.2284778091793322 5.915938950017954
1.782941427720898 5.875987318053604
2.5416811162514614 5.489788209064889
3.125327030505741 4.637486727158758
3.329603100494739 3.412303346918695
2.921050960516743 2.120533913404716
1.666212244870042 1.161694746260319
-0.14309008931822473 0.655640741378554
-1.7772986492302076 0.3626621069733216
-2.536038337760771 0.20285557911592209
-2.7403144077497688 0.13626952584200563
-2.360944563484487 0.04304905125852261
-2.1274861977827753 -0.03685421267017713
-1.7481163535174935 -0.14339189790844345
-1.3687465092522118 -0.18334352987279334
-0.9601943692742162 -0.18334352987279334
-0.6391891164343624 -0.15670910856322676
-0.5516422292962204 -0.2499295831467098
-0.4640953421580785 -0.30319842576584294
-0.4932776378707925 -0.38310168969454267
-0.5516422292962204 -0.3697844790397594
-0.6100068207216484 -0.32983284707540955
-0.37654845501993656 -0.31651563642062625
-0.3473661593072226 -0.3431500577301928
-0.23063697645636666 -0.3431500577301928
-0.37654845501993656 -0.38310168969454267
-0.3181838635945086 -0.44968774296845915
-0.4057307507326505 -0.4763221642780257
-0.23063697645636666 -0.5029565855875923
-0.25981927216908063 -0.44968774296845915
-0.3181838635945086 -0.5029565855875923
-0.37654845501993656 -0.5295910068971589
-0.37654845501993656 -0.5162737962423756
-0.4057307507326505 -0.44968774296845915
-0.2014546807436527 -0.43637053231367584
-0.14309008931822473 -0.5029565855875923
-0.2014546807436527 -0.5162737962423756
-0.23063697645636666 -0.5429082175519422
-0.2890015678817946 -0.5429082175519422
-0.2014546807436527 -0.5029565855875923
-0.2014546807436527 -0.5162737962423756
-0.02636090646736881 -0.5295910068971589
-0.11390779360551075 -0.6228114814806419
-0.1722723850309387 -0.5828598495162921
-0.25981927216908063 -0.5562254282067255
-0.23063697645636666 -0.5162737962423756
-0.1722723850309387 -0.5295910068971589
-0.05554320218008279 -0.5961770601710753
0.0028213892453451675 -0.676080324099775
-0.11390779360551075 -0.716031956064125
-0.1722723850309387 -0.6627631134449918
-0.11390779360551075 -0.6094942708258586
-0.11390779360551075 -0.5695426388615088
-0.02636090646736881 -0.6094942708258586
-0.05554320218008279 -0.6361286921354252
-0.2014546807436527 -0.6893975347545583
-0.23063697645636666 -0.676080324099775
-0.2014546807436527 -0.6094942708258586
-0.08472549789279676 -0.6627631134449918
-0.08472549789279676 -0.6627631134449918
-0.11390779360551075 -0.716031956064125
-0.1722723850309387 -0.7293491667189083
-0.1722723850309387 -0.676080324099775
-0.1722723850309387 -0.6228114814806419
-0.05554320218008279 -0.5695426388615088
0.11955057209620108 -0.5961770601710753
0.061185980670773125 -0.6627631134449918
0.0028213892453451675 -0.716031956064125
0.0028213892453451675 -0.7693007986832581
-0.05554320218008279 -0.7426663773736916
0.03200368495805914 -0.676080324099775
0.11955057209620108 -0.676080324099775
0.061185980670773125 -0.716031956064125
0.11955057209620108 -0.7693007986832581
0.0903682763834871 -0.809252430647608
0.061185980670773125 -0.7693007986832581
0.14873286780891506 -0.716031956064125
0.20709745923434303 -0.716031956064125
0.17791516352162903 -0.7293491667189083
0.20709745923434303 -0.7426663773736916
0.14873286780891506 -0.7293491667189083
0.20709745923434303 -0.6627631134449918
0.29464434637248493 -0.6494459027902085
0.41137352922334086 -0.6494459027902085
0.3530089377979129 -0.6627631134449918
0.3530089377979129 -0.6627631134449918
0.3821912335106269 -0.6361286921354252
0.46973812064876885 -0.5162737962423756
0.6448318949250527 -0.43637053231367584
0.7615610777759086 -0.3697844790397594
0.8199256692013366 -0.38310168969454267
0.8491079649140506 -0.4230533216588926
0.8782902606267645 -0.38310168969454267
0.8782902606267645 -0.3697844790397594
0.9950194434776205 -0.28988121511105963
1.1701132177539044 -0.15670910856322676
1.1409309220411903 -0.09012305528931029
1.1409309220411903 -0.010219791360610552
1.1992955134666183 0.0696834725680892
1.2868424006047603 0.13626952584200563
1.3743892877429023 0.20285557911592209
1.4619361748810442 0.2161727897707054
1.4619361748810442 0.1895383684611388
1.3743892877429023 0.14958673649678894
1.2284778091793322 0.20285557911592209
1.1992955134666183 0.22949000042548867
1.1409309220411903 0.3093932643541884
1.0825663306157625 0.26944163238983854
1.0533840349030483 0.2561244217350553
0.9658371477649065 0.22949000042548867
0.7615610777759086 0.22949000042548867
0.7615610777759086 0.2561244217350553
0.7907433734886226 0.26944163238983854
0.7615610777759086 0.22949000042548867
0.6740141906377667 0.1895383684611388
0.41137352922334086 0.1895383684611388
0.29464434637248493 0.16290394715157222
0.17791516352162903 0.1895383684611388
0.236279754947057 0.2161727897707054
0.32382664208519896 0.16290394715157222
0.236279754947057 0.14958673649678894
0.0903682763834871 0.12295231518722236
-0.05554320218008279 0.10963510453243906
0.0028213892453451675 0.14958673649678894
0.061185980670773125 0.14958673649678894
0.061185980670773125 0.09631789387765577
0.0028213892453451675 0.08300068322287249
-0.11390779360551075 0.02973184060373932
-0.14309008931822473 0.02973184060373932
-0.2890015678817946 0.003097419294172739
-0.2014546807436527 0.04304905125852261
-0.14309008931822473 0.02973184060373932
-0.1722723850309387 0.056366261913305904
-0.3473661593072226 0.01641462994895603
-0.37654845501993656 0.01641462994895603
-0.3473661593072226 0.02973184060373932
-0.1722723850309387 0.0696834725680892
-0.14309008931822473 0.04304905125852261
-0.23063697645636666 0.02973184060373932
-0.3473661593072226 0.003097419294172739
-0.37654845501993656 0.01641462994895603
-0.37654845501993656 0.003097419294172739
-0.25981927216908063 0.02973184060373932
-0.1722723850309387 -0.010219791360610552
-0.25981927216908063 0.01641462994895603
-0.4349130464453645 -0.023537002015393844
-0.4349130464453645 -0.023537002015393844
-0.4349130464453645 -0.010219791360610552
-0.25981927216908063 0.01641462994895603
-0.23063697645636666 0.01641462994895603
-0.37654845501993656 -0.03685421267017713
-0.3473661593072226 -0.076805844634527
-0.4640953421580785 -0.076805844634527
-0.37654845501993656 -0.023537002015393844
-0.3473661593072226 0.02973184060373932
-0.25981927216908063 -0.010219791360610552
-0.3181838635945086 -0.050171423324960426
-0.4349130464453645 -0.03685421267017713
-0.4349130464453645 -0.023537002015393844
-0.4057307507326505 -0.023537002015393844
-0.3181838635945086 -0.023537002015393844
-0.23063697645636666 -0.03685421267017713
-0.23063697645636666 -0.03685421267017713
-0.2890015678817946 -0.03685421267017713
-0.4057307507326505 -0.010219791360610552
-0.3473661593072226 -0.03685421267017713
-0.14309008931822473 0.01641462994895603
-0.08472549789279676 0.02973184060373932
-0.1722723850309387 -0.03685421267017713
-0.3181838635945086 -0.076805844634527
-0.2890015678817946 -0.09012305528931029
-0.2890015678817946 -0.023537002015393844
-0.2014546807436527 0.02973184060373932
-0.14309008931822473 0.056366261913305904
-0.2014546807436527 0.01641462994895603
-0.25981927216908063 0.02973184060373932
-0.2890015678817946 -0.050171423324960426
-0.2890015678817946 -0.023537002015393844
-0.25981927216908063 -0.023537002015393844
-0.2890015678817946 0.01641462994895603
-0.25981927216908063 -0.023537002015393844
-0.37654845501993656 -0.023537002015393844
-0.4057307507326505 0.01641462994895603
-0.37654845501993656 0.01641462994895603
-0.2890015678817946 0.02973184060373932
-0.3181838635945086 -0.010219791360610552
-0.37654845501993656 -0.06348863397974372
-0.4932776378707925 -0.10344026594409358
-0.5224599335835065 -0.050171423324960426
-0.4349130464453645 0.003097419294172739
-0.3473661593072226 0.02973184060373932
-0.3473661593072226 -0.023537002015393844
-0.3473661593072226 -0.076805844634527
-0.4057307507326505 -0.06348863397974372
-0.4349130464453645 -0.06348863397974372
-0.37654845501993656 -0.050171423324960426
-0.3181838635945086 -0.010219791360610552
-0.2890015678817946 -0.023537002015393844
-0.3473661593072226 0.003097419294172739
-0.5224599335835065 -0.023537002015393844
-0.5224599335835065 -0.023537002015393844
-0.37654845501993656 -0.050171423324960426
-0.2890015678817946 -0.03685421267017713
-0.2890015678817946 -0.06348863397974372
-0.4349130464453645 -0.03685421267017713
-0.5808245250089344 -0.09012305528931029
-0.6683714121470764 -0.076805844634527
-0.5516422292962204 -0.06348863397974372
-0.4349130464453645 -0.050171423324960426
-0.4349130464453645 -0.010219791360610552
-0.4640953421580785 -0.050171423324960426
-0.5516422292962204 -0.09012305528931029
-0.6391891164343624 -0.050171423324960426
-0.5808245250089344 -0.076805844634527
-0.5224599335835065 -0.050171423324960426
-0.4932776378707925 -0.076805844634527
-0.6100068207216484 -0.10344026594409358
-0.6100068207216484 -0.11675747659887688
-0.6683714121470764 -0.10344026594409358
-0.6100068207216484 -0.076805844634527
-0.5224599335835065 -0.023537002015393844
-0.5224599335835065 -0.09012305528931029
-0.5224599335835065 -0.076805844634527
-0.6683714121470764 -0.11675747659887688
-0.6683714121470764 -0.13007468725366017
-0.6975537078597903 -0.13007468725366017
-0.5516422292962204 -0.050171423324960426
-0.4640953421580785 -0.06348863397974372
-0.5516422292962204 -0.13007468725366017
-0.5808245250089344 -0.17002631921801004
-0.5808245250089344 -0.15670910856322676
-0.5808245250089344 -0.09012305528931029
-0.4640953421580785 -0.076805844634527
-0.5224599335835065 -0.11675747659887688
-0.6100068207216484 -0.11675747659887688
-0.6391891164343624 -0.14339189790844345
-0.6391891164343624 -0.13007468725366017
-0.6391891164343624 -0.09012305528931029
-0.4932776378707925 -0.050171423324960426
-0.4640953421580785 -0.09012305528931029
-0.5224599335835065 -0.14339189790844345
-0.6975537078597903 -0.15670910856322676
-0.6975537078597903 -0.15670910856322676
-0.6975537078597903 -0.09012305528931029
-0.6975537078597903 -0.06348863397974372
-0.5808245250089344 -0.050171423324960426
-0.6975537078597903 -0.076805844634527
-0.7559182992852183 -0.11675747659887688
-0.6975537078597903 -0.14339189790844345
-0.6100068207216484 -0.10344026594409358
-0.5516422292962204 -0.09012305528931029
-0.5224599335835065 -0.06348863397974372
-0.5808245250089344 -0.14339189790844345
-0.6100068207216484 -0.18334352987279334
-0.6391891164343624 -0.2099779511823599
-0.6100068207216484 -0.18334352987279334
-0.4640953421580785 -0.13007468725366017
-0.4057307507326505 -0.09012305528931029
-0.4057307507326505 -0.11675747659887688
-0.4349130464453645 -0.10344026594409358
-0.4349130464453645 -0.06348863397974372
-0.3181838635945086 -0.03685421267017713
-0.2890015678817946 0.003097419294172739
-0.23063697645636666 -0.023537002015393844
-0.3473661593072226 -0.03685421267017713
-0.3473661593072226 -0.03685421267017713
-0.3473661593072226 -0.050171423324960426
-0.3181838635945086 0.01641462994895603
-0.1722723850309387 0.0696834725680892
-0.08472549789279676 0.08300068322287249
-0.14309008931822473 0.056366261913305904
-0.1722723850309387 0.02973184060373932
-0.2014546807436527 0.003097419294172739
-0.25981927216908063 0.0696834725680892
-0.14309008931822473 0.04304905125852261
-0.25981927216908063 0.003097419294172739
-0.37654845501993656 -0.050171423324960426
-0.4057307507326505 -0.050171423324960426
-0.4932776378707925 -0.03685421267017713
-0.4057307507326505 0.003097419294172739
-0.3473661593072226 0.056366261913305904
-0.2890015678817946 0.04304905125852261
-0.37654845501993656 0.0696834725680892
-0.4057307507326505 0.056366261913305904
-0.4349130464453645 0.04304905125852261
-0.4057307507326505 0.0696834725680892
-0.2890015678817946 0.056366261913305904
-0.2014546807436527 0.01641462994895603
-0.25981927216908063 -0.023537002015393844
-0.3473661593072226 -0.023537002015393844
-0.3473661593072226 -0.010219791360610552
-0.25981927216908063 -0.010219791360610552
-0.23063697645636666 -0.010219791360610552
-0.3181838635945086 -0.076805844634527
-0.4640953421580785 -0.076805844634527
-0.6391891164343624 -0.18334352987279334
-0.7851005949979323 -0.15670910856322676
-0.7559182992852183 -0.13007468725366017
-0.6683714121470764 -0.076805844634527
-0.6391891164343624 -0.11675747659887688
-0.5808245250089344 -0.17002631921801004
-0.6975537078597903 -0.19666074052757662
-0.6683714121470764 -0.18334352987279334
-0.6975537078597903 -0.15670910856322676
-0.5516422292962204 -0.06348863397974372
-0.5516422292962204 -0.09012305528931029
-0.5224599335835065 -0.14339189790844345
-0.6975537078597903 -0.15670910856322676
-0.6975537078597903 -0.14339189790844345
-0.6391891164343624 -0.09012305528931029
-0.5224599335835065 -0.050171423324960426
-0.5224599335835065 -0.10344026594409358
-0.6683714121470764 -0.13007468725366017
-0.6975537078597903 -0.17002631921801004
-0.6683714121470764 -0.17002631921801004
-0.6391891164343624 -0.17002631921801004
-0.5808245250089344 -0.11675747659887688
-0.6975537078597903 -0.19666074052757662
-0.6683714121470764 -0.18334352987279334
-0.7559182992852183 -0.2099779511823599
-0.7267360035725043 -0.17002631921801004
-0.6683714121470764 -0.11675747659887688
-0.5808245250089344 -0.06348863397974372
-0.4640953421580785 -0.03685421267017713
-0.5516422292962204 -0.050171423324960426
-0.5808245250089344 -0.023537002015393844
-0.5516422292962204 0.056366261913305904
-0.4349130464453645 0.16290394715157222
-0.25981927216908063 0.336027685663755
-0.14309008931822473 0.4825170028663712
0.061185980670773125 0.6156891094142041
0.20709745923434303 0.8021300585811701
0.44055582493605483 1.0951086929864027
0.6448318949250527 1.481307801975118
0.6740141906377667 1.9474101748925332
0.5572850077869108 2.4534641797742984
0.5572850077869108 2.9195665526917134
0.4989204163614828 3.359034504299562
0.5864673034996247 3.8118196665621937
0.44055582493605483 4.2379704075152596
0.32382664208519896 4.783976044361374
0.236279754947057 5.303347259897922
0.3821912335106269 5.689546368886638
0.9074725563394785 5.729498000850988
1.782941427720898 5.303347259897922
2.6875925948150314 4.397776935372659
3.066962439080313 3.0127870272751966
2.6000457076768893 1.7210175937612173
1.2868424006047603 0.8953505331646532
-0.6683714121470764 0.4425653709020213
-2.1274861977827753 0.22949000042548867
-2.594402929186199 0.0696834725680892
-2.506856042048057 0.01641462994895603
-2.1274861977827753 -0.023537002015393844
-1.6897517620920657 -0.13007468725366017
-1.2520173264013559 -0.18334352987279334
-0.9601943692742162 -0.19666074052757662
-0.6975537078597903 -0.19666074052757662
-0.5516422292962204 -0.2366123724919265
-0.4932776378707925 -0.32983284707540955
-0.4932776378707925 -0.43637053231367584
-0.4640953421580785 -0.4763221642780257
-0.5516422292962204 -0.489639374932809
-0.5224599335835065 -0.43637053231367584
-0.4057307507326505 -0.3697844790397594
-0.3473661593072226 -0.3564672683849761
-0.37654845501993656 -0.44968774296845915
-0.4057307507326505 -0.5295910068971589
-0.37654845501993656 -0.5828598495162921
-0.3473661593072226 -0.5695426388615088
-0.2890015678817946 -0.5295910068971589
-0.3473661593072226 -0.5295910068971589
-0.37654845501993656 -0.5429082175519422
-0.4057307507326505 -0.5562254282067255
-0.5224599335835065 -0.5429082175519422
-0.3473661593072226 -0.5162737962423756
-0.23063697645636666 -0.5162737962423756
-0.2014546807436527 -0.5828598495162921
-0.25981927216908063 -0.6627631134449918
-0.4057307507326505 -0.676080324099775
-0.37654845501993656 -0.6627631134449918
-0.37654845501993656 -0.5828598495162921
-0.23063697645636666 -0.5295910068971589
-0.14309008931822473 -0.5828598495162921
-0.2014546807436527 -0.6094942708258586
-0.2014546807436527 -0.6494459027902085
-0.25981927216908063 -0.6361286921354252
-0.2014546807436527 -0.6361286921354252
-0.11390779360551075 -0.5961770601710753
-0.05554320218008279 -0.6361286921354252
-0.2014546807436527 -0.6627631134449918
-0.25981927216908063 -0.6893975347545583
-0.2014546807436527 -0.6627631134449918
-0.14309008931822473 -0.676080324099775
-0.08472549789279676 -0.6228114814806419
0.03200368495805914 -0.7027147454093416
-0.05554320218008279 -0.7027147454093416
-0.14309008931822473 -0.6893975347545583
-0.23063697645636666 -0.7293491667189083
-0.14309008931822473 -0.676080324099775
0.0028213892453451675 -0.6494459027902085
0.061185980670773125 -0.6361286921354252
0.061185980670773125 -0.676080324099775
-0.08472549789279676 -0.7027147454093416
-0.02636090646736881 -0.7027147454093416
-0.1722723850309387 -0.7293491667189083
-0.05554320218008279 -0.7293491667189083
-0.02636090646736881 -0.7293491667189083
-0.11390779360551075 -0.7027147454093416
-0.1722723850309387 -0.676080324099775
-0.14309008931822473 -0.6893975347545583
-0.08472549789279676 -0.6627631134449918
0.0903682763834871 -0.676080324099775
0.14873286780891506 -0.716031956064125
0.11955057209620108 -0.7959352199928247
0.061185980670773125 -0.7959352199928247
-0.14309008931822473 -0.7693007986832581
-0.1722723850309387 -0.7426663773736916
-0.02636090646736881 -0.716031956064125
0.061185980670773125 -0.7293491667189083
0.11955057209620108 -0.6893975347545583
0.0903682763834871 -0.7027147454093416
0.0028213892453451675 -0.6361286921354252
0.0903682763834871 -0.5695426388615088
0.236279754947057 -0.5961770601710753
0.3530089377979129 -0.6627631134449918
0.29464434637248493 -0.7293491667189083
0.236279754947057 -0.7426663773736916
0.3530089377979129 -0.676080324099775
0.3530089377979129 -0.5562254282067255
0.46973812064876885 -0.44968774296845915
0.46973812064876885 -0.43637053231367584
0.4989204163614828 -0.5295910068971589
0.5281027120741968 -0.5828598495162921
0.6448318949250527 -0.5828598495162921
0.5864673034996247 -0.5429082175519422
0.6740141906377667 -0.38310168969454267
0.7323787820631946 -0.32983284707540955
0.6740141906377667 -0.31651563642062625
0.7323787820631946 -0.32983284707540955
0.7323787820631946 -0.2499295831467098
0.8491079649140506 -0.18334352987279334
0.9366548520521925 -0.10344026594409358
0.9950194434776205 -0.10344026594409358
0.9658371477649065 -0.10344026594409358
0.9074725563394785 -0.10344026594409358
0.9366548520521925 -0.03685421267017713
0.9950194434776205 0.056366261913305904
1.1117486263284764 0.14958673649678894
1.1701132177539044 0.20285557911592209
0.9658371477649065 0.2161727897707054
0.9658371477649065 0.16290394715157222
0.7615610777759086 0.16290394715157222
0.7907433734886226 0.2161727897707054
0.8199256692013366 0.22949000042548867
0.7615610777759086 0.20285557911592209
0.6448318949250527 0.17622115780635553
0.5864673034996247 0.13626952584200563
0.44055582493605483 0.12295231518722236
0.41137352922334086 0.12295231518722236
0.3821912335106269 0.22949000042548867
0.3530089377979129 0.17622115780635553
0.29464434637248493 0.10963510453243906
0.11955057209620108 0.056366261913305904
0.061185980670773125 0.003097419294172739
0.0028213892453451675 -0.010219791360610552
-0.05554320218008279 0.003097419294172739
-0.11390779360551075 -0.010219791360610552
-0.25981927216908063 -0.050171423324960426
-0.2890015678817946 -0.076805844634527
-0.3473661593072226 -0.06348863397974372
-0.37654845501993656 -0.050171423324960426
-0.2890015678817946 -0.023537002015393844
-0.2890015678817946 -0.03685421267017713
-0.25981927216908063 -0.03685421267017713
-0.3181838635945086 -0.076805844634527
-0.4349130464453645 -0.09012305528931029
-0.4640953421580785 -0.10344026594409358
-0.37654845501993656 -0.10344026594409358
-0.2890015678817946 -0.11675747659887688
-0.37654845501993656 -0.15670910856322676
-0.4932776378707925 -0.19666074052757662
-0.5224599335835065 -0.15670910856322676
-0.4640953421580785 -0.14339189790844345
-0.4349130464453645 -0.11675747659887688
-0.37654845501993656 -0.13007468725366017
-0.4640953421580785 -0.17002631921801004
-0.5808245250089344 -0.18334352987279334
-0.6100068207216484 -0.11675747659887688
-0.5516422292962204 -0.09012305528931029
-0.4349130464453645 -0.10344026594409358
-0.3181838635945086 -0.19666074052757662
-0.4057307507326505 -0.28988121511105963
-0.5516422292962204 -0.2765640044562764
-0.6100068207216484 -0.2366123724919265
-0.6391891164343624 -0.17002631921801004
-0.5516422292962204 -0.14339189790844345
-0.5808245250089344 -0.17002631921801004
-0.5224599335835065 -0.2232951618371432
-0.5224599335835065 -0.2499295831467098
-0.6100068207216484 -0.2499295831467098
-0.4932776378707925 -0.2232951618371432
